
Integration time [ms]: 100.000
Averaging Nr. [scans]: 40
Smoothing Nr. [pixels]: 0
Data measured with spectrometer [name]: 2101012U2
Wave   ;Sample   ;Dark     ;Reference
[nm]   ;[counts] ;[counts] ;[counts] 

197.733;   58.600;  516.000;  404.000
197.879;  -85.850; -610.000; -634.000
198.025;  -49.850; -475.000; -420.000
198.171;  -58.375; -602.000; -612.000
198.317;  -21.875; -401.000; -316.000
198.463;  -61.150; -655.000; -404.000
198.609;   32.100;  181.000; -137.000
198.755;  -83.725; -644.000; -410.000
198.901;  -61.025; -505.000; -424.000
199.047;  -67.500; -615.000; -488.000
199.193;  -27.250; -230.000; -468.000
199.339;  -39.225; -222.000; -369.000
199.485;   40.575;  330.000;  271.000
199.631;    6.075;  227.000;  310.000
199.777;  -47.025; -466.000; -398.000
199.923;  -58.075; -610.000; -424.000
200.069;   14.025; -141.000;  -58.000
200.215;   48.200;  128.000;  453.000
200.361;   35.425;  243.000;  477.000
200.507;  -44.375; -600.000; -373.000
200.653;  -18.750; -371.000; -194.000
200.798;  -34.675; -215.000; -125.000
200.944;    5.650; -146.000;  -41.000
201.090;   29.675;   61.000;  222.000
201.236;    8.200; -116.000; -158.000
201.382;  121.825;  874.000;  903.000
201.528;    3.075;  -58.000;  -48.000
201.674;  -53.800; -386.000; -293.000
201.819;  -54.925; -540.000; -439.000
201.965;  -78.450; -699.000; -447.000
202.111;  -20.225; -273.000; -226.000
202.257;  -54.850; -250.000; -238.000
202.402;   17.475;   13.000;  -36.000
202.548;  -21.650; -169.000; -116.000
202.694;   80.675;  410.000; -183.000
202.840;  -76.775; -603.000; -531.000
202.985;  -69.200; -681.000; -639.000
203.131; -107.900; -832.000; -666.000
203.277;  -17.050; -199.000; -262.000
203.423;  -52.175; -434.000; -520.000
203.568;  -25.550; -462.000; -237.000
203.714;  -62.700; -535.000; -542.000
203.860;  -68.850; -682.000; -641.000
204.005;   14.900;  112.000;  167.000
204.151;   73.625;  561.000;  556.000
204.296;  -42.375; -354.000; -221.000
204.442;  -61.075; -600.000; -547.000
204.588;  -77.375; -592.000; -579.000
204.733;   26.850;  178.000;  168.000
204.879; -122.900;-1018.000; -822.000
205.025;   11.350;  -99.000;  126.000
205.170;   -4.175;  -17.000;   94.000
205.316;   77.275;  438.000;  661.000
205.461;  -77.425; -698.000; -554.000
205.607;   93.725;  609.000;  665.000
205.752;  -70.975; -626.000; -551.000
205.898;  -49.925; -501.000; -391.000
206.043;  -71.150; -578.000; -506.000
206.189;  -30.600; -243.000; -285.000
206.334;   64.975;  554.000;  606.000
206.480;   84.875;  409.000;  239.000
206.625;  -79.025; -529.000; -552.000
206.771;  -30.150; -451.000; -373.000
206.916;  -36.250; -210.000; -537.000
207.062;  -50.925; -545.000; -591.000
207.207;  -70.900; -546.000; -443.000
207.353;   57.425;  185.000;  460.000
207.498;   12.575;  196.000;   85.000
207.643;  -35.125; -501.000; -370.000
207.789; -125.400;-1069.000; -910.000
207.934;  -81.275; -665.000; -713.000
208.080;  -18.875; -154.000;   66.000
208.225;    1.925;  -22.000;  -57.000
208.370;  -87.125; -727.000; -619.000
208.516;  -71.225; -741.000; -487.000
208.661;  -32.075; -127.000;  -69.000
208.806;  -15.400; -165.000; -171.000
208.952; -110.950;-1044.000; -731.000
209.097;   79.550;  378.000;  349.000
209.242;  -45.975; -307.000; -382.000
209.387;   67.225;  392.000;  350.000
209.533;  -47.300; -321.000; -350.000
209.678;   85.625;  472.000;  543.000
209.823;  -55.075; -408.000; -310.000
209.969;  -83.475; -860.000; -757.000
210.114;  -97.025; -907.000; -719.000
210.259; -112.400; -939.000; -889.000
210.404;   -8.950; -171.000;  103.000
210.549;   14.575;  108.000;    3.000
210.695;  -13.800;   -3.000;  -95.000
210.840;   20.175;   94.000;   67.000
210.985;  -67.725; -484.000; -303.000
211.130;   71.950;  268.000;  406.000
211.275;   13.300;  207.000;  199.000
211.420;  -47.675; -300.000; -289.000
211.566;  -62.300; -536.000; -489.000
211.711;   32.900;  218.000;  157.000
211.856;  -71.250; -545.000; -519.000
212.001;   16.275;  151.000;   44.000
212.146;   11.225;  153.000;   49.000
212.291;  -23.275; -210.000; -186.000
212.436;  -24.525; -280.000;   -6.000
212.581;  -84.175; -685.000; -653.000
212.726;  -76.750; -487.000; -538.000
212.871;  -46.950; -552.000; -217.000
213.016; -134.800;-1172.000;-1029.000
213.161;   76.275;  406.000;  291.000
213.306;  -82.850; -435.000; -577.000
213.451;  -84.375; -778.000; -689.000
213.596;  -51.075; -455.000; -347.000
213.741;  -52.500; -448.000; -538.000
213.886;  -74.550; -498.000; -517.000
214.031;   -8.175; -294.000; -124.000
214.176;  -58.350; -408.000; -341.000
214.321;  -13.950; -296.000; -157.000
214.466;  -21.675; -163.000;  -43.000
214.611;    5.950;  -61.000;  -10.000
214.756; -121.050; -948.000; -858.000
214.901;  -12.800; -388.000; -226.000
215.046; -112.575; -797.000; -825.000
215.191;   21.625;  128.000;   35.000
215.336;   -8.375; -157.000;  -19.000
215.480;  -59.525; -684.000; -505.000
215.625;  -11.050; -175.000;  -19.000
215.770;  -78.750; -757.000; -662.000
215.915;   -7.275;   -5.000;  -97.000
216.060;  -13.475; -113.000;  -21.000
216.205; -107.325; -731.000; -779.000
216.349;  -61.775; -470.000; -533.000
216.494; -135.650; -939.000; -867.000
216.639; -104.375; -823.000; -888.000
216.784;  -86.450; -577.000; -525.000
216.929;   58.800;  392.000;  281.000
217.073;  -23.425; -244.000;  -31.000
217.218;   16.550;   78.000;  -47.000
217.363;  -93.200; -656.000; -618.000
217.507;  -78.350; -623.000; -588.000
217.652; -121.650; -845.000; -874.000
217.797;  -76.400; -708.000; -659.000
217.942; -108.050; -856.000; -720.000
218.086;   79.875;  608.000;  539.000
218.231;  -30.475; -174.000;  -26.000
218.376;  -26.475; -337.000; -229.000
218.520;   -1.975;  -41.000;   96.000
218.665;  -25.250; -338.000; -204.000
218.810;  -44.875; -275.000; -233.000
218.954;   25.225;  201.000;   35.000
219.099; -108.900; -713.000; -963.000
219.243;  -73.375; -589.000; -554.000
219.388;  -50.475; -264.000; -136.000
219.532;   -4.550; -116.000; -116.000
219.677;  -69.575; -564.000; -521.000
219.822;    8.100;   33.000;   89.000
219.966;   -7.025;   17.000;  -99.000
220.111;  -30.350; -328.000;  -40.000
220.255;  -85.100; -797.000; -750.000
220.400;  -11.750; -180.000; -146.000
220.544;  -67.250; -516.000; -450.000
220.689;  -47.475; -422.000; -451.000
220.833;  -21.100; -123.000;  -58.000
220.978;  -32.500; -393.000; -563.000
221.122;   25.300;  319.000;  307.000
221.267; -106.825; -906.000; -837.000
221.411;  -63.375; -478.000; -394.000
221.555;   -2.275; -104.000;  -23.000
221.700;  -51.400; -329.000; -222.000
221.844;   27.275;  255.000;  272.000
221.989;  -47.450; -328.000; -311.000
222.133;  -15.550; -289.000; -307.000
222.277;  -17.250;    5.000;   78.000
222.422;   14.200;  227.000;  113.000
222.566;  -43.500; -381.000; -214.000
222.711;  -46.950; -414.000; -479.000
222.855;  -80.700; -643.000; -586.000
222.999;  -74.975; -642.000; -717.000
223.144;  -38.775; -195.000; -194.000
223.288;   60.825;  423.000;  251.000
223.432;   22.100;  184.000;  230.000
223.576;   26.825;  152.000;  -21.000
223.721;   32.250;  364.000;  273.000
223.865;  -50.575; -472.000; -475.000
224.009;  227.850; 1673.000; 1631.000
224.153;  -73.200; -660.000; -671.000
224.298;  -67.625; -531.000; -489.000
224.442;  -10.925;  -74.000;  -33.000
224.586;   -7.675; -169.000; -106.000
224.730;  -91.675; -858.000; -670.000
224.875; -110.575; -739.000; -688.000
225.019;   21.550;  102.000;  188.000
225.163;   60.425;  208.000;  341.000
225.307;   11.200;   97.000;  -91.000
225.451;   45.875;  360.000;  481.000
225.595;   28.350;  264.000;  176.000
225.739;  -21.500; -170.000;  -94.000
225.884;   12.900;   86.000;    5.000
226.028; -100.950; -760.000; -626.000
226.172;  -38.075; -260.000; -273.000
226.316; -118.175; -941.000; -902.000
226.460;  -74.625; -645.000; -493.000
226.604;  -62.325; -406.000; -400.000
226.748;  -95.850; -836.000; -733.000
226.892;  -42.725; -227.000; -181.000
227.036;  -35.425; -537.000; -447.000
227.180;  -63.175; -551.000; -375.000
227.324;  -64.000; -561.000; -580.000
227.468; -118.750; -819.000; -717.000
227.612;   16.975;  242.000;  -28.000
227.756; -106.225; -845.000; -698.000
227.900;   60.450;  342.000;  441.000
228.044;  -72.750; -509.000; -290.000
228.188;   55.025;  448.000;  568.000
228.332;  -90.850; -546.000; -472.000
228.476;  -31.825; -223.000; -149.000
228.620;  -33.925; -210.000; -150.000
228.764;   62.475;  431.000;  349.000
228.908;  -33.100; -155.000;   30.000
229.052;  -53.275; -615.000; -528.000
229.195;  -27.600; -172.000;   13.000
229.339;  -20.875; -235.000; -305.000
229.483;  -25.125;    5.000; -162.000
229.627;   -4.725; -156.000;  139.000
229.771;  -49.900; -218.000; -294.000
229.915;   17.525;  230.000;   79.000
230.059;  -86.500; -648.000; -663.000
230.202;  -26.450; -370.000; -317.000
230.346;   -9.725; -107.000;  107.000
230.490;  -53.025; -489.000; -521.000
230.634; -113.375; -736.000; -553.000
230.777;   69.500;  478.000;  509.000
230.921;  -59.475; -450.000; -359.000
231.065;  -22.250; -246.000; -286.000
231.209;   27.475;  261.000;  265.000
231.352;   26.850;   54.000;   40.000
231.496;   -0.950;  568.000;  188.000
231.640;  -60.825; -693.000; -621.000
231.783;   51.400;  546.000;  525.000
231.927;  -36.375; -294.000; -365.000
232.071; -116.975; -962.000; -736.000
232.214; -110.550; -980.000; -764.000
232.358;  -88.275; -683.000; -599.000
232.502;    7.725;  -19.000;    7.000
232.645; -136.450;-1090.000; -927.000
232.789;  -21.825; -257.000; -218.000
232.933;  -42.775; -407.000; -224.000
233.076; -116.950;-1038.000; -897.000
233.220; -105.275; -752.000; -777.000
233.363;  -81.350; -669.000; -477.000
233.507;   44.050;  371.000;  129.000
233.650;  -81.425; -764.000; -834.000
233.794;   44.825;  438.000;  461.000
233.938;  -62.275; -530.000; -362.000
234.081;  -31.500;  -93.000;   31.000
234.225;  -64.775; -631.000; -539.000
234.368; -110.125; -773.000; -723.000
234.512;  -39.325; -385.000; -299.000
234.655;  -97.850; -582.000; -555.000
234.798;  -59.250; -493.000; -466.000
234.942; -128.400; -884.000;-1002.000
235.085;  -58.775; -651.000; -443.000
235.229;  -67.300; -405.000; -410.000
235.372;  -34.850; -247.000; -191.000
235.516;  -63.700; -397.000; -321.000
235.659;   17.250;   92.000;  121.000
235.802;   -6.100;  -38.000;  -22.000
235.946;   28.400;  335.000;  215.000
236.089;   23.750;  126.000;  250.000
236.233;   70.000;  275.000;  298.000
236.376;  -55.400; -235.000; -378.000
236.519;  -35.925; -297.000; -319.000
236.663;  -27.450; -215.000; -117.000
236.806; -124.300;-1029.000; -999.000
236.949;   45.725;  543.000;  431.000
237.092;   58.275;  412.000;  391.000
237.236;  -85.725; -589.000; -502.000
237.379;   66.750;  352.000;  428.000
237.522; -119.700; -879.000; -768.000
237.666;  -24.075; -271.000;   18.000
237.809; -132.675; -851.000; -823.000
237.952;   42.625;  469.000;  271.000
238.095;  -74.775; -447.000; -442.000
238.238;   79.025;  688.000;  700.000
238.382;    1.700;  166.000;  103.000
238.525;  -61.450; -598.000; -511.000
238.668; -146.875;-1060.000; -985.000
238.811;  -74.650; -638.000; -643.000
238.954;  -62.500; -483.000; -334.000
239.097;   98.200;  617.000;  664.000
239.241;   18.400;  394.000;  326.000
239.384;  -25.950; -254.000; -214.000
239.527;  -70.450; -424.000; -224.000
239.670; -135.875; -994.000;-1091.000
239.813; -115.500; -696.000; -658.000
239.956;   82.950;  579.000;  473.000
240.099; -113.950; -778.000; -725.000
240.242;   42.725;  428.000;  432.000
240.385;   50.175;  466.000;  450.000
240.528;  -58.525; -706.000; -473.000
240.671;    4.925;  189.000;  134.000
240.814;  -33.750; -441.000; -158.000
240.957; -100.375; -767.000; -578.000
241.100;  -93.325; -779.000; -755.000
241.243; -149.150;-1234.000; -893.000
241.386;  -53.050; -508.000; -379.000
241.529;  -92.475; -735.000; -547.000
241.672;  -61.625; -566.000; -495.000
241.815; -114.100; -832.000; -808.000
241.958;  -18.950; -125.000; -182.000
242.101;  -89.700; -545.000; -390.000
242.244;  -37.075; -270.000; -325.000
242.387;  -56.250; -304.000; -246.000
242.530;   60.500;  470.000;  134.000
242.673;  -39.600; -381.000; -309.000
242.815; -103.125; -925.000; -899.000
242.958;  -71.650; -482.000; -381.000
243.101;   16.900;  132.000;  187.000
243.244;  -77.475; -564.000; -521.000
243.387;  -42.725; -313.000; -316.000
243.530;  -99.925; -657.000; -674.000
243.672;    9.825;   43.000;  -92.000
243.815;  -51.750; -355.000; -283.000
243.958;   -1.825;   98.000;  -26.000
244.101;   -9.300;   59.000;  -16.000
244.243;  -17.350;  -47.000;  101.000
244.386; -112.050; -761.000; -630.000
244.529;   -7.875; -132.000; -139.000
244.672; -156.050;-1154.000; -951.000
244.814;  -86.975; -621.000; -794.000
244.957;  -69.650; -380.000; -304.000
245.100;  -75.575; -489.000; -489.000
245.242;  -51.725; -387.000; -374.000
245.385;    1.925;  -59.000;  -39.000
245.528; -113.350; -871.000; -705.000
245.670;   97.550;  612.000;  634.000
245.813;  -77.275; -599.000; -547.000
245.956;  -25.525; -324.000; -275.000
246.098;  -74.450; -508.000; -650.000
246.241;    9.400;  194.000;   48.000
246.383;  -19.600; -119.000;  -73.000
246.526;  -68.825; -454.000; -525.000
246.669; -120.125; -889.000; -780.000
246.811;   19.400;  172.000;   -1.000
246.954;  -72.925; -512.000; -426.000
247.096;  -28.250;  -84.000;   -6.000
247.239;  -83.775; -482.000; -445.000
247.381;  -72.150; -647.000; -488.000
247.524;   74.375;  645.000;  679.000
247.666;    3.175;   58.000;   11.000
247.809; -101.850; -887.000; -691.000
247.951;   -6.375;  -75.000;  138.000
248.094;   26.475;  432.000;  308.000
248.236; -143.975;-1262.000;-1238.000
248.378;    4.250; -356.000;  -81.000
248.521;  -21.525; -334.000; -337.000
248.663;  -40.225; -236.000; -267.000
248.806;   -3.075; -300.000; -266.000
248.948;  -87.900; -886.000; -763.000
249.090;  -36.575; -428.000; -398.000
249.233;  -54.700; -344.000; -381.000
249.375;  -56.725; -474.000; -451.000
249.518;  -25.825;  -83.000; -133.000
249.660;    6.275; -103.000;    3.000
249.802; -184.325;-1303.000;-1189.000
249.945;  -70.650; -612.000; -540.000
250.087; -102.600; -834.000; -768.000
250.229;  -37.575; -362.000; -480.000
250.371;  -88.225; -494.000; -439.000
250.514;  -35.625; -310.000; -244.000
250.656;  -71.775;   69.000;  102.000
250.798; -100.950; -849.000; -800.000
250.940;  -57.000; -322.000; -322.000
251.083;  -16.400; -335.000; -111.000
251.225;   51.350;  338.000;  310.000
251.367;  -32.175; -274.000; -373.000
251.509;  -49.475; -265.000; -210.000
251.651;  -84.800; -731.000; -671.000
251.794;   31.150;  538.000;  632.000
251.936; -102.175; -821.000; -747.000
252.078;  -80.425; -540.000; -461.000
252.220;  -73.250; -645.000; -477.000
252.362;   72.675;  344.000;  462.000
252.504;  -64.125; -677.000; -584.000
252.646; -118.450; -875.000; -722.000
252.788;    7.075;   14.000; -128.000
252.931;  -44.650; -257.000; -253.000
253.073;  -26.575; -376.000; -317.000
253.215;  -20.175;  141.000;  122.000
253.357;  -14.900;   82.000; -153.000
253.499;  -59.675; -374.000; -234.000
253.641;  -84.275; -749.000; -594.000
253.783;  -90.000; -609.000; -527.000
253.925;  -78.425; -586.000; -591.000
254.067; -117.275; -744.000; -667.000
254.209;  -22.375; -391.000; -259.000
254.351; -141.350; -865.000; -883.000
254.493;  -51.625; -441.000; -417.000
254.635; -125.625; -936.000; -818.000
254.777;  -87.350; -752.000; -687.000
254.918;  -70.675; -512.000; -430.000
255.060;  -53.900; -551.000; -395.000
255.202;  -57.025; -473.000; -261.000
255.344;  -80.550; -658.000; -455.000
255.486;  -89.000; -471.000; -406.000
255.628; -102.550; -780.000; -781.000
255.770;  -77.450; -676.000; -536.000
255.912;  -65.100; -559.000; -468.000
256.053;  -94.125; -730.000; -508.000
256.195;  145.625; 1008.000;  903.000
256.337; -106.000; -861.000; -595.000
256.479;   62.500;  532.000;  416.000
256.621;  -57.200; -394.000; -212.000
256.762; -103.500; -789.000; -742.000
256.904;   58.850;  485.000;  487.000
257.046;  -50.150; -381.000; -271.000
257.188;  -56.150; -351.000; -264.000
257.329;  -58.825; -525.000; -464.000
257.471; -112.575; -939.000; -807.000
257.613;  -58.350; -584.000; -498.000
257.755; -148.400;-1073.000; -982.000
257.896;   40.250;  286.000;  392.000
258.038;  -60.500; -403.000; -352.000
258.180;  -44.925; -354.000; -279.000
258.321;  -76.525; -581.000; -457.000
258.463;   -0.725;  -71.000;  133.000
258.605;  -88.150; -562.000; -570.000
258.746;  -96.675; -886.000; -772.000
258.888; -160.800;-1026.000;-1020.000
259.029;   23.850;  121.000;   -8.000
259.171;  -80.075; -614.000; -550.000
259.313;   -5.275;  -49.000;  -47.000
259.454;  -72.900; -536.000; -414.000
259.596;  -61.225; -483.000; -390.000
259.737;  -78.575; -590.000; -474.000
259.879;   32.200;  217.000;  311.000
260.020;   79.350;  901.000;  636.000
260.162;  -26.300; -146.000; -253.000
260.303; -111.700; -768.000; -687.000
260.445;  -76.575; -609.000; -613.000
260.586;    9.225;  392.000;  157.000
260.728;  -45.750; -360.000; -248.000
260.869; -124.275; -350.000; -343.000
261.011;   82.425;  706.000;  537.000
261.152;  -63.650; -479.000; -319.000
261.293;  -76.875; -576.000; -595.000
261.435;  -37.675; -219.000; -184.000
261.576;  -32.675; -455.000; -325.000
261.718;   46.175;  420.000;  470.000
261.859; -117.950; -940.000; -949.000
262.000; -129.775; -951.000;-1016.000
262.142;  -15.200;  -52.000;  -60.000
262.283; -108.000; -808.000; -691.000
262.424;  -91.825; -666.000; -625.000
262.566; -158.450;-1161.000; -983.000
262.707; -100.050; -840.000; -830.000
262.848; -129.900; -769.000; -726.000
262.990;  -29.700; -362.000; -345.000
263.131;   73.775;  650.000;  681.000
263.272;   -6.525;  -61.000;  -41.000
263.413;  -95.250; -589.000; -561.000
263.555;  -57.925; -669.000; -143.000
263.696;  -90.475; -550.000; -641.000
263.837;  -56.850; -449.000; -551.000
263.978;  -22.600;   -5.000;  -77.000
264.119;  -38.550; -283.000; -264.000
264.261; -121.450; -847.000; -630.000
264.402;    4.000;   33.000;   40.000
264.543;  -75.850; -509.000; -524.000
264.684;  -14.575;   61.000;  -50.000
264.825;  -81.450; -816.000; -538.000
264.966;  -10.025;  -84.000;  -67.000
265.107; -119.850; -646.000; -670.000
265.248; -101.475; -825.000; -812.000
265.390;  -14.150;  152.000;   -9.000
265.531;  -22.350; -238.000; -107.000
265.672;  -88.900; -557.000; -630.000
265.813;   59.400;  563.000;  439.000
265.954; -142.725; -959.000; -940.000
266.095;  -18.100; -372.000; -322.000
266.236; -101.775; -686.000; -548.000
266.377;  -42.975; -243.000; -297.000
266.518;  -80.050; -619.000; -547.000
266.659;   35.900;  170.000;  268.000
266.800;    4.650;   83.000;   85.000
266.941;  -72.650; -487.000; -478.000
267.082;   21.475;  354.000;   99.000
267.223;  -39.375; -344.000; -273.000
267.364; -124.000; -892.000; -686.000
267.504;  -10.900;    3.000;  135.000
267.645;   -9.250;  160.000;   67.000
267.786;  -29.425; -147.000;  -86.000
267.927;  -73.600; -473.000; -379.000
268.068;   -8.625; -186.000;  -61.000
268.209;  -54.925; -175.000; -413.000
268.350;  -52.875; -388.000; -532.000
268.490;  -88.425; -648.000; -521.000
268.631;   31.600;  127.000;  225.000
268.772; -113.275; -874.000; -647.000
268.913;  -40.900; -328.000; -476.000
269.054;  -21.075; -117.000;   12.000
269.194;  -44.900; -418.000; -402.000
269.335; -164.625;-1137.000;-1074.000
269.476;   -0.900;   33.000;  -35.000
269.617;  -59.450; -347.000; -392.000
269.757;  -88.625; -713.000; -646.000
269.898; -113.925; -856.000; -613.000
270.039;  -53.100; -415.000; -405.000
270.180; -139.675; -952.000; -816.000
270.320;  -24.575; -190.000; -250.000
270.461;  -44.850; -277.000; -249.000
270.602;   -8.275; -186.000; -156.000
270.742; -120.475; -868.000; -943.000
270.883;  -56.475; -442.000; -390.000
271.023;  -65.350; -358.000; -357.000
271.164;  -69.875; -607.000; -528.000
271.305;  -96.700; -666.000; -654.000
271.445;  -82.375; -722.000; -683.000
271.586;  -68.100; -462.000; -283.000
271.726;  -36.525; -397.000; -322.000
271.867;  -48.600; -594.000; -534.000
272.008;  188.525; -473.000; -285.000
272.148;  123.275;  462.000;  468.000
272.289;   24.325; -113.000; -181.000
272.429;   17.075;   19.000;  185.000
272.570;  -83.825; -633.000; -737.000
272.710; -116.750; -825.000; -775.000
272.851;  -25.400;  113.000; -130.000
272.991; -155.675;-1173.000;-1077.000
273.131;  -64.400; -419.000; -459.000
273.272;  -95.000; -683.000; -723.000
273.412;    8.900; -143.000;  -31.000
273.553;  -58.850; -488.000; -507.000
273.693;  133.050;  913.000;  858.000
273.834;  -86.150; -894.000; -692.000
273.974;  -77.775; -664.000; -615.000
274.114; -104.075; -772.000; -560.000
274.255;   79.150;  414.000;  373.000
274.395;    7.975; -180.000; -125.000
274.535;   37.475;  199.000;  350.000
274.676;   11.075;  225.000;   94.000
274.816;   -8.025;  110.000;   34.000
274.956;  -91.775; -624.000; -690.000
275.097;  -59.075;-1014.000; -922.000
275.237; -115.550; -913.000; -803.000
275.377;  -91.675; -778.000; -689.000
275.517; -148.450; -878.000; -937.000
275.658;  -45.250; -590.000; -555.000
275.798;  -72.825; -606.000; -413.000
275.938;   26.075;  215.000;  323.000
276.078; -116.250; -626.000; -395.000
276.218;   -3.750;   99.000;  104.000
276.359; -141.100;-1026.000;-1024.000
276.499;  -64.025; -605.000; -446.000
276.639;  -27.100; -305.000; -151.000
276.779;  -39.350; -475.000; -357.000
276.919; -100.950; -783.000; -624.000
277.059;  -11.775; -261.000; -212.000
277.199;  -59.475; -357.000; -259.000
277.340;   53.800;  287.000;  175.000
277.480; -110.100; -840.000; -693.000
277.620;   23.050;  192.000;   16.000
277.760; -200.575;-1533.000;-1294.000
277.900;   11.700;  113.000;   33.000
278.040;   -4.350;  137.000;  159.000
278.180;   44.400;  270.000;  170.000
278.320;   -6.175;   21.000;   56.000
278.460;  -63.400; -443.000; -469.000
278.600;  -94.225; -708.000; -598.000
278.740;   56.700;  448.000;  224.000
278.880;  -63.900; -768.000; -791.000
279.020;    5.975; -194.000; -144.000
279.160;  -93.700; -672.000; -595.000
279.300; -121.175; -926.000; -873.000
279.440;  -77.975; -709.000; -622.000
279.579;  -19.775;-1014.000; -929.000
279.719;  -55.500; -410.000; -394.000
279.859;   83.750;   -4.000;   41.000
279.999;   18.675; -208.000;  101.000
280.139;  -17.925; -435.000; -387.000
280.279;  -69.825; -708.000; -745.000
280.419;   -5.350; -229.000; -147.000
280.559;  -36.775; -259.000; -180.000
280.698;  -76.425; -790.000; -639.000
280.838;  -95.975; -778.000; -800.000
280.978;  -99.900; -846.000; -790.000
281.118; -113.900; -811.000; -704.000
281.257;    2.625;   24.000;    6.000
281.397; -124.475;-1094.000; -960.000
281.537;  -78.300; -599.000; -712.000
281.677;  -23.525; -150.000; -101.000
281.816;  -75.775; -700.000; -630.000
281.956;  -36.900; -193.000; -257.000
282.096;  -67.950; -539.000; -396.000
282.235; -106.700; -672.000; -638.000
282.375;   -7.975; -243.000;  -98.000
282.515; -115.500; -715.000; -707.000
282.654;   27.675;   29.000;  106.000
282.794;   25.025;  388.000;  244.000
282.934;  -49.225; -530.000; -491.000
283.073; -139.100;-1030.000; -857.000
283.213;  -54.775; -460.000; -467.000
283.353;  -48.925; -408.000; -349.000
283.492;  -23.025; -264.000; -296.000
283.632;  -45.100; -254.000; -168.000
283.771;  -96.000; -859.000; -730.000
283.911;  -58.375; -369.000; -260.000
284.050; -111.275; -794.000; -748.000
284.190; -155.125;-1229.000;-1096.000
284.329; -128.900;-1055.000; -964.000
284.469;  -75.825; -516.000; -591.000
284.608;  -48.550; -559.000; -598.000
284.748;  -83.200; -614.000; -570.000
284.887;  -10.700;  -87.000;  -20.000
285.027; -129.250; -844.000; -892.000
285.166;  -32.075; -192.000; -249.000
285.306;    0.075; -116.000;  -33.000
285.445;  -41.625; -229.000; -343.000
285.584;  -90.300; -630.000; -494.000
285.724;  -46.675; -282.000; -322.000
285.863; -116.950; -857.000; -507.000
286.002;  -50.375; -366.000; -276.000
286.142;  -99.475; -715.000; -622.000
286.281;  -67.050; -525.000; -493.000
286.420;  -80.300; -554.000; -417.000
286.560;   98.475;  653.000;  623.000
286.699; -132.075; -958.000; -912.000
286.838;  -86.975; -590.000; -591.000
286.978;  -95.100; -533.000; -537.000
287.117; -125.675;-1085.000; -950.000
287.256;  -40.675; -228.000; -211.000
287.395;  -34.125; -197.000; -378.000
287.535;  -56.650; -370.000; -298.000
287.674;  -68.775; -509.000; -484.000
287.813;   38.050;  661.000;  533.000
287.952; -120.475;-1010.000; -871.000
288.091; -149.450;-1049.000; -915.000
288.231;   18.075;   13.000;   15.000
288.370; -173.225;-1217.000;-1200.000
288.509;  -91.225; -728.000; -645.000
288.648; -101.375; -770.000; -548.000
288.787;  -38.900; -243.000;  -87.000
288.926;  -67.375; -454.000; -475.000
289.065;  105.825;  859.000;  672.000
289.204;  -61.900; -377.000; -217.000
289.344;  -95.750; -791.000; -690.000
289.483;    3.225;  416.000;  304.000
289.622;  -21.050; -291.000; -149.000
289.761;   -6.125; -309.000; -166.000
289.900; -101.825; -785.000; -626.000
290.039;   -8.425;  -12.000;  -95.000
290.178;  -32.050; -274.000; -180.000
290.317;  -87.200; -618.000; -479.000
290.456;  -56.225; -463.000; -451.000
290.595; -136.675; -961.000; -833.000
290.734; -123.200; -904.000; -891.000
290.873;  -75.975; -456.000; -420.000
291.011;  -93.875; -833.000; -843.000
291.150; -109.375; -770.000; -682.000
291.289;  -20.525; -343.000; -110.000
291.428; -113.750; -599.000; -480.000
291.567;  -51.725; -370.000; -442.000
291.706;  -18.050;  109.000;  154.000
291.845;  -94.525; -597.000; -505.000
291.984; -162.100;-1234.000;-1061.000
292.122;   64.950;  602.000;  582.000
292.261;   32.750;  620.000;  463.000
292.400;   13.125; -144.000;  211.000
292.539; -128.500; -959.000; -813.000
292.678;  -31.100; -325.000; -300.000
292.816; -152.775;-1136.000; -965.000
292.955;  -91.700; -844.000; -684.000
293.094;  -36.625; -173.000; -337.000
293.233;  -54.075; -556.000; -400.000
293.371;  -38.225; -225.000;  -84.000
293.510; -113.850; -866.000; -780.000
293.649; -131.975; -959.000; -924.000
293.787;  -64.200;-1083.000;-1012.000
293.926;  -25.300; -113.000;  -32.000
294.065;  -40.550; -379.000; -290.000
294.203;   42.225;  298.000;  406.000
294.342;   13.950;   74.000;  156.000
294.481; 5413.325;51180.000; -836.000
294.619;  -33.750; -425.000; -582.000
294.758; -141.025;-1230.000;-1137.000
294.896;   69.475; -125.000;    5.000
295.035; -131.225;-1040.000;-1006.000
295.174; -110.200;-1082.000; -954.000
295.312;  -47.675; -323.000; -203.000
295.451;   -7.525; -307.000; -428.000
295.589;  -69.400; -389.000; -518.000
295.728;   13.750; -292.000; -165.000
295.866;   -8.950;  -36.000;  -51.000
296.005;  -58.700; -584.000; -341.000
296.143;  -81.925; -558.000; -596.000
296.282; -105.050; -957.000; -881.000
296.420;  -72.075; -657.000; -557.000
296.559;  -83.525; -892.000; -633.000
296.697;   21.050; -847.000; -665.000
296.835;   56.475;-1141.000;-1002.000
296.974;   28.800;  -23.000;   39.000
297.112;   15.725; -443.000; -504.000
297.251;  -84.075; -815.000; -755.000
297.389;   93.900; -576.000; -438.000
297.527;   36.275; -145.000;  -83.000
297.666;  -48.725; -486.000; -438.000
297.804;  -67.575; -404.000; -264.000
297.942;   -8.150; -136.000; -161.000
298.081;  -14.875; -183.000;   63.000
298.219;   65.725;  -17.000;  -19.000
298.357;   46.850; -144.000;  -71.000
298.495;   37.150; -810.000; -812.000
298.634;   82.500;  245.000;  219.000
298.772;   47.275; -220.000; -338.000
298.910;  -37.275; -309.000; -182.000
299.048;   -2.700; -130.000; -153.000
299.187;  -36.425; -350.000; -250.000
299.325;   20.600;   52.000;  122.000
299.463;   51.825; -389.000; -299.000
299.601;  112.650; -327.000; -271.000
299.739; -112.450; -908.000; -883.000
299.877;  -68.100; -791.000; -703.000
300.016;  -47.225;-1095.000; -935.000
300.154;  154.725;  -19.000; -161.000
300.292;   47.900; -428.000; -348.000
300.430;   26.750; -408.000; -291.000
300.568; -106.600; -940.000; -874.000
300.706;  -39.250; -366.000; -469.000
300.844;  -68.575;-1108.000; -979.000
300.982;  115.375;  246.000;  282.000
301.120; -103.850; -965.000; -866.000
301.258;  -57.500; -812.000; -705.000
301.396;   15.650;  104.000;  -41.000
301.534;   67.175; -218.000; -293.000
301.672;  -12.725; -664.000; -521.000
301.810;   32.825; -613.000; -545.000
301.948;  100.425;   53.000;  149.000
302.086;  622.700; -250.000;  -32.000
302.224;  914.250; -610.000; -585.000
302.362;   34.525; -558.000; -622.000
302.500;  -36.975; -923.000; -893.000
302.638;  101.325;  128.000;  245.000
302.776;  -13.200; -352.000; -408.000
302.913;   45.125;  447.000;  236.000
303.051;   -8.125;  -86.000;  -23.000
303.189;   48.925;   90.000;  118.000
303.327;  -43.100; -341.000; -256.000
303.465;  -82.275; -832.000; -588.000
303.603;  -89.175; -805.000; -604.000
303.740;   88.250;  417.000;  241.000
303.878;   24.775; -800.000; -759.000
304.016;  -90.975; -915.000; -790.000
304.154; -139.150;-1123.000;-1152.000
304.291;  -37.525; -505.000; -554.000
304.429;  -11.275;  102.000;   74.000
304.567; -121.625; -908.000; -893.000
304.705;  -71.075; -408.000; -515.000
304.842;   86.475; -616.000; -540.000
304.980;   48.200;  215.000;   35.000
305.118;   56.175; -367.000; -365.000
305.255;  -76.575; -945.000; -927.000
305.393;   39.550;  178.000;  239.000
305.531; -100.025;-1173.000; -956.000
305.668;  -50.425; -663.000; -582.000
305.806;  110.875; -358.000; -439.000
305.943;  109.800; -629.000; -637.000
306.081;   44.650; -378.000; -267.000
306.219;  -89.975; -863.000; -748.000
306.356;   -1.175;  158.000;   27.000
306.494;  110.000;  981.000;  761.000
306.631;  -12.000;  -11.000;  -55.000
306.769;   18.700; -613.000; -485.000
306.906;  -15.450; -284.000; -258.000
307.044;  -48.550; -473.000; -488.000
307.181;  -67.800; -410.000; -332.000
307.319;    5.400;  112.000;   87.000
307.456; -164.950;-1191.000;-1153.000
307.594;  -90.375; -980.000; -727.000
307.731;  -21.750; -371.000; -164.000
307.868;   -4.450;  -15.000;   20.000
308.006; -118.975; -961.000; -847.000
308.143;  -58.300; -618.000; -330.000
308.281;  171.100;  -37.000; -254.000
308.418;   -3.750; -748.000; -640.000
308.555;  -74.000; -400.000; -250.000
308.693;  -62.500; -577.000; -573.000
308.830; -113.825; -712.000; -657.000
308.967;   -7.925; -215.000;  -95.000
309.105;  -49.125; -507.000; -396.000
309.242;   47.050; -468.000; -367.000
309.379;  333.075; -577.000; -655.000
309.517;  -62.100; -936.000; -948.000
309.654; -119.325; -910.000; -734.000
309.791;  -74.575; -662.000; -580.000
309.928; -116.700; -977.000; -914.000
310.065;  176.700;  819.000;  697.000
310.203;   -0.400; -825.000; -850.000
310.340;   -7.500; -465.000; -321.000
310.477;  -75.500; -412.000; -516.000
310.614;  -59.425; -383.000; -473.000
310.751;  -83.750; -427.000; -518.000
310.889;  -15.300;    1.000;   11.000
311.026; -153.850;-1161.000; -939.000
311.163;  -38.300; -386.000; -380.000
311.300;  -87.850; -512.000; -479.000
311.437;  -72.125; -658.000; -619.000
311.574; -154.400;-1226.000; -985.000
311.711;  -38.650; -595.000; -433.000
311.848;  -36.825; -380.000; -388.000
311.985;   11.125;  270.000;   93.000
312.122; -121.575; -932.000; -762.000
312.259; -126.075; -941.000; -994.000
312.396;  -80.900; -508.000; -551.000
312.533;  -72.975; -812.000; -790.000
312.670; -135.625;-1070.000; -898.000
312.807;  -40.900; -352.000; -367.000
312.944;  -92.350; -513.000; -611.000
313.081;  -26.125; -150.000; -415.000
313.218; -101.175;-1111.000; -867.000
313.355;   -0.750; -531.000; -449.000
313.492;   -4.400; -455.000; -292.000
313.629;  125.875;  815.000;  735.000
313.766; -156.300;-1176.000;-1008.000
313.902;   -5.200; -186.000;   21.000
314.039;  -58.075; -372.000; -289.000
314.176;   14.700;  286.000;  192.000
314.313;  -75.950; -569.000; -473.000
314.450;  -66.125; -788.000; -684.000
314.587;  -65.650; -468.000; -480.000
314.723;    3.950;  -78.000;  130.000
314.860;   28.100;  318.000;  332.000
314.997;   39.125;  223.000;  142.000
315.134;  -56.075; -385.000; -368.000
315.270;  -37.150; -480.000; -496.000
315.407; -122.325;-1094.000; -967.000
315.544;  -37.950; -657.000; -538.000
315.681;  -62.300; -681.000; -565.000
315.817;   21.850; -133.000; -176.000
315.954;    8.925; -613.000; -392.000
316.091; -122.900;-1045.000;-1023.000
316.227;  -34.675;  -71.000; -179.000
316.364;   -2.900;   23.000;    6.000
316.500;  -45.175; -113.000; -300.000
316.637;  -47.400; -181.000; -302.000
316.774;  -82.550; -625.000; -358.000
316.910;  -82.050; -598.000; -629.000
317.047;  -66.250; -487.000; -351.000
317.183;  -39.250; -435.000; -566.000
317.320;  -19.300; -367.000; -321.000
317.456;  -68.650; -733.000; -805.000
317.593;  -91.950; -598.000; -641.000
317.729;   -4.000;  168.000;  -67.000
317.866; -193.375;-1434.000;-1285.000
318.002;  -96.425; -708.000; -948.000
318.139;  -95.225; -883.000; -867.000
318.275; -102.900;-1003.000; -738.000
318.412;  -58.200; -517.000; -336.000
318.548;  -27.525; -751.000; -720.000
318.685;  -99.150; -985.000; -888.000
318.821;  -85.325; -762.000; -735.000
318.957;  -17.625;   34.000;  -23.000
319.094;   41.400;  297.000;  154.000
319.230;  -78.125; -756.000; -742.000
319.367;  136.775; -471.000; -520.000
319.503;   44.775; -538.000; -436.000
319.639;  -95.025; -877.000; -793.000
319.775;  -70.500; -750.000; -685.000
319.912;  -42.475; -424.000; -519.000
320.048;  -93.550;-1184.000;-1184.000
320.184;   59.350;   59.000;   70.000
320.321;  -73.950; -497.000; -467.000
320.457;   67.550;  475.000;  662.000
320.593;  -67.150; -375.000; -382.000
320.729; -106.950; -732.000; -734.000
320.866;  -82.825; -577.000; -635.000
321.002;  -77.425; -759.000; -809.000
321.138;   -6.975; -135.000; -211.000
321.274;   73.325; -148.000; -115.000
321.410;  -23.775; -585.000; -353.000
321.546;  -20.500;-1011.000; -911.000
321.683;   51.850;  400.000;  185.000
321.819;    4.225;  -48.000; -117.000
321.955; -119.300; -743.000; -722.000
322.091;  -28.350; -585.000; -540.000
322.227;  -21.800; -382.000; -202.000
322.363;  -15.650; -320.000; -215.000
322.499;  -36.325; -343.000; -331.000
322.635;  168.650;  636.000;  443.000
322.771;   25.025; -139.000;   12.000
322.907;   92.150;  129.000;  327.000
323.043;  -27.025; -115.000; -206.000
323.179;  -27.950; -394.000; -363.000
323.315;   10.425; -401.000; -371.000
323.451;   86.250; -328.000; -236.000
323.587;   60.950;  -60.000;  -77.000
323.723;   25.250; -682.000; -601.000
323.859;  -17.375; -258.000;  -76.000
323.995;  -26.325; -467.000; -409.000
324.131; -115.125; -967.000; -892.000
324.267;  -32.850; -254.000; -276.000
324.402; -134.250; -960.000; -983.000
324.538;  -21.225; -279.000; -104.000
324.674;   11.225;  164.000;   77.000
324.810;  114.300;  226.000;  308.000
324.946;   -8.950; -810.000; -658.000
325.082;  -76.650; -568.000; -475.000
325.217;  -18.325;  -62.000;   16.000
325.353;  -78.950; -764.000; -659.000
325.489;  -87.425; -540.000; -506.000
325.625;  -73.750; -579.000; -525.000
325.760;   50.125;  517.000;  376.000
325.896;  -11.375; -515.000; -702.000
326.032;  -55.325; -403.000; -352.000
326.168;  -69.475; -462.000; -369.000
326.303;  -66.025; -352.000; -461.000
326.439;  -23.525; -336.000; -276.000
326.575;    2.100; -190.000;  -29.000
326.710;   -7.125; -156.000;  -30.000
326.846;  -21.525;  146.000;  103.000
326.982;  -82.025; -530.000; -548.000
327.117;  -71.725; -481.000; -442.000
327.253;  -89.125; -745.000; -742.000
327.388; -138.725;-1137.000;-1153.000
327.524;  -49.850; -811.000; -578.000
327.659;  -27.925;  -58.000;  -22.000
327.795;   -9.900;   69.000;   45.000
327.931;  -90.275; -723.000; -499.000
328.066;  -31.425; -417.000; -276.000
328.202;  -16.075;   12.000; -129.000
328.337;  104.550;  957.000;  713.000
328.473;   33.275;  -12.000;  -74.000
328.608;  -14.775; -256.000; -267.000
328.743;  -92.225; -799.000; -664.000
328.879;   11.150;  214.000;  114.000
329.014;  -38.225; -102.000; -122.000
329.150;  -77.150; -358.000; -483.000
329.285;  -83.050; -465.000; -466.000
329.421;  -52.900; -548.000; -246.000
329.556;  -30.875;  -36.000;   85.000
329.691;  -81.350; -633.000; -615.000
329.827;  -81.950; -626.000; -480.000
329.962;  -33.775;  131.000; -301.000
330.097;  -91.850; -673.000; -585.000
330.233;  -49.400; -410.000; -223.000
330.368; -121.350; -839.000; -628.000
330.503;  -18.025;    3.000;   98.000
330.638;    1.050;  -93.000; -125.000
330.774;  -54.075; -609.000; -530.000
330.909;  -50.775; -434.000; -244.000
331.044;  -86.650; -714.000; -708.000
331.179; -177.325;-1217.000;-1109.000
331.315;    2.425;   77.000;   20.000
331.450;    9.800;  157.000;  285.000
331.585;  -96.450; -805.000; -706.000
331.720; -101.925; -510.000; -460.000
331.855;  -11.475;  -35.000; -102.000
331.990;  243.250;   62.000;  138.000
332.126;  121.875; -110.000;   71.000
332.261;  -27.750; -379.000; -265.000
332.396;   -9.925; -135.000; -242.000
332.531; -106.125;-1074.000;-1031.000
332.666;   38.950; -519.000; -363.000
332.801; -107.950; -726.000; -807.000
332.936;  -32.100; -192.000; -122.000
333.071; -151.200; -870.000; -817.000
333.206;   20.800;  307.000;  379.000
333.341;   16.325;  344.000;  418.000
333.476;  -83.125; -627.000; -623.000
333.611;  -46.100; -251.000; -173.000
333.746;  -46.425; -381.000; -464.000
333.881; -124.850; -973.000; -935.000
334.016; -126.450; -936.000; -917.000
334.151; -121.150; -746.000; -702.000
334.286;   24.550;  152.000;  186.000
334.421;  -16.100; -125.000; -178.000
334.556;  -78.975; -611.000; -567.000
334.690; -104.150; -631.000; -577.000
334.825;   49.575;  381.000;   83.000
334.960;  -67.800; -285.000; -413.000
335.095;   11.550;  135.000;  -91.000
335.230; -114.825; -722.000; -738.000
335.365; -122.975;-1084.000; -990.000
335.499; -135.050;-1108.000;-1037.000
335.634;   22.850;    9.000;  534.000
335.769;  -99.475; -755.000; -720.000
335.904;  -72.275; -603.000; -561.000
336.038;  -74.200; -735.000; -657.000
336.173; -118.300;-1206.000;-1194.000
336.308;   -4.425; -116.000; -189.000
336.443;   24.325; -544.000; -634.000
336.577;  -85.050; -936.000; -787.000
336.712;   51.800;   -4.000;  -12.000
336.847;  -52.725; -724.000; -607.000
336.981;   72.800; -272.000; -208.000
337.116;  266.025;  615.000;  501.000
337.250;  144.900; -434.000; -421.000
337.385;  260.350; -297.000; -208.000
337.520;  105.025; -632.000; -603.000
337.654;  -32.300; -215.000; -126.000
337.789; -138.675; -989.000; -933.000
337.923;  -26.875; -104.000; -205.000
338.058;  -63.100; -673.000; -738.000
338.192;  -30.500; -611.000; -488.000
338.327;    0.525;  -18.000; -155.000
338.461;  -60.000; -299.000; -469.000
338.596;  -90.125; -780.000; -638.000
338.730;  -95.050; -767.000; -803.000
338.865;  102.025;  -46.000; -140.000
338.999;  -54.400; -846.000; -702.000
339.134;  -22.625; -634.000; -536.000
339.268;   18.550; -741.000; -603.000
339.403;  380.225; -740.000; -775.000
339.537;  121.050; -894.000; -820.000
339.671; -101.875; -829.000; -813.000
339.806;  -54.200; -556.000; -512.000
339.940;   24.450; -261.000; -235.000
340.074; -112.675; -685.000; -510.000
340.209;  -49.375; -351.000; -230.000
340.343;  -95.950; -517.000; -573.000
340.477;  138.850;  998.000; 1036.000
340.612;  -40.550;-1033.000; -900.000
340.746;  143.775; -199.000; -243.000
340.880;  -78.250; -924.000; -785.000
341.014;  -20.250;  -45.000; -154.000
341.149; -121.125; -756.000; -718.000
341.283; -106.450; -839.000; -754.000
341.417;  -97.700;-1124.000; -938.000
341.551;  141.875; -768.000; -708.000
341.685;  -47.525; -633.000; -611.000
341.820;  -47.275; -562.000; -493.000
341.954;  -59.675; -218.000; -349.000
342.088; -151.575;-1102.000;-1019.000
342.222;   40.825;  565.000;  618.000
342.356;  -50.675; -395.000; -335.000
342.490;  -92.725; -880.000; -841.000
342.624;  -33.175; -339.000; -242.000
342.758;   -4.325; -364.000; -312.000
342.892;  -60.200; -710.000; -585.000
343.026;  -50.500;  -58.000; -116.000
343.160;  -65.275; -426.000; -376.000
343.294;  -73.200; -474.000; -337.000
343.428;   -6.475; -488.000; -448.000
343.562;  -20.975; -172.000;  -23.000
343.696;  -24.275; -385.000; -314.000
343.830;  -24.950; -362.000; -356.000
343.964;   13.400; -231.000; -168.000
344.098;  886.600;  199.000;   70.000
344.232;  743.650; -266.000; -127.000
344.366;   89.100; -567.000; -453.000
344.500;   51.900; -665.000; -744.000
344.634;   22.625; -324.000; -164.000
344.768;  -13.825; -531.000; -341.000
344.902;   11.450;  278.000;  256.000
345.035;  -76.750; -556.000; -496.000
345.169; -148.750; -933.000; -656.000
345.303;  -30.050; -308.000; -482.000
345.437;  -83.850; -826.000; -717.000
345.571;  -79.500; -675.000; -594.000
345.704;  -73.500; -309.000; -532.000
345.838;   -4.875; -331.000; -284.000
345.972;  -46.975; -543.000; -495.000
346.106;  175.350; -179.000; -190.000
346.239;  422.150; -312.000; -243.000
346.373;   19.425; -343.000; -302.000
346.507; -140.400; -950.000; -962.000
346.640;  137.925;  -30.000;   13.000
346.774;  -56.325; -650.000; -797.000
346.908;  -25.125; -138.000;  -11.000
347.041; -107.775; -646.000; -593.000
347.175;   -1.500;  259.000;   27.000
347.309;  -69.400; -698.000; -628.000
347.442;  -82.150; -883.000; -732.000
347.576;  258.575;  670.000;  668.000
347.709;  189.775; -123.000;  -52.000
347.843;  -96.100; -933.000; -825.000
347.976;   36.175;  235.000;  294.000
348.110; -174.725;-1268.000;-1186.000
348.243; -100.500; -679.000; -772.000
348.377;   -4.000;  -26.000;   60.000
348.510;   65.450;  403.000;  540.000
348.644;  -45.650;  -37.000; -159.000
348.777;    1.875;  180.000;  191.000
348.911;  -69.075; -142.000; -112.000
349.044;  157.950;  471.000;  448.000
349.178;  148.225;-1069.000;-1006.000
349.311;  122.600;  141.000;  255.000
349.444;   -6.450; -927.000; -813.000
349.578;   -6.525; -347.000; -200.000
349.711;  -94.150; -959.000; -862.000
349.845;    0.525; -661.000; -591.000
349.978; -157.150;-1224.000;-1137.000
350.111;  -82.375; -546.000; -612.000
350.244;  -87.125; -596.000; -700.000
350.378;   10.475; -392.000; -393.000
350.511;  -71.925; -393.000; -426.000
350.644; -106.625; -808.000; -806.000
350.778;    0.900;  168.000;  104.000
350.911;  -13.700;  134.000;  140.000
351.044;  -93.550; -685.000; -615.000
351.177;  -34.600; -321.000; -281.000
351.310;  -30.925;    3.000; -131.000
351.444;  -63.425; -888.000; -788.000
351.577;  105.700;  140.000;   90.000
351.710;  105.725;  593.000;  417.000
351.843;  -42.575; -165.000;  -77.000
351.976;   -4.050;  149.000;  -79.000
352.109;  -97.800; -621.000; -612.000
352.242;  -30.575; -464.000; -419.000
352.376;  -64.200; -580.000; -636.000
352.509;  159.700; -437.000; -356.000
352.642;    5.250; -654.000; -604.000
352.775;   69.825; -141.000;  -98.000
352.908; -115.425; -933.000; -904.000
353.041;  -99.375; -814.000; -824.000
353.174;  -59.700; -551.000; -424.000
353.307;  -86.875; -753.000; -764.000
353.440;   55.600;  541.000;  453.000
353.573; -107.400; -957.000;-1008.000
353.706;  -67.075; -384.000; -558.000
353.839;  -14.025; -264.000; -220.000
353.971;  -93.175; -657.000; -512.000
354.104;  -72.950; -896.000; -835.000
354.237;  -42.275; -627.000; -662.000
354.370;  -75.075; -846.000; -879.000
354.503; -187.950;-1231.000;-1308.000
354.636;  -43.750; -529.000; -348.000
354.769; -138.100; -937.000; -860.000
354.902;  -10.700; -230.000; -139.000
355.034;  -12.575; -164.000; -220.000
355.167;  -21.350; -262.000; -162.000
355.300;  -94.850;-1061.000; -880.000
355.433;  990.850;  -71.000;  -14.000
355.565; 1561.875; -402.000; -384.000
355.698;  405.725; -356.000; -296.000
355.831;   -6.925; -882.000; -801.000
355.964;   82.725; -285.000; -170.000
356.096;  -88.125; -856.000; -843.000
356.229;   -2.250; -523.000; -530.000
356.362;  328.425; -373.000; -266.000
356.494;  626.050; -229.000; -162.000
356.627;  461.350;  269.000;  377.000
356.760;  675.275;  120.000;   53.000
356.892;  981.125; -286.000; -601.000
357.025;  665.075;  403.000;  389.000
357.157;  587.700; -167.000; -179.000
357.290;  693.400; -856.000; -713.000
357.423;  215.100; -667.000; -556.000
357.555;  111.525; -217.000; -228.000
357.688;  131.375; -483.000; -364.000
357.820;  458.050; -870.000; -877.000
357.953; 3687.225; -563.000; -589.000
358.085;  811.900; -632.000; -612.000
358.218; 1094.850;-1131.000; -932.000
358.350;  199.975;  -58.000;  312.000
358.483; -124.975;-1300.000;-1187.000
358.615;  -22.225;-1182.000;-1078.000
358.747;  -47.825;-1187.000;-1058.000
358.880;    9.850; -810.000; -744.000
359.012;  -15.950; -376.000; -202.000
359.145;  -39.425; -480.000; -511.000
359.277;   61.350; -962.000; -913.000
359.409; 3007.325;  536.000;  231.000
359.542;  812.100; -738.000; -688.000
359.674;   72.250;   46.000;   13.000
359.806;  -60.025; -565.000; -438.000
359.939;  -41.475; -617.000; -516.000
360.071;  -19.025; -583.000; -579.000
360.203;  -10.825; -411.000; -364.000
360.335;   49.375;  164.000;  -16.000
360.468;  203.675; -249.000; -307.000
360.600; 2405.775; -547.000; -454.000
360.732; 2933.900; -546.000; -423.000
360.864;  422.500;-1216.000;-1044.000
360.996;  273.275; -516.000; -554.000
361.129;   37.650; -389.000; -598.000
361.261;   20.950;  110.000; -113.000
361.393;  -41.275; -252.000; -214.000
361.525;   32.375;   94.000;  244.000
361.657;  -44.350; -821.000; -703.000
361.789;   17.975; -139.000; -155.000
361.921;  207.275; -642.000; -593.000
362.053;  262.700;  524.000;  541.000
362.185;   39.650;  288.000;   72.000
362.318;  -83.975; -709.000; -705.000
362.450;  101.975;  294.000;  444.000
362.582;   79.600; -913.000; -870.000
362.714;  -34.600; -353.000; -332.000
362.846;  -86.625; -606.000; -490.000
362.978; -147.225; -941.000; -811.000
363.109;   45.250; -161.000; -260.000
363.241;  421.900; -739.000; -749.000
363.373;  454.650; -649.000; -564.000
363.505;  679.400; -186.000;  -91.000
363.637;  172.275; -787.000; -601.000
363.769; -124.125;-1067.000;-1080.000
363.901;  -60.800; -596.000; -654.000
364.033; -113.350;-1103.000;-1062.000
364.165;   -5.800; -283.000; -283.000
364.296;   70.300; -316.000; -177.000
364.428;   80.925;-1344.000;-1220.000
364.560;  -73.100; -679.000; -661.000
364.692;  -56.350; -738.000; -835.000
364.824;  236.650; -588.000; -456.000
364.955;  439.900; -402.000; -564.000
365.087;  968.575;-1097.000; -852.000
365.219;   34.000; -686.000; -816.000
365.351;  -65.725; -526.000; -572.000
365.482;   60.950;  300.000;  240.000
365.614;  -51.375; -402.000; -314.000
365.746;  -94.400; -729.000; -752.000
365.877; -110.475; -706.000; -672.000
366.009;  262.850;  -35.000;  -62.000
366.141;  -89.675;-1249.000;-1134.000
366.272; -106.325; -803.000; -719.000
366.404; -119.850;-1005.000; -874.000
366.535;  -17.325; -139.000;  -12.000
366.667; -100.125; -644.000; -649.000
366.799;   43.200;  353.000;  203.000
366.930; -128.675; -862.000; -996.000
367.062;  123.725; -639.000; -613.000
367.193;  165.650; -872.000; -842.000
367.325;  -47.425; -580.000; -684.000
367.456;   32.300; -246.000;   31.000
367.588;  169.150; -371.000; -318.000
367.719;   19.175;  -44.000;  -45.000
367.851;    2.650; -222.000; -241.000
367.982;  -55.125; -875.000; -732.000
368.113;   99.950; -475.000; -358.000
368.245; -114.025; -960.000; -841.000
368.376;  -27.225; -254.000; -302.000
368.508;  -40.775; -188.000; -263.000
368.639; -128.075;-1166.000;-1034.000
368.770;  -21.125; -670.000; -589.000
368.902;  -60.025; -836.000; -926.000
369.033; -113.675; -906.000; -855.000
369.164;  -43.450; -720.000; -653.000
369.296; -118.600; -452.000; -601.000
369.427;    1.450; -209.000; -144.000
369.558;  -55.550; -593.000; -377.000
369.689;  -91.800; -721.000; -569.000
369.821; -125.250; -951.000; -845.000
369.952;  -16.750;   42.000; -108.000
370.083;  -55.150; -229.000; -108.000
370.214;  -71.550; -735.000; -650.000
370.345;  -10.025;   65.000;   81.000
370.477;  -79.350; -810.000; -790.000
370.608;  222.850; -328.000; -264.000
370.739;  -39.250;-1233.000;-1292.000
370.870;  -47.425;-1102.000; -923.000
371.001;   88.475; -378.000; -467.000
371.132;  -96.725; -754.000; -735.000
371.263;  -10.500;  -42.000; -148.000
371.394; -138.975; -841.000; -748.000
371.525;   29.800;  345.000;  225.000
371.657;  -89.450; -808.000; -670.000
371.788;   74.100;  103.000;  199.000
371.919;  170.250; -384.000; -304.000
372.050; 3544.175;  -91.000; -156.000
372.181; 1109.525; -188.000; -294.000
372.311;  356.575;   42.000; -127.000
372.442;   34.000; -457.000; -451.000
372.573;  -19.200; -444.000; -340.000
372.704; -120.450;-1008.000; -980.000
372.835;   84.700; -228.000; -289.000
372.966;  -72.350; -646.000; -554.000
373.097;  -73.400; -575.000; -711.000
373.228;  -50.575; -717.000; -542.000
373.359;  122.100; -824.000; -536.000
373.490;  908.650; -881.000; -727.000
373.620; 1168.675;-1001.000; -803.000
373.751; 1715.625; -332.000; -396.000
373.882;  789.075; -663.000; -733.000
374.013;   55.475; -449.000; -262.000
374.143;  -35.475; -581.000; -659.000
374.274;  -95.200; -987.000; -908.000
374.405;  182.875; -388.000; -276.000
374.536;  422.350; -526.000; -387.000
374.666; 1096.325; -759.000; -807.000
374.797;  218.350; -817.000; -868.000
374.928;  812.525; -710.000; -560.000
375.058;  881.475; -535.000; -500.000
375.189;   66.275;  -59.000;  -93.000
375.320;  -97.775; -928.000;-1034.000
375.450;  -44.225; -625.000; -616.000
375.581;  -51.425; -526.000; -436.000
375.712;  -23.900; -574.000; -250.000
375.842;  275.050; -438.000; -415.000
375.973;  235.200; -554.000; -513.000
376.103;  -60.225; -665.000; -648.000
376.234;  -83.750; -531.000; -552.000
376.364;  -39.550; -944.000; -867.000
376.495;  310.050;  925.000;  529.000
376.625;  -22.625; -472.000; -485.000
376.756;   76.375; -709.000; -678.000
376.886;  -80.350;-1178.000;-1026.000
377.017;   63.700;-1048.000;-1061.000
377.147;  372.625; -786.000; -782.000
377.278;   66.600;  174.000;  228.000
377.408; -130.975; -801.000; -815.000
377.538;  -94.425; -707.000; -693.000
377.669;  -77.275; -537.000; -613.000
377.799;  -87.425; -645.000; -635.000
377.929;  -72.100; -610.000; -428.000
378.060; -121.075; -781.000; -847.000
378.190;  -70.200; -726.000; -531.000
378.320;  -49.300; -401.000; -406.000
378.451;  -24.100; -131.000;  -22.000
378.581;  -12.275;  -67.000; -110.000
378.711;  149.675; 1035.000;  866.000
378.841;  -18.275; -533.000; -675.000
378.972;  -56.625; -871.000; -751.000
379.102;    9.900; -652.000; -579.000
379.232;  -30.600; -126.000;  -73.000
379.362;  -93.275;-1001.000; -885.000
379.492;   -9.425; -373.000; -424.000
379.623;  106.575;    0.000;  111.000
379.753; -102.450;-1107.000; -974.000
379.883;  183.775;   59.000;  156.000
380.013;   13.400;-1081.000;-1017.000
380.143;  -92.350;-1097.000;-1056.000
380.273; -104.275; -985.000; -861.000
380.403;    7.200; -344.000; -257.000
380.533;  -27.075; -651.000; -664.000
380.663;   77.200;  173.000;  128.000
380.793; -102.475;-1027.000;-1074.000
380.923;  -12.850; -103.000;  -34.000
381.053; -109.325; -613.000; -623.000
381.183;  -43.750; -106.000; -248.000
381.313;   20.375; -656.000; -470.000
381.443;   45.525; -692.000; -473.000
381.573;  174.875; -402.000; -409.000
381.703;  292.125;-1249.000;-1095.000
381.833; -133.800;-1454.000;-1336.000
381.963;  115.725; -134.000;  -87.000
382.093; 1368.775; -925.000; -909.000
382.223;  437.550; -713.000; -602.000
382.353;  -34.925; -801.000; -608.000
382.482;  363.275;-1091.000; -964.000
382.612;  749.475; -872.000; -644.000
382.742;  444.250; -695.000; -622.000
382.872;  243.375; -565.000; -551.000
383.002;   67.800;  347.000; -132.000
383.131;  -25.550; -226.000; -160.000
383.261;  -32.350; -706.000; -768.000
383.391;  279.675; -552.000; -377.000
383.521; 3291.075;  451.000;  263.000
383.650;  844.525; -947.000; -904.000
383.780;   10.975; -783.000; -656.000
383.910;   98.475;  880.000;  802.000
384.039;   15.275; -794.000; -656.000
384.169;  192.525;-1205.000;-1017.000
384.299;   -4.150; -650.000; -662.000
384.428;  -92.075; -764.000; -680.000
384.558;  -45.900; -308.000; -275.000
384.687;  -47.875; -414.000; -334.000
384.817;   20.300;   75.000;   -2.000
384.947;   10.200; -234.000; -141.000
385.076;  284.600;  982.000;  912.000
385.206;   88.350;  369.000;  480.000
385.335;  -28.750; -549.000; -417.000
385.465;  -84.325; -655.000; -663.000
385.594;  121.875;  -53.000;  -44.000
385.724;  397.500; -868.000; -838.000
385.853;  123.425; -296.000; -270.000
385.982; 1282.050; -743.000; -787.000
386.112; 2127.425;-1052.000; -871.000
386.241;  141.775; -307.000; -312.000
386.371;   19.125; -174.000;  -87.000
386.500;   -7.175; -825.000; -789.000
386.629;   23.450; -874.000; -817.000
386.759;   64.800;  -43.000;   68.000
386.888;    8.500; -170.000; -250.000
387.017;  -88.950; -648.000; -620.000
387.147;  -74.125; -771.000; -798.000
387.276;  -19.050; -410.000; -397.000
387.405;    3.575; -398.000; -342.000
387.535;  -36.075; -452.000; -361.000
387.664;  -55.875; -692.000; -620.000
387.793;   48.700; -198.000; -113.000
387.922;  503.575;  255.000;  200.000
388.052;   24.050; -576.000; -423.000
388.181;    1.150; -342.000; -472.000
388.310;   -3.775; -889.000; -710.000
388.439;  -44.175; -749.000; -742.000
388.568;  156.950;  365.000;  244.000
388.697; 1011.400; -756.000; -653.000
388.826;  207.425; -768.000; -666.000
388.956;   48.125; -285.000; -307.000
389.085;  -52.600; -347.000; -287.000
389.214; -102.375; -842.000; -872.000
389.343;  -68.150; -645.000; -413.000
389.472;  401.275;  126.000;  149.000
389.601;  525.975;   91.000;    0.000
389.730;   20.875; -568.000; -687.000
389.859;   53.450;  226.000;   46.000
389.988;  180.075; -423.000; -408.000
390.117;  134.750; -168.000; -146.000
390.246;   -7.325; -331.000; -320.000
390.375;   88.300; -673.000; -626.000
390.504;  -52.725; -703.000; -621.000
390.633; -109.925; -672.000; -726.000
390.761;  -68.700; -732.000; -645.000
390.890;   13.425;   -4.000; -130.000
391.019;  -26.100; -421.000; -441.000
391.148; -118.050; -826.000; -855.000
391.277;  -63.925; -576.000; -493.000
391.406;  -92.450; -821.000; -805.000
391.534;   10.925;  574.000; -301.000
391.663;  -62.400; -583.000; -645.000
391.792;  -74.325; -673.000; -701.000
391.921;   73.850;   -3.000;   15.000
392.050;  174.800; -287.000; -228.000
392.178;  -45.575;-1206.000;-1061.000
392.307;  137.675; -758.000; -712.000
392.436;   68.050; -427.000; -641.000
392.564;   22.275;  166.000;   -6.000
392.693;  -99.075; -860.000; -682.000
392.822;  192.400; -529.000; -534.000
392.950;   89.675; -880.000; -714.000
393.079;  312.025; -188.000; -328.000
393.208;   20.675; -488.000; -511.000
393.336;   -9.175; -170.000; -145.000
393.465;  -62.050; -317.000; -199.000
393.593;    2.150;   62.000;   79.000
393.722; -138.000;-1121.000; -916.000
393.850;  -31.175; -188.000;  -61.000
393.979; -151.750; -926.000; -805.000
394.107;  -52.400; -517.000; -537.000
394.236;  -20.950; -570.000; -507.000
394.364;  197.175;  383.000;  206.000
394.493;  363.025; -911.000; -767.000
394.621;   -6.225; -955.000; -916.000
394.750;  703.425; -873.000; -923.000
394.878; 2990.150; -247.000; -149.000
395.007; 4258.750; -721.000; -807.000
395.135;  335.225; -790.000; -721.000
395.263;  -87.900;-1038.000;-1040.000
395.392;    9.100;  -25.000; -107.000
395.520; -147.150; -818.000; -679.000
395.648;  -86.150; -865.000; -915.000
395.777;  -20.900; -366.000; -405.000
395.905;  -49.100; -449.000; -564.000
396.033;   16.275;  217.000;  172.000
396.162;  589.950; -399.000; -453.000
396.290;  537.475;  -17.000;   -2.000
396.418;  107.475; -555.000; -514.000
396.546;  -71.725; -571.000; -466.000
396.674; -102.725; -850.000; -878.000
396.803;    4.100;  -72.000;  -23.000
396.931;   82.600; -179.000; -199.000
397.059;   50.075;-1026.000; -989.000
397.187; -113.025;-1026.000; -975.000
397.315; -143.525; -884.000; -649.000
397.443;  -97.075; -592.000; -443.000
397.572;  -94.350; -578.000; -424.000
397.700;  -11.125; -607.000; -614.000
397.828;    3.775;  120.000;  -90.000
397.956;  -51.800; -508.000; -478.000
398.084;  -79.400; -767.000; -626.000
398.212;   30.850;  137.000;  124.000
398.340;   -5.975;  -56.000;  159.000
398.468;   27.050; -390.000; -169.000
398.596; -143.800; -993.000; -953.000
398.724; -116.300; -762.000; -767.000
398.852; -173.175;-1024.000; -976.000
398.980;  -65.100; -560.000; -560.000
399.108;  -69.275; -982.000; -735.000
399.236;   35.950;   13.000;    8.000
399.363;  -13.325;  222.000;  196.000
399.491;  -64.350; -404.000; -398.000
399.619; -137.025; -829.000; -800.000
399.747;  -98.525; -859.000; -771.000
399.875;   73.050;  220.000;  234.000
400.003;  -48.775; -359.000; -284.000
400.130;  -82.225; -421.000; -341.000
400.258;  -36.450;  -83.000;   38.000
400.386;  -75.675; -352.000; -168.000
400.514;  -58.800; -526.000; -587.000
400.641;  -89.250; -928.000; -802.000
400.769; -140.100; -979.000; -888.000
400.897; -122.825; -838.000; -793.000
401.025;  -18.975; -166.000; -152.000
401.152;  -12.625;  220.000;   38.000
401.280;  -83.900; -430.000; -429.000
401.408; -116.600; -712.000; -576.000
401.535; -105.225; -735.000; -758.000
401.663; -203.425;-1134.000;-1054.000
401.790;  -87.050; -514.000; -525.000
401.918;   36.975;  436.000;  405.000
402.046;  -16.975;  134.000;  122.000
402.173;  -44.675;  -18.000;    7.000
402.301;  -70.375; -519.000; -397.000
402.428;   30.175;  528.000;  383.000
402.556; -141.150;-1188.000; -913.000
402.683;  -32.800;  -20.000;   -1.000
402.811;  -32.750;  -37.000; -206.000
402.938;  -17.900;   20.000;   27.000
403.066;  185.650; -574.000; -558.000
403.193;  320.800;  299.000;  239.000
403.321;  249.275; -396.000; -574.000
403.448;  314.450;   83.000;   27.000
403.575;  148.275;  -90.000;  -46.000
403.703;  -95.025; -732.000; -557.000
403.830;  -60.475; -531.000; -496.000
403.957; -144.575;-1117.000;-1023.000
404.085;   23.625;  -61.000; -172.000
404.212;   96.725;  -50.000;   63.000
404.339;  282.200; -566.000; -306.000
404.467; 5919.725; -612.000; -524.000
404.594; 4030.950; -287.000; -227.000
404.721;  959.450; -869.000; -764.000
404.848;   83.000; -113.000; -202.000
404.976; -109.275; -856.000; -783.000
405.103;  -17.250;  -14.000;  -82.000
405.230;  -16.450;  190.000;  226.000
405.357;   30.975;  117.000;   44.000
405.484;  260.325;  -49.000;    5.000
405.612;   72.475; -548.000; -563.000
405.739;  -67.900; -488.000; -243.000
405.866;   72.850;  669.000;  385.000
405.993;  -60.250; -398.000; -102.000
406.120; -137.425; -801.000; -887.000
406.247;  -57.050; -323.000; -342.000
406.374;  400.925;  540.000;  629.000
406.501;  103.700; -632.000; -702.000
406.628;  -62.775; -621.000; -589.000
406.755;  -83.550; -803.000; -620.000
406.882;  -34.450; -228.000; -277.000
407.009; -115.100; -719.000; -628.000
407.136;   42.525; -480.000; -401.000
407.263;  127.800; -939.000; -829.000
407.390;  -64.525; -692.000; -614.000
407.517; -173.950;-1139.000;-1187.000
407.644;  -55.975; -332.000; -256.000
407.771;  -68.375; -249.000; -287.000
407.898;   14.950;  168.000;  328.000
408.025;  -74.150; -421.000; -313.000
408.151;   -0.750;   82.000;  153.000
408.278;  -78.825; -267.000; -216.000
408.405; -107.125; -931.000; -899.000
408.532;  -72.975; -549.000; -542.000
408.659; -111.775; -677.000; -648.000
408.785; -206.875;-1298.000;-1170.000
408.912;  -66.825; -412.000; -296.000
409.039; -103.550; -610.000; -686.000
409.166; -102.775; -591.000; -555.000
409.292; -114.525; -571.000; -534.000
409.419; -120.475; -665.000; -649.000
409.546;  -87.675; -431.000; -192.000
409.672; -104.200; -713.000; -545.000
409.799;  -22.325;  -36.000;   34.000
409.926;  -44.025; -180.000; -179.000
410.052; -180.800;-1127.000;-1091.000
410.179;  -51.075; -368.000; -392.000
410.305; -105.625; -375.000; -493.000
410.432;  -46.775; -220.000; -333.000
410.558;  -98.600; -305.000; -380.000
410.685;  -99.650; -688.000; -431.000
410.812; -111.475; -409.000; -588.000
410.938; -136.825; -964.000; -808.000
411.065; -101.875; -671.000; -645.000
411.191;  -18.825; -189.000; -174.000
411.317; -111.775; -823.000; -742.000
411.444;  -52.450; -317.000; -246.000
411.570;  -81.900; -339.000; -294.000
411.697; -117.950; -758.000; -752.000
411.823; -179.775; -989.000; -999.000
411.949;  -27.100;  -56.000;   17.000
412.076; -117.850; -539.000; -519.000
412.202; -111.525; -758.000; -757.000
412.329; -133.350; -798.000; -752.000
412.455; -110.225; -821.000; -657.000
412.581;  -45.500;  -15.000;  172.000
412.707;  -62.250; -540.000; -457.000
412.834;  -11.400;  156.000;  219.000
412.960;  -94.100; -785.000; -784.000
413.086; -113.000; -743.000; -701.000
413.212;  160.175;  604.000;  578.000
413.339;  -83.925; -685.000; -701.000
413.465;  -18.825; -364.000; -310.000
413.591;  -96.700; -757.000; -474.000
413.717;  -42.975; -358.000; -366.000
413.843; -143.325; -839.000; -861.000
413.969;  -64.450;  -47.000; -292.000
414.096; -107.750; -679.000; -679.000
414.222;   -0.075;  -33.000;   85.000
414.348;  -38.325; -652.000; -385.000
414.474;   87.475;   38.000;  -52.000
414.600;  -21.825; -126.000; -144.000
414.726;  -13.450;  -96.000;  -55.000
414.852;  -64.850; -365.000; -342.000
414.978;   41.700;  104.000;  -18.000
415.104;   41.700;   38.000;   80.000
415.230;   36.025; -329.000; -330.000
415.356;   31.925; -409.000; -514.000
415.482;  199.700;   13.000;  -35.000
415.608;  288.525; -247.000; -323.000
415.734;  975.250;   67.000;   38.000
415.860;20168.450; -875.000; -767.000
415.986;15825.225; -685.000; -607.000
416.111; 1382.425; -798.000; -652.000
416.237;  295.675; -424.000; -571.000
416.363; 1106.675; -765.000; -733.000
416.489; 4430.400; -324.000; -251.000
416.615;  540.500; -707.000; -742.000
416.741;  -18.900; -677.000; -784.000
416.866;  -96.075; -673.000; -736.000
416.992; -112.150; -801.000; -818.000
417.118;  -30.625;  -41.000;  -80.000
417.244;  -68.475; -798.000; -531.000
417.369;  -93.350; -801.000; -612.000
417.495;   -7.825; -325.000; -254.000
417.621;  -79.775;-1015.000; -803.000
417.746;    4.625; -579.000; -572.000
417.872;   38.650; -254.000; -144.000
417.998;   61.725; -515.000; -530.000
418.123; 1008.925;-1073.000; -845.000
418.249; 5692.350; -512.000; -601.000
418.374;  863.000; -916.000; -824.000
418.500;  133.725; -383.000; -482.000
418.626;  126.200;   70.000;  -59.000
418.751;  128.600; -549.000; -448.000
418.877;  198.075; -637.000; -643.000
419.002; 1755.475; -688.000; -560.000
419.128;13099.800; -930.000; -721.000
419.253; 3478.375; -967.000; -837.000
419.379;  444.775; -391.000; -338.000
419.504;  414.725;  325.000;  415.000
419.629;  531.975; -393.000; -212.000
419.755; 3501.250; -317.000; -254.000
419.880;22075.775;  -98.000;   67.000
420.006;11913.000; -280.000; -221.000
420.131;31112.600; -662.000; -775.000
420.256; 4848.350; -315.000; -316.000
420.382;  615.850; -665.000; -687.000
420.507;   97.575; -649.000; -778.000
420.632;   98.125; -337.000; -339.000
420.758;  229.800; -251.000; -425.000
420.883;  -75.900; -876.000; -672.000
421.008; -100.800; -775.000; -619.000
421.133;  -92.325; -509.000; -467.000
421.259;  -53.800; -325.000; -259.000
421.384; -124.000; -834.000; -693.000
421.509;  -67.400;-1052.000; -862.000
421.634; 1036.150; -936.000; -820.000
421.759;  490.275; -359.000; -327.000
421.885;  -79.350; -717.000; -656.000
422.010;  -71.550; -673.000; -542.000
422.135; -151.000; -695.000; -727.000
422.260;   26.625;  340.000;  280.000
422.385;  -54.400;   12.000;  -98.000
422.510;   -2.725;  151.000;  -26.000
422.635;    8.650;  -87.000;  -43.000
422.760;  115.575; -766.000; -791.000
422.885;   66.800;  -57.000;  -80.000
423.010;  -32.175; -112.000; -169.000
423.135;  -94.700; -481.000; -561.000
423.260;  -22.375; -150.000; -245.000
423.385;   47.875;  476.000;  222.000
423.510;   32.200;   71.000;  -22.000
423.635;   74.125;  133.000;   45.000
423.760;   75.425;  383.000;  328.000
423.885;   45.525;  336.000;  391.000
424.010;   22.900;  -68.000;  -13.000
424.135;  -23.800;    5.000;  -33.000
424.259;  -84.125; -654.000; -457.000
424.384;  -75.650; -279.000; -272.000
424.509;  -36.325; -260.000; -186.000
424.634; -105.000; -761.000; -623.000
424.759;  -12.900; -688.000; -544.000
424.883;  -17.775; -506.000; -527.000
425.008;  173.425; -502.000; -410.000
425.133; 2038.850; -679.000; -653.000
425.258; 1017.025; -517.000; -381.000
425.382;  976.075; -867.000; -774.000
425.507; 2573.175; -487.000; -543.000
425.632;  454.325; -802.000; -663.000
425.756;  483.975; -256.000; -146.000
425.881; 6458.225; -831.000; -857.000
426.006;18947.375; -604.000; -355.000
426.130; 3187.750; -696.000; -508.000
426.255;  411.450; -611.000; -491.000
426.379;  174.700; -189.000; -577.000
426.504;  377.300;  660.000;  544.000
426.629; 4050.125; -519.000; -466.000
426.753; 3058.725;   64.000;  -46.000
426.878;  344.125; -252.000; -288.000
427.002;  164.000; -651.000; -668.000
427.127; 1549.150;  -35.000; -158.000
427.251;11757.525;  372.000;  401.000
427.375; 3671.875; -191.000; -173.000
427.500; 2264.250; -616.000; -610.000
427.624;  828.400; -234.000; -400.000
427.749;   87.375; -216.000; -225.000
427.873;  -36.600; -499.000; -412.000
427.997;  -39.050; -222.000; -230.000
428.122;   77.000;  795.000;  703.000
428.246;   50.525;  433.000;  434.000
428.371; -124.800; -869.000; -773.000
428.495;  -95.200; -624.000; -646.000
428.619;  -27.700; -186.000; -117.000
428.743;   17.750;   65.000;  132.000
428.868;    0.625; -732.000; -643.000
428.992; 1321.625; -219.000; -326.000
429.116;  567.475; -329.000; -357.000
429.240;  254.700;  419.000;  426.000
429.365;  -29.575; -454.000; -574.000
429.489;  -39.925; -638.000; -647.000
429.613;   23.075; -236.000; -177.000
429.737;   49.225; -563.000; -432.000
429.861;  254.525; -247.000; -133.000
429.985; 5535.150; -425.000; -305.000
430.109; 6633.675; -770.000; -908.000
430.234;  798.700;   76.000;  -50.000
430.358;   71.325; -250.000; -160.000
430.482;  -56.400; -672.000; -564.000
430.606;  -81.700; -655.000; -375.000
430.730;   26.000; -437.000; -388.000
430.854;  109.925; -909.000; -835.000
430.978;  -65.525; -795.000; -764.000
431.102; -103.350; -499.000; -422.000
431.226; -117.550; -874.000; -815.000
431.350;    8.525;  345.000;  422.000
431.474;  -71.650; -661.000; -373.000
431.597; -151.475;-1060.000; -848.000
431.721;  -77.475; -276.000; -267.000
431.845; -136.075; -704.000; -472.000
431.969;  -86.225; -304.000; -349.000
432.093;  -92.150; -395.000; -317.000
432.217;  -12.900;   32.000;   82.000
432.341;  -95.375; -523.000; -518.000
432.464;    7.350;   96.000;   40.000
432.588;  175.650; -401.000; -329.000
432.712;  102.025;  -52.000;  -52.000
432.836;   40.000;  213.000;  263.000
432.959;  -21.175; -372.000; -311.000
433.083;   78.775;   11.000;    2.000
433.207;  386.825;  285.000;  930.000
433.330; 5062.850; -391.000; -200.000
433.454; 6693.425; -654.000; -638.000
433.578; 3813.475;  583.000;  278.000
433.701;  757.225; -623.000; -675.000
433.825;  157.850; -292.000; -299.000
433.949;  161.075;   28.000;  -72.000
434.072;   33.700; -410.000; -323.000
434.196;   -5.100; -309.000; -117.000
434.319; 3602.575;25482.000;25124.000
434.443;  689.100; -656.000; -603.000
434.566; 2779.575;  281.000;   62.000
434.690;  510.350; -637.000; -383.000
434.813;   54.125; -251.000; -173.000
434.937;  -65.775; -569.000; -696.000
435.060;  -55.850; -423.000; -332.000
435.184;  235.850; -492.000; -217.000
435.307;  139.900;  159.000;  102.000
435.431;   -4.600;  -40.000;   24.000
435.554;  -87.900; -399.000; -240.000
435.677;  -81.675; -350.000; -258.000
435.801;  -60.450;  -25.000;   49.000
435.924;   -9.275;    1.000;  -67.000
436.048; -124.925;-1019.000; -732.000
436.171;  -77.750; -240.000;  -66.000
436.294;  -37.450; -248.000; -229.000
436.417;  107.975; -963.000; -849.000
436.541;  -72.425; -814.000; -840.000
436.664;  -48.800; -242.000; -316.000
436.787;  -30.325;   13.000;  113.000
436.910; -111.050; -792.000; -422.000
437.034;   -6.600;  142.000;  143.000
437.157;   38.950;  -11.000;    0.000
437.280;  -58.275; -392.000; -292.000
437.403;  -99.875; -982.000; -869.000
437.526;  513.675; -903.000; -865.000
437.649; 2051.850; -505.000; -332.000
437.772;  339.550; -692.000; -540.000
437.896;  116.675;  700.000;  544.000
438.019; -110.475; -758.000; -503.000
438.142;  -93.700; -596.000; -506.000
438.265;  -43.400; -639.000; -670.000
438.388;  531.175; -520.000; -410.000
438.511;   87.500; -597.000; -394.000
438.634;  -59.275; -247.000; -125.000
438.757; -138.950; -693.000; -619.000
438.880;  -19.550;  -34.000;  -57.000
439.003;  -75.925; -417.000; -437.000
439.126;  -63.650; -287.000; -167.000
439.248;  -74.025;  -98.000; -139.000
439.371;  -37.050;    9.000;  -53.000
439.494;   28.200;  510.000;  439.000
439.617;  -41.125;   65.000;  -88.000
439.740; -183.000; -968.000; -816.000
439.863; -148.425; -755.000; -595.000
439.986; -124.075; -476.000; -431.000
440.108;  -57.475; -161.000; -112.000
440.231; -169.825; -950.000; -836.000
440.354;  -37.475;  -64.000; -150.000
440.477;   11.575; -566.000; -542.000
440.599;    6.750; -200.000; -225.000
440.722; -124.675; -709.000; -586.000
440.845;   59.850;  751.000;  928.000
440.968; -107.675; -415.000; -311.000
441.090;  -65.450; -199.000;  -33.000
441.213; -178.350;-1021.000; -825.000
441.336;  -47.775; -159.000;   -5.000
441.458;  -84.825; -549.000; -396.000
441.581;  -91.250; -628.000; -629.000
441.703;  -75.450; -152.000;   13.000
441.826; -108.850; -557.000; -400.000
441.948;  -57.325;   56.000;   51.000
442.071;   37.625;  555.000;  424.000
442.193; -111.200; -531.000; -485.000
442.316;   30.050;  152.000;   97.000
442.438;   43.950; -233.000;  -10.000
442.561;   75.025;  272.000;  262.000
442.683;  435.600; -809.000; -522.000
442.806; 1069.625;   -8.000;   74.000
442.928;   24.200; -859.000; -604.000
443.051;  -66.150; -577.000; -373.000
443.173;  -82.000; -341.000; -339.000
443.295;  -88.025; -263.000; -371.000
443.418;  -62.000; -321.000;  -29.000
443.540;  -13.575; -106.000;   -4.000
443.662; -127.275; -563.000; -465.000
443.785;   -6.425;  335.000;  199.000
443.907;  -91.100; -362.000; -208.000
444.029; -117.200; -767.000; -494.000
444.152; -152.475; -644.000; -554.000
444.274;  -20.600;  -18.000;  -24.000
444.396; -114.075; -461.000; -221.000
444.518; -126.125; -691.000; -454.000
444.640;  -98.825; -268.000; -111.000
444.763;  -29.125;  388.000;  249.000
444.885; -132.700; -432.000; -392.000
445.007;  -26.575;   35.000;   86.000
445.129; -121.875; -610.000; -515.000
445.251;  -95.225; -372.000; -439.000
445.373; -138.450; -537.000; -386.000
445.495;   14.475;  242.000;  350.000
445.617;   39.625;  853.000;  753.000
445.739;  -67.250; -215.000;  -97.000
445.861;  -46.975; -245.000; -112.000
445.984;  -39.275; -267.000; -101.000
446.105;  156.400; -418.000; -251.000
446.227;  572.625; -176.000;  -19.000
446.349;    7.550; -358.000; -249.000
446.471;  -98.975; -615.000; -448.000
446.593;  -67.675; -316.000;   19.000
446.715;    1.125;  -67.000;   41.000
446.837;   45.350;  697.000;  832.000
446.959; -108.050; -457.000; -478.000
447.081; -137.375; -628.000; -518.000
447.203;   62.650;  862.000;  834.000
447.325;  -79.725; -270.000;   42.000
447.446;  -13.300;  286.000;  530.000
447.568; -148.925; -921.000; -803.000
447.690;  -67.750; -236.000; -245.000
447.812; -152.550; -798.000; -519.000
447.933;  -26.325;  155.000;  127.000
448.055;  -79.175; -306.000; -261.000
448.177;  128.700;   31.000;   79.000
448.299;   73.350; -935.000; -727.000
448.420;   29.850;  -25.000;  159.000
448.542;  -53.850;   -3.000;   33.000
448.664;  -33.750;  109.000;  322.000
448.785;  -39.050;  265.000;   83.000
448.907;  -79.250; -614.000; -353.000
449.028;  -42.775; -771.000; -471.000
449.150;   50.325;  492.000;  589.000
449.272; -179.950;-1044.000; -913.000
449.393;   19.225;  612.000;  694.000
449.515; -151.725; -634.000; -581.000
449.636;  -59.375; -264.000; -155.000
449.758;   66.950;  763.000;  622.000
449.879;  -85.150; -498.000; -396.000
450.001;  -77.925; -149.000;  -49.000
450.122;  -35.425;  -95.000;  162.000
450.244;  -37.025;   37.000;  364.000
450.365;  -80.025; -495.000; -301.000
450.486;  -42.100;   80.000;  268.000
450.608;   33.200;  393.000;  326.000
450.729;   59.675;  578.000;  645.000
450.850;   19.700; -574.000; -466.000
450.972;  728.575; -552.000; -389.000
451.093; 5035.375;  190.000;  588.000
451.214; 2408.600; -516.000; -337.000
451.336;  449.650;  773.000;  579.000
451.457;   56.050;  264.000;  393.000
451.578;  -34.750; -118.000;  -74.000
451.699; -115.975; -546.000; -540.000
451.821;  -56.275; -284.000;  -50.000
451.942;  -14.450;  278.000;  285.000
452.063;   26.550;  228.000;  419.000
452.184;  552.550;  -54.000;  -49.000
452.305; 1171.325;  103.000;  170.000
452.427;  155.625; -549.000; -301.000
452.548;   -9.475;   23.000;   79.000
452.669;  -58.300; -257.000;  -89.000
452.790;  -42.075;    3.000;  -18.000
452.911;  -15.525;  195.000;  259.000
453.032;  -56.400; -289.000;  -60.000
453.153;  -60.575;  -29.000;   81.000
453.274;   66.525;  737.000;  868.000
453.395;  -50.500;  -51.000;  175.000
453.516;  125.950; 1317.000; 1388.000
453.637;  -74.375; -205.000; -150.000
453.758;  -53.700;   15.000;   69.000
453.879; -122.050; -462.000; -250.000
454.000;   80.725; 1086.000;  948.000
454.121; -126.075; -554.000; -326.000
454.242; -109.850; -599.000; -383.000
454.362;  -51.625;  -99.000;  114.000
454.483;  -37.625; -309.000; -229.000
454.604;   46.100;  512.000;  580.000
454.725; -133.025; -627.000; -555.000
454.846; -124.175; -474.000; -406.000
454.967;  -18.175;  230.000;  539.000
455.087;  -53.925;  179.000;  153.000
455.208;   17.825;  554.000;  856.000
455.329;  -63.975;  -22.000;   82.000
455.450;   32.000;  473.000;  633.000
455.570;  -75.400; -234.000; -211.000
455.691;  -36.350;  201.000;  407.000
455.812; -114.000; -270.000;  -92.000
455.932;  -68.400;  107.000;  -97.000
456.053;  -85.250;   36.000;   24.000
456.173; -112.525; -433.000; -355.000
456.294; -149.850; -476.000; -303.000
456.415;  -55.750;  -73.000;   70.000
456.535;  -48.200;  297.000;  273.000
456.656;  -23.050;  132.000;  240.000
456.776;  -74.975;    3.000;  298.000
456.897;   -4.900;  308.000;  513.000
457.017;  -72.600; -153.000;   -3.000
457.138;  -97.350; -402.000; -249.000
457.258;  -37.300;  263.000;  224.000
457.379;   -8.800;  509.000;  521.000
457.499;  -25.950;  443.000;  432.000
457.620; -116.325; -407.000; -231.000
457.740; -107.750; -132.000;  -11.000
457.860;  -53.200;   87.000;   44.000
457.981;  -59.150;  132.000;  124.000
458.101;  -48.425;  -89.000;   40.000
458.221;  -15.775;  336.000;  402.000
458.342;  -48.975;   -4.000;  -37.000
458.462;    1.950;  617.000;  352.000
458.582;  -24.250; -302.000; -294.000
458.703;    4.200;  303.000;  154.000
458.823;  -18.575;   22.000;  163.000
458.943;   24.350;  341.000;  467.000
459.063;  -21.450; 1124.000;  192.000
459.183;  -23.325;  328.000;  313.000
459.304;    3.200;  315.000;  517.000
459.424;  -73.825; -246.000;  -89.000
459.544;  325.700;  388.000;  764.000
459.664;  877.550;  499.000;  506.000
459.784;  342.975; 1004.000; 1175.000
459.904;   51.750;  867.000;  744.000
460.024;   71.150;  867.000;  684.000
460.144;    0.950;  449.000;  554.000
460.264;    2.775;  515.000;  327.000
460.385; -101.050; -145.000; -119.000
460.505;   35.150;  905.000;  858.000
460.625; -100.975;  -17.000;  -68.000
460.745;  -34.575;  396.000;  541.000
460.864;  -62.025;  153.000;  469.000
460.984;   17.925;  499.000;  573.000
461.104;  114.325; 1656.000; 1775.000
461.224;   31.175;  657.000;  650.000
461.344;  -33.175;  431.000;  360.000
461.464;  -39.125;  258.000;  513.000
461.584;  -29.100;  283.000;  466.000
461.704;  -45.000;   58.000;  108.000
461.824;  -60.050;  238.000;  259.000
461.943;  -36.250;  191.000;  130.000
462.063;  -74.375;    2.000;  324.000
462.183;   21.275;  639.000;  717.000
462.303;   88.800; 1678.000; 1230.000
462.422;   26.200;  781.000;  840.000
462.542;  -53.250;  271.000;  391.000
462.662;   54.200;  353.000;  380.000
462.782;  251.775;  833.000;  572.000
462.901;  515.225;  545.000;  717.000
463.021;  286.400; 1702.000; 1638.000
463.141;   -7.250;  337.000;  770.000
463.260;  -30.350;  614.000;  474.000
463.380;   22.075;  902.000;  884.000
463.499;  -39.175;  342.000;  332.000
463.619;  -27.650;  581.000;  559.000
463.738;   92.700; 1644.000;  903.000
463.858;   11.500;  657.000;  811.000
463.978;  -26.800;  542.000;  396.000
464.097;   57.950;  921.000; 1114.000
464.217;  117.675; 1196.000; 1143.000
464.336;  113.175; 1068.000; 1130.000
464.455;  -35.875;  328.000;  659.000
464.575;   46.900;  597.000;  602.000
464.694;  161.725; 1204.000; 1179.000
464.814;  122.375; 1190.000; 1138.000
464.933;   84.650; 1095.000; 1027.000
465.052;  100.425; 1412.000; 1054.000
465.172;   76.925;  922.000;  799.000
465.291;  149.700; 1376.000; 1320.000
465.410;   14.125;  462.000;  735.000
465.530;   81.375; 1355.000; 1310.000
465.649;   45.200; 1209.000; 1273.000
465.768;  140.725; 1673.000; 1508.000
465.888;   45.375;  941.000; 1174.000
466.007;   93.325; 1335.000; 1440.000
466.126;  -11.125;  721.000;  641.000
466.245;   42.750; 1176.000; 1187.000
466.364;    6.525;  950.000; 1060.000
466.484;   56.525; 1024.000; 1213.000
466.603;   32.750; 1101.000; 1222.000
466.722;  124.550; 1490.000; 1769.000
466.841;   71.375; 1151.000; 1401.000
466.960;   37.825; 1069.000;  972.000
467.079;  110.625; 1971.000; 1786.000
467.198;   54.525; 1238.000; 1181.000
467.317;   74.650; 1768.000; 1162.000
467.436;   78.600; 1709.000; 1261.000
467.555;  118.250; 1796.000; 1746.000
467.674;   71.850; 1227.000; 1329.000
467.793;   29.150; 1376.000; 1374.000
467.912;   84.850; 1658.000; 1539.000
468.031;  134.050; 2038.000; 1930.000
468.150;  144.600; 1842.000; 1837.000
468.269;  198.800; 2313.000; 2090.000
468.388;  190.050; 2168.000; 2339.000
468.507;  250.550; 2884.000; 2903.000
468.626;  268.275; 2555.000; 2541.000
468.744;  141.950; 2018.000; 2174.000
468.863;  205.875; 2312.000; 2523.000
468.982;   85.150; 1503.000; 1555.000
469.101;  221.800; 2788.000; 2692.000
469.220;  134.600; 2333.000; 2176.000
469.338;  252.475; 2935.000; 3051.000
469.457;  202.300; 2719.000; 2545.000
469.576;  336.625; 3953.000; 3784.000
469.695;  229.075; 2877.000; 3066.000
469.813;  425.500; 4148.000; 4192.000
469.932;  387.525; 4255.000; 4485.000
470.051;  439.275; 4075.000; 4161.000
470.169;  833.225; 4470.000; 4338.000
470.288; 1527.750; 4700.000; 4809.000
470.406;  931.150; 5059.000; 5194.000
470.525;  647.750; 6101.000; 5787.000
470.644;  646.650; 6847.000; 6794.000
470.762;  803.550; 8397.000; 7873.000
470.881;  901.250; 8651.000; 8464.000
470.999; 1029.000; 9685.000; 9151.000
471.118; 1101.650;11174.000;10711.000

