
Integration time [ms]: 100.000
Averaging Nr. [scans]: 40
Smoothing Nr. [pixels]: 0
Data measured with spectrometer [name]: 2101012U2
Wave   ;Sample   ;Dark     ;Reference
[nm]   ;[counts] ;[counts] ;[counts] 

197.733;   51.675;  516.000;  404.000
197.879;  -82.350; -610.000; -634.000
198.025;  -53.025; -475.000; -420.000
198.171;  -63.250; -602.000; -612.000
198.317;  -20.875; -401.000; -316.000
198.463;  -62.675; -655.000; -404.000
198.609;   11.175;  181.000; -137.000
198.755;  -82.025; -644.000; -410.000
198.901;  -69.550; -505.000; -424.000
199.047;  -67.200; -615.000; -488.000
199.193;  -31.425; -230.000; -468.000
199.339;  -45.975; -222.000; -369.000
199.485;   40.200;  330.000;  271.000
199.631;   18.300;  227.000;  310.000
199.777;  -63.575; -466.000; -398.000
199.923;  -57.850; -610.000; -424.000
200.069;   -4.475; -141.000;  -58.000
200.215;   53.050;  128.000;  453.000
200.361;   44.150;  243.000;  477.000
200.507;  -55.700; -600.000; -373.000
200.653;  -39.700; -371.000; -194.000
200.798;  -43.000; -215.000; -125.000
200.944;   -3.250; -146.000;  -41.000
201.090;   23.975;   61.000;  222.000
201.236;  -11.850; -116.000; -158.000
201.382;  111.950;  874.000;  903.000
201.528;   -8.200;  -58.000;  -48.000
201.674;  -61.775; -386.000; -293.000
201.819;  -62.550; -540.000; -439.000
201.965;  -78.075; -699.000; -447.000
202.111;  -26.350; -273.000; -226.000
202.257;  -41.850; -250.000; -238.000
202.402;    5.925;   13.000;  -36.000
202.548;  -31.150; -169.000; -116.000
202.694;   80.675;  410.000; -183.000
202.840;  -75.750; -603.000; -531.000
202.985;  -72.775; -681.000; -639.000
203.131; -116.125; -832.000; -666.000
203.277;  -33.350; -199.000; -262.000
203.423;  -58.400; -434.000; -520.000
203.568;  -33.725; -462.000; -237.000
203.714;  -57.900; -535.000; -542.000
203.860;  -82.525; -682.000; -641.000
204.005;   -1.475;  112.000;  167.000
204.151;   71.675;  561.000;  556.000
204.296;  -52.400; -354.000; -221.000
204.442;  -72.625; -600.000; -547.000
204.588;  -76.775; -592.000; -579.000
204.733;    7.550;  178.000;  168.000
204.879; -130.250;-1018.000; -822.000
205.025;    4.475;  -99.000;  126.000
205.170;   -1.600;  -17.000;   94.000
205.316;   78.250;  438.000;  661.000
205.461;  -66.525; -698.000; -554.000
205.607;   64.675;  609.000;  665.000
205.752;  -69.725; -626.000; -551.000
205.898;  -61.250; -501.000; -391.000
206.043;  -56.450; -578.000; -506.000
206.189;  -39.700; -243.000; -285.000
206.334;   75.125;  554.000;  606.000
206.480;   68.275;  409.000;  239.000
206.625;  -92.100; -529.000; -552.000
206.771;  -46.375; -451.000; -373.000
206.916;  -48.925; -210.000; -537.000
207.062;  -72.650; -545.000; -591.000
207.207;  -66.775; -546.000; -443.000
207.353;   47.950;  185.000;  460.000
207.498;   16.300;  196.000;   85.000
207.643;  -57.375; -501.000; -370.000
207.789; -129.525;-1069.000; -910.000
207.934;  -97.125; -665.000; -713.000
208.080;  -21.500; -154.000;   66.000
208.225;   -2.375;  -22.000;  -57.000
208.370;  -78.875; -727.000; -619.000
208.516;  -83.825; -741.000; -487.000
208.661;  -20.575; -127.000;  -69.000
208.806;  -23.050; -165.000; -171.000
208.952; -106.150;-1044.000; -731.000
209.097;   64.300;  378.000;  349.000
209.242;  -40.550; -307.000; -382.000
209.387;   77.950;  392.000;  350.000
209.533;  -47.450; -321.000; -350.000
209.678;   64.200;  472.000;  543.000
209.823;  -59.025; -408.000; -310.000
209.969; -110.575; -860.000; -757.000
210.114;  -96.225; -907.000; -719.000
210.259; -123.075; -939.000; -889.000
210.404;    2.725; -171.000;  103.000
210.549;    1.350;  108.000;    3.000
210.695;  -21.375;   -3.000;  -95.000
210.840;   18.125;   94.000;   67.000
210.985;  -59.750; -484.000; -303.000
211.130;   52.650;  268.000;  406.000
211.275;    8.400;  207.000;  199.000
211.420;  -52.225; -300.000; -289.000
211.566;  -66.375; -536.000; -489.000
211.711;   23.500;  218.000;  157.000
211.856;  -68.725; -545.000; -519.000
212.001;   10.700;  151.000;   44.000
212.146;   19.800;  153.000;   49.000
212.291;  -20.550; -210.000; -186.000
212.436;  -21.275; -280.000;   -6.000
212.581;  -83.175; -685.000; -653.000
212.726;  -77.125; -487.000; -538.000
212.871;  -54.825; -552.000; -217.000
213.016; -136.650;-1172.000;-1029.000
213.161;   50.350;  406.000;  291.000
213.306;  -78.950; -435.000; -577.000
213.451;  -90.775; -778.000; -689.000
213.596;  -49.325; -455.000; -347.000
213.741;  -49.600; -448.000; -538.000
213.886;  -79.325; -498.000; -517.000
214.031;  -30.725; -294.000; -124.000
214.176;  -56.025; -408.000; -341.000
214.321;  -24.600; -296.000; -157.000
214.466;  -29.800; -163.000;  -43.000
214.611;   -3.950;  -61.000;  -10.000
214.756; -118.750; -948.000; -858.000
214.901;  -21.325; -388.000; -226.000
215.046; -121.575; -797.000; -825.000
215.191;   25.600;  128.000;   35.000
215.336;  -17.175; -157.000;  -19.000
215.480;  -62.950; -684.000; -505.000
215.625;  -15.150; -175.000;  -19.000
215.770;  -83.350; -757.000; -662.000
215.915;  -10.850;   -5.000;  -97.000
216.060;    1.125; -113.000;  -21.000
216.205;  -94.900; -731.000; -779.000
216.349;  -65.400; -470.000; -533.000
216.494; -125.750; -939.000; -867.000
216.639; -108.250; -823.000; -888.000
216.784;  -92.950; -577.000; -525.000
216.929;   45.375;  392.000;  281.000
217.073;  -26.825; -244.000;  -31.000
217.218;    9.625;   78.000;  -47.000
217.363;  -84.300; -656.000; -618.000
217.507;  -88.700; -623.000; -588.000
217.652; -114.650; -845.000; -874.000
217.797;  -86.900; -708.000; -659.000
217.942; -105.175; -856.000; -720.000
218.086;   58.700;  608.000;  539.000
218.231;  -31.000; -174.000;  -26.000
218.376;  -35.275; -337.000; -229.000
218.520;   -6.025;  -41.000;   96.000
218.665;  -43.700; -338.000; -204.000
218.810;  -48.925; -275.000; -233.000
218.954;    6.950;  201.000;   35.000
219.099; -113.675; -713.000; -963.000
219.243;  -85.350; -589.000; -554.000
219.388;  -27.675; -264.000; -136.000
219.532;  -13.425; -116.000; -116.000
219.677;  -82.700; -564.000; -521.000
219.822;   -3.075;   33.000;   89.000
219.966;    1.325;   17.000;  -99.000
220.111;  -31.900; -328.000;  -40.000
220.255;  -88.000; -797.000; -750.000
220.400;  -20.500; -180.000; -146.000
220.544;  -65.100; -516.000; -450.000
220.689;  -41.650; -422.000; -451.000
220.833;  -22.400; -123.000;  -58.000
220.978;  -54.675; -393.000; -563.000
221.122;   22.900;  319.000;  307.000
221.267; -103.975; -906.000; -837.000
221.411;  -73.775; -478.000; -394.000
221.555;  -12.575; -104.000;  -23.000
221.700;  -59.650; -329.000; -222.000
221.844;   31.575;  255.000;  272.000
221.989;  -57.025; -328.000; -311.000
222.133;  -30.600; -289.000; -307.000
222.277;  -12.600;    5.000;   78.000
222.422;   16.600;  227.000;  113.000
222.566;  -39.750; -381.000; -214.000
222.711;  -58.675; -414.000; -479.000
222.855;  -73.475; -643.000; -586.000
222.999;  -89.025; -642.000; -717.000
223.144;  -35.925; -195.000; -194.000
223.288;   31.725;  423.000;  251.000
223.432;   24.250;  184.000;  230.000
223.576;   -7.700;  152.000;  -21.000
223.721;   31.025;  364.000;  273.000
223.865;  -66.575; -472.000; -475.000
224.009;  227.025; 1673.000; 1631.000
224.153;  -79.600; -660.000; -671.000
224.298;  -62.075; -531.000; -489.000
224.442;   -7.500;  -74.000;  -33.000
224.586;  -13.125; -169.000; -106.000
224.730;  -84.800; -858.000; -670.000
224.875; -104.700; -739.000; -688.000
225.019;   -1.375;  102.000;  188.000
225.163;   40.575;  208.000;  341.000
225.307;   11.625;   97.000;  -91.000
225.451;   29.300;  360.000;  481.000
225.595;   23.700;  264.000;  176.000
225.739;  -30.325; -170.000;  -94.000
225.884;   -2.700;   86.000;    5.000
226.028;  -92.600; -760.000; -626.000
226.172;  -46.150; -260.000; -273.000
226.316; -124.475; -941.000; -902.000
226.460;  -67.975; -645.000; -493.000
226.604;  -40.550; -406.000; -400.000
226.748; -103.450; -836.000; -733.000
226.892;  -33.275; -227.000; -181.000
227.036;  -51.650; -537.000; -447.000
227.180;  -55.450; -551.000; -375.000
227.324;  -63.450; -561.000; -580.000
227.468; -105.025; -819.000; -717.000
227.612;    6.750;  242.000;  -28.000
227.756; -102.500; -845.000; -698.000
227.900;   42.750;  342.000;  441.000
228.044;  -57.675; -509.000; -290.000
228.188;   41.875;  448.000;  568.000
228.332;  -75.550; -546.000; -472.000
228.476;  -26.650; -223.000; -149.000
228.620;  -41.450; -210.000; -150.000
228.764;   70.800;  431.000;  349.000
228.908;  -26.325; -155.000;   30.000
229.052;  -74.425; -615.000; -528.000
229.195;  -20.975; -172.000;   13.000
229.339;  -25.600; -235.000; -305.000
229.483;  -34.600;    5.000; -162.000
229.627;   -9.550; -156.000;  139.000
229.771;  -58.125; -218.000; -294.000
229.915;   12.050;  230.000;   79.000
230.059;  -88.975; -648.000; -663.000
230.202;  -34.125; -370.000; -317.000
230.346;  -22.975; -107.000;  107.000
230.490;  -66.300; -489.000; -521.000
230.634; -113.100; -736.000; -553.000
230.777;   61.875;  478.000;  509.000
230.921;  -58.175; -450.000; -359.000
231.065;  -39.750; -246.000; -286.000
231.209;   22.350;  261.000;  265.000
231.352;   15.500;   54.000;   40.000
231.496;    6.575;  568.000;  188.000
231.640;  -66.700; -693.000; -621.000
231.783;   54.150;  546.000;  525.000
231.927;  -58.175; -294.000; -365.000
232.071; -114.400; -962.000; -736.000
232.214; -115.850; -980.000; -764.000
232.358;  -90.300; -683.000; -599.000
232.502;    5.550;  -19.000;    7.000
232.645; -139.550;-1090.000; -927.000
232.789;  -31.050; -257.000; -218.000
232.933;  -51.050; -407.000; -224.000
233.076; -120.125;-1038.000; -897.000
233.220;  -96.900; -752.000; -777.000
233.363;  -76.925; -669.000; -477.000
233.507;   46.500;  371.000;  129.000
233.650; -105.400; -764.000; -834.000
233.794;   28.100;  438.000;  461.000
233.938;  -60.975; -530.000; -362.000
234.081;  -15.950;  -93.000;   31.000
234.225;  -67.125; -631.000; -539.000
234.368; -107.700; -773.000; -723.000
234.512;  -39.000; -385.000; -299.000
234.655;  -83.400; -582.000; -555.000
234.798;  -64.075; -493.000; -466.000
234.942; -124.275; -884.000;-1002.000
235.085;  -70.525; -651.000; -443.000
235.229;  -70.275; -405.000; -410.000
235.372;  -55.475; -247.000; -191.000
235.516;  -65.200; -397.000; -321.000
235.659;    4.725;   92.000;  121.000
235.802;  -16.575;  -38.000;  -22.000
235.946;   11.925;  335.000;  215.000
236.089;   16.275;  126.000;  250.000
236.233;   35.600;  275.000;  298.000
236.376;  -51.075; -235.000; -378.000
236.519;  -44.600; -297.000; -319.000
236.663;  -21.050; -215.000; -117.000
236.806; -134.525;-1029.000; -999.000
236.949;   36.650;  543.000;  431.000
237.092;   47.300;  412.000;  391.000
237.236;  -67.525; -589.000; -502.000
237.379;   52.100;  352.000;  428.000
237.522; -125.350; -879.000; -768.000
237.666;  -22.375; -271.000;   18.000
237.809; -120.250; -851.000; -823.000
237.952;   27.700;  469.000;  271.000
238.095;  -64.450; -447.000; -442.000
238.238;   77.700;  688.000;  700.000
238.382;  -17.025;  166.000;  103.000
238.525;  -74.125; -598.000; -511.000
238.668; -138.450;-1060.000; -985.000
238.811;  -83.525; -638.000; -643.000
238.954;  -62.225; -483.000; -334.000
239.097;   77.700;  617.000;  664.000
239.241;   20.725;  394.000;  326.000
239.384;  -35.950; -254.000; -214.000
239.527;  -58.675; -424.000; -224.000
239.670; -148.150; -994.000;-1091.000
239.813; -111.425; -696.000; -658.000
239.956;   49.475;  579.000;  473.000
240.099; -110.075; -778.000; -725.000
240.242;   58.775;  428.000;  432.000
240.385;   36.075;  466.000;  450.000
240.528;  -73.625; -706.000; -473.000
240.671;   11.925;  189.000;  134.000
240.814;  -37.175; -441.000; -158.000
240.957;  -87.875; -767.000; -578.000
241.100;  -91.075; -779.000; -755.000
241.243; -142.300;-1234.000; -893.000
241.386;  -61.875; -508.000; -379.000
241.529;  -87.650; -735.000; -547.000
241.672;  -60.950; -566.000; -495.000
241.815; -123.825; -832.000; -808.000
241.958;  -31.675; -125.000; -182.000
242.101;  -88.125; -545.000; -390.000
242.244;  -52.625; -270.000; -325.000
242.387;  -43.025; -304.000; -246.000
242.530;   46.200;  470.000;  134.000
242.673;  -47.000; -381.000; -309.000
242.815; -109.550; -925.000; -899.000
242.958;  -71.500; -482.000; -381.000
243.101;  -11.025;  132.000;  187.000
243.244;  -80.750; -564.000; -521.000
243.387;  -52.075; -313.000; -316.000
243.530;  -99.525; -657.000; -674.000
243.672;  -22.475;   43.000;  -92.000
243.815;  -57.175; -355.000; -283.000
243.958;   -0.825;   98.000;  -26.000
244.101;   -6.425;   59.000;  -16.000
244.243;  -26.275;  -47.000;  101.000
244.386; -114.450; -761.000; -630.000
244.529;  -26.675; -132.000; -139.000
244.672; -160.600;-1154.000; -951.000
244.814; -105.575; -621.000; -794.000
244.957;  -72.725; -380.000; -304.000
245.100;  -81.900; -489.000; -489.000
245.242;  -82.900; -387.000; -374.000
245.385;  -18.825;  -59.000;  -39.000
245.528; -122.625; -871.000; -705.000
245.670;   79.450;  612.000;  634.000
245.813;  -97.100; -599.000; -547.000
245.956;  -24.500; -324.000; -275.000
246.098;  -72.525; -508.000; -650.000
246.241;    5.750;  194.000;   48.000
246.383;  -17.825; -119.000;  -73.000
246.526;  -79.800; -454.000; -525.000
246.669; -110.225; -889.000; -780.000
246.811;    5.500;  172.000;   -1.000
246.954;  -63.375; -512.000; -426.000
247.096;  -22.675;  -84.000;   -6.000
247.239;  -66.075; -482.000; -445.000
247.381;  -80.875; -647.000; -488.000
247.524;   72.050;  645.000;  679.000
247.666;  -29.175;   58.000;   11.000
247.809; -115.450; -887.000; -691.000
247.951;  -12.850;  -75.000;  138.000
248.094;   29.675;  432.000;  308.000
248.236; -165.275;-1262.000;-1238.000
248.378;  -17.050; -356.000;  -81.000
248.521;  -36.025; -334.000; -337.000
248.663;  -66.150; -236.000; -267.000
248.806;  -34.525; -300.000; -266.000
248.948; -118.400; -886.000; -763.000
249.090;  -64.500; -428.000; -398.000
249.233;  -68.500; -344.000; -381.000
249.375;  -71.575; -474.000; -451.000
249.518;  -31.850;  -83.000; -133.000
249.660;   -4.250; -103.000;    3.000
249.802; -170.350;-1303.000;-1189.000
249.945;  -84.000; -612.000; -540.000
250.087; -119.550; -834.000; -768.000
250.229;  -61.425; -362.000; -480.000
250.371;  -78.450; -494.000; -439.000
250.514;  -47.825; -310.000; -244.000
250.656;  -47.900;   69.000;  102.000
250.798; -116.525; -849.000; -800.000
250.940;  -68.250; -322.000; -322.000
251.083;  -46.525; -335.000; -111.000
251.225;   38.125;  338.000;  310.000
251.367;  -36.850; -274.000; -373.000
251.509;  -43.925; -265.000; -210.000
251.651;  -95.175; -731.000; -671.000
251.794;   30.100;  538.000;  632.000
251.936; -108.300; -821.000; -747.000
252.078;  -78.350; -540.000; -461.000
252.220;  -79.275; -645.000; -477.000
252.362;   44.350;  344.000;  462.000
252.504;  -85.550; -677.000; -584.000
252.646; -113.575; -875.000; -722.000
252.788;  -15.175;   14.000; -128.000
252.931;  -51.050; -257.000; -253.000
253.073;  -42.125; -376.000; -317.000
253.215;  -16.675;  141.000;  122.000
253.357;  -26.850;   82.000; -153.000
253.499;  -50.175; -374.000; -234.000
253.641;  -86.100; -749.000; -594.000
253.783;  -89.650; -609.000; -527.000
253.925;  -90.150; -586.000; -591.000
254.067; -105.800; -744.000; -667.000
254.209;  -27.650; -391.000; -259.000
254.351; -135.375; -865.000; -883.000
254.493;  -71.675; -441.000; -417.000
254.635; -138.675; -936.000; -818.000
254.777;  -98.175; -752.000; -687.000
254.918;  -69.875; -512.000; -430.000
255.060;  -65.750; -551.000; -395.000
255.202;  -59.000; -473.000; -261.000
255.344;  -87.150; -658.000; -455.000
255.486;  -76.525; -471.000; -406.000
255.628; -119.575; -780.000; -781.000
255.770; -100.575; -676.000; -536.000
255.912;  -66.500; -559.000; -468.000
256.053;  -77.925; -730.000; -508.000
256.195;  128.575; 1008.000;  903.000
256.337;  -95.675; -861.000; -595.000
256.479;   52.775;  532.000;  416.000
256.621;  -49.925; -394.000; -212.000
256.762;  -93.450; -789.000; -742.000
256.904;   38.525;  485.000;  487.000
257.046;  -58.750; -381.000; -271.000
257.188;  -52.475; -351.000; -264.000
257.329;  -73.075; -525.000; -464.000
257.471; -124.500; -939.000; -807.000
257.613;  -69.650; -584.000; -498.000
257.755; -148.150;-1073.000; -982.000
257.896;   24.925;  286.000;  392.000
258.038;  -74.075; -403.000; -352.000
258.180;  -52.350; -354.000; -279.000
258.321;  -83.850; -581.000; -457.000
258.463;   -8.700;  -71.000;  133.000
258.605;  -96.950; -562.000; -570.000
258.746; -117.500; -886.000; -772.000
258.888; -142.200;-1026.000;-1020.000
259.029;   16.700;  121.000;   -8.000
259.171;  -87.925; -614.000; -550.000
259.313;   -4.125;  -49.000;  -47.000
259.454;  -86.900; -536.000; -414.000
259.596;  -49.825; -483.000; -390.000
259.737;  -72.575; -590.000; -474.000
259.879;   17.350;  217.000;  311.000
260.020;   69.325;  901.000;  636.000
260.162;  -27.500; -146.000; -253.000
260.303; -116.050; -768.000; -687.000
260.445;  -77.175; -609.000; -613.000
260.586;   11.775;  392.000;  157.000
260.728;  -46.800; -360.000; -248.000
260.869;  -72.100; -350.000; -343.000
261.011;   79.700;  706.000;  537.000
261.152;  -75.350; -479.000; -319.000
261.293;  -82.125; -576.000; -595.000
261.435;  -40.050; -219.000; -184.000
261.576;  -61.550; -455.000; -325.000
261.718;   49.675;  420.000;  470.000
261.859; -120.925; -940.000; -949.000
262.000; -130.775; -951.000;-1016.000
262.142;  -29.375;  -52.000;  -60.000
262.283; -111.350; -808.000; -691.000
262.424;  -95.100; -666.000; -625.000
262.566; -144.775;-1161.000; -983.000
262.707; -107.025; -840.000; -830.000
262.848; -119.525; -769.000; -726.000
262.990;  -57.125; -362.000; -345.000
263.131;   60.775;  650.000;  681.000
263.272;  -17.050;  -61.000;  -41.000
263.413;  -97.875; -589.000; -561.000
263.555;  -72.025; -669.000; -143.000
263.696;  -89.700; -550.000; -641.000
263.837;  -70.125; -449.000; -551.000
263.978;  -16.500;   -5.000;  -77.000
264.119;  -53.000; -283.000; -264.000
264.261; -115.425; -847.000; -630.000
264.402;   -3.700;   33.000;   40.000
264.543;  -82.625; -509.000; -524.000
264.684;   -8.175;   61.000;  -50.000
264.825;  -88.925; -816.000; -538.000
264.966;   -7.450;  -84.000;  -67.000
265.107; -114.950; -646.000; -670.000
265.248; -133.225; -825.000; -812.000
265.390;  -20.200;  152.000;   -9.000
265.531;  -23.500; -238.000; -107.000
265.672;  -92.275; -557.000; -630.000
265.813;   53.800;  563.000;  439.000
265.954; -144.700; -959.000; -940.000
266.095;  -21.075; -372.000; -322.000
266.236;  -96.875; -686.000; -548.000
266.377;  -59.800; -243.000; -297.000
266.518;  -65.375; -619.000; -547.000
266.659;   21.775;  170.000;  268.000
266.800;  -16.775;   83.000;   85.000
266.941;  -78.375; -487.000; -478.000
267.082;    2.900;  354.000;   99.000
267.223;  -50.525; -344.000; -273.000
267.364; -114.575; -892.000; -686.000
267.504;  -21.875;    3.000;  135.000
267.645;  -17.450;  160.000;   67.000
267.786;  -42.975; -147.000;  -86.000
267.927;  -74.650; -473.000; -379.000
268.068;  -28.850; -186.000;  -61.000
268.209;  -53.800; -175.000; -413.000
268.350;  -62.225; -388.000; -532.000
268.490;  -88.275; -648.000; -521.000
268.631;   26.875;  127.000;  225.000
268.772;  -96.975; -874.000; -647.000
268.913;  -55.275; -328.000; -476.000
269.054;  -17.475; -117.000;   12.000
269.194;  -54.125; -418.000; -402.000
269.335; -146.400;-1137.000;-1074.000
269.476;  -19.725;   33.000;  -35.000
269.617;  -56.725; -347.000; -392.000
269.757;  -94.025; -713.000; -646.000
269.898; -114.100; -856.000; -613.000
270.039;  -62.825; -415.000; -405.000
270.180; -125.400; -952.000; -816.000
270.320;  -28.325; -190.000; -250.000
270.461;  -43.425; -277.000; -249.000
270.602;  -25.550; -186.000; -156.000
270.742; -132.750; -868.000; -943.000
270.883;  -56.325; -442.000; -390.000
271.023;  -72.500; -358.000; -357.000
271.164;  -91.675; -607.000; -528.000
271.305;  -97.850; -666.000; -654.000
271.445;  -92.850; -722.000; -683.000
271.586;  -81.900; -462.000; -283.000
271.726;  -63.050; -397.000; -322.000
271.867;  -80.225; -594.000; -534.000
272.008;   36.375; -473.000; -285.000
272.148;   70.375;  462.000;  468.000
272.289;  -18.575; -113.000; -181.000
272.429;   -2.950;   19.000;  185.000
272.570; -101.225; -633.000; -737.000
272.710; -102.375; -825.000; -775.000
272.851;  -26.350;  113.000; -130.000
272.991; -169.700;-1173.000;-1077.000
273.131;  -70.225; -419.000; -459.000
273.272;  -96.600; -683.000; -723.000
273.412;  -15.950; -143.000;  -31.000
273.553;  -69.625; -488.000; -507.000
273.693;  100.825;  913.000;  858.000
273.834; -113.800; -894.000; -692.000
273.974;  -92.875; -664.000; -615.000
274.114; -105.675; -772.000; -560.000
274.255;   50.150;  414.000;  373.000
274.395;  -43.350; -180.000; -125.000
274.535;   17.325;  199.000;  350.000
274.676;    6.350;  225.000;   94.000
274.816;  -13.125;  110.000;   34.000
274.956;  -78.650; -624.000; -690.000
275.097; -107.550;-1014.000; -922.000
275.237; -121.200; -913.000; -803.000
275.377;  -95.325; -778.000; -689.000
275.517; -152.700; -878.000; -937.000
275.658;  -75.575; -590.000; -555.000
275.798;  -82.825; -606.000; -413.000
275.938;    2.925;  215.000;  323.000
276.078;  -89.550; -626.000; -395.000
276.218;  -19.475;   99.000;  104.000
276.359; -140.275;-1026.000;-1024.000
276.499;  -80.725; -605.000; -446.000
276.639;  -35.225; -305.000; -151.000
276.779;  -54.300; -475.000; -357.000
276.919; -110.975; -783.000; -624.000
277.059;  -34.375; -261.000; -212.000
277.199;  -60.625; -357.000; -259.000
277.340;   26.675;  287.000;  175.000
277.480; -107.650; -840.000; -693.000
277.620;    0.775;  192.000;   16.000
277.760; -185.875;-1533.000;-1294.000
277.900;  -12.850;  113.000;   33.000
278.040;    0.800;  137.000;  159.000
278.180;   18.425;  270.000;  170.000
278.320;  -12.250;   21.000;   56.000
278.460;  -70.200; -443.000; -469.000
278.600;  -92.625; -708.000; -598.000
278.740;   29.200;  448.000;  224.000
278.880; -115.725; -768.000; -791.000
279.020;  -42.250; -194.000; -144.000
279.160; -103.050; -672.000; -595.000
279.300; -117.125; -926.000; -873.000
279.440;  -93.325; -709.000; -622.000
279.579;  -97.550;-1014.000; -929.000
279.719;  -65.775; -410.000; -394.000
279.859;   35.050;   -4.000;   41.000
279.999;  -13.275; -208.000;  101.000
280.139;  -41.325; -435.000; -387.000
280.279; -101.900; -708.000; -745.000
280.419;  -36.775; -229.000; -147.000
280.559;  -41.650; -259.000; -180.000
280.698;  -95.075; -790.000; -639.000
280.838; -107.225; -778.000; -800.000
280.978; -112.375; -846.000; -790.000
281.118; -105.650; -811.000; -704.000
281.257;  -10.525;   24.000;    6.000
281.397; -141.425;-1094.000; -960.000
281.537;  -96.625; -599.000; -712.000
281.677;  -31.425; -150.000; -101.000
281.816;  -89.375; -700.000; -630.000
281.956;  -35.350; -193.000; -257.000
282.096;  -64.850; -539.000; -396.000
282.235;  -96.275; -672.000; -638.000
282.375;  -26.775; -243.000;  -98.000
282.515; -118.050; -715.000; -707.000
282.654;   -2.075;   29.000;  106.000
282.794;   30.725;  388.000;  244.000
282.934;  -57.400; -530.000; -491.000
283.073; -133.350;-1030.000; -857.000
283.213;  -61.125; -460.000; -467.000
283.353;  -50.475; -408.000; -349.000
283.492;  -42.925; -264.000; -296.000
283.632;  -52.550; -254.000; -168.000
283.771; -102.600; -859.000; -730.000
283.911;  -55.475; -369.000; -260.000
284.050; -114.750; -794.000; -748.000
284.190; -156.650;-1229.000;-1096.000
284.329; -143.875;-1055.000; -964.000
284.469;  -83.675; -516.000; -591.000
284.608;  -72.200; -559.000; -598.000
284.748;  -80.325; -614.000; -570.000
284.887;  -11.275;  -87.000;  -20.000
285.027; -117.050; -844.000; -892.000
285.166;  -38.700; -192.000; -249.000
285.306;  -27.025; -116.000;  -33.000
285.445;  -43.950; -229.000; -343.000
285.584;  -99.075; -630.000; -494.000
285.724;  -50.225; -282.000; -322.000
285.863; -116.275; -857.000; -507.000
286.002;  -55.825; -366.000; -276.000
286.142; -102.950; -715.000; -622.000
286.281;  -78.525; -525.000; -493.000
286.420;  -90.650; -554.000; -417.000
286.560;   71.800;  653.000;  623.000
286.699; -138.150; -958.000; -912.000
286.838;  -92.550; -590.000; -591.000
286.978;  -87.825; -533.000; -537.000
287.117; -146.225;-1085.000; -950.000
287.256;  -35.925; -228.000; -211.000
287.395;  -63.775; -197.000; -378.000
287.535;  -45.450; -370.000; -298.000
287.674;  -84.625; -509.000; -484.000
287.813;   51.125;  661.000;  533.000
287.952; -133.025;-1010.000; -871.000
288.091; -135.375;-1049.000; -915.000
288.231;   -8.400;   13.000;   15.000
288.370; -174.475;-1217.000;-1200.000
288.509;  -88.375; -728.000; -645.000
288.648; -100.950; -770.000; -548.000
288.787;  -45.275; -243.000;  -87.000
288.926;  -74.100; -454.000; -475.000
289.065;   85.275;  859.000;  672.000
289.204;  -62.500; -377.000; -217.000
289.344;  -91.375; -791.000; -690.000
289.483;    4.950;  416.000;  304.000
289.622;  -41.825; -291.000; -149.000
289.761;  -22.250; -309.000; -166.000
289.900; -108.675; -785.000; -626.000
290.039;  -16.750;  -12.000;  -95.000
290.178;  -52.150; -274.000; -180.000
290.317;  -93.200; -618.000; -479.000
290.456;  -71.975; -463.000; -451.000
290.595; -127.550; -961.000; -833.000
290.734; -141.725; -904.000; -891.000
290.873;  -58.075; -456.000; -420.000
291.011; -126.700; -833.000; -843.000
291.150; -100.625; -770.000; -682.000
291.289;  -36.700; -343.000; -110.000
291.428;  -95.475; -599.000; -480.000
291.567;  -61.975; -370.000; -442.000
291.706;  -10.775;  109.000;  154.000
291.845;  -89.525; -597.000; -505.000
291.984; -157.200;-1234.000;-1061.000
292.122;   50.550;  602.000;  582.000
292.261;   28.300;  620.000;  463.000
292.400;  -14.250; -144.000;  211.000
292.539; -117.900; -959.000; -813.000
292.678;  -44.300; -325.000; -300.000
292.816; -156.750;-1136.000; -965.000
292.955; -116.450; -844.000; -684.000
293.094;  -44.200; -173.000; -337.000
293.233;  -56.575; -556.000; -400.000
293.371;  -34.550; -225.000;  -84.000
293.510; -108.200; -866.000; -780.000
293.649; -137.925; -959.000; -924.000
293.787; -129.450;-1083.000;-1012.000
293.926;  -14.175; -113.000;  -32.000
294.065;  -53.725; -379.000; -290.000
294.203;   18.875;  298.000;  406.000
294.342;   22.450;   74.000;  156.000
294.481; 5133.050;51180.000; -836.000
294.619;  -47.725; -425.000; -582.000
294.758; -162.550;-1230.000;-1137.000
294.896;   10.875; -125.000;    5.000
295.035; -131.850;-1040.000;-1006.000
295.174; -139.000;-1082.000; -954.000
295.312;  -47.300; -323.000; -203.000
295.451;  -41.125; -307.000; -428.000
295.589;  -69.525; -389.000; -518.000
295.728;  -11.625; -292.000; -165.000
295.866;  -19.325;  -36.000;  -51.000
296.005;  -79.125; -584.000; -341.000
296.143;  -80.875; -558.000; -596.000
296.282; -102.300; -957.000; -881.000
296.420;  -91.325; -657.000; -557.000
296.559;  -97.675; -892.000; -633.000
296.697;  -65.675; -847.000; -665.000
296.835;  -89.175;-1141.000;-1002.000
296.974;    5.650;  -23.000;   39.000
297.112;  -45.925; -443.000; -504.000
297.251;  -83.850; -815.000; -755.000
297.389;  -24.350; -576.000; -438.000
297.527;  -10.750; -145.000;  -83.000
297.666;  -56.525; -486.000; -438.000
297.804;  -54.575; -404.000; -264.000
297.942;  -14.900; -136.000; -161.000
298.081;  -15.700; -183.000;   63.000
298.219;    6.475;  -17.000;  -19.000
298.357;   -3.650; -144.000;  -71.000
298.495;  -62.000; -810.000; -812.000
298.634;    0.950;  245.000;  219.000
298.772;  -33.200; -220.000; -338.000
298.910;  -72.325; -309.000; -182.000
299.048;  -31.675; -130.000; -153.000
299.187;  -46.975; -350.000; -250.000
299.325;    5.850;   52.000;  122.000
299.463;  -31.175; -389.000; -299.000
299.601;  -13.875; -327.000; -271.000
299.739; -124.500; -908.000; -883.000
299.877;  -98.625; -791.000; -703.000
300.016; -109.500;-1095.000; -935.000
300.154;   28.775;  -19.000; -161.000
300.292;  -37.850; -428.000; -348.000
300.430;  -25.925; -408.000; -291.000
300.568; -125.800; -940.000; -874.000
300.706;  -71.650; -366.000; -469.000
300.844; -128.500;-1108.000; -979.000
300.982;   50.125;  246.000;  282.000
301.120; -131.800; -965.000; -866.000
301.258;  -99.675; -812.000; -705.000
301.396;   -6.175;  104.000;  -41.000
301.534;  -32.375; -218.000; -293.000
301.672;  -70.350; -664.000; -521.000
301.810;  -75.525; -613.000; -545.000
301.948;   28.000;   53.000;  149.000
302.086;  209.450; -250.000;  -32.000
302.224;  245.700; -610.000; -585.000
302.362;  -47.650; -558.000; -622.000
302.500; -100.375; -923.000; -893.000
302.638;   29.475;  128.000;  245.000
302.776;  -20.525; -352.000; -408.000
302.913;   26.875;  447.000;  236.000
303.051;  -33.850;  -86.000;  -23.000
303.189;    3.900;   90.000;  118.000
303.327;  -56.450; -341.000; -256.000
303.465;  -93.200; -832.000; -588.000
303.603;  -88.900; -805.000; -604.000
303.740;   48.975;  417.000;  241.000
303.878;  -75.000; -800.000; -759.000
304.016; -113.150; -915.000; -790.000
304.154; -157.725;-1123.000;-1152.000
304.291;  -60.800; -505.000; -554.000
304.429;    7.475;  102.000;   74.000
304.567; -142.500; -908.000; -893.000
304.705;  -69.300; -408.000; -515.000
304.842;  -30.075; -616.000; -540.000
304.980;    6.800;  215.000;   35.000
305.118;  -37.575; -367.000; -365.000
305.255; -122.550; -945.000; -927.000
305.393;   20.825;  178.000;  239.000
305.531; -132.750;-1173.000; -956.000
305.668;  -81.900; -663.000; -582.000
305.806;    3.650; -358.000; -439.000
305.943;  -33.725; -629.000; -637.000
306.081;  -20.450; -378.000; -267.000
306.219; -111.100; -863.000; -748.000
306.356;   13.500;  158.000;   27.000
306.494;  114.075;  981.000;  761.000
306.631;   -4.675;  -11.000;  -55.000
306.769;   -3.950; -613.000; -485.000
306.906;  -33.625; -284.000; -258.000
307.044;  -43.025; -473.000; -488.000
307.181;  -60.325; -410.000; -332.000
307.319;    9.425;  112.000;   87.000
307.456; -163.050;-1191.000;-1153.000
307.594; -121.350; -980.000; -727.000
307.731;  -33.775; -371.000; -164.000
307.868;  -11.125;  -15.000;   20.000
308.006; -125.775; -961.000; -847.000
308.143;  -76.900; -618.000; -330.000
308.281;   29.200;  -37.000; -254.000
308.418;  -48.700; -748.000; -640.000
308.555;  -82.800; -400.000; -250.000
308.693;  -65.675; -577.000; -573.000
308.830;  -89.900; -712.000; -657.000
308.967;  -10.050; -215.000;  -95.000
309.105;  -44.025; -507.000; -396.000
309.242;  -13.525; -468.000; -367.000
309.379;   42.650; -577.000; -655.000
309.517;  -84.550; -936.000; -948.000
309.654;  -96.650; -910.000; -734.000
309.791;  -69.775; -662.000; -580.000
309.928; -110.325; -977.000; -914.000
310.065;  132.375;  819.000;  697.000
310.203;  -73.600; -825.000; -850.000
310.340;  -39.525; -465.000; -321.000
310.477;  -72.650; -412.000; -516.000
310.614;  -71.000; -383.000; -473.000
310.751;  -63.375; -427.000; -518.000
310.889;  -25.500;    1.000;   11.000
311.026; -140.600;-1161.000; -939.000
311.163;  -48.100; -386.000; -380.000
311.300;  -79.050; -512.000; -479.000
311.437;  -62.600; -658.000; -619.000
311.574; -141.475;-1226.000; -985.000
311.711;  -60.700; -595.000; -433.000
311.848;  -40.425; -380.000; -388.000
311.985;    9.925;  270.000;   93.000
312.122; -124.125; -932.000; -762.000
312.259; -102.350; -941.000; -994.000
312.396;  -69.725; -508.000; -551.000
312.533;  -81.900; -812.000; -790.000
312.670; -133.550;-1070.000; -898.000
312.807;  -35.100; -352.000; -367.000
312.944;  -65.600; -513.000; -611.000
313.081;  -35.550; -150.000; -415.000
313.218;  -97.350;-1111.000; -867.000
313.355;   -9.075; -531.000; -449.000
313.492;   -5.550; -455.000; -292.000
313.629;  122.925;  815.000;  735.000
313.766; -144.875;-1176.000;-1008.000
313.902;  -28.075; -186.000;   21.000
314.039;  -61.625; -372.000; -289.000
314.176;   20.350;  286.000;  192.000
314.313;  -72.675; -569.000; -473.000
314.450;  -75.375; -788.000; -684.000
314.587;  -48.900; -468.000; -480.000
314.723;    7.625;  -78.000;  130.000
314.860;   32.400;  318.000;  332.000
314.997;   25.825;  223.000;  142.000
315.134;  -27.750; -385.000; -368.000
315.270;  -28.150; -480.000; -496.000
315.407; -112.125;-1094.000; -967.000
315.544;  -49.700; -657.000; -538.000
315.681;  -68.975; -681.000; -565.000
315.817;   27.800; -133.000; -176.000
315.954;   31.275; -613.000; -392.000
316.091; -119.725;-1045.000;-1023.000
316.227;  -37.525;  -71.000; -179.000
316.364;   -6.950;   23.000;    6.000
316.500;  -43.725; -113.000; -300.000
316.637;  -32.950; -181.000; -302.000
316.774;  -84.375; -625.000; -358.000
316.910;  -98.200; -598.000; -629.000
317.047;  -73.275; -487.000; -351.000
317.183;  -62.900; -435.000; -566.000
317.320;   12.825; -367.000; -321.000
317.456;  -35.625; -733.000; -805.000
317.593;  -90.875; -598.000; -641.000
317.729;  -11.625;  168.000;  -67.000
317.866; -194.500;-1434.000;-1285.000
318.002; -113.350; -708.000; -948.000
318.139; -124.050; -883.000; -867.000
318.275; -109.975;-1003.000; -738.000
318.412;  -80.925; -517.000; -336.000
318.548;  -79.275; -751.000; -720.000
318.685;  -91.900; -985.000; -888.000
318.821;  -94.750; -762.000; -735.000
318.957;  -27.900;   34.000;  -23.000
319.094;   20.025;  297.000;  154.000
319.230;  -84.350; -756.000; -742.000
319.367;   -3.450; -471.000; -520.000
319.503;  -22.225; -538.000; -436.000
319.639; -112.200; -877.000; -793.000
319.775;  -98.550; -750.000; -685.000
319.912;  -71.850; -424.000; -519.000
320.048; -112.900;-1184.000;-1184.000
320.184;   85.800;   59.000;   70.000
320.321;  -41.750; -497.000; -467.000
320.457;   73.775;  475.000;  662.000
320.593;  -62.700; -375.000; -382.000
320.729;  -99.925; -732.000; -734.000
320.866;  -64.150; -577.000; -635.000
321.002; -103.950; -759.000; -809.000
321.138;  -44.400; -135.000; -211.000
321.274;   18.950; -148.000; -115.000
321.410;  -54.250; -585.000; -353.000
321.546;  -91.800;-1011.000; -911.000
321.683;   27.600;  400.000;  185.000
321.819;  -28.700;  -48.000; -117.000
321.955; -120.750; -743.000; -722.000
322.091;  -69.650; -585.000; -540.000
322.227;  -42.675; -382.000; -202.000
322.363;  -43.575; -320.000; -215.000
322.499;  -51.125; -343.000; -331.000
322.635;   96.875;  636.000;  443.000
322.771;  -25.025; -139.000;   12.000
322.907;   36.250;  129.000;  327.000
323.043;  -52.875; -115.000; -206.000
323.179;  -58.225; -394.000; -363.000
323.315;  -42.525; -401.000; -371.000
323.451;    7.300; -328.000; -236.000
323.587;   42.025;  -60.000;  -77.000
323.723;  -49.250; -682.000; -601.000
323.859;  -23.500; -258.000;  -76.000
323.995;  -62.675; -467.000; -409.000
324.131; -125.850; -967.000; -892.000
324.267;  -47.125; -254.000; -276.000
324.402; -147.575; -960.000; -983.000
324.538;  -32.475; -279.000; -104.000
324.674;   -5.275;  164.000;   77.000
324.810;   34.025;  226.000;  308.000
324.946;  -38.525; -810.000; -658.000
325.082;  -75.475; -568.000; -475.000
325.217;  -21.850;  -62.000;   16.000
325.353; -111.000; -764.000; -659.000
325.489;  -95.750; -540.000; -506.000
325.625;  -79.575; -579.000; -525.000
325.760;   76.675;  517.000;  376.000
325.896;   -9.650; -515.000; -702.000
326.032;  -56.725; -403.000; -352.000
326.168;  -60.075; -462.000; -369.000
326.303;  -75.700; -352.000; -461.000
326.439;  -15.400; -336.000; -276.000
326.575;  -13.375; -190.000;  -29.000
326.710;  -24.700; -156.000;  -30.000
326.846;  -34.025;  146.000;  103.000
326.982;  -88.075; -530.000; -548.000
327.117;  -82.775; -481.000; -442.000
327.253;  -90.750; -745.000; -742.000
327.388; -164.475;-1137.000;-1153.000
327.524;  -81.250; -811.000; -578.000
327.659;  -27.425;  -58.000;  -22.000
327.795;  -16.475;   69.000;   45.000
327.931;  -83.475; -723.000; -499.000
328.066;  -30.975; -417.000; -276.000
328.202;  -20.150;   12.000; -129.000
328.337;   93.300;  957.000;  713.000
328.473;   17.500;  -12.000;  -74.000
328.608;  -23.050; -256.000; -267.000
328.743; -122.650; -799.000; -664.000
328.879;  -11.775;  214.000;  114.000
329.014;  -48.425; -102.000; -122.000
329.150;  -89.675; -358.000; -483.000
329.285;  -92.675; -465.000; -466.000
329.421;  -51.900; -548.000; -246.000
329.556;  -25.625;  -36.000;   85.000
329.691; -110.325; -633.000; -615.000
329.827;  -94.650; -626.000; -480.000
329.962;  -42.975;  131.000; -301.000
330.097;  -80.000; -673.000; -585.000
330.233;  -53.300; -410.000; -223.000
330.368; -135.975; -839.000; -628.000
330.503;  -23.500;    3.000;   98.000
330.638;  -26.650;  -93.000; -125.000
330.774;  -88.175; -609.000; -530.000
330.909;  -60.000; -434.000; -244.000
331.044;  -99.475; -714.000; -708.000
331.179; -168.400;-1217.000;-1109.000
331.315;    0.550;   77.000;   20.000
331.450;    4.750;  157.000;  285.000
331.585; -101.175; -805.000; -706.000
331.720;  -75.725; -510.000; -460.000
331.855;  -10.450;  -35.000; -102.000
331.990;  410.900;   62.000;  138.000
332.126;  202.450; -110.000;   71.000
332.261;   10.925; -379.000; -265.000
332.396;   13.800; -135.000; -242.000
332.531;  -56.175;-1074.000;-1031.000
332.666;  104.175; -519.000; -363.000
332.801;  -94.825; -726.000; -807.000
332.936;  -20.125; -192.000; -122.000
333.071; -140.150; -870.000; -817.000
333.206;    6.025;  307.000;  379.000
333.341;   18.875;  344.000;  418.000
333.476; -100.325; -627.000; -623.000
333.611;  -56.825; -251.000; -173.000
333.746;  -54.725; -381.000; -464.000
333.881; -116.075; -973.000; -935.000
334.016; -125.100; -936.000; -917.000
334.151; -122.100; -746.000; -702.000
334.286;   16.425;  152.000;  186.000
334.421;  -10.000; -125.000; -178.000
334.556;  -76.900; -611.000; -567.000
334.690;  -98.100; -631.000; -577.000
334.825;   50.125;  381.000;   83.000
334.960;  -67.450; -285.000; -413.000
335.095;   -0.900;  135.000;  -91.000
335.230;  -88.250; -722.000; -738.000
335.365; -127.475;-1084.000; -990.000
335.499; -127.050;-1108.000;-1037.000
335.634;   13.475;    9.000;  534.000
335.769;  -87.450; -755.000; -720.000
335.904;  -54.775; -603.000; -561.000
336.038;  -33.500; -735.000; -657.000
336.173; -118.975;-1206.000;-1194.000
336.308;   11.825; -116.000; -189.000
336.443;   63.950; -544.000; -634.000
336.577;  -36.725; -936.000; -787.000
336.712;   75.175;   -4.000;  -12.000
336.847;  -24.175; -724.000; -607.000
336.981;   48.700; -272.000; -208.000
337.116;  295.550;  615.000;  501.000
337.250;  132.775; -434.000; -421.000
337.385;  440.175; -297.000; -208.000
337.520;  223.175; -632.000; -603.000
337.654;  -43.200; -215.000; -126.000
337.789; -133.650; -989.000; -933.000
337.923;  -46.275; -104.000; -205.000
338.058; -111.975; -673.000; -738.000
338.192;  -69.850; -611.000; -488.000
338.327;  -22.400;  -18.000; -155.000
338.461;  -66.325; -299.000; -469.000
338.596; -100.750; -780.000; -638.000
338.730;  -91.850; -767.000; -803.000
338.865;  153.250;  -46.000; -140.000
338.999;    8.000; -846.000; -702.000
339.134;   12.700; -634.000; -536.000
339.268;   28.675; -741.000; -603.000
339.403;  551.825; -740.000; -775.000
339.537;  266.125; -894.000; -820.000
339.671; -100.875; -829.000; -813.000
339.806;  -34.550; -556.000; -512.000
339.940;   33.550; -261.000; -235.000
340.074;  -99.850; -685.000; -510.000
340.209;  -57.875; -351.000; -230.000
340.343;  -96.050; -517.000; -573.000
340.477;  129.750;  998.000; 1036.000
340.612;   -1.100;-1033.000; -900.000
340.746;  223.650; -199.000; -243.000
340.880; -102.125; -924.000; -785.000
341.014;  -40.050;  -45.000; -154.000
341.149; -107.575; -756.000; -718.000
341.283; -115.650; -839.000; -754.000
341.417; -130.225;-1124.000; -938.000
341.551;  -36.175; -768.000; -708.000
341.685;  -63.225; -633.000; -611.000
341.820;  -53.000; -562.000; -493.000
341.954;  -60.875; -218.000; -349.000
342.088; -165.875;-1102.000;-1019.000
342.222;   23.600;  565.000;  618.000
342.356;  -79.100; -395.000; -335.000
342.490; -110.650; -880.000; -841.000
342.624;  -61.875; -339.000; -242.000
342.758;  -57.500; -364.000; -312.000
342.892; -118.750; -710.000; -585.000
343.026;  -51.750;  -58.000; -116.000
343.160;  -71.300; -426.000; -376.000
343.294;  -95.975; -474.000; -337.000
343.428;  -74.125; -488.000; -448.000
343.562;  -37.900; -172.000;  -23.000
343.696;  -61.775; -385.000; -314.000
343.830;  -56.900; -362.000; -356.000
343.964;  -37.525; -231.000; -168.000
344.098;  301.850;  199.000;   70.000
344.232;  245.550; -266.000; -127.000
344.366;   69.400; -567.000; -453.000
344.500;  -50.325; -665.000; -744.000
344.634;  -37.550; -324.000; -164.000
344.768;  -62.550; -531.000; -341.000
344.902;   -5.175;  278.000;  256.000
345.035;  -70.675; -556.000; -496.000
345.169; -134.075; -933.000; -656.000
345.303;  -62.100; -308.000; -482.000
345.437; -109.900; -826.000; -717.000
345.571;  -70.150; -675.000; -594.000
345.704;  -75.075; -309.000; -532.000
345.838;  -36.475; -331.000; -284.000
345.972;  -62.300; -543.000; -495.000
346.106;  255.475; -179.000; -190.000
346.239;  492.200; -312.000; -243.000
346.373;  -26.350; -343.000; -302.000
346.507; -143.225; -950.000; -962.000
346.640;   39.725;  -30.000;   13.000
346.774;  -97.050; -650.000; -797.000
346.908;  -35.100; -138.000;  -11.000
347.041; -105.800; -646.000; -593.000
347.175;  -19.975;  259.000;   27.000
347.309;  -94.950; -698.000; -628.000
347.442; -120.850; -883.000; -732.000
347.576;  120.775;  670.000;  668.000
347.709;   31.975; -123.000;  -52.000
347.843; -132.825; -933.000; -825.000
347.976;   18.400;  235.000;  294.000
348.110; -179.100;-1268.000;-1186.000
348.243; -113.700; -679.000; -772.000
348.377;   -7.300;  -26.000;   60.000
348.510;   32.300;  403.000;  540.000
348.644;  -51.350;  -37.000; -159.000
348.777;  -21.700;  180.000;  191.000
348.911;  -61.125; -142.000; -112.000
349.044;   83.075;  471.000;  448.000
349.178;  -34.650;-1069.000;-1006.000
349.311;   99.425;  141.000;  255.000
349.444;   41.475; -927.000; -813.000
349.578;  -44.050; -347.000; -200.000
349.711; -123.925; -959.000; -862.000
349.845;  -67.250; -661.000; -591.000
349.978; -165.600;-1224.000;-1137.000
350.111;  -96.100; -546.000; -612.000
350.244; -102.225; -596.000; -700.000
350.378;  -60.925; -392.000; -393.000
350.511;  -88.475; -393.000; -426.000
350.644; -105.450; -808.000; -806.000
350.778;   16.550;  168.000;  104.000
350.911;  -13.650;  134.000;  140.000
351.044; -110.100; -685.000; -615.000
351.177;  -49.950; -321.000; -281.000
351.310;  -33.925;    3.000; -131.000
351.444; -109.275; -888.000; -788.000
351.577;   33.575;  140.000;   90.000
351.710;   78.575;  593.000;  417.000
351.843;  -49.250; -165.000;  -77.000
351.976;  -20.400;  149.000;  -79.000
352.109;  -95.175; -621.000; -612.000
352.242;  -62.025; -464.000; -419.000
352.376; -103.325; -580.000; -636.000
352.509;   19.325; -437.000; -356.000
352.642;  -92.875; -654.000; -604.000
352.775;    9.300; -141.000;  -98.000
352.908; -128.575; -933.000; -904.000
353.041; -107.500; -814.000; -824.000
353.174;  -73.750; -551.000; -424.000
353.307; -101.950; -753.000; -764.000
353.440;   56.950;  541.000;  453.000
353.573; -109.800; -957.000;-1008.000
353.706;  -45.650; -384.000; -558.000
353.839;  -31.450; -264.000; -220.000
353.971; -107.175; -657.000; -512.000
354.104; -111.475; -896.000; -835.000
354.237;  -80.750; -627.000; -662.000
354.370; -110.600; -846.000; -879.000
354.503; -169.350;-1231.000;-1308.000
354.636;  -26.725; -529.000; -348.000
354.769; -130.200; -937.000; -860.000
354.902;  -27.450; -230.000; -139.000
355.034;  -20.725; -164.000; -220.000
355.167;  -18.750; -262.000; -162.000
355.300;  -66.250;-1061.000; -880.000
355.433; 1456.125;  -71.000;  -14.000
355.565; 2277.625; -402.000; -384.000
355.698;  579.000; -356.000; -296.000
355.831;    5.975; -882.000; -801.000
355.964;   17.700; -285.000; -170.000
356.096;  -70.575; -856.000; -843.000
356.229;   -3.700; -523.000; -530.000
356.362;  520.475; -373.000; -266.000
356.494;  930.825; -229.000; -162.000
356.627;  335.225;  269.000;  377.000
356.760;  871.025;  120.000;   53.000
356.892; 1532.000; -286.000; -601.000
357.025;  362.100;  403.000;  389.000
357.157;  248.775; -167.000; -179.000
357.290; 1204.600; -856.000; -713.000
357.423;  386.150; -667.000; -556.000
357.555;  104.000; -217.000; -228.000
357.688;  129.075; -483.000; -364.000
357.820;  165.025; -870.000; -877.000
357.953; 1569.675; -563.000; -589.000
358.085;  234.575; -632.000; -612.000
358.218;  135.975;-1131.000; -932.000
358.350;   32.975;  -58.000;  312.000
358.483; -177.250;-1300.000;-1187.000
358.615; -118.675;-1182.000;-1078.000
358.747; -150.925;-1187.000;-1058.000
358.880;  -53.800; -810.000; -744.000
359.012;  -40.900; -376.000; -202.000
359.145;  -66.300; -480.000; -511.000
359.277;  -49.050; -962.000; -913.000
359.409; 1318.325;  536.000;  231.000
359.542;  256.400; -738.000; -688.000
359.674;    7.775;   46.000;   13.000
359.806;  -89.750; -565.000; -438.000
359.939;  -41.250; -617.000; -516.000
360.071;   20.375; -583.000; -579.000
360.203;  -18.975; -411.000; -364.000
360.335;   22.275;  164.000;  -16.000
360.468;   87.550; -249.000; -307.000
360.600; 1364.550; -547.000; -454.000
360.732; 4220.400; -546.000; -423.000
360.864;  660.950;-1216.000;-1044.000
360.996;   77.425; -516.000; -554.000
361.129;  -52.325; -389.000; -598.000
361.261;  -12.375;  110.000; -113.000
361.393;  -51.400; -252.000; -214.000
361.525;    5.125;   94.000;  244.000
361.657; -113.775; -821.000; -703.000
361.789;  -38.175; -139.000; -155.000
361.921;  -30.600; -642.000; -593.000
362.053;   83.700;  524.000;  541.000
362.185;  -11.575;  288.000;   72.000
362.318; -121.950; -709.000; -705.000
362.450;   27.875;  294.000;  444.000
362.582;  -84.450; -913.000; -870.000
362.714;  -65.150; -353.000; -332.000
362.846;  -98.675; -606.000; -490.000
362.978; -135.375; -941.000; -811.000
363.109;  -23.050; -161.000; -260.000
363.241;  154.300; -739.000; -749.000
363.373;  629.250; -649.000; -564.000
363.505; 1036.500; -186.000;  -91.000
363.637;  224.400; -787.000; -601.000
363.769; -144.375;-1067.000;-1080.000
363.901;  -88.500; -596.000; -654.000
364.033; -158.050;-1103.000;-1062.000
364.165;  -42.000; -283.000; -283.000
364.296;   93.950; -316.000; -177.000
364.428;  195.525;-1344.000;-1220.000
364.560;  -67.375; -679.000; -661.000
364.692;  -87.000; -738.000; -835.000
364.824;   -1.000; -588.000; -456.000
364.955;  490.550; -402.000; -564.000
365.087; 1696.275;-1097.000; -852.000
365.219;  107.075; -686.000; -816.000
365.351;  -72.950; -526.000; -572.000
365.482;   16.250;  300.000;  240.000
365.614;  -66.175; -402.000; -314.000
365.746; -107.225; -729.000; -752.000
365.877;  -83.550; -706.000; -672.000
366.009;  433.775;  -35.000;  -62.000
366.141;  -14.200;-1249.000;-1134.000
366.272; -106.700; -803.000; -719.000
366.404; -120.325;-1005.000; -874.000
366.535;  -17.225; -139.000;  -12.000
366.667; -111.450; -644.000; -649.000
366.799;   22.775;  353.000;  203.000
366.930; -141.825; -862.000; -996.000
367.062;  187.500; -639.000; -613.000
367.193;  339.525; -872.000; -842.000
367.325;  -46.800; -580.000; -684.000
367.456;   -8.600; -246.000;   31.000
367.588;  253.725; -371.000; -318.000
367.719;   31.050;  -44.000;  -45.000
367.851;  -47.550; -222.000; -241.000
367.982; -119.850; -875.000; -732.000
368.113;   -0.550; -475.000; -358.000
368.245; -147.925; -960.000; -841.000
368.376;  -54.050; -254.000; -302.000
368.508;  -67.925; -188.000; -263.000
368.639; -153.450;-1166.000;-1034.000
368.770; -103.625; -670.000; -589.000
368.902; -110.325; -836.000; -926.000
369.033; -126.150; -906.000; -855.000
369.164;  -42.875; -720.000; -653.000
369.296; -111.325; -452.000; -601.000
369.427;  -38.650; -209.000; -144.000
369.558;  -85.025; -593.000; -377.000
369.689;  -86.325; -721.000; -569.000
369.821; -135.425; -951.000; -845.000
369.952;  -28.475;   42.000; -108.000
370.083;  -52.825; -229.000; -108.000
370.214; -105.050; -735.000; -650.000
370.345;  -29.825;   65.000;   81.000
370.477; -111.875; -810.000; -790.000
370.608;   41.925; -328.000; -264.000
370.739; -142.625;-1233.000;-1292.000
370.870; -123.500;-1102.000; -923.000
371.001;  -27.025; -378.000; -467.000
371.132; -110.900; -754.000; -735.000
371.263;  -26.625;  -42.000; -148.000
371.394; -146.900; -841.000; -748.000
371.525;   11.050;  345.000;  225.000
371.657; -117.700; -808.000; -670.000
371.788;   24.275;  103.000;  199.000
371.919;    9.425; -384.000; -304.000
372.050; 1339.775;  -91.000; -156.000
372.181;  403.425; -188.000; -294.000
372.311;  110.075;   42.000; -127.000
372.442;  -44.275; -457.000; -451.000
372.573;  -50.425; -444.000; -340.000
372.704; -149.700;-1008.000; -980.000
372.835;  -20.725; -228.000; -289.000
372.966;  -74.275; -646.000; -554.000
373.097; -107.150; -575.000; -711.000
373.228;  -89.275; -717.000; -542.000
373.359;  -47.425; -824.000; -536.000
373.490;  192.450; -881.000; -727.000
373.620;  275.275;-1001.000; -803.000
373.751;  566.850; -332.000; -396.000
373.882;  221.625; -663.000; -733.000
374.013;  -14.050; -449.000; -262.000
374.143;  -82.400; -581.000; -659.000
374.274; -134.850; -987.000; -908.000
374.405;   54.575; -388.000; -276.000
374.536;  113.950; -526.000; -387.000
374.666;  318.050; -759.000; -807.000
374.797;   -0.600; -817.000; -868.000
374.928;  204.550; -710.000; -560.000
375.058;  206.725; -535.000; -500.000
375.189;   -3.075;  -59.000;  -93.000
375.320; -134.925; -928.000;-1034.000
375.450;  -70.075; -625.000; -616.000
375.581;  -48.700; -526.000; -436.000
375.712;  -52.575; -574.000; -250.000
375.842;   11.575; -438.000; -415.000
375.973;  -17.825; -554.000; -513.000
376.103; -102.625; -665.000; -648.000
376.234;  -96.375; -531.000; -552.000
376.364; -125.675; -944.000; -867.000
376.495;  125.525;  925.000;  529.000
376.625;  -62.250; -472.000; -485.000
376.756;  -53.050; -709.000; -678.000
376.886; -144.500;-1178.000;-1026.000
377.017;  138.525;-1048.000;-1061.000
377.147;  658.750; -786.000; -782.000
377.278;   79.950;  174.000;  228.000
377.408; -124.775; -801.000; -815.000
377.538; -104.275; -707.000; -693.000
377.669;  -96.300; -537.000; -613.000
377.799; -103.225; -645.000; -635.000
377.929;  -91.700; -610.000; -428.000
378.060; -134.300; -781.000; -847.000
378.190;  -36.950; -726.000; -531.000
378.320;  -43.675; -401.000; -406.000
378.451;  -34.600; -131.000;  -22.000
378.581;  -19.275;  -67.000; -110.000
378.711;   68.975; 1035.000;  866.000
378.841;  -63.150; -533.000; -675.000
378.972; -120.525; -871.000; -751.000
379.102;  -72.125; -652.000; -579.000
379.232;  -38.425; -126.000;  -73.000
379.362; -119.925;-1001.000; -885.000
379.492;  -53.750; -373.000; -424.000
379.623;   31.800;    0.000;  111.000
379.753; -120.500;-1107.000; -974.000
379.883;   81.250;   59.000;  156.000
380.013;  -88.925;-1081.000;-1017.000
380.143; -127.925;-1097.000;-1056.000
380.273; -109.475; -985.000; -861.000
380.403;   -0.950; -344.000; -257.000
380.533;  -62.125; -651.000; -664.000
380.663;   21.375;  173.000;  128.000
380.793; -151.600;-1027.000;-1074.000
380.923;  -50.175; -103.000;  -34.000
381.053; -103.650; -613.000; -623.000
381.183;  -55.150; -106.000; -248.000
381.313;  -71.875; -656.000; -470.000
381.443;  -44.700; -692.000; -473.000
381.573;  -35.475; -402.000; -409.000
381.703;  -85.675;-1249.000;-1095.000
381.833; -181.875;-1454.000;-1336.000
381.963;   13.825; -134.000;  -87.000
382.093;  432.200; -925.000; -909.000
382.223;  102.075; -713.000; -602.000
382.353;  -86.650; -801.000; -608.000
382.482;   23.550;-1091.000; -964.000
382.612;  187.350; -872.000; -644.000
382.742;   82.475; -695.000; -622.000
382.872;  -20.800; -565.000; -551.000
383.002;   19.650;  347.000; -132.000
383.131;  -33.650; -226.000; -160.000
383.261;  -59.250; -706.000; -768.000
383.391;  310.475; -552.000; -377.000
383.521; 5044.325;  451.000;  263.000
383.650; 1511.075; -947.000; -904.000
383.780;   47.775; -783.000; -656.000
383.910;   95.300;  880.000;  802.000
384.039;  -86.825; -794.000; -656.000
384.169;  -74.625;-1205.000;-1017.000
384.299;  -90.775; -650.000; -662.000
384.428; -113.200; -764.000; -680.000
384.558;  -51.975; -308.000; -275.000
384.687;  -79.350; -414.000; -334.000
384.817;  -17.225;   75.000;   -2.000
384.947;  -17.500; -234.000; -141.000
385.076;  155.575;  982.000;  912.000
385.206;   31.800;  369.000;  480.000
385.335;  -70.925; -549.000; -417.000
385.465; -121.100; -655.000; -663.000
385.594;   13.650;  -53.000;  -44.000
385.724;   47.775; -868.000; -838.000
385.853;  -12.975; -296.000; -270.000
385.982;  375.700; -743.000; -787.000
386.112;  717.375;-1052.000; -871.000
386.241;    7.550; -307.000; -312.000
386.371;  -31.300; -174.000;  -87.000
386.500;  -61.350; -825.000; -789.000
386.629;   -7.725; -874.000; -817.000
386.759;   63.950;  -43.000;   68.000
386.888;  -26.425; -170.000; -250.000
387.017; -105.275; -648.000; -620.000
387.147; -120.100; -771.000; -798.000
387.276;  -62.400; -410.000; -397.000
387.405;  -48.725; -398.000; -342.000
387.535;  -83.750; -452.000; -361.000
387.664;  -75.650; -692.000; -620.000
387.793;  -24.550; -198.000; -113.000
387.922;  147.700;  255.000;  200.000
388.052;  -56.050; -576.000; -423.000
388.181;  -73.400; -342.000; -472.000
388.310; -112.800; -889.000; -710.000
388.439; -111.525; -749.000; -742.000
388.568;   38.325;  365.000;  244.000
388.697;  282.550; -756.000; -653.000
388.826;   -0.175; -768.000; -666.000
388.956;  -39.975; -285.000; -307.000
389.085;  -60.800; -347.000; -287.000
389.214; -125.475; -842.000; -872.000
389.343;  -70.600; -645.000; -413.000
389.472;  534.550;  126.000;  149.000
389.601;  659.075;   91.000;    0.000
389.730;  -26.250; -568.000; -687.000
389.859;   10.525;  226.000;   46.000
389.988;   24.875; -423.000; -408.000
390.117;   34.650; -168.000; -146.000
390.246;  -71.075; -331.000; -320.000
390.375;  -50.225; -673.000; -626.000
390.504; -105.975; -703.000; -621.000
390.633; -115.250; -672.000; -726.000
390.761; -102.025; -732.000; -645.000
390.890;  -37.125;   -4.000; -130.000
391.019;  -75.475; -421.000; -441.000
391.148; -131.775; -826.000; -855.000
391.277; -101.700; -576.000; -493.000
391.406; -128.800; -821.000; -805.000
391.534;   -5.075;  574.000; -301.000
391.663;  -91.175; -583.000; -645.000
391.792; -104.875; -673.000; -701.000
391.921;   -8.075;   -3.000;   15.000
392.050;   -9.175; -287.000; -228.000
392.178; -142.300;-1206.000;-1061.000
392.307;  -40.775; -758.000; -712.000
392.436;  -53.575; -427.000; -641.000
392.564;   -9.275;  166.000;   -6.000
392.693; -115.100; -860.000; -682.000
392.822;   -8.075; -529.000; -534.000
392.950;  -52.325; -880.000; -714.000
393.079;   68.275; -188.000; -328.000
393.208;  -56.425; -488.000; -511.000
393.336;  -23.600; -170.000; -145.000
393.465;  -56.700; -317.000; -199.000
393.593;  -11.425;   62.000;   79.000
393.722; -153.175;-1121.000; -916.000
393.850;  -37.300; -188.000;  -61.000
393.979; -158.125; -926.000; -805.000
394.107;  -89.300; -517.000; -537.000
394.236;  -53.800; -570.000; -507.000
394.364;   94.775;  383.000;  206.000
394.493;   72.700; -911.000; -767.000
394.621;  -18.750; -955.000; -916.000
394.750; 1155.625; -873.000; -923.000
394.878; 4463.775; -247.000; -149.000
395.007; 6654.850; -721.000; -807.000
395.135;  591.975; -790.000; -721.000
395.263;  -53.825;-1038.000;-1040.000
395.392;   -7.600;  -25.000; -107.000
395.520; -126.050; -818.000; -679.000
395.648; -121.575; -865.000; -915.000
395.777;  -73.375; -366.000; -405.000
395.905;  -94.650; -449.000; -564.000
396.033;   -9.275;  217.000;  172.000
396.162;  113.800; -399.000; -453.000
396.290;  139.150;  -17.000;   -2.000
396.418;  -56.075; -555.000; -514.000
396.546;  -87.350; -571.000; -466.000
396.674; -136.825; -850.000; -878.000
396.803;  -33.275;  -72.000;  -23.000
396.931;  -38.100; -179.000; -199.000
397.059; -122.775;-1026.000; -989.000
397.187; -146.425;-1026.000; -975.000
397.315; -146.175; -884.000; -649.000
397.443; -111.575; -592.000; -443.000
397.572;  -97.925; -578.000; -424.000
397.700; -105.900; -607.000; -614.000
397.828;  -65.475;  120.000;  -90.000
397.956;  -59.225; -508.000; -478.000
398.084;  -29.525; -767.000; -626.000
398.212;   -1.275;  137.000;  124.000
398.340;  -24.450;  -56.000;  159.000
398.468;  -59.725; -390.000; -169.000
398.596; -139.500; -993.000; -953.000
398.724; -130.675; -762.000; -767.000
398.852; -167.325;-1024.000; -976.000
398.980;  -93.250; -560.000; -560.000
399.108; -102.975; -982.000; -735.000
399.236;   -1.375;   13.000;    8.000
399.363;  -12.875;  222.000;  196.000
399.491;  -77.300; -404.000; -398.000
399.619; -132.525; -829.000; -800.000
399.747; -123.875; -859.000; -771.000
399.875;   19.525;  220.000;  234.000
400.003;  -72.925; -359.000; -284.000
400.130;  -98.600; -421.000; -341.000
400.258;  -47.225;  -83.000;   38.000
400.386;  -70.275; -352.000; -168.000
400.514;  -99.300; -526.000; -587.000
400.641; -130.225; -928.000; -802.000
400.769; -153.875; -979.000; -888.000
400.897; -127.300; -838.000; -793.000
401.025;  -43.925; -166.000; -152.000
401.152;  -14.750;  220.000;   38.000
401.280;  -82.275; -430.000; -429.000
401.408; -139.800; -712.000; -576.000
401.535; -115.400; -735.000; -758.000
401.663; -176.825;-1134.000;-1054.000
401.790; -101.075; -514.000; -525.000
401.918;   20.025;  436.000;  405.000
402.046;  -23.575;  134.000;  122.000
402.173;  -55.550;  -18.000;    7.000
402.301;  -89.850; -519.000; -397.000
402.428;   29.275;  528.000;  383.000
402.556; -150.325;-1188.000; -913.000
402.683;  -22.600;  -20.000;   -1.000
402.811;  -35.975;  -37.000; -206.000
402.938;  -24.000;   20.000;   27.000
403.066;  -13.575; -574.000; -558.000
403.193;   96.025;  299.000;  239.000
403.321;   63.325; -396.000; -574.000
403.448;  116.825;   83.000;   27.000
403.575;   54.925;  -90.000;  -46.000
403.703;  -87.525; -732.000; -557.000
403.830;  -67.375; -531.000; -496.000
403.957; -135.500;-1117.000;-1023.000
404.085;   17.150;  -61.000; -172.000
404.212;  111.300;  -50.000;   63.000
404.339;  433.775; -566.000; -306.000
404.467; 9042.675; -612.000; -524.000
404.594; 5598.750; -287.000; -227.000
404.721;  967.300; -869.000; -764.000
404.848;   91.275; -113.000; -202.000
404.976;  -99.450; -856.000; -783.000
405.103;  -26.050;  -14.000;  -82.000
405.230;  -12.025;  190.000;  226.000
405.357;   52.350;  117.000;   44.000
405.484;  422.625;  -49.000;    5.000
405.612;  128.575; -548.000; -563.000
405.739;  -50.450; -488.000; -243.000
405.866;   70.550;  669.000;  385.000
405.993;  -67.175; -398.000; -102.000
406.120; -149.750; -801.000; -887.000
406.247;  -85.425; -323.000; -342.000
406.374;  109.875;  540.000;  629.000
406.501;  -83.575; -632.000; -702.000
406.628;  -99.625; -621.000; -589.000
406.755; -121.850; -803.000; -620.000
406.882;  -74.000; -228.000; -277.000
407.009; -127.250; -719.000; -628.000
407.136;  -45.150; -480.000; -401.000
407.263;  -63.850; -939.000; -829.000
407.390; -101.225; -692.000; -614.000
407.517; -191.600;-1139.000;-1187.000
407.644;  -70.425; -332.000; -256.000
407.771;  -89.625; -249.000; -287.000
407.898;  -19.925;  168.000;  328.000
408.025;  -76.325; -421.000; -313.000
408.151;  -24.075;   82.000;  153.000
408.278;  -74.300; -267.000; -216.000
408.405; -151.725; -931.000; -899.000
408.532; -100.575; -549.000; -542.000
408.659; -133.200; -677.000; -648.000
408.785; -189.725;-1298.000;-1170.000
408.912;  -86.075; -412.000; -296.000
409.039; -117.100; -610.000; -686.000
409.166; -104.625; -591.000; -555.000
409.292; -114.400; -571.000; -534.000
409.419; -132.325; -665.000; -649.000
409.546; -103.050; -431.000; -192.000
409.672; -114.300; -713.000; -545.000
409.799;  -49.350;  -36.000;   34.000
409.926;  -62.625; -180.000; -179.000
410.052; -191.275;-1127.000;-1091.000
410.179;  -80.500; -368.000; -392.000
410.305; -100.425; -375.000; -493.000
410.432;  -46.500; -220.000; -333.000
410.558; -102.925; -305.000; -380.000
410.685; -114.100; -688.000; -431.000
410.812; -118.275; -409.000; -588.000
410.938; -148.575; -964.000; -808.000
411.065; -113.550; -671.000; -645.000
411.191;  -40.225; -189.000; -174.000
411.317; -135.675; -823.000; -742.000
411.444;  -77.975; -317.000; -246.000
411.570;  -83.825; -339.000; -294.000
411.697; -127.175; -758.000; -752.000
411.823; -176.475; -989.000; -999.000
411.949;  -55.725;  -56.000;   17.000
412.076; -125.600; -539.000; -519.000
412.202; -143.750; -758.000; -757.000
412.329; -137.850; -798.000; -752.000
412.455; -133.725; -821.000; -657.000
412.581;  -26.500;  -15.000;  172.000
412.707;  -95.950; -540.000; -457.000
412.834;  -17.350;  156.000;  219.000
412.960; -100.325; -785.000; -784.000
413.086; -116.825; -743.000; -701.000
413.212;  107.500;  604.000;  578.000
413.339; -110.600; -685.000; -701.000
413.465;  -52.350; -364.000; -310.000
413.591; -119.500; -757.000; -474.000
413.717;  -60.325; -358.000; -366.000
413.843; -145.975; -839.000; -861.000
413.969;  -59.625;  -47.000; -292.000
414.096;  -94.225; -679.000; -679.000
414.222;  -14.950;  -33.000;   85.000
414.348;  -79.325; -652.000; -385.000
414.474;  -15.475;   38.000;  -52.000
414.600;  -19.625; -126.000; -144.000
414.726;  -20.225;  -96.000;  -55.000
414.852;  -53.900; -365.000; -342.000
414.978;   40.150;  104.000;  -18.000
415.104;   53.350;   38.000;   80.000
415.230;   24.950; -329.000; -330.000
415.356;   53.925; -409.000; -514.000
415.482;  236.225;   13.000;  -35.000
415.608;  394.750; -247.000; -323.000
415.734; 1333.700;   67.000;   38.000
415.860;27883.100; -875.000; -767.000
415.986;23187.525; -685.000; -607.000
416.111; 2177.900; -798.000; -652.000
416.237;  464.050; -424.000; -571.000
416.363; 1671.525; -765.000; -733.000
416.489; 6826.800; -324.000; -251.000
416.615;  943.550; -707.000; -742.000
416.741;   54.950; -677.000; -784.000
416.866;  -71.825; -673.000; -736.000
416.992;  -89.450; -801.000; -818.000
417.118;  -29.775;  -41.000;  -80.000
417.244;  -76.125; -798.000; -531.000
417.369;  -93.300; -801.000; -612.000
417.495;  -15.975; -325.000; -254.000
417.621; -100.550;-1015.000; -803.000
417.746;   16.350; -579.000; -572.000
417.872;   71.650; -254.000; -144.000
417.998;  119.475; -515.000; -530.000
418.123; 1558.100;-1073.000; -845.000
418.249; 8726.000; -512.000; -601.000
418.374; 1502.575; -916.000; -824.000
418.500;  229.950; -383.000; -482.000
418.626;  177.850;   70.000;  -59.000
418.751;  144.450; -549.000; -448.000
418.877;  329.875; -637.000; -643.000
419.002; 2561.075; -688.000; -560.000
419.128;19673.675; -930.000; -721.000
419.253; 5642.075; -967.000; -837.000
419.379;  772.175; -391.000; -338.000
419.504;  586.800;  325.000;  415.000
419.629;  822.400; -393.000; -212.000
419.755; 5333.025; -317.000; -254.000
419.880;35178.400;  -98.000;   67.000
420.006;17664.525; -280.000; -221.000
420.131;44003.375; -662.000; -775.000
420.256; 7233.175; -315.000; -316.000
420.382;  977.900; -665.000; -687.000
420.507;  170.525; -649.000; -778.000
420.632;   44.700; -337.000; -339.000
420.758;   56.850; -251.000; -425.000
420.883;  -90.175; -876.000; -672.000
421.008; -123.125; -775.000; -619.000
421.133;  -99.125; -509.000; -467.000
421.259;  -56.925; -325.000; -259.000
421.384; -132.325; -834.000; -693.000
421.509; -119.800;-1052.000; -862.000
421.634;  187.350; -936.000; -820.000
421.759;  109.150; -359.000; -327.000
421.885; -101.350; -717.000; -656.000
422.010; -104.075; -673.000; -542.000
422.135; -151.475; -695.000; -727.000
422.260;    5.350;  340.000;  280.000
422.385;  -59.050;   12.000;  -98.000
422.510;   -8.875;  151.000;  -26.000
422.635;  -39.325;  -87.000;  -43.000
422.760;  -27.000; -766.000; -791.000
422.885;   28.275;  -57.000;  -80.000
423.010;  -46.550; -112.000; -169.000
423.135; -101.500; -481.000; -561.000
423.260;  -49.725; -150.000; -245.000
423.385;   26.450;  476.000;  222.000
423.510;   -1.475;   71.000;  -22.000
423.635;    7.725;  133.000;   45.000
423.760;   31.700;  383.000;  328.000
423.885;   25.700;  336.000;  391.000
424.010;   -8.725;  -68.000;  -13.000
424.135;  -31.675;    5.000;  -33.000
424.259;  -85.700; -654.000; -457.000
424.384;  -42.950; -279.000; -272.000
424.509;  -27.950; -260.000; -186.000
424.634;  -92.425; -761.000; -623.000
424.759;  -45.550; -688.000; -544.000
424.883;   -3.000; -506.000; -527.000
425.008;  201.225; -502.000; -410.000
425.133; 2896.550; -679.000; -653.000
425.258; 1614.775; -517.000; -381.000
425.382;  510.400; -867.000; -774.000
425.507; 1200.575; -487.000; -543.000
425.632;  406.325; -802.000; -663.000
425.756;  694.200; -256.000; -146.000
425.881; 9981.225; -831.000; -857.000
426.006;31238.025; -604.000; -355.000
426.130; 5220.125; -696.000; -508.000
426.255;  701.500; -611.000; -491.000
426.379;  282.925; -189.000; -577.000
426.504;  504.275;  660.000;  544.000
426.629; 5789.450; -519.000; -466.000
426.753; 4582.075;   64.000;  -46.000
426.878;  570.950; -252.000; -288.000
427.002;  288.625; -651.000; -668.000
427.127; 2058.800;  -35.000; -158.000
427.251;17441.450;  372.000;  401.000
427.375; 5721.500; -191.000; -173.000
427.500; 1344.775; -616.000; -610.000
427.624;  430.725; -234.000; -400.000
427.749;   82.725; -216.000; -225.000
427.873;  -23.725; -499.000; -412.000
427.997;  -36.500; -222.000; -230.000
428.122;   55.200;  795.000;  703.000
428.246;   22.200;  433.000;  434.000
428.371; -137.125; -869.000; -773.000
428.495; -113.875; -624.000; -646.000
428.619;  -40.875; -186.000; -117.000
428.743;   -4.175;   65.000;  132.000
428.868;  -62.900; -732.000; -643.000
428.992;  493.250; -219.000; -326.000
429.116;  179.475; -329.000; -357.000
429.240;  116.825;  419.000;  426.000
429.365;  -48.425; -454.000; -574.000
429.489;  -55.625; -638.000; -647.000
429.613;   24.000; -236.000; -177.000
429.737;   85.900; -563.000; -432.000
429.861;  378.850; -247.000; -133.000
429.985; 8007.725; -425.000; -305.000
430.109;10326.000; -770.000; -908.000
430.234; 1269.150;   76.000;  -50.000
430.358;  158.900; -250.000; -160.000
430.482;  -49.950; -672.000; -564.000
430.606;  -69.875; -655.000; -375.000
430.730;  -60.600; -437.000; -388.000
430.854;  -92.600; -909.000; -835.000
430.978; -104.050; -795.000; -764.000
431.102;  -90.150; -499.000; -422.000
431.226; -123.100; -874.000; -815.000
431.350;   11.050;  345.000;  422.000
431.474;  -86.625; -661.000; -373.000
431.597; -156.700;-1060.000; -848.000
431.721;  -80.750; -276.000; -267.000
431.845; -137.175; -704.000; -472.000
431.969;  -81.800; -304.000; -349.000
432.093;  -84.500; -395.000; -317.000
432.217;  -28.075;   32.000;   82.000
432.341;  -90.000; -523.000; -518.000
432.464;  -10.550;   96.000;   40.000
432.588;  -26.800; -401.000; -329.000
432.712;   11.350;  -52.000;  -52.000
432.836;   65.525;  213.000;  263.000
432.959;   15.125; -372.000; -311.000
433.083;  153.000;   11.000;    2.000
433.207;  572.625;  285.000;  930.000
433.330; 7668.600; -391.000; -200.000
433.454;10767.375; -654.000; -638.000
433.578; 5872.275;  583.000;  278.000
433.701; 1287.050; -623.000; -675.000
433.825;  157.625; -292.000; -299.000
433.949;   35.575;   28.000;  -72.000
434.072;  -20.725; -410.000; -323.000
434.196;   -1.500; -309.000; -117.000
434.319; 3444.875;25482.000;25124.000
434.443;  873.125; -656.000; -603.000
434.566; 4123.325;  281.000;   62.000
434.690;  930.475; -637.000; -383.000
434.813;  137.475; -251.000; -173.000
434.937;  -40.925; -569.000; -696.000
435.060;  -77.025; -423.000; -332.000
435.184;  -22.775; -492.000; -217.000
435.307;    8.700;  159.000;  102.000
435.431;  -35.525;  -40.000;   24.000
435.554;  -95.950; -399.000; -240.000
435.677;  -85.850; -350.000; -258.000
435.801;  -50.925;  -25.000;   49.000
435.924;  -54.375;    1.000;  -67.000
436.048; -152.750;-1019.000; -732.000
436.171;  -76.550; -240.000;  -66.000
436.294;  -22.575; -248.000; -229.000
436.417;  243.825; -963.000; -849.000
436.541;  -16.825; -814.000; -840.000
436.664;  -51.925; -242.000; -316.000
436.787;  -49.050;   13.000;  113.000
436.910; -118.300; -792.000; -422.000
437.034;  -12.525;  142.000;  143.000
437.157;   -9.325;  -11.000;    0.000
437.280;  -79.700; -392.000; -292.000
437.403; -144.375; -982.000; -869.000
437.526;    4.675; -903.000; -865.000
437.649;  519.175; -505.000; -332.000
437.772;    9.425; -692.000; -540.000
437.896;   44.925;  700.000;  544.000
438.019; -110.650; -758.000; -503.000
438.142; -113.625; -596.000; -506.000
438.265; -132.700; -639.000; -670.000
438.388;   34.675; -520.000; -410.000
438.511;  -73.375; -597.000; -394.000
438.634;  -77.500; -247.000; -125.000
438.757; -141.725; -693.000; -619.000
438.880;  -59.650;  -34.000;  -57.000
439.003; -111.775; -417.000; -437.000
439.126;  -80.700; -287.000; -167.000
439.248;  -58.000;  -98.000; -139.000
439.371;  -48.125;    9.000;  -53.000
439.494;   11.450;  510.000;  439.000
439.617;  -49.850;   65.000;  -88.000
439.740; -176.525; -968.000; -816.000
439.863; -128.250; -755.000; -595.000
439.986; -126.125; -476.000; -431.000
440.108;  -61.975; -161.000; -112.000
440.231; -166.525; -950.000; -836.000
440.354;  -82.400;  -64.000; -150.000
440.477;  -99.725; -566.000; -542.000
440.599;  -87.175; -200.000; -225.000
440.722; -133.350; -709.000; -586.000
440.845;   47.475;  751.000;  928.000
440.968; -113.800; -415.000; -311.000
441.090;  -68.200; -199.000;  -33.000
441.213; -166.725;-1021.000; -825.000
441.336;  -75.025; -159.000;   -5.000
441.458; -111.875; -549.000; -396.000
441.581; -122.250; -628.000; -629.000
441.703;  -66.700; -152.000;   13.000
441.826; -124.500; -557.000; -400.000
441.948;  -55.875;   56.000;   51.000
442.071;   21.875;  555.000;  424.000
442.193; -126.275; -531.000; -485.000
442.316;    1.925;  152.000;   97.000
442.438;   79.325; -233.000;  -10.000
442.561;   75.375;  272.000;  262.000
442.683;   54.250; -809.000; -522.000
442.806;  287.075;   -8.000;   74.000
442.928; -102.400; -859.000; -604.000
443.051;  -95.050; -577.000; -373.000
443.173;  -95.475; -341.000; -339.000
443.295;  -99.675; -263.000; -371.000
443.418;  -93.525; -321.000;  -29.000
443.540;  -48.525; -106.000;   -4.000
443.662; -137.650; -563.000; -465.000
443.785;  -29.925;  335.000;  199.000
443.907; -111.075; -362.000; -208.000
444.029; -133.500; -767.000; -494.000
444.152; -147.750; -644.000; -554.000
444.274;  -56.450;  -18.000;  -24.000
444.396; -125.450; -461.000; -221.000
444.518; -140.300; -691.000; -454.000
444.640; -109.550; -268.000; -111.000
444.763;  -37.500;  388.000;  249.000
444.885; -119.700; -432.000; -392.000
445.007;  -48.325;   35.000;   86.000
445.129; -134.475; -610.000; -515.000
445.251; -122.175; -372.000; -439.000
445.373; -157.500; -537.000; -386.000
445.495;  -16.175;  242.000;  350.000
445.617;   29.100;  853.000;  753.000
445.739;  -85.275; -215.000;  -97.000
445.861;  -68.375; -245.000; -112.000
445.984;  -66.700; -267.000; -101.000
446.105;  -24.750; -418.000; -251.000
446.227;  122.675; -176.000;  -19.000
446.349;  -78.200; -358.000; -249.000
446.471; -125.575; -615.000; -448.000
446.593;  -96.475; -316.000;   19.000
446.715;  -39.825;  -67.000;   41.000
446.837;   26.450;  697.000;  832.000
446.959; -118.200; -457.000; -478.000
447.081; -137.875; -628.000; -518.000
447.203;   34.575;  862.000;  834.000
447.325;  -88.325; -270.000;   42.000
447.446;  -16.475;  286.000;  530.000
447.568; -168.775; -921.000; -803.000
447.690;  -97.700; -236.000; -245.000
447.812; -154.500; -798.000; -519.000
447.933;  -39.050;  155.000;  127.000
448.055;  -78.900; -306.000; -261.000
448.177;   20.325;   31.000;   79.000
448.299; -101.450; -935.000; -727.000
448.420;  -21.500;  -25.000;  159.000
448.542;  -66.825;   -3.000;   33.000
448.664;  -39.775;  109.000;  322.000
448.785;  -51.700;  265.000;   83.000
448.907; -115.475; -614.000; -353.000
449.028; -123.375; -771.000; -471.000
449.150;   35.200;  492.000;  589.000
449.272; -179.375;-1044.000; -913.000
449.393;   26.150;  612.000;  694.000
449.515; -149.650; -634.000; -581.000
449.636;  -69.600; -264.000; -155.000
449.758;   50.425;  763.000;  622.000
449.879; -103.150; -498.000; -396.000
450.001;  -79.950; -149.000;  -49.000
450.122;  -45.675;  -95.000;  162.000
450.244;  -20.075;   37.000;  364.000
450.365;  -77.000; -495.000; -301.000
450.486;  -23.750;   80.000;  268.000
450.608;   57.250;  393.000;  326.000
450.729;   96.425;  578.000;  645.000
450.850;   92.700; -574.000; -466.000
450.972; 1218.975; -552.000; -389.000
451.093; 7968.975;  190.000;  588.000
451.214; 4206.125; -516.000; -337.000
451.336;  725.000;  773.000;  579.000
451.457;  109.825;  264.000;  393.000
451.578;  -23.525; -118.000;  -74.000
451.699;  -96.525; -546.000; -540.000
451.821;  -61.825; -284.000;  -50.000
451.942;   -1.525;  278.000;  285.000
452.063;   46.350;  228.000;  419.000
452.184;  818.425;  -54.000;  -49.000
452.305; 1756.600;  103.000;  170.000
452.427;  337.950; -549.000; -301.000
452.548;   11.075;   23.000;   79.000
452.669;  -62.575; -257.000;  -89.000
452.790;  -62.075;    3.000;  -18.000
452.911;  -37.550;  195.000;  259.000
453.032;  -87.325; -289.000;  -60.000
453.153;  -65.000;  -29.000;   81.000
453.274;   22.150;  737.000;  868.000
453.395;  -78.150;  -51.000;  175.000
453.516;   82.425; 1317.000; 1388.000
453.637;  -98.950; -205.000; -150.000
453.758;  -55.225;   15.000;   69.000
453.879; -122.300; -462.000; -250.000
454.000;   47.500; 1086.000;  948.000
454.121; -127.025; -554.000; -326.000
454.242; -120.825; -599.000; -383.000
454.362;  -48.100;  -99.000;  114.000
454.483;  -16.575; -309.000; -229.000
454.604;   58.675;  512.000;  580.000
454.725; -137.000; -627.000; -555.000
454.846; -140.725; -474.000; -406.000
454.967;  -27.650;  230.000;  539.000
455.087;  -41.775;  179.000;  153.000
455.208;    1.925;  554.000;  856.000
455.329;  -55.750;  -22.000;   82.000
455.450;   56.850;  473.000;  633.000
455.570;  -77.400; -234.000; -211.000
455.691;  -46.025;  201.000;  407.000
455.812; -101.750; -270.000;  -92.000
455.932;  -75.575;  107.000;  -97.000
456.053;  -85.900;   36.000;   24.000
456.173; -105.300; -433.000; -355.000
456.294; -138.725; -476.000; -303.000
456.415;  -77.250;  -73.000;   70.000
456.535;  -46.700;  297.000;  273.000
456.656;  -53.125;  132.000;  240.000
456.776;  -72.425;    3.000;  298.000
456.897;   -9.350;  308.000;  513.000
457.017;  -75.875; -153.000;   -3.000
457.138; -113.675; -402.000; -249.000
457.258;  -47.975;  263.000;  224.000
457.379;  -19.875;  509.000;  521.000
457.499;  -30.225;  443.000;  432.000
457.620; -111.300; -407.000; -231.000
457.740;  -97.300; -132.000;  -11.000
457.860;  -70.825;   87.000;   44.000
457.981;  -45.025;  132.000;  124.000
458.101;  -77.100;  -89.000;   40.000
458.221;  -16.900;  336.000;  402.000
458.342;  -59.700;   -4.000;  -37.000
458.462;   36.525;  617.000;  352.000
458.582;   19.150; -302.000; -294.000
458.703;   63.300;  303.000;  154.000
458.823;   15.125;   22.000;  163.000
458.943;   49.475;  341.000;  467.000
459.063;   15.825; 1124.000;  192.000
459.183;  -27.175;  328.000;  313.000
459.304;   -6.275;  315.000;  517.000
459.424;  -52.150; -246.000;  -89.000
459.544;  447.425;  388.000;  764.000
459.664; 1339.325;  499.000;  506.000
459.784;  501.725; 1004.000; 1175.000
459.904;   92.800;  867.000;  744.000
460.024;   42.475;  867.000;  684.000
460.144;  -18.925;  449.000;  554.000
460.264;  -27.500;  515.000;  327.000
460.385;  -90.500; -145.000; -119.000
460.505;   32.025;  905.000;  858.000
460.625;  -87.950;  -17.000;  -68.000
460.745;  -14.325;  396.000;  541.000
460.864;  -45.800;  153.000;  469.000
460.984;   11.050;  499.000;  573.000
461.104;  133.100; 1656.000; 1775.000
461.224;    9.025;  657.000;  650.000
461.344;  -40.725;  431.000;  360.000
461.464;  -45.175;  258.000;  513.000
461.584;  -45.650;  283.000;  466.000
461.704;  -58.100;   58.000;  108.000
461.824;  -58.875;  238.000;  259.000
461.943;  -55.575;  191.000;  130.000
462.063;  -82.700;    2.000;  324.000
462.183;   26.525;  639.000;  717.000
462.303;   81.325; 1678.000; 1230.000
462.422;   14.200;  781.000;  840.000
462.542;  -45.500;  271.000;  391.000
462.662;   39.025;  353.000;  380.000
462.782;  330.025;  833.000;  572.000
462.901;  751.675;  545.000;  717.000
463.021;  393.400; 1702.000; 1638.000
463.141;   20.675;  337.000;  770.000
463.260;  -22.625;  614.000;  474.000
463.380;   -2.950;  902.000;  884.000
463.499;  -35.450;  342.000;  332.000
463.619;  -32.975;  581.000;  559.000
463.738;   94.550; 1644.000;  903.000
463.858;   10.200;  657.000;  811.000
463.978;  -29.050;  542.000;  396.000
464.097;   50.700;  921.000; 1114.000
464.217;  136.500; 1196.000; 1143.000
464.336;  133.200; 1068.000; 1130.000
464.455;  -31.525;  328.000;  659.000
464.575;    8.050;  597.000;  602.000
464.694;  132.275; 1204.000; 1179.000
464.814;  133.425; 1190.000; 1138.000
464.933;   68.275; 1095.000; 1027.000
465.052;   94.575; 1412.000; 1054.000
465.172;   64.750;  922.000;  799.000
465.291;  106.425; 1376.000; 1320.000
465.410;    5.300;  462.000;  735.000
465.530;   63.800; 1355.000; 1310.000
465.649;   49.250; 1209.000; 1273.000
465.768;  128.275; 1673.000; 1508.000
465.888;   64.775;  941.000; 1174.000
466.007;   83.225; 1335.000; 1440.000
466.126;   -6.050;  721.000;  641.000
466.245;   43.725; 1176.000; 1187.000
466.364;    6.425;  950.000; 1060.000
466.484;   49.175; 1024.000; 1213.000
466.603;   31.050; 1101.000; 1222.000
466.722;   83.625; 1490.000; 1769.000
466.841;   59.525; 1151.000; 1401.000
466.960;   44.325; 1069.000;  972.000
467.079;  127.700; 1971.000; 1786.000
467.198;   38.925; 1238.000; 1181.000
467.317;   80.250; 1768.000; 1162.000
467.436;   47.925; 1709.000; 1261.000
467.555;  125.400; 1796.000; 1746.000
467.674;   53.775; 1227.000; 1329.000
467.793;   49.300; 1376.000; 1374.000
467.912;   84.675; 1658.000; 1539.000
468.031;  127.900; 2038.000; 1930.000
468.150;  123.425; 1842.000; 1837.000
468.269;  178.200; 2313.000; 2090.000
468.388;  161.800; 2168.000; 2339.000
468.507;  244.900; 2884.000; 2903.000
468.626;  229.500; 2555.000; 2541.000
468.744;  134.050; 2018.000; 2174.000
468.863;  172.575; 2312.000; 2523.000
468.982;   95.475; 1503.000; 1555.000
469.101;  228.750; 2788.000; 2692.000
469.220;  134.800; 2333.000; 2176.000
469.338;  228.125; 2935.000; 3051.000
469.457;  184.975; 2719.000; 2545.000
469.576;  332.000; 3953.000; 3784.000
469.695;  225.700; 2877.000; 3066.000
469.813;  404.125; 4148.000; 4192.000
469.932;  411.450; 4255.000; 4485.000
470.051;  438.550; 4075.000; 4161.000
470.169; 1028.900; 4470.000; 4338.000
470.288; 2018.950; 4700.000; 4809.000
470.406; 1182.200; 5059.000; 5194.000
470.525;  665.400; 6101.000; 5787.000
470.644;  633.900; 6847.000; 6794.000
470.762;  776.950; 8397.000; 7873.000
470.881;  913.300; 8651.000; 8464.000
470.999; 1047.375; 9685.000; 9151.000
471.118; 1121.400;11174.000;10711.000

