
Integration time [ms]: 100.000
Averaging Nr. [scans]: 40
Smoothing Nr. [pixels]: 0
Data measured with spectrometer [name]: 2101012U2
Wave   ;Sample   ;Dark     ;Reference
[nm]   ;[counts] ;[counts] ;[counts] 

197.733;   58.350;  516.000;  404.000
197.879;  -91.850; -610.000; -634.000
198.025;  -50.375; -475.000; -420.000
198.171;  -83.125; -602.000; -612.000
198.317;  -42.575; -401.000; -316.000
198.463;  -69.175; -655.000; -404.000
198.609;   17.475;  181.000; -137.000
198.755;  -85.200; -644.000; -410.000
198.901;  -75.875; -505.000; -424.000
199.047;  -71.150; -615.000; -488.000
199.193;  -42.750; -230.000; -468.000
199.339;  -49.200; -222.000; -369.000
199.485;   35.325;  330.000;  271.000
199.631;    3.100;  227.000;  310.000
199.777;  -51.275; -466.000; -398.000
199.923;  -58.050; -610.000; -424.000
200.069;   -9.250; -141.000;  -58.000
200.215;   52.775;  128.000;  453.000
200.361;   39.975;  243.000;  477.000
200.507;  -68.175; -600.000; -373.000
200.653;  -28.700; -371.000; -194.000
200.798;  -43.075; -215.000; -125.000
200.944;  -12.725; -146.000;  -41.000
201.090;   40.800;   61.000;  222.000
201.236;   -1.275; -116.000; -158.000
201.382;  128.975;  874.000;  903.000
201.528;    6.875;  -58.000;  -48.000
201.674;  -60.650; -386.000; -293.000
201.819;  -71.900; -540.000; -439.000
201.965;  -85.175; -699.000; -447.000
202.111;  -24.300; -273.000; -226.000
202.257;  -53.475; -250.000; -238.000
202.402;   -5.150;   13.000;  -36.000
202.548;  -39.675; -169.000; -116.000
202.694;   92.925;  410.000; -183.000
202.840;  -81.250; -603.000; -531.000
202.985;  -83.325; -681.000; -639.000
203.131; -116.475; -832.000; -666.000
203.277;  -27.650; -199.000; -262.000
203.423;  -60.450; -434.000; -520.000
203.568;  -37.125; -462.000; -237.000
203.714;  -77.025; -535.000; -542.000
203.860;  -81.575; -682.000; -641.000
204.005;   12.800;  112.000;  167.000
204.151;   86.550;  561.000;  556.000
204.296;  -45.000; -354.000; -221.000
204.442;  -76.900; -600.000; -547.000
204.588;  -78.850; -592.000; -579.000
204.733;    0.525;  178.000;  168.000
204.879; -135.475;-1018.000; -822.000
205.025;    0.075;  -99.000;  126.000
205.170;   -9.000;  -17.000;   94.000
205.316;   94.050;  438.000;  661.000
205.461;  -92.675; -698.000; -554.000
205.607;   89.625;  609.000;  665.000
205.752;  -87.425; -626.000; -551.000
205.898;  -57.850; -501.000; -391.000
206.043;  -76.800; -578.000; -506.000
206.189;  -47.050; -243.000; -285.000
206.334;   81.100;  554.000;  606.000
206.480;   76.700;  409.000;  239.000
206.625;  -87.525; -529.000; -552.000
206.771;  -56.550; -451.000; -373.000
206.916;  -47.175; -210.000; -537.000
207.062;  -88.175; -545.000; -591.000
207.207;  -64.425; -546.000; -443.000
207.353;   62.775;  185.000;  460.000
207.498;   14.675;  196.000;   85.000
207.643;  -49.800; -501.000; -370.000
207.789; -134.450;-1069.000; -910.000
207.934;  -97.075; -665.000; -713.000
208.080;  -33.625; -154.000;   66.000
208.225;  -23.925;  -22.000;  -57.000
208.370;  -92.275; -727.000; -619.000
208.516;  -86.075; -741.000; -487.000
208.661;  -35.400; -127.000;  -69.000
208.806;  -12.975; -165.000; -171.000
208.952; -126.525;-1044.000; -731.000
209.097;   85.325;  378.000;  349.000
209.242;  -58.275; -307.000; -382.000
209.387;   59.825;  392.000;  350.000
209.533;  -54.400; -321.000; -350.000
209.678;   91.000;  472.000;  543.000
209.823;  -52.275; -408.000; -310.000
209.969; -105.100; -860.000; -757.000
210.114; -107.225; -907.000; -719.000
210.259; -121.300; -939.000; -889.000
210.404;  -21.175; -171.000;  103.000
210.549;   -0.700;  108.000;    3.000
210.695;  -29.750;   -3.000;  -95.000
210.840;   49.225;   94.000;   67.000
210.985;  -84.575; -484.000; -303.000
211.130;   77.550;  268.000;  406.000
211.275;   12.125;  207.000;  199.000
211.420;  -42.975; -300.000; -289.000
211.566;  -82.750; -536.000; -489.000
211.711;   28.600;  218.000;  157.000
211.856;  -69.975; -545.000; -519.000
212.001;   12.050;  151.000;   44.000
212.146;    9.700;  153.000;   49.000
212.291;  -27.525; -210.000; -186.000
212.436;  -21.700; -280.000;   -6.000
212.581;  -88.350; -685.000; -653.000
212.726;  -76.975; -487.000; -538.000
212.871;  -53.625; -552.000; -217.000
213.016; -162.650;-1172.000;-1029.000
213.161;   62.200;  406.000;  291.000
213.306;  -89.375; -435.000; -577.000
213.451; -101.375; -778.000; -689.000
213.596;  -50.225; -455.000; -347.000
213.741;  -56.975; -448.000; -538.000
213.886;  -78.500; -498.000; -517.000
214.031;  -22.850; -294.000; -124.000
214.176;  -57.225; -408.000; -341.000
214.321;  -21.700; -296.000; -157.000
214.466;  -40.550; -163.000;  -43.000
214.611;  -10.850;  -61.000;  -10.000
214.756; -125.450; -948.000; -858.000
214.901;  -21.025; -388.000; -226.000
215.046; -131.050; -797.000; -825.000
215.191;   19.550;  128.000;   35.000
215.336;  -24.600; -157.000;  -19.000
215.480;  -75.800; -684.000; -505.000
215.625;  -19.150; -175.000;  -19.000
215.770;  -97.650; -757.000; -662.000
215.915;   -9.850;   -5.000;  -97.000
216.060;  -13.525; -113.000;  -21.000
216.205; -119.300; -731.000; -779.000
216.349;  -79.375; -470.000; -533.000
216.494; -141.750; -939.000; -867.000
216.639; -117.575; -823.000; -888.000
216.784;  -88.825; -577.000; -525.000
216.929;   52.450;  392.000;  281.000
217.073;  -23.525; -244.000;  -31.000
217.218;    8.875;   78.000;  -47.000
217.363;  -95.050; -656.000; -618.000
217.507;  -86.750; -623.000; -588.000
217.652; -135.950; -845.000; -874.000
217.797;  -90.625; -708.000; -659.000
217.942; -116.700; -856.000; -720.000
218.086;   74.125;  608.000;  539.000
218.231;  -26.600; -174.000;  -26.000
218.376;  -39.500; -337.000; -229.000
218.520;    2.125;  -41.000;   96.000
218.665;  -30.400; -338.000; -204.000
218.810;  -57.050; -275.000; -233.000
218.954;    4.650;  201.000;   35.000
219.099; -120.600; -713.000; -963.000
219.243;  -65.925; -589.000; -554.000
219.388;  -32.450; -264.000; -136.000
219.532;  -11.725; -116.000; -116.000
219.677;  -82.625; -564.000; -521.000
219.822;    1.775;   33.000;   89.000
219.966;    3.350;   17.000;  -99.000
220.111;  -28.500; -328.000;  -40.000
220.255;  -97.300; -797.000; -750.000
220.400;  -19.200; -180.000; -146.000
220.544;  -73.400; -516.000; -450.000
220.689;  -59.175; -422.000; -451.000
220.833;  -35.025; -123.000;  -58.000
220.978;  -43.825; -393.000; -563.000
221.122;   12.400;  319.000;  307.000
221.267; -111.375; -906.000; -837.000
221.411;  -68.775; -478.000; -394.000
221.555;    0.450; -104.000;  -23.000
221.700;  -49.550; -329.000; -222.000
221.844;   37.600;  255.000;  272.000
221.989;  -38.700; -328.000; -311.000
222.133;  -46.075; -289.000; -307.000
222.277;  -19.150;    5.000;   78.000
222.422;   21.175;  227.000;  113.000
222.566;  -49.450; -381.000; -214.000
222.711;  -54.225; -414.000; -479.000
222.855;  -90.600; -643.000; -586.000
222.999;  -94.025; -642.000; -717.000
223.144;  -34.175; -195.000; -194.000
223.288;   47.025;  423.000;  251.000
223.432;   34.325;  184.000;  230.000
223.576;   18.650;  152.000;  -21.000
223.721;   40.700;  364.000;  273.000
223.865;  -65.125; -472.000; -475.000
224.009;  277.925; 1673.000; 1631.000
224.153;  -96.475; -660.000; -671.000
224.298;  -66.875; -531.000; -489.000
224.442;  -13.050;  -74.000;  -33.000
224.586;  -16.850; -169.000; -106.000
224.730;  -99.050; -858.000; -670.000
224.875; -110.325; -739.000; -688.000
225.019;   14.725;  102.000;  188.000
225.163;   57.900;  208.000;  341.000
225.307;   19.875;   97.000;  -91.000
225.451;   32.900;  360.000;  481.000
225.595;   35.525;  264.000;  176.000
225.739;  -26.225; -170.000;  -94.000
225.884;    3.075;   86.000;    5.000
226.028; -103.725; -760.000; -626.000
226.172;  -49.775; -260.000; -273.000
226.316; -137.100; -941.000; -902.000
226.460;  -56.325; -645.000; -493.000
226.604;  -54.450; -406.000; -400.000
226.748; -104.175; -836.000; -733.000
226.892;  -45.525; -227.000; -181.000
227.036;  -43.100; -537.000; -447.000
227.180;  -75.075; -551.000; -375.000
227.324;  -66.275; -561.000; -580.000
227.468; -115.050; -819.000; -717.000
227.612;   13.275;  242.000;  -28.000
227.756; -115.475; -845.000; -698.000
227.900;   61.975;  342.000;  441.000
228.044;  -67.675; -509.000; -290.000
228.188;   48.225;  448.000;  568.000
228.332; -100.450; -546.000; -472.000
228.476;  -38.400; -223.000; -149.000
228.620;  -40.225; -210.000; -150.000
228.764;   74.025;  431.000;  349.000
228.908;  -23.550; -155.000;   30.000
229.052;  -52.125; -615.000; -528.000
229.195;  -14.750; -172.000;   13.000
229.339;  -31.900; -235.000; -305.000
229.483;  -53.025;    5.000; -162.000
229.627;   -5.500; -156.000;  139.000
229.771;  -51.225; -218.000; -294.000
229.915;   18.175;  230.000;   79.000
230.059; -104.500; -648.000; -663.000
230.202;  -42.700; -370.000; -317.000
230.346;  -32.250; -107.000;  107.000
230.490;  -65.650; -489.000; -521.000
230.634; -115.900; -736.000; -553.000
230.777;   77.500;  478.000;  509.000
230.921;  -64.450; -450.000; -359.000
231.065;  -46.675; -246.000; -286.000
231.209;   28.150;  261.000;  265.000
231.352;   19.500;   54.000;   40.000
231.496;   15.275;  568.000;  188.000
231.640;  -84.525; -693.000; -621.000
231.783;   58.900;  546.000;  525.000
231.927;  -46.925; -294.000; -365.000
232.071; -115.550; -962.000; -736.000
232.214; -116.850; -980.000; -764.000
232.358; -103.125; -683.000; -599.000
232.502;    6.850;  -19.000;    7.000
232.645; -144.100;-1090.000; -927.000
232.789;  -31.350; -257.000; -218.000
232.933;  -34.675; -407.000; -224.000
233.076; -132.850;-1038.000; -897.000
233.220; -115.850; -752.000; -777.000
233.363;  -79.025; -669.000; -477.000
233.507;   37.725;  371.000;  129.000
233.650;  -89.100; -764.000; -834.000
233.794;   31.150;  438.000;  461.000
233.938;  -63.050; -530.000; -362.000
234.081;  -22.050;  -93.000;   31.000
234.225;  -63.525; -631.000; -539.000
234.368; -117.500; -773.000; -723.000
234.512;  -52.550; -385.000; -299.000
234.655;  -92.950; -582.000; -555.000
234.798;  -71.475; -493.000; -466.000
234.942; -151.000; -884.000;-1002.000
235.085;  -84.300; -651.000; -443.000
235.229;  -84.725; -405.000; -410.000
235.372;  -72.050; -247.000; -191.000
235.516;  -66.000; -397.000; -321.000
235.659;   29.250;   92.000;  121.000
235.802;  -22.800;  -38.000;  -22.000
235.946;   20.875;  335.000;  215.000
236.089;   19.625;  126.000;  250.000
236.233;   46.600;  275.000;  298.000
236.376;  -66.600; -235.000; -378.000
236.519;  -40.300; -297.000; -319.000
236.663;  -39.825; -215.000; -117.000
236.806; -133.400;-1029.000; -999.000
236.949;   60.175;  543.000;  431.000
237.092;   58.725;  412.000;  391.000
237.236; -101.000; -589.000; -502.000
237.379;   63.025;  352.000;  428.000
237.522; -127.550; -879.000; -768.000
237.666;  -24.350; -271.000;   18.000
237.809; -130.525; -851.000; -823.000
237.952;   20.475;  469.000;  271.000
238.095;  -64.600; -447.000; -442.000
238.238;  104.400;  688.000;  700.000
238.382;   -4.300;  166.000;  103.000
238.525;  -58.000; -598.000; -511.000
238.668; -150.400;-1060.000; -985.000
238.811;  -89.125; -638.000; -643.000
238.954;  -68.400; -483.000; -334.000
239.097;  100.975;  617.000;  664.000
239.241;   35.575;  394.000;  326.000
239.384;  -36.000; -254.000; -214.000
239.527;  -74.525; -424.000; -224.000
239.670; -149.025; -994.000;-1091.000
239.813; -124.375; -696.000; -658.000
239.956;   82.100;  579.000;  473.000
240.099; -115.825; -778.000; -725.000
240.242;   66.900;  428.000;  432.000
240.385;   41.550;  466.000;  450.000
240.528;  -70.450; -706.000; -473.000
240.671;   15.825;  189.000;  134.000
240.814;  -50.200; -441.000; -158.000
240.957;  -97.600; -767.000; -578.000
241.100; -106.975; -779.000; -755.000
241.243; -156.100;-1234.000; -893.000
241.386;  -58.975; -508.000; -379.000
241.529;  -94.375; -735.000; -547.000
241.672;  -63.350; -566.000; -495.000
241.815; -127.750; -832.000; -808.000
241.958;  -26.075; -125.000; -182.000
242.101;  -86.050; -545.000; -390.000
242.244;  -47.575; -270.000; -325.000
242.387;  -48.950; -304.000; -246.000
242.530;   54.750;  470.000;  134.000
242.673;  -54.150; -381.000; -309.000
242.815; -122.550; -925.000; -899.000
242.958;  -73.975; -482.000; -381.000
243.101;   15.075;  132.000;  187.000
243.244;  -77.650; -564.000; -521.000
243.387;  -64.875; -313.000; -316.000
243.530;  -97.350; -657.000; -674.000
243.672;    6.925;   43.000;  -92.000
243.815;  -55.575; -355.000; -283.000
243.958;   -9.700;   98.000;  -26.000
244.101;  -11.400;   59.000;  -16.000
244.243;  -23.150;  -47.000;  101.000
244.386; -123.550; -761.000; -630.000
244.529;  -26.975; -132.000; -139.000
244.672; -155.350;-1154.000; -951.000
244.814; -111.000; -621.000; -794.000
244.957;  -66.725; -380.000; -304.000
245.100;  -71.300; -489.000; -489.000
245.242;  -62.350; -387.000; -374.000
245.385;  -11.025;  -59.000;  -39.000
245.528; -128.975; -871.000; -705.000
245.670;   95.800;  612.000;  634.000
245.813; -100.575; -599.000; -547.000
245.956;  -35.450; -324.000; -275.000
246.098;  -72.875; -508.000; -650.000
246.241;    0.325;  194.000;   48.000
246.383;  -30.650; -119.000;  -73.000
246.526;  -74.300; -454.000; -525.000
246.669; -134.875; -889.000; -780.000
246.811;   22.275;  172.000;   -1.000
246.954;  -60.300; -512.000; -426.000
247.096;  -27.550;  -84.000;   -6.000
247.239;  -92.125; -482.000; -445.000
247.381;  -89.325; -647.000; -488.000
247.524;   84.450;  645.000;  679.000
247.666;   -2.825;   58.000;   11.000
247.809; -125.450; -887.000; -691.000
247.951;  -16.750;  -75.000;  138.000
248.094;   13.850;  432.000;  308.000
248.236; -168.550;-1262.000;-1238.000
248.378;  -47.100; -356.000;  -81.000
248.521;  -50.700; -334.000; -337.000
248.663;  -49.975; -236.000; -267.000
248.806;  -37.200; -300.000; -266.000
248.948; -136.250; -886.000; -763.000
249.090;  -84.925; -428.000; -398.000
249.233;  -68.825; -344.000; -381.000
249.375;  -74.350; -474.000; -451.000
249.518;  -24.300;  -83.000; -133.000
249.660;  -14.225; -103.000;    3.000
249.802; -186.550;-1303.000;-1189.000
249.945;  -94.075; -612.000; -540.000
250.087; -123.950; -834.000; -768.000
250.229;  -56.275; -362.000; -480.000
250.371;  -92.350; -494.000; -439.000
250.514;  -56.075; -310.000; -244.000
250.656;  -66.300;   69.000;  102.000
250.798; -122.800; -849.000; -800.000
250.940;  -81.625; -322.000; -322.000
251.083;  -37.600; -335.000; -111.000
251.225;   42.975;  338.000;  310.000
251.367;  -47.200; -274.000; -373.000
251.509;  -49.050; -265.000; -210.000
251.651; -115.200; -731.000; -671.000
251.794;   42.925;  538.000;  632.000
251.936; -116.350; -821.000; -747.000
252.078;  -87.250; -540.000; -461.000
252.220;  -78.400; -645.000; -477.000
252.362;   22.925;  344.000;  462.000
252.504;  -88.800; -677.000; -584.000
252.646; -125.625; -875.000; -722.000
252.788;   -4.600;   14.000; -128.000
252.931;  -55.150; -257.000; -253.000
253.073;  -59.875; -376.000; -317.000
253.215;  -13.375;  141.000;  122.000
253.357;  -13.175;   82.000; -153.000
253.499;  -55.775; -374.000; -234.000
253.641;  -86.225; -749.000; -594.000
253.783;  -99.425; -609.000; -527.000
253.925;  -99.200; -586.000; -591.000
254.067; -117.850; -744.000; -667.000
254.209;  -39.250; -391.000; -259.000
254.351; -141.025; -865.000; -883.000
254.493;  -76.875; -441.000; -417.000
254.635; -150.650; -936.000; -818.000
254.777;  -96.775; -752.000; -687.000
254.918;  -84.475; -512.000; -430.000
255.060;  -75.050; -551.000; -395.000
255.202;  -75.000; -473.000; -261.000
255.344;  -90.225; -658.000; -455.000
255.486;  -78.025; -471.000; -406.000
255.628; -116.050; -780.000; -781.000
255.770; -104.475; -676.000; -536.000
255.912;  -77.825; -559.000; -468.000
256.053; -114.450; -730.000; -508.000
256.195;  158.950; 1008.000;  903.000
256.337; -118.775; -861.000; -595.000
256.479;   57.275;  532.000;  416.000
256.621;  -58.300; -394.000; -212.000
256.762;  -99.250; -789.000; -742.000
256.904;   47.000;  485.000;  487.000
257.046;  -59.875; -381.000; -271.000
257.188;  -55.975; -351.000; -264.000
257.329;  -69.775; -525.000; -464.000
257.471; -142.625; -939.000; -807.000
257.613;  -79.775; -584.000; -498.000
257.755; -169.250;-1073.000; -982.000
257.896;   26.800;  286.000;  392.000
258.038;  -81.650; -403.000; -352.000
258.180;  -56.500; -354.000; -279.000
258.321;  -97.375; -581.000; -457.000
258.463;  -20.050;  -71.000;  133.000
258.605; -104.725; -562.000; -570.000
258.746; -122.850; -886.000; -772.000
258.888; -162.800;-1026.000;-1020.000
259.029;   17.100;  121.000;   -8.000
259.171; -110.400; -614.000; -550.000
259.313;   -7.225;  -49.000;  -47.000
259.454;  -76.050; -536.000; -414.000
259.596;  -56.125; -483.000; -390.000
259.737;  -74.100; -590.000; -474.000
259.879;   19.625;  217.000;  311.000
260.020;   82.075;  901.000;  636.000
260.162;  -34.575; -146.000; -253.000
260.303; -117.625; -768.000; -687.000
260.445;  -94.175; -609.000; -613.000
260.586;   33.300;  392.000;  157.000
260.728;  -53.400; -360.000; -248.000
260.869; -123.325; -350.000; -343.000
261.011;   74.275;  706.000;  537.000
261.152;  -74.225; -479.000; -319.000
261.293;  -81.100; -576.000; -595.000
261.435;  -38.425; -219.000; -184.000
261.576;  -60.300; -455.000; -325.000
261.718;   43.975;  420.000;  470.000
261.859; -134.725; -940.000; -949.000
262.000; -150.750; -951.000;-1016.000
262.142;  -15.025;  -52.000;  -60.000
262.283; -127.850; -808.000; -691.000
262.424; -100.875; -666.000; -625.000
262.566; -176.250;-1161.000; -983.000
262.707; -114.875; -840.000; -830.000
262.848; -136.075; -769.000; -726.000
262.990;  -38.925; -362.000; -345.000
263.131;   77.950;  650.000;  681.000
263.272;  -25.225;  -61.000;  -41.000
263.413;  -97.100; -589.000; -561.000
263.555;  -70.650; -669.000; -143.000
263.696; -101.825; -550.000; -641.000
263.837;  -64.075; -449.000; -551.000
263.978;  -19.000;   -5.000;  -77.000
264.119;  -62.025; -283.000; -264.000
264.261; -140.575; -847.000; -630.000
264.402;   -1.375;   33.000;   40.000
264.543;  -95.500; -509.000; -524.000
264.684;  -11.675;   61.000;  -50.000
264.825;  -70.875; -816.000; -538.000
264.966;  -16.350;  -84.000;  -67.000
265.107; -126.500; -646.000; -670.000
265.248; -136.100; -825.000; -812.000
265.390;  -26.025;  152.000;   -9.000
265.531;  -40.375; -238.000; -107.000
265.672;  -86.725; -557.000; -630.000
265.813;   46.925;  563.000;  439.000
265.954; -148.500; -959.000; -940.000
266.095;  -26.125; -372.000; -322.000
266.236; -114.875; -686.000; -548.000
266.377;  -53.600; -243.000; -297.000
266.518;  -91.375; -619.000; -547.000
266.659;   10.100;  170.000;  268.000
266.800;    0.750;   83.000;   85.000
266.941;  -91.175; -487.000; -478.000
267.082;   10.250;  354.000;   99.000
267.223;  -56.650; -344.000; -273.000
267.364; -123.450; -892.000; -686.000
267.504;  -19.775;    3.000;  135.000
267.645;  -19.525;  160.000;   67.000
267.786;  -39.050; -147.000;  -86.000
267.927;  -92.900; -473.000; -379.000
268.068;  -39.900; -186.000;  -61.000
268.209;  -54.175; -175.000; -413.000
268.350;  -75.975; -388.000; -532.000
268.490; -110.225; -648.000; -521.000
268.631;   17.325;  127.000;  225.000
268.772; -134.925; -874.000; -647.000
268.913;  -71.500; -328.000; -476.000
269.054;  -38.275; -117.000;   12.000
269.194;  -49.900; -418.000; -402.000
269.335; -180.000;-1137.000;-1074.000
269.476;  -31.900;   33.000;  -35.000
269.617;  -58.400; -347.000; -392.000
269.757; -101.325; -713.000; -646.000
269.898; -115.900; -856.000; -613.000
270.039;  -68.550; -415.000; -405.000
270.180; -147.550; -952.000; -816.000
270.320;  -37.700; -190.000; -250.000
270.461;  -51.925; -277.000; -249.000
270.602;  -34.875; -186.000; -156.000
270.742; -142.575; -868.000; -943.000
270.883;  -65.650; -442.000; -390.000
271.023;  -69.275; -358.000; -357.000
271.164;  -87.025; -607.000; -528.000
271.305; -112.725; -666.000; -654.000
271.445; -109.225; -722.000; -683.000
271.586; -104.425; -462.000; -283.000
271.726;  -67.100; -397.000; -322.000
271.867;  -98.450; -594.000; -534.000
272.008;  -40.825; -473.000; -285.000
272.148;   42.650;  462.000;  468.000
272.289;  -23.725; -113.000; -181.000
272.429;   -3.600;   19.000;  185.000
272.570; -102.875; -633.000; -737.000
272.710; -127.150; -825.000; -775.000
272.851;  -32.425;  113.000; -130.000
272.991; -191.950;-1173.000;-1077.000
273.131;  -84.450; -419.000; -459.000
273.272; -115.325; -683.000; -723.000
273.412;  -27.400; -143.000;  -31.000
273.553;  -73.825; -488.000; -507.000
273.693;  108.675;  913.000;  858.000
273.834; -151.425; -894.000; -692.000
273.974; -100.825; -664.000; -615.000
274.114; -123.250; -772.000; -560.000
274.255;   45.550;  414.000;  373.000
274.395;  -60.225; -180.000; -125.000
274.535;   11.000;  199.000;  350.000
274.676;   18.950;  225.000;   94.000
274.816;  -13.175;  110.000;   34.000
274.956; -122.125; -624.000; -690.000
275.097; -145.050;-1014.000; -922.000
275.237; -146.900; -913.000; -803.000
275.377; -112.925; -778.000; -689.000
275.517; -176.425; -878.000; -937.000
275.658; -101.125; -590.000; -555.000
275.798; -100.525; -606.000; -413.000
275.938;    0.175;  215.000;  323.000
276.078; -103.125; -626.000; -395.000
276.218;    2.000;   99.000;  104.000
276.359; -163.950;-1026.000;-1024.000
276.499;  -84.450; -605.000; -446.000
276.639;  -43.775; -305.000; -151.000
276.779;  -68.500; -475.000; -357.000
276.919; -123.275; -783.000; -624.000
277.059;  -49.900; -261.000; -212.000
277.199;  -55.225; -357.000; -259.000
277.340;   15.725;  287.000;  175.000
277.480; -138.300; -840.000; -693.000
277.620;    9.750;  192.000;   16.000
277.760; -217.450;-1533.000;-1294.000
277.900;  -17.050;  113.000;   33.000
278.040;  -25.975;  137.000;  159.000
278.180;   11.150;  270.000;  170.000
278.320;   -9.325;   21.000;   56.000
278.460;  -83.900; -443.000; -469.000
278.600; -116.875; -708.000; -598.000
278.740;   38.425;  448.000;  224.000
278.880; -144.300; -768.000; -791.000
279.020;  -37.750; -194.000; -144.000
279.160; -121.450; -672.000; -595.000
279.300; -140.825; -926.000; -873.000
279.440; -112.425; -709.000; -622.000
279.579; -155.575;-1014.000; -929.000
279.719;  -83.625; -410.000; -394.000
279.859;   -6.500;   -4.000;   41.000
279.999;  -40.325; -208.000;  101.000
280.139;  -77.575; -435.000; -387.000
280.279; -129.475; -708.000; -745.000
280.419;  -39.150; -229.000; -147.000
280.559;  -59.300; -259.000; -180.000
280.698; -108.875; -790.000; -639.000
280.838; -125.425; -778.000; -800.000
280.978; -127.200; -846.000; -790.000
281.118; -134.725; -811.000; -704.000
281.257;   -8.650;   24.000;    6.000
281.397; -170.175;-1094.000; -960.000
281.537; -110.025; -599.000; -712.000
281.677;  -43.125; -150.000; -101.000
281.816;  -93.950; -700.000; -630.000
281.956;  -46.700; -193.000; -257.000
282.096;  -68.825; -539.000; -396.000
282.235; -117.975; -672.000; -638.000
282.375;  -50.675; -243.000;  -98.000
282.515; -125.225; -715.000; -707.000
282.654;   -4.175;   29.000;  106.000
282.794;   -5.200;  388.000;  244.000
282.934;  -82.825; -530.000; -491.000
283.073; -159.550;-1030.000; -857.000
283.213;  -83.200; -460.000; -467.000
283.353;  -74.775; -408.000; -349.000
283.492;  -53.525; -264.000; -296.000
283.632;  -55.725; -254.000; -168.000
283.771; -120.850; -859.000; -730.000
283.911;  -79.225; -369.000; -260.000
284.050; -119.900; -794.000; -748.000
284.190; -185.850;-1229.000;-1096.000
284.329; -159.825;-1055.000; -964.000
284.469; -118.475; -516.000; -591.000
284.608;  -85.350; -559.000; -598.000
284.748; -101.975; -614.000; -570.000
284.887;   -9.425;  -87.000;  -20.000
285.027; -148.075; -844.000; -892.000
285.166;  -51.300; -192.000; -249.000
285.306;  -42.225; -116.000;  -33.000
285.445;  -39.025; -229.000; -343.000
285.584;  -99.550; -630.000; -494.000
285.724;  -47.700; -282.000; -322.000
285.863; -141.475; -857.000; -507.000
286.002;  -71.550; -366.000; -276.000
286.142; -116.425; -715.000; -622.000
286.281;  -92.500; -525.000; -493.000
286.420;  -91.550; -554.000; -417.000
286.560;   89.725;  653.000;  623.000
286.699; -150.625; -958.000; -912.000
286.838; -105.425; -590.000; -591.000
286.978; -110.900; -533.000; -537.000
287.117; -157.875;-1085.000; -950.000
287.256;  -56.250; -228.000; -211.000
287.395;  -61.600; -197.000; -378.000
287.535;  -71.775; -370.000; -298.000
287.674; -102.750; -509.000; -484.000
287.813;   46.900;  661.000;  533.000
287.952; -159.800;-1010.000; -871.000
288.091; -173.825;-1049.000; -915.000
288.231;  -27.775;   13.000;   15.000
288.370; -201.750;-1217.000;-1200.000
288.509; -112.000; -728.000; -645.000
288.648; -114.700; -770.000; -548.000
288.787;  -48.325; -243.000;  -87.000
288.926; -101.300; -454.000; -475.000
289.065;  101.300;  859.000;  672.000
289.204;  -79.225; -377.000; -217.000
289.344; -124.525; -791.000; -690.000
289.483;  -12.500;  416.000;  304.000
289.622;  -44.800; -291.000; -149.000
289.761;  -40.525; -309.000; -166.000
289.900; -120.225; -785.000; -626.000
290.039;  -25.525;  -12.000;  -95.000
290.178;  -64.100; -274.000; -180.000
290.317; -111.775; -618.000; -479.000
290.456;  -73.150; -463.000; -451.000
290.595; -158.900; -961.000; -833.000
290.734; -149.800; -904.000; -891.000
290.873;  -89.600; -456.000; -420.000
291.011; -134.425; -833.000; -843.000
291.150; -139.625; -770.000; -682.000
291.289;  -56.225; -343.000; -110.000
291.428; -110.650; -599.000; -480.000
291.567;  -76.025; -370.000; -442.000
291.706;   -8.225;  109.000;  154.000
291.845; -106.175; -597.000; -505.000
291.984; -191.150;-1234.000;-1061.000
292.122;   63.250;  602.000;  582.000
292.261;   34.300;  620.000;  463.000
292.400;  -18.325; -144.000;  211.000
292.539; -158.450; -959.000; -813.000
292.678;  -59.975; -325.000; -300.000
292.816; -175.400;-1136.000; -965.000
292.955; -123.975; -844.000; -684.000
293.094;  -59.925; -173.000; -337.000
293.233;  -65.375; -556.000; -400.000
293.371;  -51.750; -225.000;  -84.000
293.510; -136.675; -866.000; -780.000
293.649; -159.150; -959.000; -924.000
293.787; -166.125;-1083.000;-1012.000
293.926;  -48.750; -113.000;  -32.000
294.065;  -61.525; -379.000; -290.000
294.203;   34.925;  298.000;  406.000
294.342;    1.525;   74.000;  156.000
294.481; 6274.075;51180.000; -836.000
294.619;  -49.400; -425.000; -582.000
294.758; -186.700;-1230.000;-1137.000
294.896;  -27.575; -125.000;    5.000
295.035; -175.275;-1040.000;-1006.000
295.174; -149.975;-1082.000; -954.000
295.312;  -81.425; -323.000; -203.000
295.451;  -62.225; -307.000; -428.000
295.589;  -99.350; -389.000; -518.000
295.728;  -16.325; -292.000; -165.000
295.866;  -47.025;  -36.000;  -51.000
296.005;  -85.125; -584.000; -341.000
296.143; -120.800; -558.000; -596.000
296.282; -130.275; -957.000; -881.000
296.420; -118.225; -657.000; -557.000
296.559; -115.950; -892.000; -633.000
296.697; -119.025; -847.000; -665.000
296.835; -182.175;-1141.000;-1002.000
296.974;  -18.275;  -23.000;   39.000
297.112;  -80.275; -443.000; -504.000
297.251; -127.000; -815.000; -755.000
297.389;  -87.925; -576.000; -438.000
297.527;  -39.200; -145.000;  -83.000
297.666;  -94.425; -486.000; -438.000
297.804;  -74.075; -404.000; -264.000
297.942;  -27.100; -136.000; -161.000
298.081;  -36.625; -183.000;   63.000
298.219;  -21.875;  -17.000;  -19.000
298.357;  -54.900; -144.000;  -71.000
298.495; -135.450; -810.000; -812.000
298.634;  -30.775;  245.000;  219.000
298.772;  -54.800; -220.000; -338.000
298.910;  -79.950; -309.000; -182.000
299.048;  -46.725; -130.000; -153.000
299.187;  -56.925; -350.000; -250.000
299.325;  -17.750;   52.000;  122.000
299.463;  -86.050; -389.000; -299.000
299.601;  -57.050; -327.000; -271.000
299.739; -155.250; -908.000; -883.000
299.877; -124.900; -791.000; -703.000
300.016; -179.075;-1095.000; -935.000
300.154;  -34.700;  -19.000; -161.000
300.292;  -84.975; -428.000; -348.000
300.430;  -79.950; -408.000; -291.000
300.568; -145.425; -940.000; -874.000
300.706;  -85.825; -366.000; -469.000
300.844; -179.650;-1108.000; -979.000
300.982;   25.350;  246.000;  282.000
301.120; -160.950; -965.000; -866.000
301.258; -113.350; -812.000; -705.000
301.396;  -17.600;  104.000;  -41.000
301.534;  -59.675; -218.000; -293.000
301.672; -127.900; -664.000; -521.000
301.810; -116.650; -613.000; -545.000
301.948;  -25.250;   53.000;  149.000
302.086;  -37.450; -250.000;  -32.000
302.224; -105.025; -610.000; -585.000
302.362; -108.150; -558.000; -622.000
302.500; -147.975; -923.000; -893.000
302.638;  -14.725;  128.000;  245.000
302.776;  -67.250; -352.000; -408.000
302.913;   25.150;  447.000;  236.000
303.051;  -60.575;  -86.000;  -23.000
303.189;   -2.550;   90.000;  118.000
303.327;  -60.275; -341.000; -256.000
303.465; -106.675; -832.000; -588.000
303.603; -125.175; -805.000; -604.000
303.740;   21.200;  417.000;  241.000
303.878; -135.100; -800.000; -759.000
304.016; -126.425; -915.000; -790.000
304.154; -196.375;-1123.000;-1152.000
304.291;  -89.100; -505.000; -554.000
304.429;  -22.450;  102.000;   74.000
304.567; -158.575; -908.000; -893.000
304.705;  -89.900; -408.000; -515.000
304.842; -111.850; -616.000; -540.000
304.980;  -10.025;  215.000;   35.000
305.118;  -63.900; -367.000; -365.000
305.255; -160.275; -945.000; -927.000
305.393;   18.900;  178.000;  239.000
305.531; -178.075;-1173.000; -956.000
305.668; -106.250; -663.000; -582.000
305.806;  -87.550; -358.000; -439.000
305.943; -107.275; -629.000; -637.000
306.081;  -65.850; -378.000; -267.000
306.219; -127.050; -863.000; -748.000
306.356;  -19.325;  158.000;   27.000
306.494;   67.750;  981.000;  761.000
306.631;  -31.275;  -11.000;  -55.000
306.769;  -87.075; -613.000; -485.000
306.906;  -87.875; -284.000; -258.000
307.044;  -89.850; -473.000; -488.000
307.181;  -84.025; -410.000; -332.000
307.319;  -24.100;  112.000;   87.000
307.456; -204.725;-1191.000;-1153.000
307.594; -143.100; -980.000; -727.000
307.731;  -57.050; -371.000; -164.000
307.868;  -28.650;  -15.000;   20.000
308.006; -168.250; -961.000; -847.000
308.143; -104.550; -618.000; -330.000
308.281;  -47.625;  -37.000; -254.000
308.418; -101.725; -748.000; -640.000
308.555; -106.675; -400.000; -250.000
308.693;  -97.725; -577.000; -573.000
308.830; -125.700; -712.000; -657.000
308.967;  -37.450; -215.000;  -95.000
309.105;  -87.650; -507.000; -396.000
309.242;  -67.000; -468.000; -367.000
309.379; -113.850; -577.000; -655.000
309.517; -152.650; -936.000; -948.000
309.654; -152.775; -910.000; -734.000
309.791; -110.150; -662.000; -580.000
309.928; -165.525; -977.000; -914.000
310.065;   64.675;  819.000;  697.000
310.203; -155.650; -825.000; -850.000
310.340;  -98.275; -465.000; -321.000
310.477; -101.675; -412.000; -516.000
310.614;  -88.525; -383.000; -473.000
310.751; -110.050; -427.000; -518.000
310.889;  -36.025;    1.000;   11.000
311.026; -180.650;-1161.000; -939.000
311.163;  -73.050; -386.000; -380.000
311.300; -112.975; -512.000; -479.000
311.437; -100.875; -658.000; -619.000
311.574; -181.775;-1226.000; -985.000
311.711; -100.950; -595.000; -433.000
311.848;  -82.625; -380.000; -388.000
311.985;   -4.525;  270.000;   93.000
312.122; -153.625; -932.000; -762.000
312.259; -158.400; -941.000; -994.000
312.396; -110.650; -508.000; -551.000
312.533; -111.800; -812.000; -790.000
312.670; -172.325;-1070.000; -898.000
312.807;  -61.650; -352.000; -367.000
312.944; -119.875; -513.000; -611.000
313.081;  -76.950; -150.000; -415.000
313.218; -165.350;-1111.000; -867.000
313.355;  -85.850; -531.000; -449.000
313.492;  -86.800; -455.000; -292.000
313.629;   87.025;  815.000;  735.000
313.766; -199.875;-1176.000;-1008.000
313.902;  -42.050; -186.000;   21.000
314.039;  -67.875; -372.000; -289.000
314.176;    2.900;  286.000;  192.000
314.313; -100.250; -569.000; -473.000
314.450; -110.825; -788.000; -684.000
314.587; -101.075; -468.000; -480.000
314.723;  -33.675;  -78.000;  130.000
314.860;  -11.600;  318.000;  332.000
314.997;   -4.050;  223.000;  142.000
315.134;  -76.875; -385.000; -368.000
315.270;  -95.175; -480.000; -496.000
315.407; -183.675;-1094.000; -967.000
315.544; -110.275; -657.000; -538.000
315.681; -107.975; -681.000; -565.000
315.817;  -50.350; -133.000; -176.000
315.954; -116.675; -613.000; -392.000
316.091; -173.925;-1045.000;-1023.000
316.227;  -46.500;  -71.000; -179.000
316.364;  -26.675;   23.000;    6.000
316.500;  -79.300; -113.000; -300.000
316.637;  -56.575; -181.000; -302.000
316.774; -108.125; -625.000; -358.000
316.910; -116.750; -598.000; -629.000
317.047; -112.100; -487.000; -351.000
317.183;  -95.025; -435.000; -566.000
317.320;  -92.800; -367.000; -321.000
317.456; -139.500; -733.000; -805.000
317.593; -122.175; -598.000; -641.000
317.729;  -30.175;  168.000;  -67.000
317.866; -232.225;-1434.000;-1285.000
318.002; -124.375; -708.000; -948.000
318.139; -160.450; -883.000; -867.000
318.275; -142.625;-1003.000; -738.000
318.412; -104.825; -517.000; -336.000
318.548; -121.750; -751.000; -720.000
318.685; -163.350; -985.000; -888.000
318.821; -130.975; -762.000; -735.000
318.957;  -54.050;   34.000;  -23.000
319.094;   15.650;  297.000;  154.000
319.230; -154.450; -756.000; -742.000
319.367;  -85.900; -471.000; -520.000
319.503;  -98.875; -538.000; -436.000
319.639; -127.725; -877.000; -793.000
319.775; -126.200; -750.000; -685.000
319.912;  -92.950; -424.000; -519.000
320.048; -185.325;-1184.000;-1184.000
320.184;    0.050;   59.000;   70.000
320.321;  -99.200; -497.000; -467.000
320.457;   28.750;  475.000;  662.000
320.593; -106.450; -375.000; -382.000
320.729; -131.225; -732.000; -734.000
320.866; -107.825; -577.000; -635.000
321.002; -118.500; -759.000; -809.000
321.138;  -68.975; -135.000; -211.000
321.274;  -30.350; -148.000; -115.000
321.410; -103.850; -585.000; -353.000
321.546; -149.350;-1011.000; -911.000
321.683;    6.475;  400.000;  185.000
321.819;  -40.300;  -48.000; -117.000
321.955; -146.750; -743.000; -722.000
322.091; -113.950; -585.000; -540.000
322.227;  -75.425; -382.000; -202.000
322.363;  -50.650; -320.000; -215.000
322.499;  -93.325; -343.000; -331.000
322.635;   53.825;  636.000;  443.000
322.771;  -48.300; -139.000;   12.000
322.907;   27.125;  129.000;  327.000
323.043;  -71.500; -115.000; -206.000
323.179;  -81.200; -394.000; -363.000
323.315;  -92.350; -401.000; -371.000
323.451;  -73.325; -328.000; -236.000
323.587;  -47.900;  -60.000;  -77.000
323.723; -109.625; -682.000; -601.000
323.859;  -59.025; -258.000;  -76.000
323.995;  -90.000; -467.000; -409.000
324.131; -167.800; -967.000; -892.000
324.267;  -52.275; -254.000; -276.000
324.402; -166.400; -960.000; -983.000
324.538;  -65.975; -279.000; -104.000
324.674;  -25.725;  164.000;   77.000
324.810;  -15.200;  226.000;  308.000
324.946; -100.850; -810.000; -658.000
325.082; -105.525; -568.000; -475.000
325.217;  -37.475;  -62.000;   16.000
325.353; -129.800; -764.000; -659.000
325.489; -119.975; -540.000; -506.000
325.625; -106.300; -579.000; -525.000
325.760;   14.550;  517.000;  376.000
325.896; -111.600; -515.000; -702.000
326.032;  -79.575; -403.000; -352.000
326.168;  -92.400; -462.000; -369.000
326.303;  -98.575; -352.000; -461.000
326.439;  -60.775; -336.000; -276.000
326.575;  -50.350; -190.000;  -29.000
326.710;  -21.775; -156.000;  -30.000
326.846;  -27.950;  146.000;  103.000
326.982;  -98.450; -530.000; -548.000
327.117;  -91.475; -481.000; -442.000
327.253; -127.200; -745.000; -742.000
327.388; -185.450;-1137.000;-1153.000
327.524; -126.275; -811.000; -578.000
327.659;  -51.650;  -58.000;  -22.000
327.795;  -18.300;   69.000;   45.000
327.931; -110.825; -723.000; -499.000
328.066;  -74.950; -417.000; -276.000
328.202;  -49.225;   12.000; -129.000
328.337;   92.500;  957.000;  713.000
328.473;   18.150;  -12.000;  -74.000
328.608;  -54.225; -256.000; -267.000
328.743; -128.500; -799.000; -664.000
328.879;    3.525;  214.000;  114.000
329.014;  -60.125; -102.000; -122.000
329.150; -108.250; -358.000; -483.000
329.285; -107.975; -465.000; -466.000
329.421;  -74.550; -548.000; -246.000
329.556;  -39.900;  -36.000;   85.000
329.691; -111.900; -633.000; -615.000
329.827; -108.525; -626.000; -480.000
329.962;  -61.700;  131.000; -301.000
330.097; -129.550; -673.000; -585.000
330.233;  -94.600; -410.000; -223.000
330.368; -148.350; -839.000; -628.000
330.503;  -22.450;    3.000;   98.000
330.638;  -51.350;  -93.000; -125.000
330.774; -120.450; -609.000; -530.000
330.909;  -70.350; -434.000; -244.000
331.044; -114.800; -714.000; -708.000
331.179; -197.425;-1217.000;-1109.000
331.315;  -16.425;   77.000;   20.000
331.450;   -8.250;  157.000;  285.000
331.585; -129.250; -805.000; -706.000
331.720; -108.250; -510.000; -460.000
331.855;  -42.075;  -35.000; -102.000
331.990;  -44.600;   62.000;  138.000
332.126;  -52.500; -110.000;   71.000
332.261;  -91.500; -379.000; -265.000
332.396;  -62.575; -135.000; -242.000
332.531; -193.550;-1074.000;-1031.000
332.666;  -88.375; -519.000; -363.000
332.801; -135.025; -726.000; -807.000
332.936;  -46.700; -192.000; -122.000
333.071; -176.950; -870.000; -817.000
333.206;  -10.375;  307.000;  379.000
333.341;    3.900;  344.000;  418.000
333.476; -121.950; -627.000; -623.000
333.611;  -61.800; -251.000; -173.000
333.746;  -71.300; -381.000; -464.000
333.881; -152.650; -973.000; -935.000
334.016; -154.800; -936.000; -917.000
334.151; -153.475; -746.000; -702.000
334.286;  -14.325;  152.000;  186.000
334.421;  -46.500; -125.000; -178.000
334.556; -101.675; -611.000; -567.000
334.690; -112.875; -631.000; -577.000
334.825;   34.675;  381.000;   83.000
334.960;  -91.750; -285.000; -413.000
335.095;  -32.200;  135.000;  -91.000
335.230; -149.625; -722.000; -738.000
335.365; -184.475;-1084.000; -990.000
335.499; -182.400;-1108.000;-1037.000
335.634;  -15.125;    9.000;  534.000
335.769; -159.800; -755.000; -720.000
335.904; -120.450; -603.000; -561.000
336.038; -148.125; -735.000; -657.000
336.173; -197.000;-1206.000;-1194.000
336.308;  -63.250; -116.000; -189.000
336.443;  -85.150; -544.000; -634.000
336.577; -161.475; -936.000; -787.000
336.712;  -32.650;   -4.000;  -12.000
336.847; -146.000; -724.000; -607.000
336.981;  -71.950; -272.000; -208.000
337.116;   24.375;  615.000;  501.000
337.250;  -91.975; -434.000; -421.000
337.385;  -79.650; -297.000; -208.000
337.520; -119.750; -632.000; -603.000
337.654;  -82.800; -215.000; -126.000
337.789; -158.025; -989.000; -933.000
337.923;  -70.175; -104.000; -205.000
338.058; -145.225; -673.000; -738.000
338.192; -122.550; -611.000; -488.000
338.327;  -47.775;  -18.000; -155.000
338.461; -112.000; -299.000; -469.000
338.596; -121.750; -780.000; -638.000
338.730; -151.525; -767.000; -803.000
338.865;  -39.650;  -46.000; -140.000
338.999; -152.600; -846.000; -702.000
339.134; -120.500; -634.000; -536.000
339.268; -140.950; -741.000; -603.000
339.403; -134.875; -740.000; -775.000
339.537; -145.225; -894.000; -820.000
339.671; -143.600; -829.000; -813.000
339.806; -107.550; -556.000; -512.000
339.940;  -43.725; -261.000; -235.000
340.074; -134.875; -685.000; -510.000
340.209;  -73.775; -351.000; -230.000
340.343; -114.800; -517.000; -573.000
340.477;  119.525;  998.000; 1036.000
340.612; -168.225;-1033.000; -900.000
340.746;  -80.675; -199.000; -243.000
340.880; -157.825; -924.000; -785.000
341.014;  -46.325;  -45.000; -154.000
341.149; -149.775; -756.000; -718.000
341.283; -143.600; -839.000; -754.000
341.417; -178.825;-1124.000; -938.000
341.551; -128.450; -768.000; -708.000
341.685; -138.650; -633.000; -611.000
341.820; -109.650; -562.000; -493.000
341.954; -103.350; -218.000; -349.000
342.088; -170.425;-1102.000;-1019.000
342.222;   23.500;  565.000;  618.000
342.356; -109.075; -395.000; -335.000
342.490; -157.375; -880.000; -841.000
342.624;  -91.750; -339.000; -242.000
342.758;  -94.725; -364.000; -312.000
342.892; -117.750; -710.000; -585.000
343.026;  -63.075;  -58.000; -116.000
343.160;  -69.275; -426.000; -376.000
343.294; -117.225; -474.000; -337.000
343.428; -102.900; -488.000; -448.000
343.562;  -59.600; -172.000;  -23.000
343.696;  -76.725; -385.000; -314.000
343.830;  -90.550; -362.000; -356.000
343.964;  -65.200; -231.000; -168.000
344.098;  -33.200;  199.000;   70.000
344.232;  -39.675; -266.000; -127.000
344.366; -125.300; -567.000; -453.000
344.500; -120.475; -665.000; -744.000
344.634;  -69.350; -324.000; -164.000
344.768; -107.025; -531.000; -341.000
344.902;  -18.150;  278.000;  256.000
345.035; -117.125; -556.000; -496.000
345.169; -171.900; -933.000; -656.000
345.303; -104.225; -308.000; -482.000
345.437; -145.550; -826.000; -717.000
345.571; -121.450; -675.000; -594.000
345.704;  -96.350; -309.000; -532.000
345.838;  -66.225; -331.000; -284.000
345.972; -123.325; -543.000; -495.000
346.106;  -29.200; -179.000; -190.000
346.239;  -71.075; -312.000; -243.000
346.373;  -76.975; -343.000; -302.000
346.507; -193.625; -950.000; -962.000
346.640;  -46.950;  -30.000;   13.000
346.774; -150.600; -650.000; -797.000
346.908;  -50.950; -138.000;  -11.000
347.041; -125.325; -646.000; -593.000
347.175;  -25.425;  259.000;   27.000
347.309; -137.500; -698.000; -628.000
347.442; -159.725; -883.000; -732.000
347.576;   49.525;  670.000;  668.000
347.709;  -44.025; -123.000;  -52.000
347.843; -172.775; -933.000; -825.000
347.976;   14.775;  235.000;  294.000
348.110; -205.225;-1268.000;-1186.000
348.243; -129.575; -679.000; -772.000
348.377;  -37.925;  -26.000;   60.000
348.510;   23.700;  403.000;  540.000
348.644;  -63.125;  -37.000; -159.000
348.777;  -19.375;  180.000;  191.000
348.911;  -73.125; -142.000; -112.000
349.044;    4.600;  471.000;  448.000
349.178; -198.150;-1069.000;-1006.000
349.311;  -16.400;  141.000;  255.000
349.444; -162.825; -927.000; -813.000
349.578;  -65.325; -347.000; -200.000
349.711; -166.375; -959.000; -862.000
349.845; -138.075; -661.000; -591.000
349.978; -204.775;-1224.000;-1137.000
350.111; -115.425; -546.000; -612.000
350.244; -142.750; -596.000; -700.000
350.378;  -94.500; -392.000; -393.000
350.511; -111.800; -393.000; -426.000
350.644; -137.175; -808.000; -806.000
350.778;  -31.000;  168.000;  104.000
350.911;  -12.400;  134.000;  140.000
351.044; -134.550; -685.000; -615.000
351.177;  -78.850; -321.000; -281.000
351.310;  -39.600;    3.000; -131.000
351.444; -153.475; -888.000; -788.000
351.577;  -29.500;  140.000;   90.000
351.710;   46.600;  593.000;  417.000
351.843;  -70.275; -165.000;  -77.000
351.976;  -34.375;  149.000;  -79.000
352.109; -127.325; -621.000; -612.000
352.242;  -90.875; -464.000; -419.000
352.376; -124.525; -580.000; -636.000
352.509;  -85.775; -437.000; -356.000
352.642; -194.175; -654.000; -604.000
352.775;  -58.400; -141.000;  -98.000
352.908; -166.650; -933.000; -904.000
353.041; -145.550; -814.000; -824.000
353.174; -110.775; -551.000; -424.000
353.307; -130.625; -753.000; -764.000
353.440;   10.225;  541.000;  453.000
353.573; -162.475; -957.000;-1008.000
353.706; -126.100; -384.000; -558.000
353.839;  -63.850; -264.000; -220.000
353.971; -125.875; -657.000; -512.000
354.104; -152.350; -896.000; -835.000
354.237; -140.550; -627.000; -662.000
354.370; -148.725; -846.000; -879.000
354.503; -226.050;-1231.000;-1308.000
354.636;  -86.500; -529.000; -348.000
354.769; -170.050; -937.000; -860.000
354.902;  -72.025; -230.000; -139.000
355.034;  -65.525; -164.000; -220.000
355.167;  -63.750; -262.000; -162.000
355.300; -186.650;-1061.000; -880.000
355.433;  -33.150;  -71.000;  -14.000
355.565; -102.350; -402.000; -384.000
355.698;  -91.075; -356.000; -296.000
355.831; -160.925; -882.000; -801.000
355.964;  -62.625; -285.000; -170.000
356.096; -184.475; -856.000; -843.000
356.229;  -99.025; -523.000; -530.000
356.362;  -73.375; -373.000; -266.000
356.494;  -57.450; -229.000; -162.000
356.627;   -5.675;  269.000;  377.000
356.760;  -23.325;  120.000;   53.000
356.892; -130.000; -286.000; -601.000
357.025;   26.750;  403.000;  389.000
357.157;  -71.200; -167.000; -179.000
357.290; -152.050; -856.000; -713.000
357.423; -139.350; -667.000; -556.000
357.555;  -66.450; -217.000; -228.000
357.688; -113.075; -483.000; -364.000
357.820; -153.375; -870.000; -877.000
357.953; -129.225; -563.000; -589.000
358.085; -129.700; -632.000; -612.000
358.218; -190.725;-1131.000; -932.000
358.350;  -47.575;  -58.000;  312.000
358.483; -216.600;-1300.000;-1187.000
358.615; -185.825;-1182.000;-1078.000
358.747; -206.425;-1187.000;-1058.000
358.880; -144.825; -810.000; -744.000
359.012;  -86.450; -376.000; -202.000
359.145; -115.400; -480.000; -511.000
359.277; -181.800; -962.000; -913.000
359.409;   25.275;  536.000;  231.000
359.542; -150.100; -738.000; -688.000
359.674;  -37.800;   46.000;   13.000
359.806; -123.450; -565.000; -438.000
359.939; -102.725; -617.000; -516.000
360.071; -132.975; -583.000; -579.000
360.203;  -92.700; -411.000; -364.000
360.335;  -43.250;  164.000;  -16.000
360.468;  -77.200; -249.000; -307.000
360.600; -112.175; -547.000; -454.000
360.732; -117.475; -546.000; -423.000
360.864; -214.725;-1216.000;-1044.000
360.996; -107.125; -516.000; -554.000
361.129; -111.050; -389.000; -598.000
361.261;  -45.550;  110.000; -113.000
361.393;  -72.550; -252.000; -214.000
361.525;  -28.450;   94.000;  244.000
361.657; -151.300; -821.000; -703.000
361.789;  -53.625; -139.000; -155.000
361.921; -123.225; -642.000; -593.000
362.053;   40.925;  524.000;  541.000
362.185;  -27.425;  288.000;   72.000
362.318; -143.775; -709.000; -705.000
362.450;   -7.600;  294.000;  444.000
362.582; -177.150; -913.000; -870.000
362.714;  -94.175; -353.000; -332.000
362.846; -113.275; -606.000; -490.000
362.978; -174.475; -941.000; -811.000
363.109;  -82.850; -161.000; -260.000
363.241; -155.525; -739.000; -749.000
363.373; -125.475; -649.000; -564.000
363.505;  -68.425; -186.000;  -91.000
363.637; -114.375; -787.000; -601.000
363.769; -198.525;-1067.000;-1080.000
363.901; -113.450; -596.000; -654.000
364.033; -190.125;-1103.000;-1062.000
364.165;  -77.125; -283.000; -283.000
364.296;  -86.225; -316.000; -177.000
364.428; -219.400;-1344.000;-1220.000
364.560; -132.300; -679.000; -661.000
364.692; -127.975; -738.000; -835.000
364.824; -126.675; -588.000; -456.000
364.955;  -89.925; -402.000; -564.000
365.087; -207.600;-1097.000; -852.000
365.219; -139.650; -686.000; -816.000
365.351; -138.475; -526.000; -572.000
365.482;  -25.225;  300.000;  240.000
365.614;  -99.450; -402.000; -314.000
365.746; -142.075; -729.000; -752.000
365.877; -145.325; -706.000; -672.000
366.009;  -47.475;  -35.000;  -62.000
366.141; -207.650;-1249.000;-1134.000
366.272; -143.550; -803.000; -719.000
366.404; -171.925;-1005.000; -874.000
366.535;  -52.500; -139.000;  -12.000
366.667; -147.000; -644.000; -649.000
366.799;    8.825;  353.000;  203.000
366.930; -175.150; -862.000; -996.000
367.062; -118.500; -639.000; -613.000
367.193; -169.275; -872.000; -842.000
367.325; -117.375; -580.000; -684.000
367.456;  -77.225; -246.000;   31.000
367.588; -107.650; -371.000; -318.000
367.719;  -65.425;  -44.000;  -45.000
367.851;  -77.475; -222.000; -241.000
367.982; -163.725; -875.000; -732.000
368.113;  -91.275; -475.000; -358.000
368.245; -168.600; -960.000; -841.000
368.376;  -86.025; -254.000; -302.000
368.508;  -80.200; -188.000; -263.000
368.639; -198.850;-1166.000;-1034.000
368.770; -155.400; -670.000; -589.000
368.902; -154.975; -836.000; -926.000
369.033; -176.675; -906.000; -855.000
369.164; -122.225; -720.000; -653.000
369.296; -133.200; -452.000; -601.000
369.427;  -66.700; -209.000; -144.000
369.558; -113.200; -593.000; -377.000
369.689; -127.750; -721.000; -569.000
369.821; -174.550; -951.000; -845.000
369.952;  -53.150;   42.000; -108.000
370.083;  -95.700; -229.000; -108.000
370.214; -139.675; -735.000; -650.000
370.345;  -48.875;   65.000;   81.000
370.477; -155.225; -810.000; -790.000
370.608;  -95.500; -328.000; -264.000
370.739; -213.200;-1233.000;-1292.000
370.870; -181.825;-1102.000; -923.000
371.001;  -99.550; -378.000; -467.000
371.132; -152.375; -754.000; -735.000
371.263;  -56.450;  -42.000; -148.000
371.394; -162.325; -841.000; -748.000
371.525;    1.650;  345.000;  225.000
371.657; -157.625; -808.000; -670.000
371.788;  -12.975;  103.000;  199.000
371.919; -117.475; -384.000; -304.000
372.050;  -46.825;  -91.000; -156.000
372.181;  -68.475; -188.000; -294.000
372.311;  -47.125;   42.000; -127.000
372.442; -112.775; -457.000; -451.000
372.573;  -85.000; -444.000; -340.000
372.704; -187.650;-1008.000; -980.000
372.835;  -85.100; -228.000; -289.000
372.966; -133.300; -646.000; -554.000
373.097; -141.225; -575.000; -711.000
373.228; -130.325; -717.000; -542.000
373.359; -133.275; -824.000; -536.000
373.490; -168.675; -881.000; -727.000
373.620; -174.225;-1001.000; -803.000
373.751; -128.300; -332.000; -396.000
373.882; -132.400; -663.000; -733.000
374.013; -100.375; -449.000; -262.000
374.143; -118.975; -581.000; -659.000
374.274; -191.525; -987.000; -908.000
374.405;  -71.375; -388.000; -276.000
374.536; -128.275; -526.000; -387.000
374.666; -140.150; -759.000; -807.000
374.797; -166.075; -817.000; -868.000
374.928; -132.700; -710.000; -560.000
375.058; -125.550; -535.000; -500.000
375.189;  -65.000;  -59.000;  -93.000
375.320; -191.950; -928.000;-1034.000
375.450; -118.225; -625.000; -616.000
375.581; -123.375; -526.000; -436.000
375.712;  -87.775; -574.000; -250.000
375.842; -100.000; -438.000; -415.000
375.973; -121.725; -554.000; -513.000
376.103; -140.325; -665.000; -648.000
376.234; -128.175; -531.000; -552.000
376.364; -185.950; -944.000; -867.000
376.495;   79.950;  925.000;  529.000
376.625; -124.175; -472.000; -485.000
376.756; -149.975; -709.000; -678.000
376.886; -209.450;-1178.000;-1026.000
377.017; -191.225;-1048.000;-1061.000
377.147; -161.625; -786.000; -782.000
377.278;  -11.850;  174.000;  228.000
377.408; -159.550; -801.000; -815.000
377.538; -157.725; -707.000; -693.000
377.669; -120.300; -537.000; -613.000
377.799; -145.075; -645.000; -635.000
377.929; -119.400; -610.000; -428.000
378.060; -168.325; -781.000; -847.000
378.190; -145.300; -726.000; -531.000
378.320;  -96.225; -401.000; -406.000
378.451;  -49.975; -131.000;  -22.000
378.581;  -50.425;  -67.000; -110.000
378.711;   51.525; 1035.000;  866.000
378.841; -127.450; -533.000; -675.000
378.972; -161.300; -871.000; -751.000
379.102; -117.725; -652.000; -579.000
379.232;  -85.825; -126.000;  -73.000
379.362; -176.125;-1001.000; -885.000
379.492; -123.650; -373.000; -424.000
379.623;  -17.225;    0.000;  111.000
379.753; -195.500;-1107.000; -974.000
379.883;  -28.200;   59.000;  156.000
380.013; -199.600;-1081.000;-1017.000
380.143; -202.450;-1097.000;-1056.000
380.273; -181.225; -985.000; -861.000
380.403;  -93.050; -344.000; -257.000
380.533; -162.650; -651.000; -664.000
380.663;  -23.225;  173.000;  128.000
380.793; -197.425;-1027.000;-1074.000
380.923;  -72.025; -103.000;  -34.000
381.053; -142.225; -613.000; -623.000
381.183;  -70.325; -106.000; -248.000
381.313; -139.200; -656.000; -470.000
381.443; -116.725; -692.000; -473.000
381.573; -108.600; -402.000; -409.000
381.703; -212.325;-1249.000;-1095.000
381.833; -245.325;-1454.000;-1336.000
381.963;  -29.000; -134.000;  -87.000
382.093; -188.025; -925.000; -909.000
382.223; -142.375; -713.000; -602.000
382.353; -152.325; -801.000; -608.000
382.482; -193.750;-1091.000; -964.000
382.612; -146.025; -872.000; -644.000
382.742; -135.750; -695.000; -622.000
382.872; -121.075; -565.000; -551.000
383.002;  -22.850;  347.000; -132.000
383.131;  -94.075; -226.000; -160.000
383.261; -149.300; -706.000; -768.000
383.391; -124.600; -552.000; -377.000
383.521;   -0.100;  451.000;  263.000
383.650; -180.775; -947.000; -904.000
383.780; -134.375; -783.000; -656.000
383.910;   52.350;  880.000;  802.000
384.039; -164.050; -794.000; -656.000
384.169; -204.675;-1205.000;-1017.000
384.299; -122.750; -650.000; -662.000
384.428; -148.075; -764.000; -680.000
384.558;  -90.875; -308.000; -275.000
384.687; -112.600; -414.000; -334.000
384.817;  -34.550;   75.000;   -2.000
384.947;  -84.850; -234.000; -141.000
385.076;   71.350;  982.000;  912.000
385.206;   -7.625;  369.000;  480.000
385.335; -106.825; -549.000; -417.000
385.465; -149.650; -655.000; -663.000
385.594;  -62.825;  -53.000;  -44.000
385.724; -172.075; -868.000; -838.000
385.853;  -84.475; -296.000; -270.000
385.982; -165.375; -743.000; -787.000
386.112; -167.775;-1052.000; -871.000
386.241; -103.800; -307.000; -312.000
386.371;  -45.425; -174.000;  -87.000
386.500; -171.675; -825.000; -789.000
386.629; -149.125; -874.000; -817.000
386.759;  -66.550;  -43.000;   68.000
386.888;  -69.325; -170.000; -250.000
387.017; -152.100; -648.000; -620.000
387.147; -157.950; -771.000; -798.000
387.276; -138.775; -410.000; -397.000
387.405;  -99.950; -398.000; -342.000
387.535; -119.900; -452.000; -361.000
387.664; -131.225; -692.000; -620.000
387.793;  -82.075; -198.000; -113.000
387.922;  -17.950;  255.000;  200.000
388.052; -127.975; -576.000; -423.000
388.181;  -99.925; -342.000; -472.000
388.310; -167.100; -889.000; -710.000
388.439; -147.550; -749.000; -742.000
388.568;  -17.100;  365.000;  244.000
388.697; -130.875; -756.000; -653.000
388.826; -147.500; -768.000; -666.000
388.956;  -67.400; -285.000; -307.000
389.085;  -99.525; -347.000; -287.000
389.214; -156.600; -842.000; -872.000
389.343; -145.350; -645.000; -413.000
389.472;   -0.975;  126.000;  149.000
389.601;  -56.125;   91.000;    0.000
389.730; -120.650; -568.000; -687.000
389.859;  -22.925;  226.000;   46.000
389.988;  -97.500; -423.000; -408.000
390.117;  -85.850; -168.000; -146.000
390.246; -103.900; -331.000; -320.000
390.375; -149.100; -673.000; -626.000
390.504; -135.900; -703.000; -621.000
390.633; -170.725; -672.000; -726.000
390.761; -131.050; -732.000; -645.000
390.890;  -66.850;   -4.000; -130.000
391.019;  -98.350; -421.000; -441.000
391.148; -171.650; -826.000; -855.000
391.277; -128.875; -576.000; -493.000
391.406; -175.675; -821.000; -805.000
391.534;  -31.175;  574.000; -301.000
391.663; -136.750; -583.000; -645.000
391.792; -141.800; -673.000; -701.000
391.921;  -59.500;   -3.000;   15.000
392.050;  -83.200; -287.000; -228.000
392.178; -217.200;-1206.000;-1061.000
392.307; -153.150; -758.000; -712.000
392.436; -145.625; -427.000; -641.000
392.564;  -39.600;  166.000;   -6.000
392.693; -161.400; -860.000; -682.000
392.822; -125.375; -529.000; -534.000
392.950; -165.850; -880.000; -714.000
393.079; -106.375; -188.000; -328.000
393.208; -126.500; -488.000; -511.000
393.336;  -68.400; -170.000; -145.000
393.465;  -90.175; -317.000; -199.000
393.593;  -28.250;   62.000;   79.000
393.722; -209.250;-1121.000; -916.000
393.850;  -74.075; -188.000;  -61.000
393.979; -199.700; -926.000; -805.000
394.107; -124.675; -517.000; -537.000
394.236; -123.475; -570.000; -507.000
394.364;  -12.825;  383.000;  206.000
394.493; -149.775; -911.000; -767.000
394.621; -169.025; -955.000; -916.000
394.750; -192.575; -873.000; -923.000
394.878;  -83.650; -247.000; -149.000
395.007; -159.700; -721.000; -807.000
395.135; -142.650; -790.000; -721.000
395.263; -177.625;-1038.000;-1040.000
395.392;  -36.200;  -25.000; -107.000
395.520; -183.750; -818.000; -679.000
395.648; -159.300; -865.000; -915.000
395.777; -121.500; -366.000; -405.000
395.905; -112.425; -449.000; -564.000
396.033;  -38.325;  217.000;  172.000
396.162; -103.300; -399.000; -453.000
396.290;  -86.300;  -17.000;   -2.000
396.418; -129.550; -555.000; -514.000
396.546; -156.350; -571.000; -466.000
396.674; -179.350; -850.000; -878.000
396.803;  -66.400;  -72.000;  -23.000
396.931;  -77.275; -179.000; -199.000
397.059; -199.850;-1026.000; -989.000
397.187; -169.825;-1026.000; -975.000
397.315; -181.050; -884.000; -649.000
397.443; -133.950; -592.000; -443.000
397.572; -133.750; -578.000; -424.000
397.700; -132.075; -607.000; -614.000
397.828;  -69.875;  120.000;  -90.000
397.956; -115.675; -508.000; -478.000
398.084; -159.225; -767.000; -626.000
398.212;  -49.800;  137.000;  124.000
398.340;  -54.650;  -56.000;  159.000
398.468;  -94.275; -390.000; -169.000
398.596; -183.700; -993.000; -953.000
398.724; -156.475; -762.000; -767.000
398.852; -187.175;-1024.000; -976.000
398.980; -127.450; -560.000; -560.000
399.108; -157.725; -982.000; -735.000
399.236;  -50.075;   13.000;    8.000
399.363;  -35.900;  222.000;  196.000
399.491; -112.600; -404.000; -398.000
399.619; -174.400; -829.000; -800.000
399.747; -164.875; -859.000; -771.000
399.875;   -9.850;  220.000;  234.000
400.003; -108.275; -359.000; -284.000
400.130; -121.375; -421.000; -341.000
400.258;  -61.850;  -83.000;   38.000
400.386;  -74.825; -352.000; -168.000
400.514; -126.375; -526.000; -587.000
400.641; -193.625; -928.000; -802.000
400.769; -171.875; -979.000; -888.000
400.897; -158.700; -838.000; -793.000
401.025;  -69.275; -166.000; -152.000
401.152;  -19.575;  220.000;   38.000
401.280;  -98.000; -430.000; -429.000
401.408; -164.300; -712.000; -576.000
401.535; -137.275; -735.000; -758.000
401.663; -222.200;-1134.000;-1054.000
401.790; -118.250; -514.000; -525.000
401.918;   18.600;  436.000;  405.000
402.046;  -22.500;  134.000;  122.000
402.173;  -65.700;  -18.000;    7.000
402.301; -107.075; -519.000; -397.000
402.428;    1.525;  528.000;  383.000
402.556; -204.725;-1188.000; -913.000
402.683;  -76.200;  -20.000;   -1.000
402.811;  -60.525;  -37.000; -206.000
402.938;  -56.700;   20.000;   27.000
403.066; -114.350; -574.000; -558.000
403.193;  -48.850;  299.000;  239.000
403.321; -115.750; -396.000; -574.000
403.448;  -51.575;   83.000;   27.000
403.575;  -52.150;  -90.000;  -46.000
403.703; -162.625; -732.000; -557.000
403.830; -111.750; -531.000; -496.000
403.957; -210.450;-1117.000;-1023.000
404.085;  -85.850;  -61.000; -172.000
404.212;  -54.725;  -50.000;   63.000
404.339; -106.000; -566.000; -306.000
404.467; -113.450; -612.000; -524.000
404.594;  -80.100; -287.000; -227.000
404.721; -159.375; -869.000; -764.000
404.848;  -65.250; -113.000; -202.000
404.976; -180.050; -856.000; -783.000
405.103;  -65.175;  -14.000;  -82.000
405.230;  -44.075;  190.000;  226.000
405.357;  -60.725;  117.000;   44.000
405.484;  -75.875;  -49.000;    5.000
405.612; -122.200; -548.000; -563.000
405.739; -109.375; -488.000; -243.000
405.866;   19.350;  669.000;  385.000
405.993; -103.975; -398.000; -102.000
406.120; -189.000; -801.000; -887.000
406.247; -124.975; -323.000; -342.000
406.374;   32.150;  540.000;  629.000
406.501; -155.675; -632.000; -702.000
406.628; -123.825; -621.000; -589.000
406.755; -159.700; -803.000; -620.000
406.882;  -84.725; -228.000; -277.000
407.009; -145.075; -719.000; -628.000
407.136; -102.700; -480.000; -401.000
407.263; -190.450; -939.000; -829.000
407.390; -139.025; -692.000; -614.000
407.517; -219.625;-1139.000;-1187.000
407.644; -109.350; -332.000; -256.000
407.771; -121.450; -249.000; -287.000
407.898;  -30.750;  168.000;  328.000
408.025; -121.775; -421.000; -313.000
408.151;  -44.875;   82.000;  153.000
408.278; -118.200; -267.000; -216.000
408.405; -166.975; -931.000; -899.000
408.532; -148.750; -549.000; -542.000
408.659; -147.625; -677.000; -648.000
408.785; -228.675;-1298.000;-1170.000
408.912; -102.775; -412.000; -296.000
409.039; -141.625; -610.000; -686.000
409.166; -121.125; -591.000; -555.000
409.292; -132.925; -571.000; -534.000
409.419; -133.550; -665.000; -649.000
409.546; -112.950; -431.000; -192.000
409.672; -149.050; -713.000; -545.000
409.799;  -73.100;  -36.000;   34.000
409.926;  -80.600; -180.000; -179.000
410.052; -216.975;-1127.000;-1091.000
410.179; -113.200; -368.000; -392.000
410.305; -115.025; -375.000; -493.000
410.432;  -82.300; -220.000; -333.000
410.558; -122.375; -305.000; -380.000
410.685; -127.875; -688.000; -431.000
410.812; -150.025; -409.000; -588.000
410.938; -174.725; -964.000; -808.000
411.065; -148.400; -671.000; -645.000
411.191;  -76.250; -189.000; -174.000
411.317; -182.675; -823.000; -742.000
411.444;  -89.475; -317.000; -246.000
411.570; -105.050; -339.000; -294.000
411.697; -148.475; -758.000; -752.000
411.823; -195.550; -989.000; -999.000
411.949;  -79.550;  -56.000;   17.000
412.076; -146.150; -539.000; -519.000
412.202; -143.275; -758.000; -757.000
412.329; -168.125; -798.000; -752.000
412.455; -148.775; -821.000; -657.000
412.581;  -56.200;  -15.000;  172.000
412.707; -122.550; -540.000; -457.000
412.834;  -28.125;  156.000;  219.000
412.960; -153.950; -785.000; -784.000
413.086; -169.975; -743.000; -701.000
413.212;   28.925;  604.000;  578.000
413.339; -169.175; -685.000; -701.000
413.465; -116.500; -364.000; -310.000
413.591; -172.825; -757.000; -474.000
413.717;  -97.950; -358.000; -366.000
413.843; -183.075; -839.000; -861.000
413.969; -104.775;  -47.000; -292.000
414.096; -161.400; -679.000; -679.000
414.222;  -55.725;  -33.000;   85.000
414.348; -147.250; -652.000; -385.000
414.474;  -67.450;   38.000;  -52.000
414.600;  -80.025; -126.000; -144.000
414.726;  -69.750;  -96.000;  -55.000
414.852; -118.725; -365.000; -342.000
414.978;  -49.375;  104.000;  -18.000
415.104;  -62.375;   38.000;   80.000
415.230; -111.425; -329.000; -330.000
415.356; -144.925; -409.000; -514.000
415.482;  -62.975;   13.000;  -35.000
415.608;  -96.700; -247.000; -323.000
415.734;  -42.550;   67.000;   38.000
415.860; -173.325; -875.000; -767.000
415.986; -151.500; -685.000; -607.000
416.111; -165.175; -798.000; -652.000
416.237; -121.425; -424.000; -571.000
416.363; -168.500; -765.000; -733.000
416.489;  -99.525; -324.000; -251.000
416.615; -165.175; -707.000; -742.000
416.741; -151.500; -677.000; -784.000
416.866; -155.200; -673.000; -736.000
416.992; -180.700; -801.000; -818.000
417.118; -108.025;  -41.000;  -80.000
417.244; -152.350; -798.000; -531.000
417.369; -166.050; -801.000; -612.000
417.495; -117.650; -325.000; -254.000
417.621; -194.825;-1015.000; -803.000
417.746; -135.600; -579.000; -572.000
417.872;  -94.175; -254.000; -144.000
417.998; -121.900; -515.000; -530.000
418.123; -212.000;-1073.000; -845.000
418.249; -119.350; -512.000; -601.000
418.374; -192.475; -916.000; -824.000
418.500; -128.675; -383.000; -482.000
418.626;  -55.950;   70.000;  -59.000
418.751; -125.900; -549.000; -448.000
418.877; -166.775; -637.000; -643.000
419.002; -134.150; -688.000; -560.000
419.128; -172.750; -930.000; -721.000
419.253; -183.900; -967.000; -837.000
419.379; -144.700; -391.000; -338.000
419.504;  -10.350;  325.000;  415.000
419.629; -108.575; -393.000; -212.000
419.755;  -74.375; -317.000; -254.000
419.880; -104.525;  -98.000;   67.000
420.006; -105.100; -280.000; -221.000
420.131; -153.450; -662.000; -775.000
420.256;  -94.375; -315.000; -316.000
420.382; -163.925; -665.000; -687.000
420.507; -165.900; -649.000; -778.000
420.632; -108.825; -337.000; -339.000
420.758; -102.275; -251.000; -425.000
420.883; -147.250; -876.000; -672.000
421.008; -157.775; -775.000; -619.000
421.133; -126.675; -509.000; -467.000
421.259;  -85.625; -325.000; -259.000
421.384; -181.650; -834.000; -693.000
421.509; -167.325;-1052.000; -862.000
421.634; -195.700; -936.000; -820.000
421.759; -111.550; -359.000; -327.000
421.885; -153.600; -717.000; -656.000
422.010; -123.325; -673.000; -542.000
422.135; -195.700; -695.000; -727.000
422.260;  -21.150;  340.000;  280.000
422.385;  -80.925;   12.000;  -98.000
422.510;  -40.175;  151.000;  -26.000
422.635;  -77.075;  -87.000;  -43.000
422.760; -150.775; -766.000; -791.000
422.885;  -65.375;  -57.000;  -80.000
423.010;  -81.050; -112.000; -169.000
423.135; -138.975; -481.000; -561.000
423.260;  -87.550; -150.000; -245.000
423.385;  -24.950;  476.000;  222.000
423.510;  -58.750;   71.000;  -22.000
423.635;  -65.200;  133.000;   45.000
423.760;    5.250;  383.000;  328.000
423.885;  -24.800;  336.000;  391.000
424.010;  -68.225;  -68.000;  -13.000
424.135;  -66.775;    5.000;  -33.000
424.259; -134.800; -654.000; -457.000
424.384; -134.575; -279.000; -272.000
424.509;  -62.700; -260.000; -186.000
424.634; -162.475; -761.000; -623.000
424.759; -149.775; -688.000; -544.000
424.883; -142.350; -506.000; -527.000
425.008; -123.700; -502.000; -410.000
425.133; -168.450; -679.000; -653.000
425.258; -140.525; -517.000; -381.000
425.382; -180.225; -867.000; -774.000
425.507; -135.000; -487.000; -543.000
425.632; -172.600; -802.000; -663.000
425.756;  -91.675; -256.000; -146.000
425.881; -166.150; -831.000; -857.000
426.006; -122.775; -604.000; -355.000
426.130; -177.650; -696.000; -508.000
426.255; -137.175; -611.000; -491.000
426.379;  -94.250; -189.000; -577.000
426.504;   19.850;  660.000;  544.000
426.629; -163.000; -519.000; -466.000
426.753;  -59.425;   64.000;  -46.000
426.878; -100.975; -252.000; -288.000
427.002; -180.150; -651.000; -668.000
427.127;  -96.700;  -35.000; -158.000
427.251;   -1.475;  372.000;  401.000
427.375; -105.575; -191.000; -173.000
427.500; -150.300; -616.000; -610.000
427.624; -110.200; -234.000; -400.000
427.749;  -97.075; -216.000; -225.000
427.873; -142.725; -499.000; -412.000
427.997;  -95.825; -222.000; -230.000
428.122;   26.025;  795.000;  703.000
428.246;   -8.100;  433.000;  434.000
428.371; -195.275; -869.000; -773.000
428.495; -153.600; -624.000; -646.000
428.619; -100.600; -186.000; -117.000
428.743;  -48.075;   65.000;  132.000
428.868; -166.275; -732.000; -643.000
428.992; -112.875; -219.000; -326.000
429.116; -121.875; -329.000; -357.000
429.240;  -23.000;  419.000;  426.000
429.365; -139.375; -454.000; -574.000
429.489; -153.625; -638.000; -647.000
429.613;  -93.425; -236.000; -177.000
429.737; -126.000; -563.000; -432.000
429.861; -103.925; -247.000; -133.000
429.985; -114.400; -425.000; -305.000
430.109; -193.725; -770.000; -908.000
430.234;  -36.500;   76.000;  -50.000
430.358; -100.975; -250.000; -160.000
430.482; -159.450; -672.000; -564.000
430.606; -147.125; -655.000; -375.000
430.730; -132.125; -437.000; -388.000
430.854; -189.700; -909.000; -835.000
430.978; -171.225; -795.000; -764.000
431.102; -146.700; -499.000; -422.000
431.226; -173.225; -874.000; -815.000
431.350;  -18.700;  345.000;  422.000
431.474; -131.650; -661.000; -373.000
431.597; -206.225;-1060.000; -848.000
431.721; -105.675; -276.000; -267.000
431.845; -157.500; -704.000; -472.000
431.969; -108.975; -304.000; -349.000
432.093; -125.850; -395.000; -317.000
432.217;  -49.900;   32.000;   82.000
432.341; -131.475; -523.000; -518.000
432.464;  -55.925;   96.000;   40.000
432.588; -136.250; -401.000; -329.000
432.712;  -61.375;  -52.000;  -52.000
432.836;  -54.225;  213.000;  263.000
432.959; -115.525; -372.000; -311.000
433.083;  -76.575;   11.000;    2.000
433.207;    3.675;  285.000;  930.000
433.330; -106.575; -391.000; -200.000
433.454; -145.550; -654.000; -638.000
433.578;    0.850;  583.000;  278.000
433.701; -153.700; -623.000; -675.000
433.825; -119.225; -292.000; -299.000
433.949;  -75.225;   28.000;  -72.000
434.072; -107.225; -410.000; -323.000
434.196;  -96.300; -309.000; -117.000
434.319; 3731.450;25482.000;25124.000
434.443; -145.225; -656.000; -603.000
434.566;  -39.300;  281.000;   62.000
434.690; -133.000; -637.000; -383.000
434.813; -103.775; -251.000; -173.000
434.937; -138.550; -569.000; -696.000
435.060; -133.300; -423.000; -332.000
435.184; -121.275; -492.000; -217.000
435.307;  -79.200;  159.000;  102.000
435.431;  -61.650;  -40.000;   24.000
435.554; -114.050; -399.000; -240.000
435.677; -113.925; -350.000; -258.000
435.801;  -77.850;  -25.000;   49.000
435.924;  -52.700;    1.000;  -67.000
436.048; -190.000;-1019.000; -732.000
436.171; -105.725; -240.000;  -66.000
436.294; -104.675; -248.000; -229.000
436.417; -204.875; -963.000; -849.000
436.541; -182.275; -814.000; -840.000
436.664;  -87.375; -242.000; -316.000
436.787;  -69.725;   13.000;  113.000
436.910; -157.125; -792.000; -422.000
437.034;  -57.125;  142.000;  143.000
437.157;  -50.150;  -11.000;    0.000
437.280; -110.350; -392.000; -292.000
437.403; -183.250; -982.000; -869.000
437.526; -202.150; -903.000; -865.000
437.649; -109.550; -505.000; -332.000
437.772; -165.700; -692.000; -540.000
437.896;   23.550;  700.000;  544.000
438.019; -153.900; -758.000; -503.000
438.142; -126.900; -596.000; -506.000
438.265; -174.725; -639.000; -670.000
438.388; -119.775; -520.000; -410.000
438.511; -147.250; -597.000; -394.000
438.634; -106.000; -247.000; -125.000
438.757; -169.075; -693.000; -619.000
438.880;  -91.475;  -34.000;  -57.000
439.003; -131.425; -417.000; -437.000
439.126;  -90.875; -287.000; -167.000
439.248;  -88.150;  -98.000; -139.000
439.371;  -51.600;    9.000;  -53.000
439.494;    7.600;  510.000;  439.000
439.617;  -81.800;   65.000;  -88.000
439.740; -195.100; -968.000; -816.000
439.863; -165.675; -755.000; -595.000
439.986; -158.825; -476.000; -431.000
440.108;  -87.075; -161.000; -112.000
440.231; -209.800; -950.000; -836.000
440.354;  -93.350;  -64.000; -150.000
440.477; -168.750; -566.000; -542.000
440.599; -122.600; -200.000; -225.000
440.722; -163.150; -709.000; -586.000
440.845;   45.350;  751.000;  928.000
440.968; -130.575; -415.000; -311.000
441.090;  -90.025; -199.000;  -33.000
441.213; -188.850;-1021.000; -825.000
441.336;  -95.225; -159.000;   -5.000
441.458; -127.150; -549.000; -396.000
441.581; -163.575; -628.000; -629.000
441.703; -101.625; -152.000;   13.000
441.826; -125.650; -557.000; -400.000
441.948;  -75.275;   56.000;   51.000
442.071;    4.175;  555.000;  424.000
442.193; -171.825; -531.000; -485.000
442.316;  -49.750;  152.000;   97.000
442.438; -114.600; -233.000;  -10.000
442.561;  -25.125;  272.000;  262.000
442.683; -170.275; -809.000; -522.000
442.806;  -59.025;   -8.000;   74.000
442.928; -193.025; -859.000; -604.000
443.051; -127.825; -577.000; -373.000
443.173; -134.225; -341.000; -339.000
443.295; -123.650; -263.000; -371.000
443.418; -106.300; -321.000;  -29.000
443.540;  -82.600; -106.000;   -4.000
443.662; -157.675; -563.000; -465.000
443.785;  -28.625;  335.000;  199.000
443.907; -149.800; -362.000; -208.000
444.029; -142.900; -767.000; -494.000
444.152; -167.725; -644.000; -554.000
444.274;  -68.275;  -18.000;  -24.000
444.396; -139.800; -461.000; -221.000
444.518; -133.500; -691.000; -454.000
444.640; -136.350; -268.000; -111.000
444.763;  -46.300;  388.000;  249.000
444.885; -155.575; -432.000; -392.000
445.007;  -63.025;   35.000;   86.000
445.129; -157.875; -610.000; -515.000
445.251; -136.150; -372.000; -439.000
445.373; -157.175; -537.000; -386.000
445.495;  -32.975;  242.000;  350.000
445.617;   16.750;  853.000;  753.000
445.739; -107.000; -215.000;  -97.000
445.861; -106.400; -245.000; -112.000
445.984; -109.575; -267.000; -101.000
446.105; -118.125; -418.000; -251.000
446.227;  -95.825; -176.000;  -19.000
446.349; -150.575; -358.000; -249.000
446.471; -150.975; -615.000; -448.000
446.593; -124.150; -316.000;   19.000
446.715;  -81.025;  -67.000;   41.000
446.837;   28.350;  697.000;  832.000
446.959; -129.825; -457.000; -478.000
447.081; -168.500; -628.000; -518.000
447.203;   30.575;  862.000;  834.000
447.325; -105.475; -270.000;   42.000
447.446;  -27.050;  286.000;  530.000
447.568; -199.925; -921.000; -803.000
447.690; -117.925; -236.000; -245.000
447.812; -188.125; -798.000; -519.000
447.933;  -62.475;  155.000;  127.000
448.055; -109.800; -306.000; -261.000
448.177;  -67.300;   31.000;   79.000
448.299; -211.000; -935.000; -727.000
448.420;  -55.975;  -25.000;  159.000
448.542;  -73.025;   -3.000;   33.000
448.664;  -51.675;  109.000;  322.000
448.785;  -64.625;  265.000;   83.000
448.907; -144.075; -614.000; -353.000
449.028; -177.050; -771.000; -471.000
449.150;   22.300;  492.000;  589.000
449.272; -213.125;-1044.000; -913.000
449.393;    2.100;  612.000;  694.000
449.515; -181.775; -634.000; -581.000
449.636; -105.425; -264.000; -155.000
449.758;   22.025;  763.000;  622.000
449.879; -133.325; -498.000; -396.000
450.001; -116.950; -149.000;  -49.000
450.122;  -56.750;  -95.000;  162.000
450.244;  -66.350;   37.000;  364.000
450.365; -136.500; -495.000; -301.000
450.486;  -74.375;   80.000;  268.000
450.608;  -15.650;  393.000;  326.000
450.729;  -21.925;  578.000;  645.000
450.850; -144.675; -574.000; -466.000
450.972; -177.575; -552.000; -389.000
451.093;  -27.475;  190.000;  588.000
451.214; -148.475; -516.000; -337.000
451.336;   32.975;  773.000;  579.000
451.457;  -20.900;  264.000;  393.000
451.578;  -86.850; -118.000;  -74.000
451.699; -159.625; -546.000; -540.000
451.821;  -96.725; -284.000;  -50.000
451.942;  -58.000;  278.000;  285.000
452.063;  -29.350;  228.000;  419.000
452.184; -108.925;  -54.000;  -49.000
452.305;  -56.150;  103.000;  170.000
452.427; -138.575; -549.000; -301.000
452.548;  -90.750;   23.000;   79.000
452.669; -107.525; -257.000;  -89.000
452.790;  -86.275;    3.000;  -18.000
452.911;  -67.925;  195.000;  259.000
453.032; -110.000; -289.000;  -60.000
453.153;  -84.675;  -29.000;   81.000
453.274;   34.550;  737.000;  868.000
453.395;  -84.025;  -51.000;  175.000
453.516;   81.950; 1317.000; 1388.000
453.637; -137.825; -205.000; -150.000
453.758;  -81.350;   15.000;   69.000
453.879; -150.600; -462.000; -250.000
454.000;   53.100; 1086.000;  948.000
454.121; -168.075; -554.000; -326.000
454.242; -143.525; -599.000; -383.000
454.362; -103.700;  -99.000;  114.000
454.483; -122.475; -309.000; -229.000
454.604;  -25.200;  512.000;  580.000
454.725; -169.075; -627.000; -555.000
454.846; -147.600; -474.000; -406.000
454.967;  -48.000;  230.000;  539.000
455.087;  -68.075;  179.000;  153.000
455.208;  -19.425;  554.000;  856.000
455.329;  -95.275;  -22.000;   82.000
455.450;   -3.100;  473.000;  633.000
455.570; -126.025; -234.000; -211.000
455.691;  -63.875;  201.000;  407.000
455.812; -140.400; -270.000;  -92.000
455.932;  -86.025;  107.000;  -97.000
456.053;  -99.075;   36.000;   24.000
456.173; -128.775; -433.000; -355.000
456.294; -150.775; -476.000; -303.000
456.415;  -88.975;  -73.000;   70.000
456.535;  -60.550;  297.000;  273.000
456.656;  -54.425;  132.000;  240.000
456.776; -108.675;    3.000;  298.000
456.897;  -24.075;  308.000;  513.000
457.017; -104.200; -153.000;   -3.000
457.138; -129.800; -402.000; -249.000
457.258;  -63.875;  263.000;  224.000
457.379;  -23.975;  509.000;  521.000
457.499;  -58.575;  443.000;  432.000
457.620; -146.500; -407.000; -231.000
457.740; -123.200; -132.000;  -11.000
457.860;  -71.975;   87.000;   44.000
457.981;  -84.875;  132.000;  124.000
458.101;  -96.675;  -89.000;   40.000
458.221;  -61.050;  336.000;  402.000
458.342;  -84.850;   -4.000;  -37.000
458.462;  -39.150;  617.000;  352.000
458.582; -117.950; -302.000; -294.000
458.703;  -71.950;  303.000;  154.000
458.823;  -80.675;   22.000;  163.000
458.943;  -43.550;  341.000;  467.000
459.063;  -75.900; 1124.000;  192.000
459.183;  -63.725;  328.000;  313.000
459.304;  -35.300;  315.000;  517.000
459.424; -129.400; -246.000;  -89.000
459.544;  -17.325;  388.000;  764.000
459.664;  -48.025;  499.000;  506.000
459.784;   47.675; 1004.000; 1175.000
459.904;  -10.350;  867.000;  744.000
460.024;   18.375;  867.000;  684.000
460.144;  -60.375;  449.000;  554.000
460.264;  -29.075;  515.000;  327.000
460.385; -112.725; -145.000; -119.000
460.505;   30.500;  905.000;  858.000
460.625; -118.675;  -17.000;  -68.000
460.745;  -31.325;  396.000;  541.000
460.864;  -81.475;  153.000;  469.000
460.984;  -45.925;  499.000;  573.000
461.104;  105.925; 1656.000; 1775.000
461.224;   -4.050;  657.000;  650.000
461.344;  -58.150;  431.000;  360.000
461.464;  -53.875;  258.000;  513.000
461.584;  -61.550;  283.000;  466.000
461.704;  -86.250;   58.000;  108.000
461.824;  -89.300;  238.000;  259.000
461.943;  -69.650;  191.000;  130.000
462.063; -100.000;    2.000;  324.000
462.183;    2.750;  639.000;  717.000
462.303;   64.825; 1678.000; 1230.000
462.422;    7.125;  781.000;  840.000
462.542;  -65.125;  271.000;  391.000
462.662;  -39.750;  353.000;  380.000
462.782;  -22.350;  833.000;  572.000
462.901;  -17.775;  545.000;  717.000
463.021;  104.400; 1702.000; 1638.000
463.141;  -38.025;  337.000;  770.000
463.260;  -41.850;  614.000;  474.000
463.380;  -23.850;  902.000;  884.000
463.499;  -53.375;  342.000;  332.000
463.619;  -54.750;  581.000;  559.000
463.738;   90.350; 1644.000;  903.000
463.858;    2.025;  657.000;  811.000
463.978;  -56.175;  542.000;  396.000
464.097;   16.850;  921.000; 1114.000
464.217;   42.900; 1196.000; 1143.000
464.336;   43.700; 1068.000; 1130.000
464.455;  -55.225;  328.000;  659.000
464.575;  -25.500;  597.000;  602.000
464.694;   56.600; 1204.000; 1179.000
464.814;    8.200; 1190.000; 1138.000
464.933;   28.775; 1095.000; 1027.000
465.052;   64.375; 1412.000; 1054.000
465.172;   -7.575;  922.000;  799.000
465.291;   61.725; 1376.000; 1320.000
465.410;  -24.475;  462.000;  735.000
465.530;   58.200; 1355.000; 1310.000
465.649;   36.250; 1209.000; 1273.000
465.768;  102.025; 1673.000; 1508.000
465.888;   22.525;  941.000; 1174.000
466.007;   62.650; 1335.000; 1440.000
466.126;  -46.550;  721.000;  641.000
466.245;   20.150; 1176.000; 1187.000
466.364;   -8.850;  950.000; 1060.000
466.484;   23.100; 1024.000; 1213.000
466.603;   12.875; 1101.000; 1222.000
466.722;   78.800; 1490.000; 1769.000
466.841;   40.775; 1151.000; 1401.000
466.960;   15.775; 1069.000;  972.000
467.079;  107.775; 1971.000; 1786.000
467.198;   23.500; 1238.000; 1181.000
467.317;   54.500; 1768.000; 1162.000
467.436;   51.625; 1709.000; 1261.000
467.555;  103.325; 1796.000; 1746.000
467.674;   41.675; 1227.000; 1329.000
467.793;   17.125; 1376.000; 1374.000
467.912;   76.450; 1658.000; 1539.000
468.031;  103.900; 2038.000; 1930.000
468.150;  104.625; 1842.000; 1837.000
468.269;  174.725; 2313.000; 2090.000
468.388;  166.000; 2168.000; 2339.000
468.507;  240.325; 2884.000; 2903.000
468.626;  214.350; 2555.000; 2541.000
468.744;  121.625; 2018.000; 2174.000
468.863;  192.625; 2312.000; 2523.000
468.982;   70.000; 1503.000; 1555.000
469.101;  217.950; 2788.000; 2692.000
469.220;  119.975; 2333.000; 2176.000
469.338;  228.500; 2935.000; 3051.000
469.457;  169.275; 2719.000; 2545.000
469.576;  332.550; 3953.000; 3784.000
469.695;  220.325; 2877.000; 3066.000
469.813;  378.225; 4148.000; 4192.000
469.932;  370.225; 4255.000; 4485.000
470.051;  349.200; 4075.000; 4161.000
470.169;  370.625; 4470.000; 4338.000
470.288;  421.925; 4700.000; 4809.000
470.406;  466.850; 5059.000; 5194.000
470.525;  560.925; 6101.000; 5787.000
470.644;  622.625; 6847.000; 6794.000
470.762;  829.750; 8397.000; 7873.000
470.881;  855.625; 8651.000; 8464.000
470.999;  978.650; 9685.000; 9151.000
471.118; 1073.250;11174.000;10711.000

