
Integration time [ms]: 100.000
Averaging Nr. [scans]: 40
Smoothing Nr. [pixels]: 0
Data measured with spectrometer [name]: 2101012U2
Wave   ;Sample   ;Dark     ;Reference
[nm]   ;[counts] ;[counts] ;[counts] 

197.733;   42.675;  516.000;  404.000
197.879;  -83.625; -610.000; -634.000
198.025;  -66.325; -475.000; -420.000
198.171;  -72.425; -602.000; -612.000
198.317;  -33.150; -401.000; -316.000
198.463;  -61.875; -655.000; -404.000
198.609;   32.300;  181.000; -137.000
198.755;  -82.550; -644.000; -410.000
198.901;  -66.350; -505.000; -424.000
199.047;  -58.275; -615.000; -488.000
199.193;  -45.050; -230.000; -468.000
199.339;  -42.375; -222.000; -369.000
199.485;   38.600;  330.000;  271.000
199.631;   21.375;  227.000;  310.000
199.777;  -53.450; -466.000; -398.000
199.923;  -65.675; -610.000; -424.000
200.069;   -1.175; -141.000;  -58.000
200.215;   63.975;  128.000;  453.000
200.361;   30.925;  243.000;  477.000
200.507;  -73.500; -600.000; -373.000
200.653;  -31.700; -371.000; -194.000
200.798;  -28.975; -215.000; -125.000
200.944;  -23.225; -146.000;  -41.000
201.090;   30.725;   61.000;  222.000
201.236;    3.100; -116.000; -158.000
201.382;  124.625;  874.000;  903.000
201.528;    7.250;  -58.000;  -48.000
201.674;  -52.825; -386.000; -293.000
201.819;  -70.850; -540.000; -439.000
201.965;  -80.775; -699.000; -447.000
202.111;  -35.400; -273.000; -226.000
202.257;  -36.800; -250.000; -238.000
202.402;    4.825;   13.000;  -36.000
202.548;  -20.050; -169.000; -116.000
202.694;   89.500;  410.000; -183.000
202.840;  -82.250; -603.000; -531.000
202.985;  -69.450; -681.000; -639.000
203.131; -109.900; -832.000; -666.000
203.277;  -26.075; -199.000; -262.000
203.423;  -53.850; -434.000; -520.000
203.568;  -44.025; -462.000; -237.000
203.714;  -63.450; -535.000; -542.000
203.860;  -93.850; -682.000; -641.000
204.005;   19.025;  112.000;  167.000
204.151;   71.050;  561.000;  556.000
204.296;  -49.850; -354.000; -221.000
204.442;  -79.350; -600.000; -547.000
204.588;  -73.925; -592.000; -579.000
204.733;   23.250;  178.000;  168.000
204.879; -135.850;-1018.000; -822.000
205.025;   -5.200;  -99.000;  126.000
205.170;    4.900;  -17.000;   94.000
205.316;   75.900;  438.000;  661.000
205.461;  -93.975; -698.000; -554.000
205.607;   73.275;  609.000;  665.000
205.752;  -88.725; -626.000; -551.000
205.898;  -66.675; -501.000; -391.000
206.043;  -72.400; -578.000; -506.000
206.189;  -46.875; -243.000; -285.000
206.334;   87.475;  554.000;  606.000
206.480;   69.100;  409.000;  239.000
206.625;  -78.625; -529.000; -552.000
206.771;  -52.300; -451.000; -373.000
206.916;  -36.750; -210.000; -537.000
207.062;  -81.575; -545.000; -591.000
207.207;  -63.625; -546.000; -443.000
207.353;   45.825;  185.000;  460.000
207.498;   19.525;  196.000;   85.000
207.643;  -62.250; -501.000; -370.000
207.789; -135.000;-1069.000; -910.000
207.934; -111.425; -665.000; -713.000
208.080;  -33.425; -154.000;   66.000
208.225;  -20.650;  -22.000;  -57.000
208.370;  -85.475; -727.000; -619.000
208.516;  -71.125; -741.000; -487.000
208.661;  -28.750; -127.000;  -69.000
208.806;  -20.200; -165.000; -171.000
208.952; -129.200;-1044.000; -731.000
209.097;   49.575;  378.000;  349.000
209.242;  -42.500; -307.000; -382.000
209.387;   53.525;  392.000;  350.000
209.533;  -49.225; -321.000; -350.000
209.678;   74.175;  472.000;  543.000
209.823;  -57.175; -408.000; -310.000
209.969; -111.450; -860.000; -757.000
210.114; -115.175; -907.000; -719.000
210.259; -118.025; -939.000; -889.000
210.404;   -7.400; -171.000;  103.000
210.549;    4.250;  108.000;    3.000
210.695;  -26.425;   -3.000;  -95.000
210.840;   33.800;   94.000;   67.000
210.985;  -61.450; -484.000; -303.000
211.130;   57.925;  268.000;  406.000
211.275;   14.750;  207.000;  199.000
211.420;  -51.775; -300.000; -289.000
211.566;  -73.575; -536.000; -489.000
211.711;   13.425;  218.000;  157.000
211.856;  -74.725; -545.000; -519.000
212.001;    9.550;  151.000;   44.000
212.146;   23.850;  153.000;   49.000
212.291;  -25.100; -210.000; -186.000
212.436;  -29.175; -280.000;   -6.000
212.581;  -90.800; -685.000; -653.000
212.726;  -88.825; -487.000; -538.000
212.871;  -60.850; -552.000; -217.000
213.016; -148.175;-1172.000;-1029.000
213.161;   64.650;  406.000;  291.000
213.306;  -73.975; -435.000; -577.000
213.451;  -94.775; -778.000; -689.000
213.596;  -63.875; -455.000; -347.000
213.741;  -64.300; -448.000; -538.000
213.886;  -82.525; -498.000; -517.000
214.031;  -34.525; -294.000; -124.000
214.176;  -46.525; -408.000; -341.000
214.321;  -22.575; -296.000; -157.000
214.466;  -24.125; -163.000;  -43.000
214.611;  -10.500;  -61.000;  -10.000
214.756; -122.575; -948.000; -858.000
214.901;  -28.600; -388.000; -226.000
215.046; -124.575; -797.000; -825.000
215.191;    4.400;  128.000;   35.000
215.336;   -9.750; -157.000;  -19.000
215.480;  -80.150; -684.000; -505.000
215.625;  -18.600; -175.000;  -19.000
215.770;  -86.175; -757.000; -662.000
215.915;  -24.300;   -5.000;  -97.000
216.060;    0.050; -113.000;  -21.000
216.205; -102.250; -731.000; -779.000
216.349;  -75.350; -470.000; -533.000
216.494; -149.300; -939.000; -867.000
216.639; -128.725; -823.000; -888.000
216.784;  -80.900; -577.000; -525.000
216.929;   64.300;  392.000;  281.000
217.073;  -18.875; -244.000;  -31.000
217.218;    0.375;   78.000;  -47.000
217.363;  -81.750; -656.000; -618.000
217.507;  -79.225; -623.000; -588.000
217.652; -133.525; -845.000; -874.000
217.797;  -99.300; -708.000; -659.000
217.942; -124.725; -856.000; -720.000
218.086;   76.250;  608.000;  539.000
218.231;  -14.700; -174.000;  -26.000
218.376;  -45.850; -337.000; -229.000
218.520;    7.325;  -41.000;   96.000
218.665;  -53.250; -338.000; -204.000
218.810;  -41.225; -275.000; -233.000
218.954;   15.350;  201.000;   35.000
219.099; -115.525; -713.000; -963.000
219.243;  -90.325; -589.000; -554.000
219.388;  -30.400; -264.000; -136.000
219.532;   -7.425; -116.000; -116.000
219.677;  -62.775; -564.000; -521.000
219.822;   -2.850;   33.000;   89.000
219.966;   12.075;   17.000;  -99.000
220.111;  -44.875; -328.000;  -40.000
220.255;  -98.075; -797.000; -750.000
220.400;  -29.300; -180.000; -146.000
220.544;  -80.975; -516.000; -450.000
220.689;  -43.075; -422.000; -451.000
220.833;  -13.775; -123.000;  -58.000
220.978;  -61.275; -393.000; -563.000
221.122;   19.525;  319.000;  307.000
221.267; -109.550; -906.000; -837.000
221.411;  -80.375; -478.000; -394.000
221.555;    0.700; -104.000;  -23.000
221.700;  -52.400; -329.000; -222.000
221.844;   27.675;  255.000;  272.000
221.989;  -58.700; -328.000; -311.000
222.133;  -48.850; -289.000; -307.000
222.277;   -3.000;    5.000;   78.000
222.422;    2.075;  227.000;  113.000
222.566;  -53.775; -381.000; -214.000
222.711;  -64.125; -414.000; -479.000
222.855;  -74.425; -643.000; -586.000
222.999;  -95.425; -642.000; -717.000
223.144;  -43.675; -195.000; -194.000
223.288;   52.025;  423.000;  251.000
223.432;   17.600;  184.000;  230.000
223.576;   14.250;  152.000;  -21.000
223.721;   34.225;  364.000;  273.000
223.865;  -64.925; -472.000; -475.000
224.009;  249.000; 1673.000; 1631.000
224.153;  -79.725; -660.000; -671.000
224.298;  -72.175; -531.000; -489.000
224.442;  -24.000;  -74.000;  -33.000
224.586;  -13.175; -169.000; -106.000
224.730; -114.750; -858.000; -670.000
224.875; -111.625; -739.000; -688.000
225.019;    5.225;  102.000;  188.000
225.163;   46.525;  208.000;  341.000
225.307;   13.575;   97.000;  -91.000
225.451;   48.150;  360.000;  481.000
225.595;   35.450;  264.000;  176.000
225.739;  -16.400; -170.000;  -94.000
225.884;   -2.400;   86.000;    5.000
226.028; -108.725; -760.000; -626.000
226.172;  -43.275; -260.000; -273.000
226.316; -125.725; -941.000; -902.000
226.460;  -87.775; -645.000; -493.000
226.604;  -50.500; -406.000; -400.000
226.748; -104.900; -836.000; -733.000
226.892;  -34.825; -227.000; -181.000
227.036;  -52.050; -537.000; -447.000
227.180;  -61.475; -551.000; -375.000
227.324;  -77.575; -561.000; -580.000
227.468; -119.875; -819.000; -717.000
227.612;   -0.625;  242.000;  -28.000
227.756; -104.025; -845.000; -698.000
227.900;   50.700;  342.000;  441.000
228.044;  -54.650; -509.000; -290.000
228.188;   55.725;  448.000;  568.000
228.332;  -89.050; -546.000; -472.000
228.476;  -28.175; -223.000; -149.000
228.620;  -20.600; -210.000; -150.000
228.764;   59.600;  431.000;  349.000
228.908;  -33.150; -155.000;   30.000
229.052;  -63.225; -615.000; -528.000
229.195;  -18.250; -172.000;   13.000
229.339;  -29.300; -235.000; -305.000
229.483;  -31.050;    5.000; -162.000
229.627;   -5.325; -156.000;  139.000
229.771;  -59.850; -218.000; -294.000
229.915;    2.350;  230.000;   79.000
230.059;  -96.125; -648.000; -663.000
230.202;  -42.575; -370.000; -317.000
230.346;  -19.200; -107.000;  107.000
230.490;  -69.525; -489.000; -521.000
230.634; -110.950; -736.000; -553.000
230.777;   67.325;  478.000;  509.000
230.921;  -56.075; -450.000; -359.000
231.065;  -51.850; -246.000; -286.000
231.209;   27.150;  261.000;  265.000
231.352;   13.225;   54.000;   40.000
231.496;    8.475;  568.000;  188.000
231.640;  -84.200; -693.000; -621.000
231.783;   65.950;  546.000;  525.000
231.927;  -40.625; -294.000; -365.000
232.071; -115.550; -962.000; -736.000
232.214; -115.300; -980.000; -764.000
232.358; -103.125; -683.000; -599.000
232.502;   -6.125;  -19.000;    7.000
232.645; -140.250;-1090.000; -927.000
232.789;  -18.150; -257.000; -218.000
232.933;  -40.075; -407.000; -224.000
233.076; -139.475;-1038.000; -897.000
233.220; -107.575; -752.000; -777.000
233.363;  -86.350; -669.000; -477.000
233.507;   49.975;  371.000;  129.000
233.650; -107.525; -764.000; -834.000
233.794;   37.650;  438.000;  461.000
233.938;  -49.650; -530.000; -362.000
234.081;  -25.875;  -93.000;   31.000
234.225;  -65.525; -631.000; -539.000
234.368; -116.650; -773.000; -723.000
234.512;  -52.025; -385.000; -299.000
234.655;  -84.300; -582.000; -555.000
234.798;  -69.775; -493.000; -466.000
234.942; -141.300; -884.000;-1002.000
235.085;  -81.875; -651.000; -443.000
235.229;  -77.525; -405.000; -410.000
235.372;  -59.775; -247.000; -191.000
235.516;  -63.375; -397.000; -321.000
235.659;   25.000;   92.000;  121.000
235.802;  -14.925;  -38.000;  -22.000
235.946;   24.200;  335.000;  215.000
236.089;   32.075;  126.000;  250.000
236.233;   42.500;  275.000;  298.000
236.376;  -53.750; -235.000; -378.000
236.519;  -61.850; -297.000; -319.000
236.663;  -16.175; -215.000; -117.000
236.806; -141.175;-1029.000; -999.000
236.949;   51.375;  543.000;  431.000
237.092;   64.450;  412.000;  391.000
237.236;  -96.525; -589.000; -502.000
237.379;   66.450;  352.000;  428.000
237.522; -115.425; -879.000; -768.000
237.666;  -17.625; -271.000;   18.000
237.809; -130.700; -851.000; -823.000
237.952;   42.650;  469.000;  271.000
238.095;  -72.750; -447.000; -442.000
238.238;   83.350;  688.000;  700.000
238.382;   -7.975;  166.000;  103.000
238.525;  -72.200; -598.000; -511.000
238.668; -146.325;-1060.000; -985.000
238.811;  -86.450; -638.000; -643.000
238.954;  -67.175; -483.000; -334.000
239.097;   99.450;  617.000;  664.000
239.241;   18.700;  394.000;  326.000
239.384;  -45.800; -254.000; -214.000
239.527;  -71.725; -424.000; -224.000
239.670; -157.100; -994.000;-1091.000
239.813; -110.300; -696.000; -658.000
239.956;   87.100;  579.000;  473.000
240.099; -113.900; -778.000; -725.000
240.242;   64.150;  428.000;  432.000
240.385;   46.025;  466.000;  450.000
240.528;  -74.950; -706.000; -473.000
240.671;   17.950;  189.000;  134.000
240.814;  -51.075; -441.000; -158.000
240.957;  -99.925; -767.000; -578.000
241.100;  -96.100; -779.000; -755.000
241.243; -149.650;-1234.000; -893.000
241.386;  -69.175; -508.000; -379.000
241.529;  -91.100; -735.000; -547.000
241.672;  -70.125; -566.000; -495.000
241.815; -121.300; -832.000; -808.000
241.958;  -24.950; -125.000; -182.000
242.101;  -79.800; -545.000; -390.000
242.244;  -48.750; -270.000; -325.000
242.387;  -50.075; -304.000; -246.000
242.530;   63.100;  470.000;  134.000
242.673;  -57.250; -381.000; -309.000
242.815; -122.775; -925.000; -899.000
242.958;  -78.225; -482.000; -381.000
243.101;    1.900;  132.000;  187.000
243.244;  -89.775; -564.000; -521.000
243.387;  -48.375; -313.000; -316.000
243.530; -110.700; -657.000; -674.000
243.672;  -12.975;   43.000;  -92.000
243.815;  -65.175; -355.000; -283.000
243.958;   -8.725;   98.000;  -26.000
244.101;   -8.350;   59.000;  -16.000
244.243;  -10.175;  -47.000;  101.000
244.386; -117.200; -761.000; -630.000
244.529;  -35.475; -132.000; -139.000
244.672; -164.675;-1154.000; -951.000
244.814; -105.400; -621.000; -794.000
244.957;  -63.100; -380.000; -304.000
245.100;  -90.075; -489.000; -489.000
245.242;  -67.800; -387.000; -374.000
245.385;  -10.825;  -59.000;  -39.000
245.528; -132.900; -871.000; -705.000
245.670;  112.425;  612.000;  634.000
245.813;  -94.725; -599.000; -547.000
245.956;  -50.675; -324.000; -275.000
246.098;  -81.200; -508.000; -650.000
246.241;   -2.025;  194.000;   48.000
246.383;  -12.725; -119.000;  -73.000
246.526;  -85.725; -454.000; -525.000
246.669; -130.175; -889.000; -780.000
246.811;   23.575;  172.000;   -1.000
246.954;  -76.625; -512.000; -426.000
247.096;  -29.950;  -84.000;   -6.000
247.239;  -67.250; -482.000; -445.000
247.381;  -79.875; -647.000; -488.000
247.524;   81.600;  645.000;  679.000
247.666;  -16.350;   58.000;   11.000
247.809; -122.475; -887.000; -691.000
247.951;  -10.775;  -75.000;  138.000
248.094;   29.650;  432.000;  308.000
248.236; -173.675;-1262.000;-1238.000
248.378;    0.075; -356.000;  -81.000
248.521;  -23.200; -334.000; -337.000
248.663;  -40.300; -236.000; -267.000
248.806;  -19.550; -300.000; -266.000
248.948; -103.175; -886.000; -763.000
249.090;  -50.200; -428.000; -398.000
249.233;  -46.550; -344.000; -381.000
249.375;  -55.875; -474.000; -451.000
249.518;  -34.675;  -83.000; -133.000
249.660;   -2.300; -103.000;    3.000
249.802; -179.625;-1303.000;-1189.000
249.945;  -89.475; -612.000; -540.000
250.087; -118.325; -834.000; -768.000
250.229;  -57.000; -362.000; -480.000
250.371;  -74.500; -494.000; -439.000
250.514;  -58.025; -310.000; -244.000
250.656;  -65.725;   69.000;  102.000
250.798; -118.275; -849.000; -800.000
250.940;  -65.475; -322.000; -322.000
251.083;  -38.100; -335.000; -111.000
251.225;   60.525;  338.000;  310.000
251.367;  -56.225; -274.000; -373.000
251.509;  -41.025; -265.000; -210.000
251.651; -106.725; -731.000; -671.000
251.794;   54.100;  538.000;  632.000
251.936; -107.200; -821.000; -747.000
252.078;  -79.000; -540.000; -461.000
252.220;  -78.375; -645.000; -477.000
252.362;   79.775;  344.000;  462.000
252.504;  -74.325; -677.000; -584.000
252.646; -120.100; -875.000; -722.000
252.788;   -7.275;   14.000; -128.000
252.931;  -51.225; -257.000; -253.000
253.073;  -33.275; -376.000; -317.000
253.215;   -6.950;  141.000;  122.000
253.357;  -32.600;   82.000; -153.000
253.499;  -49.200; -374.000; -234.000
253.641;  -91.125; -749.000; -594.000
253.783; -102.500; -609.000; -527.000
253.925; -106.400; -586.000; -591.000
254.067; -107.675; -744.000; -667.000
254.209;  -43.250; -391.000; -259.000
254.351; -137.525; -865.000; -883.000
254.493;  -74.275; -441.000; -417.000
254.635; -141.100; -936.000; -818.000
254.777;  -99.575; -752.000; -687.000
254.918;  -73.400; -512.000; -430.000
255.060;  -59.450; -551.000; -395.000
255.202;  -58.600; -473.000; -261.000
255.344;  -89.950; -658.000; -455.000
255.486;  -87.650; -471.000; -406.000
255.628; -118.600; -780.000; -781.000
255.770;  -99.450; -676.000; -536.000
255.912;  -74.925; -559.000; -468.000
256.053; -117.825; -730.000; -508.000
256.195;  160.200; 1008.000;  903.000
256.337; -105.550; -861.000; -595.000
256.479;   61.550;  532.000;  416.000
256.621;  -49.150; -394.000; -212.000
256.762; -105.250; -789.000; -742.000
256.904;   65.975;  485.000;  487.000
257.046;  -59.375; -381.000; -271.000
257.188;  -42.975; -351.000; -264.000
257.329;  -79.875; -525.000; -464.000
257.471; -127.150; -939.000; -807.000
257.613;  -74.275; -584.000; -498.000
257.755; -170.175;-1073.000; -982.000
257.896;   20.525;  286.000;  392.000
258.038;  -79.350; -403.000; -352.000
258.180;  -66.075; -354.000; -279.000
258.321;  -95.850; -581.000; -457.000
258.463;  -17.825;  -71.000;  133.000
258.605;  -91.575; -562.000; -570.000
258.746; -117.575; -886.000; -772.000
258.888; -158.475;-1026.000;-1020.000
259.029;   19.300;  121.000;   -8.000
259.171;  -88.450; -614.000; -550.000
259.313;   -2.325;  -49.000;  -47.000
259.454;  -78.900; -536.000; -414.000
259.596;  -54.450; -483.000; -390.000
259.737;  -69.975; -590.000; -474.000
259.879;   30.825;  217.000;  311.000
260.020;   95.150;  901.000;  636.000
260.162;  -27.200; -146.000; -253.000
260.303; -109.050; -768.000; -687.000
260.445;  -91.825; -609.000; -613.000
260.586;   27.500;  392.000;  157.000
260.728;  -53.225; -360.000; -248.000
260.869; -108.125; -350.000; -343.000
261.011;   91.250;  706.000;  537.000
261.152;  -63.200; -479.000; -319.000
261.293;  -76.425; -576.000; -595.000
261.435;  -23.950; -219.000; -184.000
261.576;  -44.100; -455.000; -325.000
261.718;   45.075;  420.000;  470.000
261.859; -124.950; -940.000; -949.000
262.000; -144.825; -951.000;-1016.000
262.142;  -28.500;  -52.000;  -60.000
262.283; -116.100; -808.000; -691.000
262.424;  -90.525; -666.000; -625.000
262.566; -155.375;-1161.000; -983.000
262.707; -132.375; -840.000; -830.000
262.848; -123.625; -769.000; -726.000
262.990;  -57.100; -362.000; -345.000
263.131;   67.525;  650.000;  681.000
263.272;  -19.650;  -61.000;  -41.000
263.413;  -97.600; -589.000; -561.000
263.555;  -71.950; -669.000; -143.000
263.696;  -87.325; -550.000; -641.000
263.837;  -65.650; -449.000; -551.000
263.978;    6.875;   -5.000;  -77.000
264.119;  -54.025; -283.000; -264.000
264.261; -134.800; -847.000; -630.000
264.402;   -3.575;   33.000;   40.000
264.543;  -89.375; -509.000; -524.000
264.684;  -21.175;   61.000;  -50.000
264.825;  -67.325; -816.000; -538.000
264.966;   -9.725;  -84.000;  -67.000
265.107; -118.850; -646.000; -670.000
265.248; -133.950; -825.000; -812.000
265.390;  -19.475;  152.000;   -9.000
265.531;  -23.275; -238.000; -107.000
265.672;  -98.750; -557.000; -630.000
265.813;   50.650;  563.000;  439.000
265.954; -160.375; -959.000; -940.000
266.095;  -26.150; -372.000; -322.000
266.236;  -97.825; -686.000; -548.000
266.377;  -47.650; -243.000; -297.000
266.518;  -62.175; -619.000; -547.000
266.659;   13.700;  170.000;  268.000
266.800;   13.500;   83.000;   85.000
266.941;  -84.775; -487.000; -478.000
267.082;    5.850;  354.000;   99.000
267.223;  -53.025; -344.000; -273.000
267.364; -114.625; -892.000; -686.000
267.504;  -32.375;    3.000;  135.000
267.645;   -6.175;  160.000;   67.000
267.786;  -42.300; -147.000;  -86.000
267.927;  -85.625; -473.000; -379.000
268.068;   -3.325; -186.000;  -61.000
268.209;  -53.350; -175.000; -413.000
268.350;  -61.050; -388.000; -532.000
268.490;  -86.375; -648.000; -521.000
268.631;   21.250;  127.000;  225.000
268.772; -110.975; -874.000; -647.000
268.913;  -41.500; -328.000; -476.000
269.054;  -18.075; -117.000;   12.000
269.194;  -45.925; -418.000; -402.000
269.335; -155.100;-1137.000;-1074.000
269.476;  -26.050;   33.000;  -35.000
269.617;  -57.900; -347.000; -392.000
269.757;  -89.400; -713.000; -646.000
269.898; -105.475; -856.000; -613.000
270.039;  -63.625; -415.000; -405.000
270.180; -140.875; -952.000; -816.000
270.320;  -16.000; -190.000; -250.000
270.461;  -35.025; -277.000; -249.000
270.602;  -21.400; -186.000; -156.000
270.742; -131.925; -868.000; -943.000
270.883;  -59.900; -442.000; -390.000
271.023;  -61.325; -358.000; -357.000
271.164;  -78.825; -607.000; -528.000
271.305;  -89.175; -666.000; -654.000
271.445; -101.750; -722.000; -683.000
271.586;  -56.975; -462.000; -283.000
271.726;  -55.275; -397.000; -322.000
271.867;  -55.650; -594.000; -534.000
272.008;  181.650; -473.000; -285.000
272.148;  144.450;  462.000;  468.000
272.289;   12.025; -113.000; -181.000
272.429;   16.275;   19.000;  185.000
272.570; -112.100; -633.000; -737.000
272.710; -110.700; -825.000; -775.000
272.851;  -15.075;  113.000; -130.000
272.991; -155.750;-1173.000;-1077.000
273.131;  -71.450; -419.000; -459.000
273.272;  -96.900; -683.000; -723.000
273.412;   -0.800; -143.000;  -31.000
273.553;  -44.325; -488.000; -507.000
273.693;  154.650;  913.000;  858.000
273.834;  -73.500; -894.000; -692.000
273.974;  -67.950; -664.000; -615.000
274.114;  -97.300; -772.000; -560.000
274.255;   88.575;  414.000;  373.000
274.395;    7.350; -180.000; -125.000
274.535;   46.300;  199.000;  350.000
274.676;   30.875;  225.000;   94.000
274.816;   13.475;  110.000;   34.000
274.956;  -82.825; -624.000; -690.000
275.097;  -67.250;-1014.000; -922.000
275.237; -119.450; -913.000; -803.000
275.377;  -90.650; -778.000; -689.000
275.517; -143.500; -878.000; -937.000
275.658;  -53.675; -590.000; -555.000
275.798;  -67.050; -606.000; -413.000
275.938;   28.325;  215.000;  323.000
276.078;  -82.425; -626.000; -395.000
276.218;    3.075;   99.000;  104.000
276.359; -133.300;-1026.000;-1024.000
276.499;  -69.325; -605.000; -446.000
276.639;  -28.550; -305.000; -151.000
276.779;  -50.875; -475.000; -357.000
276.919;  -99.425; -783.000; -624.000
277.059;  -17.450; -261.000; -212.000
277.199;  -31.775; -357.000; -259.000
277.340;   48.850;  287.000;  175.000
277.480; -124.325; -840.000; -693.000
277.620;   30.825;  192.000;   16.000
277.760; -206.525;-1533.000;-1294.000
277.900;   19.400;  113.000;   33.000
278.040;   21.200;  137.000;  159.000
278.180;   42.500;  270.000;  170.000
278.320;  -13.000;   21.000;   56.000
278.460;  -70.050; -443.000; -469.000
278.600;  -91.325; -708.000; -598.000
278.740;   43.000;  448.000;  224.000
278.880;  -18.025; -768.000; -791.000
279.020;    4.150; -194.000; -144.000
279.160;  -85.625; -672.000; -595.000
279.300; -120.800; -926.000; -873.000
279.440; -101.200; -709.000; -622.000
279.579;  -27.125;-1014.000; -929.000
279.719;  -42.800; -410.000; -394.000
279.859;   75.250;   -4.000;   41.000
279.999;   18.125; -208.000;  101.000
280.139;  -16.725; -435.000; -387.000
280.279;  -82.175; -708.000; -745.000
280.419;   -5.950; -229.000; -147.000
280.559;  -24.200; -259.000; -180.000
280.698;  -94.025; -790.000; -639.000
280.838;  -82.750; -778.000; -800.000
280.978;  -94.250; -846.000; -790.000
281.118; -119.450; -811.000; -704.000
281.257;    2.500;   24.000;    6.000
281.397;  -87.325;-1094.000; -960.000
281.537;  -77.525; -599.000; -712.000
281.677;  -30.750; -150.000; -101.000
281.816;  -91.675; -700.000; -630.000
281.956;  -28.850; -193.000; -257.000
282.096;  -59.750; -539.000; -396.000
282.235; -102.950; -672.000; -638.000
282.375;   -4.500; -243.000;  -98.000
282.515; -103.475; -715.000; -707.000
282.654;   30.775;   29.000;  106.000
282.794;   35.025;  388.000;  244.000
282.934;  -55.025; -530.000; -491.000
283.073; -131.525;-1030.000; -857.000
283.213;  -54.700; -460.000; -467.000
283.353;  -20.050; -408.000; -349.000
283.492;  -33.750; -264.000; -296.000
283.632;  -50.850; -254.000; -168.000
283.771; -101.175; -859.000; -730.000
283.911;  -46.525; -369.000; -260.000
284.050; -101.275; -794.000; -748.000
284.190; -153.550;-1229.000;-1096.000
284.329; -146.625;-1055.000; -964.000
284.469;  -45.450; -516.000; -591.000
284.608;  -45.850; -559.000; -598.000
284.748;  -74.525; -614.000; -570.000
284.887;   -7.925;  -87.000;  -20.000
285.027; -124.700; -844.000; -892.000
285.166;  -29.225; -192.000; -249.000
285.306;   13.350; -116.000;  -33.000
285.445;  -40.425; -229.000; -343.000
285.584;  -92.400; -630.000; -494.000
285.724;  -53.950; -282.000; -322.000
285.863; -111.300; -857.000; -507.000
286.002;  -45.775; -366.000; -276.000
286.142; -110.525; -715.000; -622.000
286.281;  -68.050; -525.000; -493.000
286.420;  -87.900; -554.000; -417.000
286.560;  111.700;  653.000;  623.000
286.699; -136.875; -958.000; -912.000
286.838; -102.200; -590.000; -591.000
286.978;  -82.700; -533.000; -537.000
287.117; -143.500;-1085.000; -950.000
287.256;  -16.350; -228.000; -211.000
287.395;  -50.075; -197.000; -378.000
287.535;  -38.600; -370.000; -298.000
287.674;  -68.475; -509.000; -484.000
287.813;   61.825;  661.000;  533.000
287.952; -140.600;-1010.000; -871.000
288.091; -153.875;-1049.000; -915.000
288.231;   10.675;   13.000;   15.000
288.370; -177.650;-1217.000;-1200.000
288.509; -100.850; -728.000; -645.000
288.648;  -94.950; -770.000; -548.000
288.787;  -28.175; -243.000;  -87.000
288.926;  -57.800; -454.000; -475.000
289.065;  125.450;  859.000;  672.000
289.204;  -45.450; -377.000; -217.000
289.344; -106.925; -791.000; -690.000
289.483;   40.950;  416.000;  304.000
289.622;  -23.000; -291.000; -149.000
289.761;   -8.500; -309.000; -166.000
289.900; -110.025; -785.000; -626.000
290.039;  -16.025;  -12.000;  -95.000
290.178;  -40.550; -274.000; -180.000
290.317;  -77.725; -618.000; -479.000
290.456;  -68.300; -463.000; -451.000
290.595; -150.725; -961.000; -833.000
290.734; -139.500; -904.000; -891.000
290.873;  -64.525; -456.000; -420.000
291.011;  -97.925; -833.000; -843.000
291.150;  -90.275; -770.000; -682.000
291.289;   -8.275; -343.000; -110.000
291.428;  -92.075; -599.000; -480.000
291.567;  -59.650; -370.000; -442.000
291.706;    2.900;  109.000;  154.000
291.845;  -82.400; -597.000; -505.000
291.984; -164.625;-1234.000;-1061.000
292.122;   75.325;  602.000;  582.000
292.261;   40.500;  620.000;  463.000
292.400;   20.850; -144.000;  211.000
292.539; -122.525; -959.000; -813.000
292.678;  -35.325; -325.000; -300.000
292.816; -153.150;-1136.000; -965.000
292.955;  -96.500; -844.000; -684.000
293.094;  -25.150; -173.000; -337.000
293.233;  -52.975; -556.000; -400.000
293.371;  -34.875; -225.000;  -84.000
293.510; -114.000; -866.000; -780.000
293.649; -123.600; -959.000; -924.000
293.787;  -42.500;-1083.000;-1012.000
293.926;    1.100; -113.000;  -32.000
294.065;  -32.525; -379.000; -290.000
294.203;   55.500;  298.000;  406.000
294.342;   36.025;   74.000;  156.000
294.481; 6298.225;51180.000; -836.000
294.619;  -24.400; -425.000; -582.000
294.758; -150.100;-1230.000;-1137.000
294.896;  100.000; -125.000;    5.000
295.035; -121.200;-1040.000;-1006.000
295.174; -118.000;-1082.000; -954.000
295.312;  -34.075; -323.000; -203.000
295.451;    5.100; -307.000; -428.000
295.589;  -51.125; -389.000; -518.000
295.728;   26.600; -292.000; -165.000
295.866;   19.825;  -36.000;  -51.000
296.005;  -49.600; -584.000; -341.000
296.143;  -66.250; -558.000; -596.000
296.282; -100.950; -957.000; -881.000
296.420;  -77.350; -657.000; -557.000
296.559;  -81.575; -892.000; -633.000
296.697;   68.250; -847.000; -665.000
296.835;  130.850;-1141.000;-1002.000
296.974;   65.475;  -23.000;   39.000
297.112;   37.450; -443.000; -504.000
297.251;  -76.825; -815.000; -755.000
297.389;  125.850; -576.000; -438.000
297.527;   64.025; -145.000;  -83.000
297.666;  -35.625; -486.000; -438.000
297.804;  -54.150; -404.000; -264.000
297.942;   -1.550; -136.000; -161.000
298.081;   18.275; -183.000;   63.000
298.219;  102.125;  -17.000;  -19.000
298.357;   77.900; -144.000;  -71.000
298.495;   56.675; -810.000; -812.000
298.634;  111.400;  245.000;  219.000
298.772;   98.400; -220.000; -338.000
298.910;  -30.350; -309.000; -182.000
299.048;   -1.400; -130.000; -153.000
299.187;  -23.475; -350.000; -250.000
299.325;   37.850;   52.000;  122.000
299.463;   85.125; -389.000; -299.000
299.601;  168.450; -327.000; -271.000
299.739;  -99.075; -908.000; -883.000
299.877;  -69.325; -791.000; -703.000
300.016;  -47.125;-1095.000; -935.000
300.154;  209.925;  -19.000; -161.000
300.292;   95.500; -428.000; -348.000
300.430;   68.050; -408.000; -291.000
300.568;  -91.550; -940.000; -874.000
300.706;  -42.125; -366.000; -469.000
300.844;  -41.225;-1108.000; -979.000
300.982;  139.700;  246.000;  282.000
301.120;  -98.725; -965.000; -866.000
301.258;  -63.500; -812.000; -705.000
301.396;   47.525;  104.000;  -41.000
301.534;  154.475; -218.000; -293.000
301.672;   29.700; -664.000; -521.000
301.810;   80.475; -613.000; -545.000
301.948;  166.650;   53.000;  149.000
302.086;  740.225; -250.000;  -32.000
302.224; 1201.050; -610.000; -585.000
302.362;   94.225; -558.000; -622.000
302.500;   10.000; -923.000; -893.000
302.638;  148.100;  128.000;  245.000
302.776;   19.350; -352.000; -408.000
302.913;   49.925;  447.000;  236.000
303.051;   13.800;  -86.000;  -23.000
303.189;   78.575;   90.000;  118.000
303.327;  -23.400; -341.000; -256.000
303.465;  -74.300; -832.000; -588.000
303.603;  -77.050; -805.000; -604.000
303.740;   95.250;  417.000;  241.000
303.878;   58.600; -800.000; -759.000
304.016;  -86.725; -915.000; -790.000
304.154; -104.725;-1123.000;-1152.000
304.291;  -28.900; -505.000; -554.000
304.429;    6.050;  102.000;   74.000
304.567; -114.175; -908.000; -893.000
304.705;  -47.525; -408.000; -515.000
304.842;  152.525; -616.000; -540.000
304.980;   83.200;  215.000;   35.000
305.118;   85.900; -367.000; -365.000
305.255;  -50.150; -945.000; -927.000
305.393;   69.250;  178.000;  239.000
305.531;  -83.400;-1173.000; -956.000
305.668;  -66.025; -663.000; -582.000
305.806;   94.100; -358.000; -439.000
305.943;  141.200; -629.000; -637.000
306.081;   75.025; -378.000; -267.000
306.219; -106.350; -863.000; -748.000
306.356;   16.050;  158.000;   27.000
306.494;  121.175;  981.000;  761.000
306.631;   13.800;  -11.000;  -55.000
306.769;    0.975; -613.000; -485.000
306.906;  -12.475; -284.000; -258.000
307.044;  -67.400; -473.000; -488.000
307.181;  -68.850; -410.000; -332.000
307.319;   16.625;  112.000;   87.000
307.456; -171.950;-1191.000;-1153.000
307.594; -105.175; -980.000; -727.000
307.731;  -13.500; -371.000; -164.000
307.868;    1.400;  -15.000;   20.000
308.006; -132.900; -961.000; -847.000
308.143;  -59.500; -618.000; -330.000
308.281;  151.050;  -37.000; -254.000
308.418;  -17.875; -748.000; -640.000
308.555;  -62.325; -400.000; -250.000
308.693;  -59.950; -577.000; -573.000
308.830; -106.175; -712.000; -657.000
308.967;  -11.675; -215.000;  -95.000
309.105;  -48.875; -507.000; -396.000
309.242;   32.225; -468.000; -367.000
309.379;  267.525; -577.000; -655.000
309.517;  -49.475; -936.000; -948.000
309.654;  -90.075; -910.000; -734.000
309.791;  -78.500; -662.000; -580.000
309.928; -113.275; -977.000; -914.000
310.065;  202.725;  819.000;  697.000
310.203;   14.450; -825.000; -850.000
310.340;    9.925; -465.000; -321.000
310.477;  -72.525; -412.000; -516.000
310.614;  -68.500; -383.000; -473.000
310.751;  -75.650; -427.000; -518.000
310.889;  -12.875;    1.000;   11.000
311.026; -149.450;-1161.000; -939.000
311.163;  -41.525; -386.000; -380.000
311.300;  -73.525; -512.000; -479.000
311.437;  -67.100; -658.000; -619.000
311.574; -155.750;-1226.000; -985.000
311.711;  -56.825; -595.000; -433.000
311.848;  -37.675; -380.000; -388.000
311.985;   18.675;  270.000;   93.000
312.122; -108.000; -932.000; -762.000
312.259; -110.825; -941.000; -994.000
312.396;  -94.575; -508.000; -551.000
312.533;  -93.625; -812.000; -790.000
312.670; -119.225;-1070.000; -898.000
312.807;  -30.600; -352.000; -367.000
312.944;  -68.775; -513.000; -611.000
313.081;  -27.125; -150.000; -415.000
313.218;  -86.425;-1111.000; -867.000
313.355;    3.025; -531.000; -449.000
313.492;   21.925; -455.000; -292.000
313.629;  144.625;  815.000;  735.000
313.766; -159.750;-1176.000;-1008.000
313.902;   -6.075; -186.000;   21.000
314.039;  -42.925; -372.000; -289.000
314.176;   26.800;  286.000;  192.000
314.313;  -64.825; -569.000; -473.000
314.450;  -59.975; -788.000; -684.000
314.587;  -55.250; -468.000; -480.000
314.723;   -5.425;  -78.000;  130.000
314.860;   51.650;  318.000;  332.000
314.997;   29.400;  223.000;  142.000
315.134;  -33.250; -385.000; -368.000
315.270;  -24.975; -480.000; -496.000
315.407; -107.625;-1094.000; -967.000
315.544;  -41.500; -657.000; -538.000
315.681;  -57.775; -681.000; -565.000
315.817;   54.050; -133.000; -176.000
315.954;   40.225; -613.000; -392.000
316.091; -129.725;-1045.000;-1023.000
316.227;  -20.850;  -71.000; -179.000
316.364;    6.075;   23.000;    6.000
316.500;  -41.975; -113.000; -300.000
316.637;  -48.075; -181.000; -302.000
316.774;  -84.150; -625.000; -358.000
316.910;  -84.425; -598.000; -629.000
317.047;  -77.625; -487.000; -351.000
317.183;  -38.475; -435.000; -566.000
317.320;  -39.225; -367.000; -321.000
317.456;  -83.725; -733.000; -805.000
317.593;  -83.525; -598.000; -641.000
317.729;    0.225;  168.000;  -67.000
317.866; -196.250;-1434.000;-1285.000
318.002;  -90.725; -708.000; -948.000
318.139;  -75.850; -883.000; -867.000
318.275; -100.650;-1003.000; -738.000
318.412;  -62.000; -517.000; -336.000
318.548;  -14.125; -751.000; -720.000
318.685;  -91.925; -985.000; -888.000
318.821;  -98.000; -762.000; -735.000
318.957;  -12.400;   34.000;  -23.000
319.094;   30.025;  297.000;  154.000
319.230;  -42.475; -756.000; -742.000
319.367;  168.375; -471.000; -520.000
319.503;   82.525; -538.000; -436.000
319.639;  -92.250; -877.000; -793.000
319.775;  -42.600; -750.000; -685.000
319.912;  -43.375; -424.000; -519.000
320.048;  -85.875;-1184.000;-1184.000
320.184;   60.200;   59.000;   70.000
320.321;  -58.125; -497.000; -467.000
320.457;   56.675;  475.000;  662.000
320.593;  -54.925; -375.000; -382.000
320.729; -119.075; -732.000; -734.000
320.866;  -75.800; -577.000; -635.000
321.002;  -78.625; -759.000; -809.000
321.138;   -5.600; -135.000; -211.000
321.274;   77.625; -148.000; -115.000
321.410;  -18.550; -585.000; -353.000
321.546;   -5.650;-1011.000; -911.000
321.683;   67.200;  400.000;  185.000
321.819;   14.175;  -48.000; -117.000
321.955; -107.700; -743.000; -722.000
322.091;  -43.825; -585.000; -540.000
322.227;    0.100; -382.000; -202.000
322.363;    6.000; -320.000; -215.000
322.499;  -27.475; -343.000; -331.000
322.635;  177.500;  636.000;  443.000
322.771;   44.500; -139.000;   12.000
322.907;  113.025;  129.000;  327.000
323.043;    0.550; -115.000; -206.000
323.179;  -33.075; -394.000; -363.000
323.315;   78.225; -401.000; -371.000
323.451;  147.425; -328.000; -236.000
323.587;   74.950;  -60.000;  -77.000
323.723;   53.825; -682.000; -601.000
323.859;   -8.050; -258.000;  -76.000
323.995;  -27.375; -467.000; -409.000
324.131; -121.250; -967.000; -892.000
324.267;  -38.100; -254.000; -276.000
324.402; -127.350; -960.000; -983.000
324.538;   -3.375; -279.000; -104.000
324.674;   35.950;  164.000;   77.000
324.810;  199.750;  226.000;  308.000
324.946;   33.725; -810.000; -658.000
325.082;  -67.300; -568.000; -475.000
325.217;   -0.150;  -62.000;   16.000
325.353;  -99.675; -764.000; -659.000
325.489;  -81.525; -540.000; -506.000
325.625;  -71.325; -579.000; -525.000
325.760;   51.925;  517.000;  376.000
325.896;  -39.275; -515.000; -702.000
326.032;  -47.525; -403.000; -352.000
326.168;  -62.300; -462.000; -369.000
326.303;  -56.625; -352.000; -461.000
326.439;  -27.300; -336.000; -276.000
326.575;   11.050; -190.000;  -29.000
326.710;   -7.275; -156.000;  -30.000
326.846;  -17.200;  146.000;  103.000
326.982;  -89.100; -530.000; -548.000
327.117;  -69.850; -481.000; -442.000
327.253;  -88.425; -745.000; -742.000
327.388; -112.250;-1137.000;-1153.000
327.524;  -20.750; -811.000; -578.000
327.659;   -7.575;  -58.000;  -22.000
327.795;   -7.925;   69.000;   45.000
327.931;  -91.425; -723.000; -499.000
328.066;  -28.125; -417.000; -276.000
328.202;   -0.375;   12.000; -129.000
328.337;  105.375;  957.000;  713.000
328.473;   58.150;  -12.000;  -74.000
328.608;  -16.000; -256.000; -267.000
328.743;  -65.975; -799.000; -664.000
328.879;   21.175;  214.000;  114.000
329.014;  -31.125; -102.000; -122.000
329.150;  -84.700; -358.000; -483.000
329.285;  -78.525; -465.000; -466.000
329.421;  -41.250; -548.000; -246.000
329.556;  -29.975;  -36.000;   85.000
329.691; -104.625; -633.000; -615.000
329.827;  -76.875; -626.000; -480.000
329.962;  -51.975;  131.000; -301.000
330.097;  -98.000; -673.000; -585.000
330.233;  -54.200; -410.000; -223.000
330.368; -121.475; -839.000; -628.000
330.503;  -12.675;    3.000;   98.000
330.638;    6.325;  -93.000; -125.000
330.774;  -41.700; -609.000; -530.000
330.909;  -28.050; -434.000; -244.000
331.044;  -98.175; -714.000; -708.000
331.179; -182.525;-1217.000;-1109.000
331.315;    5.125;   77.000;   20.000
331.450;   25.050;  157.000;  285.000
331.585;  -83.250; -805.000; -706.000
331.720;  -84.675; -510.000; -460.000
331.855;  -19.900;  -35.000; -102.000
331.990;  166.450;   62.000;  138.000
332.126;   76.200; -110.000;   71.000
332.261;  -29.725; -379.000; -265.000
332.396;    3.550; -135.000; -242.000
332.531; -114.600;-1074.000;-1031.000
332.666;   -3.625; -519.000; -363.000
332.801;  -97.250; -726.000; -807.000
332.936;  -10.825; -192.000; -122.000
333.071; -148.950; -870.000; -817.000
333.206;    9.400;  307.000;  379.000
333.341;   46.525;  344.000;  418.000
333.476;  -78.300; -627.000; -623.000
333.611;  -18.400; -251.000; -173.000
333.746;  -35.850; -381.000; -464.000
333.881; -105.200; -973.000; -935.000
334.016; -115.475; -936.000; -917.000
334.151; -105.100; -746.000; -702.000
334.286;   30.250;  152.000;  186.000
334.421;    5.300; -125.000; -178.000
334.556;  -63.200; -611.000; -567.000
334.690;  -71.925; -631.000; -577.000
334.825;   62.275;  381.000;   83.000
334.960;  -46.875; -285.000; -413.000
335.095;   18.050;  135.000;  -91.000
335.230;  -71.050; -722.000; -738.000
335.365; -126.425;-1084.000; -990.000
335.499; -107.075;-1108.000;-1037.000
335.634;   35.375;    9.000;  534.000
335.769;  -88.675; -755.000; -720.000
335.904;  -30.650; -603.000; -561.000
336.038;  -40.550; -735.000; -657.000
336.173;  -96.775;-1206.000;-1194.000
336.308;   35.775; -116.000; -189.000
336.443;   51.525; -544.000; -634.000
336.577;  -37.125; -936.000; -787.000
336.712;  107.900;   -4.000;  -12.000
336.847;    1.825; -724.000; -607.000
336.981;  131.050; -272.000; -208.000
337.116;  359.725;  615.000;  501.000
337.250;  230.825; -434.000; -421.000
337.385;  160.050; -297.000; -208.000
337.520;   15.125; -632.000; -603.000
337.654;  -41.500; -215.000; -126.000
337.789; -116.300; -989.000; -933.000
337.923;  -15.900; -104.000; -205.000
338.058;  -75.300; -673.000; -738.000
338.192;  -14.050; -611.000; -488.000
338.327;    2.125;  -18.000; -155.000
338.461;  -63.150; -299.000; -469.000
338.596;  -90.050; -780.000; -638.000
338.730; -105.675; -767.000; -803.000
338.865;   41.950;  -46.000; -140.000
338.999;  -69.950; -846.000; -702.000
339.134;  -40.775; -634.000; -536.000
339.268;    4.150; -741.000; -603.000
339.403;  257.950; -740.000; -775.000
339.537;   33.125; -894.000; -820.000
339.671; -126.200; -829.000; -813.000
339.806;  -74.275; -556.000; -512.000
339.940;    0.050; -261.000; -235.000
340.074;  -98.000; -685.000; -510.000
340.209;  -36.875; -351.000; -230.000
340.343;  -74.075; -517.000; -573.000
340.477;  163.425;  998.000; 1036.000
340.612;  -82.100;-1033.000; -900.000
340.746;   71.375; -199.000; -243.000
340.880;  -72.150; -924.000; -785.000
341.014;  -11.825;  -45.000; -154.000
341.149; -111.925; -756.000; -718.000
341.283;  -98.600; -839.000; -754.000
341.417;  -76.975;-1124.000; -938.000
341.551;  239.725; -768.000; -708.000
341.685;  -13.175; -633.000; -611.000
341.820;  -50.375; -562.000; -493.000
341.954;  -41.875; -218.000; -349.000
342.088; -153.375;-1102.000;-1019.000
342.222;   48.525;  565.000;  618.000
342.356;  -50.025; -395.000; -335.000
342.490;  -81.775; -880.000; -841.000
342.624;  -30.325; -339.000; -242.000
342.758;   26.800; -364.000; -312.000
342.892;  -39.350; -710.000; -585.000
343.026;  -32.275;  -58.000; -116.000
343.160;  -54.475; -426.000; -376.000
343.294;  -75.850; -474.000; -337.000
343.428;    0.800; -488.000; -448.000
343.562;   -2.400; -172.000;  -23.000
343.696;   -6.225; -385.000; -314.000
343.830;   12.550; -362.000; -356.000
343.964;   26.000; -231.000; -168.000
344.098; 1205.575;  199.000;   70.000
344.232;  993.825; -266.000; -127.000
344.366;   85.675; -567.000; -453.000
344.500;  110.775; -665.000; -744.000
344.634;   70.900; -324.000; -164.000
344.768;   29.975; -531.000; -341.000
344.902;   47.475;  278.000;  256.000
345.035;  -72.075; -556.000; -496.000
345.169; -133.625; -933.000; -656.000
345.303;  -19.525; -308.000; -482.000
345.437;  -45.025; -826.000; -717.000
345.571;  -81.375; -675.000; -594.000
345.704;  -72.300; -309.000; -532.000
345.838;  -10.800; -331.000; -284.000
345.972;  -34.925; -543.000; -495.000
346.106;  112.400; -179.000; -190.000
346.239;  431.075; -312.000; -243.000
346.373;   22.400; -343.000; -302.000
346.507; -143.900; -950.000; -962.000
346.640;  209.900;  -30.000;   13.000
346.774;  -20.575; -650.000; -797.000
346.908;   -7.275; -138.000;  -11.000
347.041;  -81.775; -646.000; -593.000
347.175;   13.550;  259.000;   27.000
347.309;  -48.150; -698.000; -628.000
347.442;  -81.925; -883.000; -732.000
347.576;  363.350;  670.000;  668.000
347.709;  269.225; -123.000;  -52.000
347.843;  -83.275; -933.000; -825.000
347.976;   36.550;  235.000;  294.000
348.110; -182.425;-1268.000;-1186.000
348.243; -101.925; -679.000; -772.000
348.377;    7.475;  -26.000;   60.000
348.510;   61.175;  403.000;  540.000
348.644;   -7.100;  -37.000; -159.000
348.777;   10.650;  180.000;  191.000
348.911;  -49.725; -142.000; -112.000
349.044;  210.175;  471.000;  448.000
349.178;  246.800;-1069.000;-1006.000
349.311;  115.650;  141.000;  255.000
349.444;  -26.275; -927.000; -813.000
349.578;  -17.200; -347.000; -200.000
349.711;  -68.250; -959.000; -862.000
349.845;   28.300; -661.000; -591.000
349.978; -142.000;-1224.000;-1137.000
350.111;  -79.600; -546.000; -612.000
350.244;  -58.900; -596.000; -700.000
350.378;   14.675; -392.000; -393.000
350.511;  -66.075; -393.000; -426.000
350.644; -103.700; -808.000; -806.000
350.778;    8.775;  168.000;  104.000
350.911;    9.025;  134.000;  140.000
351.044;  -83.475; -685.000; -615.000
351.177;  -16.225; -321.000; -281.000
351.310;   -6.450;    3.000; -131.000
351.444;  -47.875; -888.000; -788.000
351.577;  162.500;  140.000;   90.000
351.710;  115.500;  593.000;  417.000
351.843;  -31.175; -165.000;  -77.000
351.976;    7.650;  149.000;  -79.000
352.109;  -69.575; -621.000; -612.000
352.242;    8.100; -464.000; -419.000
352.376;  -34.075; -580.000; -636.000
352.509;  268.875; -437.000; -356.000
352.642;   68.725; -654.000; -604.000
352.775;   88.200; -141.000;  -98.000
352.908; -107.525; -933.000; -904.000
353.041;  -95.175; -814.000; -824.000
353.174;  -44.525; -551.000; -424.000
353.307;  -79.100; -753.000; -764.000
353.440;   95.200;  541.000;  453.000
353.573;  -98.875; -957.000;-1008.000
353.706;  -36.925; -384.000; -558.000
353.839;   -3.925; -264.000; -220.000
353.971;  -71.400; -657.000; -512.000
354.104;  -87.875; -896.000; -835.000
354.237;  -22.250; -627.000; -662.000
354.370;  -76.675; -846.000; -879.000
354.503; -173.600;-1231.000;-1308.000
354.636;  -24.475; -529.000; -348.000
354.769; -112.025; -937.000; -860.000
354.902;   15.075; -230.000; -139.000
355.034;    0.700; -164.000; -220.000
355.167;  -18.450; -262.000; -162.000
355.300;  -94.400;-1061.000; -880.000
355.433;  720.625;  -71.000;  -14.000
355.565; 1094.050; -402.000; -384.000
355.698;  275.950; -356.000; -296.000
355.831;    4.025; -882.000; -801.000
355.964;  143.225; -285.000; -170.000
356.096;  -77.050; -856.000; -843.000
356.229;   40.150; -523.000; -530.000
356.362;  228.350; -373.000; -266.000
356.494;  440.775; -229.000; -162.000
356.627;  576.250;  269.000;  377.000
356.760;  544.950;  120.000;   53.000
356.892;  677.200; -286.000; -601.000
357.025;  825.075;  403.000;  389.000
357.157;  779.300; -167.000; -179.000
357.290;  422.950; -856.000; -713.000
357.423;  154.200; -667.000; -556.000
357.555;  147.150; -217.000; -228.000
357.688;  170.225; -483.000; -364.000
357.820;  544.600; -870.000; -877.000
357.953; 4239.300; -563.000; -589.000
358.085; 1020.850; -632.000; -612.000
358.218; 1792.900;-1131.000; -932.000
358.350;  323.050;  -58.000;  312.000
358.483;  -92.975;-1300.000;-1187.000
358.615;   35.875;-1182.000;-1078.000
358.747;    0.625;-1187.000;-1058.000
358.880;   63.900; -810.000; -744.000
359.012;    5.375; -376.000; -202.000
359.145;  -34.100; -480.000; -511.000
359.277;   89.600; -962.000; -913.000
359.409; 3599.050;  536.000;  231.000
359.542;  932.275; -738.000; -688.000
359.674;   92.575;   46.000;   13.000
359.806;  -46.750; -565.000; -438.000
359.939;  -42.050; -617.000; -516.000
360.071;  -34.425; -583.000; -579.000
360.203;  -29.275; -411.000; -364.000
360.335;   78.800;  164.000;  -16.000
360.468;  209.225; -249.000; -307.000
360.600; 2750.600; -547.000; -454.000
360.732; 1982.975; -546.000; -423.000
360.864;  270.225;-1216.000;-1044.000
360.996;  419.450; -516.000; -554.000
361.129;   89.725; -389.000; -598.000
361.261;   19.625;  110.000; -113.000
361.393;  -21.500; -252.000; -214.000
361.525;   52.650;   94.000;  244.000
361.657;  -38.700; -821.000; -703.000
361.789;   26.350; -139.000; -155.000
361.921;  380.175; -642.000; -593.000
362.053;  332.000;  524.000;  541.000
362.185;   68.775;  288.000;   72.000
362.318;  -55.200; -709.000; -705.000
362.450;  211.050;  294.000;  444.000
362.582;  291.800; -913.000; -870.000
362.714;  -19.625; -353.000; -332.000
362.846;  -88.900; -606.000; -490.000
362.978; -132.425; -941.000; -811.000
363.109;   73.650; -161.000; -260.000
363.241;  583.875; -739.000; -749.000
363.373;  329.575; -649.000; -564.000
363.505;  455.850; -186.000;  -91.000
363.637;  108.850; -787.000; -601.000
363.769; -114.325;-1067.000;-1080.000
363.901;  -53.775; -596.000; -654.000
364.033; -114.625;-1103.000;-1062.000
364.165;    6.225; -283.000; -283.000
364.296;   53.325; -316.000; -177.000
364.428;   -4.050;-1344.000;-1220.000
364.560;  -86.850; -679.000; -661.000
364.692;  -64.775; -738.000; -835.000
364.824;  443.600; -588.000; -456.000
364.955;  407.825; -402.000; -564.000
365.087;  481.850;-1097.000; -852.000
365.219;  -13.850; -686.000; -816.000
365.351;  -75.775; -526.000; -572.000
365.482;   69.800;  300.000;  240.000
365.614;  -34.350; -402.000; -314.000
365.746;  -94.075; -729.000; -752.000
365.877; -116.000; -706.000; -672.000
366.009;  168.100;  -35.000;  -62.000
366.141; -120.000;-1249.000;-1134.000
366.272; -110.725; -803.000; -719.000
366.404; -103.175;-1005.000; -874.000
366.535;  -15.600; -139.000;  -12.000
366.667;  -90.625; -644.000; -649.000
366.799;   42.900;  353.000;  203.000
366.930; -100.650; -862.000; -996.000
367.062;  101.175; -639.000; -613.000
367.193;   65.275; -872.000; -842.000
367.325;  -57.800; -580.000; -684.000
367.456;  129.100; -246.000;   31.000
367.588;  117.525; -371.000; -318.000
367.719;   17.125;  -44.000;  -45.000
367.851;  -17.900; -222.000; -241.000
367.982;   -9.200; -875.000; -732.000
368.113;  160.725; -475.000; -358.000
368.245; -111.975; -960.000; -841.000
368.376;   -3.675; -254.000; -302.000
368.508;  -27.525; -188.000; -263.000
368.639; -138.075;-1166.000;-1034.000
368.770;   19.125; -670.000; -589.000
368.902;  -32.975; -836.000; -926.000
369.033;  -96.550; -906.000; -855.000
369.164;  -58.150; -720.000; -653.000
369.296; -100.350; -452.000; -601.000
369.427;   17.825; -209.000; -144.000
369.558;  -19.025; -593.000; -377.000
369.689;  -81.100; -721.000; -569.000
369.821; -131.725; -951.000; -845.000
369.952;   -1.575;   42.000; -108.000
370.083;  -42.250; -229.000; -108.000
370.214; -101.025; -735.000; -650.000
370.345;   -2.600;   65.000;   81.000
370.477;  -82.225; -810.000; -790.000
370.608;  337.450; -328.000; -264.000
370.739;  -10.325;-1233.000;-1292.000
370.870;    3.450;-1102.000; -923.000
371.001;  153.725; -378.000; -467.000
371.132;  -53.250; -754.000; -735.000
371.263;  -21.900;  -42.000; -148.000
371.394; -131.925; -841.000; -748.000
371.525;   41.125;  345.000;  225.000
371.657;  -83.975; -808.000; -670.000
371.788;  105.275;  103.000;  199.000
371.919;  255.800; -384.000; -304.000
372.050; 4662.400;  -91.000; -156.000
372.181; 1353.100; -188.000; -294.000
372.311;  510.750;   42.000; -127.000
372.442;   77.600; -457.000; -451.000
372.573;  -18.175; -444.000; -340.000
372.704;  -95.825;-1008.000; -980.000
372.835;  127.075; -228.000; -289.000
372.966;  -38.075; -646.000; -554.000
373.097;  -34.725; -575.000; -711.000
373.228;   -4.400; -717.000; -542.000
373.359;  226.250; -824.000; -536.000
373.490; 1305.950; -881.000; -727.000
373.620; 1604.150;-1001.000; -803.000
373.751; 2458.150; -332.000; -396.000
373.882; 1109.350; -663.000; -733.000
374.013;  126.550; -449.000; -262.000
374.143;  -17.475; -581.000; -659.000
374.274;  -86.125; -987.000; -908.000
374.405;  224.550; -388.000; -276.000
374.536;  632.250; -526.000; -387.000
374.666; 1585.125; -759.000; -807.000
374.797;  332.200; -817.000; -868.000
374.928; 1250.900; -710.000; -560.000
375.058; 1216.750; -535.000; -500.000
375.189;  108.325;  -59.000;  -93.000
375.320;  -91.025; -928.000;-1034.000
375.450;  -26.750; -625.000; -616.000
375.581;  -35.550; -526.000; -436.000
375.712;  -34.200; -574.000; -250.000
375.842;  426.875; -438.000; -415.000
375.973;  317.575; -554.000; -513.000
376.103;    6.400; -665.000; -648.000
376.234;  -71.250; -531.000; -552.000
376.364;   -1.850; -944.000; -867.000
376.495;  410.475;  925.000;  529.000
376.625;   62.875; -472.000; -485.000
376.756;  117.625; -709.000; -678.000
376.886;  -47.925;-1178.000;-1026.000
377.017;  -13.700;-1048.000;-1061.000
377.147;  195.000; -786.000; -782.000
377.278;   61.475;  174.000;  228.000
377.408; -119.750; -801.000; -815.000
377.538; -105.375; -707.000; -693.000
377.669;  -81.175; -537.000; -613.000
377.799;  -59.925; -645.000; -635.000
377.929;  -18.950; -610.000; -428.000
378.060; -124.250; -781.000; -847.000
378.190;  -60.150; -726.000; -531.000
378.320;  -39.425; -401.000; -406.000
378.451;   10.700; -131.000;  -22.000
378.581;    9.000;  -67.000; -110.000
378.711;  203.150; 1035.000;  866.000
378.841;    9.350; -533.000; -675.000
378.972;  -55.225; -871.000; -751.000
379.102;   36.650; -652.000; -579.000
379.232;   10.100; -126.000;  -73.000
379.362;  -93.100;-1001.000; -885.000
379.492;   48.100; -373.000; -424.000
379.623;  146.000;    0.000;  111.000
379.753;  -71.425;-1107.000; -974.000
379.883;  241.800;   59.000;  156.000
380.013;   48.600;-1081.000;-1017.000
380.143;  -95.625;-1097.000;-1056.000
380.273;  -82.775; -985.000; -861.000
380.403;   12.650; -344.000; -257.000
380.533;    1.225; -651.000; -664.000
380.663;  116.950;  173.000;  128.000
380.793;  -67.200;-1027.000;-1074.000
380.923;   -2.100; -103.000;  -34.000
381.053;  -75.900; -613.000; -623.000
381.183;  -10.850; -106.000; -248.000
381.313;   93.575; -656.000; -470.000
381.443;   82.375; -692.000; -473.000
381.573;  309.450; -402.000; -409.000
381.703;  464.175;-1249.000;-1095.000
381.833;  -93.150;-1454.000;-1336.000
381.963;  135.475; -134.000;  -87.000
382.093; 1723.875; -925.000; -909.000
382.223;  533.200; -713.000; -602.000
382.353;   15.325; -801.000; -608.000
382.482;  565.925;-1091.000; -964.000
382.612;  985.300; -872.000; -644.000
382.742;  539.275; -695.000; -622.000
382.872;  388.875; -565.000; -551.000
383.002;   86.475;  347.000; -132.000
383.131;   -9.650; -226.000; -160.000
383.261;  -39.225; -706.000; -768.000
383.391;  260.025; -552.000; -377.000
383.521; 2173.100;  451.000;  263.000
383.650;  410.275; -947.000; -904.000
383.780;  -40.250; -783.000; -656.000
383.910;   98.275;  880.000;  802.000
384.039;   57.675; -794.000; -656.000
384.169;  341.550;-1205.000;-1017.000
384.299;    3.400; -650.000; -662.000
384.428;  -67.925; -764.000; -680.000
384.558;  -36.475; -308.000; -275.000
384.687;   -6.650; -414.000; -334.000
384.817;   34.950;   75.000;   -2.000
384.947;   64.075; -234.000; -141.000
385.076;  341.325;  982.000;  912.000
385.206;  139.125;  369.000;  480.000
385.335;  -14.375; -549.000; -417.000
385.465;  -56.825; -655.000; -663.000
385.594;  209.375;  -53.000;  -44.000
385.724;  636.175; -868.000; -838.000
385.853;  185.450; -296.000; -270.000
385.982; 1893.700; -743.000; -787.000
386.112; 2898.775;-1052.000; -871.000
386.241;  205.025; -307.000; -312.000
386.371;   45.625; -174.000;  -87.000
386.500;   30.925; -825.000; -789.000
386.629;   34.400; -874.000; -817.000
386.759;   69.400;  -43.000;   68.000
386.888;   34.225; -170.000; -250.000
387.017;  -47.575; -648.000; -620.000
387.147;  -51.200; -771.000; -798.000
387.276;   32.125; -410.000; -397.000
387.405;   51.450; -398.000; -342.000
387.535;  -19.175; -452.000; -361.000
387.664;  -57.250; -692.000; -620.000
387.793;  101.675; -198.000; -113.000
387.922;  730.850;  255.000;  200.000
388.052;   81.400; -576.000; -423.000
388.181;   86.075; -342.000; -472.000
388.310;  102.675; -889.000; -710.000
388.439;    0.775; -749.000; -742.000
388.568;  292.975;  365.000;  244.000
388.697; 1510.250; -756.000; -653.000
388.826;  306.200; -768.000; -666.000
388.956;  105.975; -285.000; -307.000
389.085;  -11.850; -347.000; -287.000
389.214; -100.100; -842.000; -872.000
389.343;  -53.025; -645.000; -413.000
389.472;  320.350;  126.000;  149.000
389.601;  471.650;   91.000;    0.000
389.730;   54.275; -568.000; -687.000
389.859;   98.150;  226.000;   46.000
389.988;  276.875; -423.000; -408.000
390.117;  210.125; -168.000; -146.000
390.246;   18.600; -331.000; -320.000
390.375;  188.600; -673.000; -626.000
390.504;  -47.050; -703.000; -621.000
390.633;  -79.550; -672.000; -726.000
390.761;  -37.250; -732.000; -645.000
390.890;   79.425;   -4.000; -130.000
391.019;    8.775; -421.000; -441.000
391.148; -121.700; -826.000; -855.000
391.277;  -47.900; -576.000; -493.000
391.406;  -33.025; -821.000; -805.000
391.534;   44.400;  574.000; -301.000
391.663;  -22.600; -583.000; -645.000
391.792;  -76.475; -673.000; -701.000
391.921;  206.725;   -3.000;   15.000
392.050;  338.425; -287.000; -228.000
392.178;   25.675;-1206.000;-1061.000
392.307;  236.375; -758.000; -712.000
392.436;  136.525; -427.000; -641.000
392.564;   26.975;  166.000;   -6.000
392.693;  -73.225; -860.000; -682.000
392.822;  309.000; -529.000; -534.000
392.950;  169.625; -880.000; -714.000
393.079;  470.225; -188.000; -328.000
393.208;   70.350; -488.000; -511.000
393.336;   -7.350; -170.000; -145.000
393.465;  -48.225; -317.000; -199.000
393.593;   18.975;   62.000;   79.000
393.722; -155.850;-1121.000; -916.000
393.850;  -28.150; -188.000;  -61.000
393.979; -169.075; -926.000; -805.000
394.107;  -64.300; -517.000; -537.000
394.236;  -20.325; -570.000; -507.000
394.364;  205.475;  383.000;  206.000
394.493;  307.575; -911.000; -767.000
394.621;  -34.125; -955.000; -916.000
394.750;  494.850; -873.000; -923.000
394.878; 2200.450; -247.000; -149.000
395.007; 2898.225; -721.000; -807.000
395.135;  182.775; -790.000; -721.000
395.263;  -93.075;-1038.000;-1040.000
395.392;    6.475;  -25.000; -107.000
395.520; -135.525; -818.000; -679.000
395.648;  -71.400; -865.000; -915.000
395.777;   14.775; -366.000; -405.000
395.905;  -42.025; -449.000; -564.000
396.033;   22.625;  217.000;  172.000
396.162;  503.150; -399.000; -453.000
396.290;  452.575;  -17.000;   -2.000
396.418;  155.700; -555.000; -514.000
396.546;  -61.325; -571.000; -466.000
396.674;  -99.450; -850.000; -878.000
396.803;   30.775;  -72.000;  -23.000
396.931;  160.825; -179.000; -199.000
397.059;  142.600;-1026.000; -989.000
397.187;  -89.175;-1026.000; -975.000
397.315; -121.500; -884.000; -649.000
397.443;  -91.575; -592.000; -443.000
397.572;  -92.500; -578.000; -424.000
397.700;   34.300; -607.000; -614.000
397.828;   21.575;  120.000;  -90.000
397.956;  -58.000; -508.000; -478.000
398.084;  -70.050; -767.000; -626.000
398.212;   56.625;  137.000;  124.000
398.340;   33.775;  -56.000;  159.000
398.468;   65.150; -390.000; -169.000
398.596; -134.225; -993.000; -953.000
398.724; -113.875; -762.000; -767.000
398.852; -165.100;-1024.000; -976.000
398.980;  -52.350; -560.000; -560.000
399.108;  -29.775; -982.000; -735.000
399.236;   55.400;   13.000;    8.000
399.363;   14.900;  222.000;  196.000
399.491;  -50.400; -404.000; -398.000
399.619; -117.100; -829.000; -800.000
399.747;  -83.025; -859.000; -771.000
399.875;  108.025;  220.000;  234.000
400.003;  -41.425; -359.000; -284.000
400.130;  -79.400; -421.000; -341.000
400.258;  -35.100;  -83.000;   38.000
400.386;  -61.400; -352.000; -168.000
400.514;  -11.525; -526.000; -587.000
400.641;  -64.625; -928.000; -802.000
400.769; -132.975; -979.000; -888.000
400.897;  -75.625; -838.000; -793.000
401.025;   -1.475; -166.000; -152.000
401.152;   -4.400;  220.000;   38.000
401.280;  -85.575; -430.000; -429.000
401.408; -109.775; -712.000; -576.000
401.535;  -96.875; -735.000; -758.000
401.663; -188.325;-1134.000;-1054.000
401.790;  -71.050; -514.000; -525.000
401.918;   50.875;  436.000;  405.000
402.046;  -19.625;  134.000;  122.000
402.173;  -43.425;  -18.000;    7.000
402.301;  -64.650; -519.000; -397.000
402.428;   44.675;  528.000;  383.000
402.556; -147.500;-1188.000; -913.000
402.683;  -26.550;  -20.000;   -1.000
402.811;  -12.250;  -37.000; -206.000
402.938;    1.000;   20.000;   27.000
403.066;  306.500; -574.000; -558.000
403.193;  465.600;  299.000;  239.000
403.321;  370.500; -396.000; -574.000
403.448;  433.350;   83.000;   27.000
403.575;  223.650;  -90.000;  -46.000
403.703;  -96.875; -732.000; -557.000
403.830;  -59.525; -531.000; -496.000
403.957; -136.500;-1117.000;-1023.000
404.085;   10.225;  -61.000; -172.000
404.212;  121.425;  -50.000;   63.000
404.339;  206.300; -566.000; -306.000
404.467; 4198.675; -612.000; -524.000
404.594; 3226.050; -287.000; -227.000
404.721;  927.975; -869.000; -764.000
404.848;   80.475; -113.000; -202.000
404.976;  -87.250; -856.000; -783.000
405.103;   -6.750;  -14.000;  -82.000
405.230;   14.575;  190.000;  226.000
405.357;   27.300;  117.000;   44.000
405.484;  207.275;  -49.000;    5.000
405.612;   34.350; -548.000; -563.000
405.739;  -63.375; -488.000; -243.000
405.866;   86.625;  669.000;  385.000
405.993;  -34.825; -398.000; -102.000
406.120; -129.675; -801.000; -887.000
406.247;  -49.075; -323.000; -342.000
406.374;  623.775;  540.000;  629.000
406.501;  203.400; -632.000; -702.000
406.628;  -73.300; -621.000; -589.000
406.755;  -75.125; -803.000; -620.000
406.882;  -26.225; -228.000; -277.000
407.009; -102.725; -719.000; -628.000
407.136;  105.725; -480.000; -401.000
407.263;  240.275; -939.000; -829.000
407.390;  -57.250; -692.000; -614.000
407.517; -152.150;-1139.000;-1187.000
407.644;  -64.175; -332.000; -256.000
407.771;  -60.225; -249.000; -287.000
407.898;   12.800;  168.000;  328.000
408.025;  -54.075; -421.000; -313.000
408.151;  -18.575;   82.000;  153.000
408.278;  -61.700; -267.000; -216.000
408.405;  -99.200; -931.000; -899.000
408.532;  -68.000; -549.000; -542.000
408.659; -122.475; -677.000; -648.000
408.785; -192.950;-1298.000;-1170.000
408.912;  -69.325; -412.000; -296.000
409.039; -115.275; -610.000; -686.000
409.166; -111.325; -591.000; -555.000
409.292; -106.250; -571.000; -534.000
409.419; -120.400; -665.000; -649.000
409.546; -102.875; -431.000; -192.000
409.672; -116.100; -713.000; -545.000
409.799;  -14.350;  -36.000;   34.000
409.926;  -48.125; -180.000; -179.000
410.052; -177.425;-1127.000;-1091.000
410.179;  -48.100; -368.000; -392.000
410.305;  -68.200; -375.000; -493.000
410.432;  -42.875; -220.000; -333.000
410.558;  -82.000; -305.000; -380.000
410.685; -116.525; -688.000; -431.000
410.812;  -99.925; -409.000; -588.000
410.938; -146.475; -964.000; -808.000
411.065;  -91.975; -671.000; -645.000
411.191;  -21.350; -189.000; -174.000
411.317; -119.550; -823.000; -742.000
411.444;  -68.450; -317.000; -246.000
411.570;  -66.975; -339.000; -294.000
411.697; -136.700; -758.000; -752.000
411.823; -170.225; -989.000; -999.000
411.949;  -30.200;  -56.000;   17.000
412.076; -108.550; -539.000; -519.000
412.202; -103.800; -758.000; -757.000
412.329; -125.875; -798.000; -752.000
412.455; -116.475; -821.000; -657.000
412.581;  -18.175;  -15.000;  172.000
412.707;  -62.475; -540.000; -457.000
412.834;   15.200;  156.000;  219.000
412.960;  -94.375; -785.000; -784.000
413.086; -104.800; -743.000; -701.000
413.212;  207.075;  604.000;  578.000
413.339;  -42.025; -685.000; -701.000
413.465;   25.650; -364.000; -310.000
413.591;  -64.225; -757.000; -474.000
413.717;  -46.400; -358.000; -366.000
413.843; -134.425; -839.000; -861.000
413.969;  -63.350;  -47.000; -292.000
414.096; -100.850; -679.000; -679.000
414.222;  -15.250;  -33.000;   85.000
414.348;   14.100; -652.000; -385.000
414.474;  149.575;   38.000;  -52.000
414.600;  -19.500; -126.000; -144.000
414.726;  -25.750;  -96.000;  -55.000
414.852;  -58.125; -365.000; -342.000
414.978;   26.200;  104.000;  -18.000
415.104;   33.600;   38.000;   80.000
415.230;   -3.900; -329.000; -330.000
415.356;   42.100; -409.000; -514.000
415.482;  178.575;   13.000;  -35.000
415.608;  230.900; -247.000; -323.000
415.734;  793.225;   67.000;   38.000
415.860;16423.850; -875.000; -767.000
415.986;11346.450; -685.000; -607.000
416.111;  924.975; -798.000; -652.000
416.237;  184.425; -424.000; -571.000
416.363;  813.125; -765.000; -733.000
416.489; 2980.400; -324.000; -251.000
416.615;  280.700; -707.000; -742.000
416.741;  -65.650; -677.000; -784.000
416.866; -104.475; -673.000; -736.000
416.992; -136.050; -801.000; -818.000
417.118;  -40.275;  -41.000;  -80.000
417.244;  -64.950; -798.000; -531.000
417.369;  -86.975; -801.000; -612.000
417.495;    3.325; -325.000; -254.000
417.621;  -68.775;-1015.000; -803.000
417.746;   -4.875; -579.000; -572.000
417.872;   28.775; -254.000; -144.000
417.998;   16.450; -515.000; -530.000
418.123;  772.475;-1073.000; -845.000
418.249; 3973.750; -512.000; -601.000
418.374;  495.125; -916.000; -824.000
418.500;   62.350; -383.000; -482.000
418.626;   79.450;   70.000;  -59.000
418.751;   85.625; -549.000; -448.000
418.877;  139.575; -637.000; -643.000
419.002; 1364.750; -688.000; -560.000
419.128; 9298.150; -930.000; -721.000
419.253; 2135.750; -967.000; -837.000
419.379;  279.250; -391.000; -338.000
419.504;  305.450;  325.000;  415.000
419.629;  356.800; -393.000; -212.000
419.755; 2519.775; -317.000; -254.000
419.880;14390.100;  -98.000;   67.000
420.006; 8569.050; -280.000; -221.000
420.131;22621.850; -662.000; -775.000
420.256; 3178.425; -315.000; -316.000
420.382;  405.950; -665.000; -687.000
420.507;   44.925; -649.000; -778.000
420.632;  209.175; -337.000; -339.000
420.758;  382.400; -251.000; -425.000
420.883;  -69.275; -876.000; -672.000
421.008;  -95.400; -775.000; -619.000
421.133;  -86.200; -509.000; -467.000
421.259;  -38.950; -325.000; -259.000
421.384;  -96.725; -834.000; -693.000
421.509;   11.325;-1052.000; -862.000
421.634; 1899.450; -936.000; -820.000
421.759;  780.975; -359.000; -327.000
421.885;  -31.450; -717.000; -656.000
422.010;  -57.900; -673.000; -542.000
422.135; -139.825; -695.000; -727.000
422.260;   39.075;  340.000;  280.000
422.385;  -32.125;   12.000;  -98.000
422.510;   -5.000;  151.000;  -26.000
422.635;   40.625;  -87.000;  -43.000
422.760;  110.575; -766.000; -791.000
422.885;   49.500;  -57.000;  -80.000
423.010;  -32.800; -112.000; -169.000
423.135;  -81.875; -481.000; -561.000
423.260;    3.900; -150.000; -245.000
423.385;   94.175;  476.000;  222.000
423.510;   32.225;   71.000;  -22.000
423.635;  107.175;  133.000;   45.000
423.760;   56.200;  383.000;  328.000
423.885;   47.375;  336.000;  391.000
424.010;   19.400;  -68.000;  -13.000
424.135;  -30.450;    5.000;  -33.000
424.259;  -80.750; -654.000; -457.000
424.384;  -69.725; -279.000; -272.000
424.509;  -30.025; -260.000; -186.000
424.634; -108.450; -761.000; -623.000
424.759;  -42.525; -688.000; -544.000
424.883;  -27.025; -506.000; -527.000
425.008;  135.300; -502.000; -410.000
425.133; 1524.900; -679.000; -653.000
425.258;  675.250; -517.000; -381.000
425.382; 1311.675; -867.000; -774.000
425.507; 3307.475; -487.000; -543.000
425.632;  449.425; -802.000; -663.000
425.756;  328.100; -256.000; -146.000
425.881; 4373.525; -831.000; -857.000
426.006;11095.325; -604.000; -355.000
426.130; 1786.600; -696.000; -508.000
426.255;  223.125; -611.000; -491.000
426.379;   90.750; -189.000; -577.000
426.504;  297.450;  660.000;  544.000
426.629; 3344.975; -519.000; -466.000
426.753; 2176.150;   64.000;  -46.000
426.878;  244.775; -252.000; -288.000
427.002;  152.000; -651.000; -668.000
427.127; 1304.450;  -35.000; -158.000
427.251; 8540.600;  372.000;  401.000
427.375; 2362.175; -191.000; -173.000
427.500; 2804.925; -616.000; -610.000
427.624;  947.325; -234.000; -400.000
427.749;  126.075; -216.000; -225.000
427.873;  -11.850; -499.000; -412.000
427.997;  -34.900; -222.000; -230.000
428.122;   73.750;  795.000;  703.000
428.246;  101.000;  433.000;  434.000
428.371; -127.250; -869.000; -773.000
428.495;  -97.500; -624.000; -646.000
428.619;  -23.475; -186.000; -117.000
428.743;   40.025;   65.000;  132.000
428.868;   76.175; -732.000; -643.000
428.992; 1868.775; -219.000; -326.000
429.116;  763.150; -329.000; -357.000
429.240;  384.275;  419.000;  426.000
429.365;   -0.875; -454.000; -574.000
429.489;  -34.975; -638.000; -647.000
429.613;   27.050; -236.000; -177.000
429.737;   33.600; -563.000; -432.000
429.861;  231.575; -247.000; -133.000
429.985; 4355.400; -425.000; -305.000
430.109; 4531.100; -770.000; -908.000
430.234;  527.950;   76.000;  -50.000
430.358;   39.850; -250.000; -160.000
430.482;  -69.525; -672.000; -564.000
430.606;  -58.800; -655.000; -375.000
430.730;   48.400; -437.000; -388.000
430.854;  236.200; -909.000; -835.000
430.978;  -44.875; -795.000; -764.000
431.102;  -57.625; -499.000; -422.000
431.226;  -80.325; -874.000; -815.000
431.350;   54.800;  345.000;  422.000
431.474;  -54.250; -661.000; -373.000
431.597; -154.500;-1060.000; -848.000
431.721;  -93.025; -276.000; -267.000
431.845; -135.050; -704.000; -472.000
431.969;  -84.425; -304.000; -349.000
432.093;  -96.325; -395.000; -317.000
432.217;  -18.700;   32.000;   82.000
432.341;  -83.500; -523.000; -518.000
432.464;   24.800;   96.000;   40.000
432.588;  311.525; -401.000; -329.000
432.712;  128.225;  -52.000;  -52.000
432.836;   35.025;  213.000;  263.000
432.959;  -37.800; -372.000; -311.000
433.083;   48.275;   11.000;    2.000
433.207;  297.900;  285.000;  930.000
433.330; 3710.325; -391.000; -200.000
433.454; 4429.075; -654.000; -638.000
433.578; 2635.700;  583.000;  278.000
433.701;  487.400; -623.000; -675.000
433.825;  210.550; -292.000; -299.000
433.949;  343.300;   28.000;  -72.000
434.072;  156.400; -410.000; -323.000
434.196;   -9.250; -309.000; -117.000
434.319; 3794.000;25482.000;25124.000
434.443;  740.100; -656.000; -603.000
434.566; 2042.725;  281.000;   62.000
434.690;  282.900; -637.000; -383.000
434.813;   46.725; -251.000; -173.000
434.937;  -61.175; -569.000; -696.000
435.060;    2.650; -423.000; -332.000
435.184;  618.050; -492.000; -217.000
435.307;  299.950;  159.000;  102.000
435.431;   12.350;  -40.000;   24.000
435.554;  -77.250; -399.000; -240.000
435.677;  -87.050; -350.000; -258.000
435.801;  -36.125;  -25.000;   49.000
435.924;   20.650;    1.000;  -67.000
436.048;  -62.150;-1019.000; -732.000
436.171;  -70.725; -240.000;  -66.000
436.294;  -27.575; -248.000; -229.000
436.417;   16.200; -963.000; -849.000
436.541; -102.850; -814.000; -840.000
436.664;  -55.375; -242.000; -316.000
436.787;  -17.825;   13.000;  113.000
436.910; -102.275; -792.000; -422.000
437.034;   23.025;  142.000;  143.000
437.157;  129.375;  -11.000;    0.000
437.280;  -15.800; -392.000; -292.000
437.403;  -45.875; -982.000; -869.000
437.526; 1154.750; -903.000; -865.000
437.649; 3702.275; -505.000; -332.000
437.772;  599.375; -692.000; -540.000
437.896;  161.600;  700.000;  544.000
438.019;  -81.400; -758.000; -503.000
438.142;  -76.675; -596.000; -506.000
438.265;   62.825; -639.000; -670.000
438.388;  872.875; -520.000; -410.000
438.511;  224.000; -597.000; -394.000
438.634;  -33.575; -247.000; -125.000
438.757; -120.075; -693.000; -619.000
438.880;  -17.375;  -34.000;  -57.000
439.003;  -74.000; -417.000; -437.000
439.126;  -60.375; -287.000; -167.000
439.248;  -57.650;  -98.000; -139.000
439.371;  -52.725;    9.000;  -53.000
439.494;   18.650;  510.000;  439.000
439.617;  -48.450;   65.000;  -88.000
439.740; -177.725; -968.000; -816.000
439.863; -149.475; -755.000; -595.000
439.986; -130.050; -476.000; -431.000
440.108;  -57.325; -161.000; -112.000
440.231; -154.900; -950.000; -836.000
440.354;  -29.900;  -64.000; -150.000
440.477;  106.075; -566.000; -542.000
440.599;   43.825; -200.000; -225.000
440.722; -123.350; -709.000; -586.000
440.845;   63.625;  751.000;  928.000
440.968;  -99.900; -415.000; -311.000
441.090;  -61.400; -199.000;  -33.000
441.213; -171.050;-1021.000; -825.000
441.336;  -58.875; -159.000;   -5.000
441.458;  -69.325; -549.000; -396.000
441.581;  -79.500; -628.000; -629.000
441.703;  -62.050; -152.000;   13.000
441.826; -117.625; -557.000; -400.000
441.948;  -48.550;   56.000;   51.000
442.071;   38.900;  555.000;  424.000
442.193; -116.150; -531.000; -485.000
442.316;   19.325;  152.000;   97.000
442.438;   34.725; -233.000;  -10.000
442.561;   99.100;  272.000;  262.000
442.683;  956.875; -809.000; -522.000
442.806; 1818.725;   -8.000;   74.000
442.928;  109.650; -859.000; -604.000
443.051;  -46.875; -577.000; -373.000
443.173;  -89.075; -341.000; -339.000
443.295;  -96.350; -263.000; -371.000
443.418;  -67.125; -321.000;  -29.000
443.540;   11.325; -106.000;   -4.000
443.662; -115.350; -563.000; -465.000
443.785;  -20.125;  335.000;  199.000
443.907; -108.800; -362.000; -208.000
444.029; -135.000; -767.000; -494.000
444.152; -149.000; -644.000; -554.000
444.274;  -37.225;  -18.000;  -24.000
444.396;  -98.600; -461.000; -221.000
444.518; -158.875; -691.000; -454.000
444.640; -108.475; -268.000; -111.000
444.763;  -28.875;  388.000;  249.000
444.885; -121.950; -432.000; -392.000
445.007;  -37.900;   35.000;   86.000
445.129; -116.050; -610.000; -515.000
445.251;  -98.875; -372.000; -439.000
445.373; -140.725; -537.000; -386.000
445.495;    6.575;  242.000;  350.000
445.617;   58.625;  853.000;  753.000
445.739;  -71.275; -215.000;  -97.000
445.861;  -17.825; -245.000; -112.000
445.984;  -34.125; -267.000; -101.000
446.105;  330.025; -418.000; -251.000
446.227;  889.375; -176.000;  -19.000
446.349;   37.325; -358.000; -249.000
446.471;  -93.475; -615.000; -448.000
446.593;  -49.150; -316.000;   19.000
446.715;   16.925;  -67.000;   41.000
446.837;   63.300;  697.000;  832.000
446.959; -102.050; -457.000; -478.000
447.081; -130.475; -628.000; -518.000
447.203;   42.950;  862.000;  834.000
447.325;  -97.025; -270.000;   42.000
447.446;    5.150;  286.000;  530.000
447.568; -143.100; -921.000; -803.000
447.690;  -75.950; -236.000; -245.000
447.812; -164.500; -798.000; -519.000
447.933;  -34.650;  155.000;  127.000
448.055;  -70.450; -306.000; -261.000
448.177;  202.500;   31.000;   79.000
448.299;  159.475; -935.000; -727.000
448.420;   21.325;  -25.000;  159.000
448.542;  -59.375;   -3.000;   33.000
448.664;  -28.525;  109.000;  322.000
448.785;  -40.925;  265.000;   83.000
448.907;  -60.225; -614.000; -353.000
449.028;   -9.975; -771.000; -471.000
449.150;   62.725;  492.000;  589.000
449.272; -172.950;-1044.000; -913.000
449.393;   28.075;  612.000;  694.000
449.515; -129.600; -634.000; -581.000
449.636;  -44.175; -264.000; -155.000
449.758;   96.175;  763.000;  622.000
449.879;  -93.775; -498.000; -396.000
450.001;  -86.500; -149.000;  -49.000
450.122;  -42.250;  -95.000;  162.000
450.244;  -15.675;   37.000;  364.000
450.365; -110.500; -495.000; -301.000
450.486;  -50.325;   80.000;  268.000
450.608;    5.125;  393.000;  326.000
450.729;   40.225;  578.000;  645.000
450.850;  -52.125; -574.000; -466.000
450.972;  487.200; -552.000; -389.000
451.093; 3415.050;  190.000;  588.000
451.214; 1368.200; -516.000; -337.000
451.336;  269.975;  773.000;  579.000
451.457;   38.775;  264.000;  393.000
451.578;  -66.825; -118.000;  -74.000
451.699; -123.975; -546.000; -540.000
451.821;  -67.075; -284.000;  -50.000
451.942;  -19.600;  278.000;  285.000
452.063;    2.775;  228.000;  419.000
452.184;  380.000;  -54.000;  -49.000
452.305;  777.550;  103.000;  170.000
452.427;   57.625; -549.000; -301.000
452.548;  -35.150;   23.000;   79.000
452.669;  -36.750; -257.000;  -89.000
452.790;  -40.900;    3.000;  -18.000
452.911;   -6.725;  195.000;  259.000
453.032;  -57.575; -289.000;  -60.000
453.153;  -40.850;  -29.000;   81.000
453.274;   63.175;  737.000;  868.000
453.395;  -56.650;  -51.000;  175.000
453.516;  134.025; 1317.000; 1388.000
453.637;  -55.550; -205.000; -150.000
453.758;  -63.600;   15.000;   69.000
453.879; -121.800; -462.000; -250.000
454.000;   86.300; 1086.000;  948.000
454.121; -105.100; -554.000; -326.000
454.242; -121.750; -599.000; -383.000
454.362;  -48.125;  -99.000;  114.000
454.483;  -34.025; -309.000; -229.000
454.604;   76.550;  512.000;  580.000
454.725; -128.675; -627.000; -555.000
454.846; -115.400; -474.000; -406.000
454.967;  -19.725;  230.000;  539.000
455.087;  -57.525;  179.000;  153.000
455.208;   16.825;  554.000;  856.000
455.329;  -67.475;  -22.000;   82.000
455.450;   -2.400;  473.000;  633.000
455.570;  -91.450; -234.000; -211.000
455.691;  -58.450;  201.000;  407.000
455.812; -118.875; -270.000;  -92.000
455.932;  -59.025;  107.000;  -97.000
456.053;  -91.200;   36.000;   24.000
456.173; -127.600; -433.000; -355.000
456.294; -137.200; -476.000; -303.000
456.415;  -75.725;  -73.000;   70.000
456.535;  -44.600;  297.000;  273.000
456.656;  -54.275;  132.000;  240.000
456.776;  -79.075;    3.000;  298.000
456.897;   -3.475;  308.000;  513.000
457.017;  -91.150; -153.000;   -3.000
457.138; -108.000; -402.000; -249.000
457.258;  -16.375;  263.000;  224.000
457.379;   -9.875;  509.000;  521.000
457.499;  -30.400;  443.000;  432.000
457.620; -139.900; -407.000; -231.000
457.740; -110.075; -132.000;  -11.000
457.860;  -67.750;   87.000;   44.000
457.981;  -44.275;  132.000;  124.000
458.101;  -88.750;  -89.000;   40.000
458.221;  -18.950;  336.000;  402.000
458.342;  -68.550;   -4.000;  -37.000
458.462;   12.250;  617.000;  352.000
458.582;  -66.000; -302.000; -294.000
458.703;   -9.925;  303.000;  154.000
458.823;  -48.200;   22.000;  163.000
458.943;   23.200;  341.000;  467.000
459.063;  -20.000; 1124.000;  192.000
459.183;  -32.125;  328.000;  313.000
459.304;   -7.300;  315.000;  517.000
459.424;  -62.075; -246.000;  -89.000
459.544;  231.700;  388.000;  764.000
459.664;  610.750;  499.000;  506.000
459.784;  223.600; 1004.000; 1175.000
459.904;   48.425;  867.000;  744.000
460.024;   77.850;  867.000;  684.000
460.144;   23.625;  449.000;  554.000
460.264;    5.750;  515.000;  327.000
460.385;  -87.825; -145.000; -119.000
460.505;   28.425;  905.000;  858.000
460.625; -105.550;  -17.000;  -68.000
460.745;  -29.500;  396.000;  541.000
460.864;  -56.775;  153.000;  469.000
460.984;   28.250;  499.000;  573.000
461.104;  141.375; 1656.000; 1775.000
461.224;    6.325;  657.000;  650.000
461.344;  -34.200;  431.000;  360.000
461.464;  -24.925;  258.000;  513.000
461.584;   -0.275;  283.000;  466.000
461.704;  -48.600;   58.000;  108.000
461.824;  -56.850;  238.000;  259.000
461.943;  -43.975;  191.000;  130.000
462.063;  -86.850;    2.000;  324.000
462.183;   39.850;  639.000;  717.000
462.303;   87.275; 1678.000; 1230.000
462.422;   23.400;  781.000;  840.000
462.542;  -40.500;  271.000;  391.000
462.662;   39.875;  353.000;  380.000
462.782;  199.400;  833.000;  572.000
462.901;  355.900;  545.000;  717.000
463.021;  235.850; 1702.000; 1638.000
463.141;  -16.325;  337.000;  770.000
463.260;  -18.825;  614.000;  474.000
463.380;   11.700;  902.000;  884.000
463.499;  -45.825;  342.000;  332.000
463.619;  -47.925;  581.000;  559.000
463.738;  112.350; 1644.000;  903.000
463.858;   12.875;  657.000;  811.000
463.978;  -41.425;  542.000;  396.000
464.097;   37.125;  921.000; 1114.000
464.217;   75.975; 1196.000; 1143.000
464.336;  100.825; 1068.000; 1130.000
464.455;  -42.000;  328.000;  659.000
464.575;   48.725;  597.000;  602.000
464.694;  198.475; 1204.000; 1179.000
464.814;  113.325; 1190.000; 1138.000
464.933;   62.375; 1095.000; 1027.000
465.052;  110.825; 1412.000; 1054.000
465.172;   80.825;  922.000;  799.000
465.291;  154.925; 1376.000; 1320.000
465.410;   15.325;  462.000;  735.000
465.530;   93.325; 1355.000; 1310.000
465.649;   82.400; 1209.000; 1273.000
465.768;  156.450; 1673.000; 1508.000
465.888;   55.600;  941.000; 1174.000
466.007;   90.325; 1335.000; 1440.000
466.126;    1.025;  721.000;  641.000
466.245;   32.975; 1176.000; 1187.000
466.364;   18.225;  950.000; 1060.000
466.484;   51.225; 1024.000; 1213.000
466.603;   41.075; 1101.000; 1222.000
466.722;  131.600; 1490.000; 1769.000
466.841;   89.125; 1151.000; 1401.000
466.960;   40.975; 1069.000;  972.000
467.079;  139.700; 1971.000; 1786.000
467.198;   38.275; 1238.000; 1181.000
467.317;   81.875; 1768.000; 1162.000
467.436;   70.400; 1709.000; 1261.000
467.555;  134.775; 1796.000; 1746.000
467.674;   56.325; 1227.000; 1329.000
467.793;   41.175; 1376.000; 1374.000
467.912;   89.175; 1658.000; 1539.000
468.031;  132.625; 2038.000; 1930.000
468.150;  146.425; 1842.000; 1837.000
468.269;  193.900; 2313.000; 2090.000
468.388;  199.800; 2168.000; 2339.000
468.507;  251.500; 2884.000; 2903.000
468.626;  274.100; 2555.000; 2541.000
468.744;  145.650; 2018.000; 2174.000
468.863;  189.700; 2312.000; 2523.000
468.982;   87.825; 1503.000; 1555.000
469.101;  221.175; 2788.000; 2692.000
469.220;  139.425; 2333.000; 2176.000
469.338;  241.250; 2935.000; 3051.000
469.457;  184.175; 2719.000; 2545.000
469.576;  350.175; 3953.000; 3784.000
469.695;  226.875; 2877.000; 3066.000
469.813;  424.725; 4148.000; 4192.000
469.932;  403.625; 4255.000; 4485.000
470.051;  421.475; 4075.000; 4161.000
470.169;  738.175; 4470.000; 4338.000
470.288; 1199.875; 4700.000; 4809.000
470.406;  763.600; 5059.000; 5194.000
470.525;  618.175; 6101.000; 5787.000
470.644;  650.675; 6847.000; 6794.000
470.762;  815.575; 8397.000; 7873.000
470.881;  906.700; 8651.000; 8464.000
470.999; 1019.650; 9685.000; 9151.000
471.118; 1097.050;11174.000;10711.000

