
Integration time [ms]: 200.000
Averaging Nr. [scans]: 10
Smoothing Nr. [pixels]: 0
Data measured with spectrometer [name]: 2101012U2
Wave   ;Sample   ;Dark     ;Reference
[nm]   ;[counts] ;[counts] ;[counts] 

197.733;  127.500;  516.000;  404.000
197.879; -172.200; -610.000; -634.000
198.025; -105.300; -475.000; -420.000
198.171; -184.200; -602.000; -612.000
198.317;  -21.100; -401.000; -316.000
198.463; -138.000; -655.000; -404.000
198.609;   27.200;  181.000; -137.000
198.755; -169.200; -644.000; -410.000
198.901; -130.300; -505.000; -424.000
199.047; -155.000; -615.000; -488.000
199.193;  -69.300; -230.000; -468.000
199.339;  -86.100; -222.000; -369.000
199.485;   90.300;  330.000;  271.000
199.631;   56.100;  227.000;  310.000
199.777; -109.700; -466.000; -398.000
199.923; -121.900; -610.000; -424.000
200.069;    4.100; -141.000;  -58.000
200.215;  115.500;  128.000;  453.000
200.361;   65.600;  243.000;  477.000
200.507; -133.900; -600.000; -373.000
200.653;  -68.400; -371.000; -194.000
200.798;  -95.900; -215.000; -125.000
200.944;  -30.100; -146.000;  -41.000
201.090;   71.900;   61.000;  222.000
201.236;  -13.600; -116.000; -158.000
201.382;  240.000;  874.000;  903.000
201.528;    2.900;  -58.000;  -48.000
201.674; -121.400; -386.000; -293.000
201.819; -133.400; -540.000; -439.000
201.965; -190.000; -699.000; -447.000
202.111;  -73.300; -273.000; -226.000
202.257;  -96.700; -250.000; -238.000
202.402;   12.100;   13.000;  -36.000
202.548;  -60.100; -169.000; -116.000
202.694;  183.500;  410.000; -183.000
202.840; -163.100; -603.000; -531.000
202.985; -160.200; -681.000; -639.000
203.131; -213.700; -832.000; -666.000
203.277;  -70.600; -199.000; -262.000
203.423; -102.700; -434.000; -520.000
203.568;  -85.700; -462.000; -237.000
203.714; -146.100; -535.000; -542.000
203.860; -156.900; -682.000; -641.000
204.005;   32.400;  112.000;  167.000
204.151;  125.600;  561.000;  556.000
204.296;  -58.000; -354.000; -221.000
204.442; -132.500; -600.000; -547.000
204.588; -135.600; -592.000; -579.000
204.733;   48.200;  178.000;  168.000
204.879; -256.700;-1018.000; -822.000
205.025;   20.000;  -99.000;  126.000
205.170;    8.200;  -17.000;   94.000
205.316;  174.300;  438.000;  661.000
205.461; -163.600; -698.000; -554.000
205.607;  203.300;  609.000;  665.000
205.752; -168.100; -626.000; -551.000
205.898; -102.200; -501.000; -391.000
206.043; -120.900; -578.000; -506.000
206.189;  -84.900; -243.000; -285.000
206.334;  159.500;  554.000;  606.000
206.480;  181.900;  409.000;  239.000
206.625; -208.400; -529.000; -552.000
206.771;  -65.600; -451.000; -373.000
206.916;  -71.600; -210.000; -537.000
207.062; -148.200; -545.000; -591.000
207.207; -154.200; -546.000; -443.000
207.353;  112.300;  185.000;  460.000
207.498;   23.200;  196.000;   85.000
207.643;  -82.500; -501.000; -370.000
207.789; -277.100;-1069.000; -910.000
207.934; -188.000; -665.000; -713.000
208.080;  -69.300; -154.000;   66.000
208.225;   -8.400;  -22.000;  -57.000
208.370; -153.300; -727.000; -619.000
208.516; -163.400; -741.000; -487.000
208.661;  -67.700; -127.000;  -69.000
208.806;  -42.900; -165.000; -171.000
208.952; -277.700;-1044.000; -731.000
209.097;  159.800;  378.000;  349.000
209.242; -105.500; -307.000; -382.000
209.387;  143.600;  392.000;  350.000
209.533; -140.200; -321.000; -350.000
209.678;  181.600;  472.000;  543.000
209.823; -127.800; -408.000; -310.000
209.969; -166.500; -860.000; -757.000
210.114; -199.600; -907.000; -719.000
210.259; -238.000; -939.000; -889.000
210.404;   -2.300; -171.000;  103.000
210.549;   19.100;  108.000;    3.000
210.695;  -49.300;   -3.000;  -95.000
210.840;   47.300;   94.000;   67.000
210.985; -126.300; -484.000; -303.000
211.130;  139.200;  268.000;  406.000
211.275;   -2.100;  207.000;  199.000
211.420;  -66.700; -300.000; -289.000
211.566; -129.200; -536.000; -489.000
211.711;   48.300;  218.000;  157.000
211.856; -158.600; -545.000; -519.000
212.001;   41.200;  151.000;   44.000
212.146;  -15.800;  153.000;   49.000
212.291;  -78.500; -210.000; -186.000
212.436;  -68.900; -280.000;   -6.000
212.581; -175.700; -685.000; -653.000
212.726; -175.900; -487.000; -538.000
212.871;  -75.900; -552.000; -217.000
213.016; -306.900;-1172.000;-1029.000
213.161;  158.300;  406.000;  291.000
213.306; -141.700; -435.000; -577.000
213.451; -185.800; -778.000; -689.000
213.596; -122.500; -455.000; -347.000
213.741; -126.300; -448.000; -538.000
213.886; -147.400; -498.000; -517.000
214.031;  -16.400; -294.000; -124.000
214.176; -130.900; -408.000; -341.000
214.321;  -57.300; -296.000; -157.000
214.466;  -93.100; -163.000;  -43.000
214.611;   -4.800;  -61.000;  -10.000
214.756; -219.300; -948.000; -858.000
214.901;  -18.200; -388.000; -226.000
215.046; -271.000; -797.000; -825.000
215.191;   36.000;  128.000;   35.000
215.336;  -15.000; -157.000;  -19.000
215.480; -128.300; -684.000; -505.000
215.625;  -47.400; -175.000;  -19.000
215.770; -162.700; -757.000; -662.000
215.915;   -7.300;   -5.000;  -97.000
216.060;   -9.600; -113.000;  -21.000
216.205; -244.300; -731.000; -779.000
216.349; -124.000; -470.000; -533.000
216.494; -312.300; -939.000; -867.000
216.639; -247.100; -823.000; -888.000
216.784; -187.900; -577.000; -525.000
216.929;  135.000;  392.000;  281.000
217.073;  -79.700; -244.000;  -31.000
217.218;   37.300;   78.000;  -47.000
217.363; -204.500; -656.000; -618.000
217.507; -158.900; -623.000; -588.000
217.652; -234.400; -845.000; -874.000
217.797; -165.700; -708.000; -659.000
217.942; -228.300; -856.000; -720.000
218.086;  166.900;  608.000;  539.000
218.231;   -7.500; -174.000;  -26.000
218.376;  -42.900; -337.000; -229.000
218.520;    8.100;  -41.000;   96.000
218.665;  -65.300; -338.000; -204.000
218.810; -109.300; -275.000; -233.000
218.954;   84.300;  201.000;   35.000
219.099; -233.900; -713.000; -963.000
219.243; -131.000; -589.000; -554.000
219.388;  -68.900; -264.000; -136.000
219.532;   -7.300; -116.000; -116.000
219.677; -134.000; -564.000; -521.000
219.822;   30.200;   33.000;   89.000
219.966;    3.000;   17.000;  -99.000
220.111;  -86.100; -328.000;  -40.000
220.255; -215.700; -797.000; -750.000
220.400;  -49.000; -180.000; -146.000
220.544; -119.600; -516.000; -450.000
220.689; -119.600; -422.000; -451.000
220.833;  -51.800; -123.000;  -58.000
220.978;  -97.000; -393.000; -563.000
221.122;   36.900;  319.000;  307.000
221.267; -226.100; -906.000; -837.000
221.411; -150.100; -478.000; -394.000
221.555;    4.600; -104.000;  -23.000
221.700;  -96.500; -329.000; -222.000
221.844;   90.800;  255.000;  272.000
221.989;  -87.900; -328.000; -311.000
222.133;  -74.600; -289.000; -307.000
222.277;  -39.700;    5.000;   78.000
222.422;   65.700;  227.000;  113.000
222.566;  -71.900; -381.000; -214.000
222.711; -104.400; -414.000; -479.000
222.855; -183.100; -643.000; -586.000
222.999; -160.900; -642.000; -717.000
223.144;  -50.400; -195.000; -194.000
223.288;  135.900;  423.000;  251.000
223.432;   41.800;  184.000;  230.000
223.576;   22.600;  152.000;  -21.000
223.721;   67.400;  364.000;  273.000
223.865; -110.900; -472.000; -475.000
224.009;  525.900; 1673.000; 1631.000
224.153; -134.800; -660.000; -671.000
224.298; -130.800; -531.000; -489.000
224.442;    5.700;  -74.000;  -33.000
224.586;  -27.000; -169.000; -106.000
224.730; -193.100; -858.000; -670.000
224.875; -219.500; -739.000; -688.000
225.019;   34.700;  102.000;  188.000
225.163;   97.800;  208.000;  341.000
225.307;   67.500;   97.000;  -91.000
225.451;  123.800;  360.000;  481.000
225.595;   70.000;  264.000;  176.000
225.739;  -52.200; -170.000;  -94.000
225.884;    9.300;   86.000;    5.000
226.028; -186.900; -760.000; -626.000
226.172;  -71.600; -260.000; -273.000
226.316; -250.100; -941.000; -902.000
226.460; -127.400; -645.000; -493.000
226.604; -133.400; -406.000; -400.000
226.748; -180.600; -836.000; -733.000
226.892;  -81.800; -227.000; -181.000
227.036;  -73.500; -537.000; -447.000
227.180; -144.400; -551.000; -375.000
227.324; -137.000; -561.000; -580.000
227.468; -249.400; -819.000; -717.000
227.612;   41.000;  242.000;  -28.000
227.756; -194.500; -845.000; -698.000
227.900;   99.100;  342.000;  441.000
228.044; -110.300; -509.000; -290.000
228.188;  125.700;  448.000;  568.000
228.332; -179.600; -546.000; -472.000
228.476;  -64.200; -223.000; -149.000
228.620;  -80.600; -210.000; -150.000
228.764;  130.000;  431.000;  349.000
228.908;  -25.600; -155.000;   30.000
229.052; -121.500; -615.000; -528.000
229.195;  -55.800; -172.000;   13.000
229.339;  -60.000; -235.000; -305.000
229.483;  -70.900;    5.000; -162.000
229.627;   34.700; -156.000;  139.000
229.771;  -86.700; -218.000; -294.000
229.915;   43.100;  230.000;   79.000
230.059; -203.500; -648.000; -663.000
230.202;  -51.500; -370.000; -317.000
230.346;  -37.700; -107.000;  107.000
230.490; -102.200; -489.000; -521.000
230.634; -213.000; -736.000; -553.000
230.777;  184.400;  478.000;  509.000
230.921; -119.400; -450.000; -359.000
231.065;  -89.300; -246.000; -286.000
231.209;   54.800;  261.000;  265.000
231.352;   53.000;   54.000;   40.000
231.496;   19.400;  568.000;  188.000
231.640; -151.500; -693.000; -621.000
231.783;  105.000;  546.000;  525.000
231.927;  -79.800; -294.000; -365.000
232.071; -239.100; -962.000; -736.000
232.214; -213.500; -980.000; -764.000
232.358; -206.900; -683.000; -599.000
232.502;   20.600;  -19.000;    7.000
232.645; -283.700;-1090.000; -927.000
232.789;  -24.900; -257.000; -218.000
232.933;  -75.200; -407.000; -224.000
233.076; -236.400;-1038.000; -897.000
233.220; -235.100; -752.000; -777.000
233.363; -132.200; -669.000; -477.000
233.507;  140.700;  371.000;  129.000
233.650; -199.700; -764.000; -834.000
233.794;   88.600;  438.000;  461.000
233.938; -105.500; -530.000; -362.000
234.081;  -50.300;  -93.000;   31.000
234.225; -119.700; -631.000; -539.000
234.368; -240.100; -773.000; -723.000
234.512;  -69.600; -385.000; -299.000
234.655; -186.000; -582.000; -555.000
234.798;  -67.700; -493.000; -466.000
234.942; -250.100; -884.000;-1002.000
235.085; -135.200; -651.000; -443.000
235.229; -163.900; -405.000; -410.000
235.372;  -54.300; -247.000; -191.000
235.516; -110.000; -397.000; -321.000
235.659;   44.300;   92.000;  121.000
235.802;  -31.500;  -38.000;  -22.000
235.946;   68.600;  335.000;  215.000
236.089;   43.300;  126.000;  250.000
236.233;  123.100;  275.000;  298.000
236.376;  -98.300; -235.000; -378.000
236.519;  -80.200; -297.000; -319.000
236.663;  -39.800; -215.000; -117.000
236.806; -269.600;-1029.000; -999.000
236.949;  136.700;  543.000;  431.000
237.092;  140.400;  412.000;  391.000
237.236; -161.300; -589.000; -502.000
237.379;  130.300;  352.000;  428.000
237.522; -215.900; -879.000; -768.000
237.666;  -12.300; -271.000;   18.000
237.809; -255.200; -851.000; -823.000
237.952;   95.800;  469.000;  271.000
238.095; -158.400; -447.000; -442.000
238.238;  171.200;  688.000;  700.000
238.382;   18.900;  166.000;  103.000
238.525; -137.600; -598.000; -511.000
238.668; -273.100;-1060.000; -985.000
238.811; -162.200; -638.000; -643.000
238.954;  -92.900; -483.000; -334.000
239.097;  219.000;  617.000;  664.000
239.241;   60.100;  394.000;  326.000
239.384;  -50.000; -254.000; -214.000
239.527; -113.200; -424.000; -224.000
239.670; -265.100; -994.000;-1091.000
239.813; -219.200; -696.000; -658.000
239.956;  170.100;  579.000;  473.000
240.099; -219.800; -778.000; -725.000
240.242;  172.200;  428.000;  432.000
240.385;  121.000;  466.000;  450.000
240.528; -109.600; -706.000; -473.000
240.671;   11.200;  189.000;  134.000
240.814;  -74.000; -441.000; -158.000
240.957; -225.200; -767.000; -578.000
241.100; -165.100; -779.000; -755.000
241.243; -287.600;-1234.000; -893.000
241.386; -139.600; -508.000; -379.000
241.529; -201.800; -735.000; -547.000
241.672; -111.400; -566.000; -495.000
241.815; -238.000; -832.000; -808.000
241.958;  -23.700; -125.000; -182.000
242.101; -170.800; -545.000; -390.000
242.244;  -65.900; -270.000; -325.000
242.387;  -85.800; -304.000; -246.000
242.530;  156.100;  470.000;  134.000
242.673;  -89.900; -381.000; -309.000
242.815; -225.800; -925.000; -899.000
242.958; -155.300; -482.000; -381.000
243.101;   46.300;  132.000;  187.000
243.244; -165.800; -564.000; -521.000
243.387;  -66.600; -313.000; -316.000
243.530; -215.600; -657.000; -674.000
243.672;   28.600;   43.000;  -92.000
243.815; -108.700; -355.000; -283.000
243.958;   37.000;   98.000;  -26.000
244.101;   11.700;   59.000;  -16.000
244.243;  -26.300;  -47.000;  101.000
244.386; -250.900; -761.000; -630.000
244.529;  -22.400; -132.000; -139.000
244.672; -300.400;-1154.000; -951.000
244.814; -210.000; -621.000; -794.000
244.957; -101.100; -380.000; -304.000
245.100; -114.100; -489.000; -489.000
245.242; -117.900; -387.000; -374.000
245.385;   32.300;  -59.000;  -39.000
245.528; -230.200; -871.000; -705.000
245.670;  195.900;  612.000;  634.000
245.813; -175.500; -599.000; -547.000
245.956;  -30.800; -324.000; -275.000
246.098; -147.500; -508.000; -650.000
246.241;   29.200;  194.000;   48.000
246.383;  -52.500; -119.000;  -73.000
246.526; -153.700; -454.000; -525.000
246.669; -252.200; -889.000; -780.000
246.811;   49.800;  172.000;   -1.000
246.954; -132.600; -512.000; -426.000
247.096;  -41.600;  -84.000;   -6.000
247.239; -129.400; -482.000; -445.000
247.381; -106.400; -647.000; -488.000
247.524;  168.600;  645.000;  679.000
247.666;   12.500;   58.000;   11.000
247.809; -219.800; -887.000; -691.000
247.951;  -28.700;  -75.000;  138.000
248.094;   58.600;  432.000;  308.000
248.236; -307.700;-1262.000;-1238.000
248.378;  -50.600; -356.000;  -81.000
248.521;  -40.600; -334.000; -337.000
248.663; -107.600; -236.000; -267.000
248.806;  -35.600; -300.000; -266.000
248.948; -215.500; -886.000; -763.000
249.090; -101.400; -428.000; -398.000
249.233;  -91.300; -344.000; -381.000
249.375; -138.300; -474.000; -451.000
249.518;  -38.200;  -83.000; -133.000
249.660;  -13.000; -103.000;    3.000
249.802; -364.300;-1303.000;-1189.000
249.945; -130.500; -612.000; -540.000
250.087; -243.000; -834.000; -768.000
250.229;  -56.000; -362.000; -480.000
250.371; -153.500; -494.000; -439.000
250.514;  -93.200; -310.000; -244.000
250.656; -120.500;   69.000;  102.000
250.798; -236.900; -849.000; -800.000
250.940; -133.900; -322.000; -322.000
251.083;  -30.100; -335.000; -111.000
251.225;  154.600;  338.000;  310.000
251.367;  -74.500; -274.000; -373.000
251.509;  -51.400; -265.000; -210.000
251.651; -199.600; -731.000; -671.000
251.794;  144.400;  538.000;  632.000
251.936; -204.400; -821.000; -747.000
252.078; -131.600; -540.000; -461.000
252.220; -168.200; -645.000; -477.000
252.362;  154.200;  344.000;  462.000
252.504; -120.600; -677.000; -584.000
252.646; -235.900; -875.000; -722.000
252.788;    9.300;   14.000; -128.000
252.931; -100.300; -257.000; -253.000
253.073;  -60.300; -376.000; -317.000
253.215;   -9.100;  141.000;  122.000
253.357;  -17.900;   82.000; -153.000
253.499;  -75.100; -374.000; -234.000
253.641; -145.000; -749.000; -594.000
253.783; -177.800; -609.000; -527.000
253.925; -154.200; -586.000; -591.000
254.067; -215.800; -744.000; -667.000
254.209;  -46.800; -391.000; -259.000
254.351; -269.400; -865.000; -883.000
254.493;  -94.200; -441.000; -417.000
254.635; -243.200; -936.000; -818.000
254.777; -181.600; -752.000; -687.000
254.918; -134.800; -512.000; -430.000
255.060;  -94.400; -551.000; -395.000
255.202; -105.900; -473.000; -261.000
255.344; -162.400; -658.000; -455.000
255.486; -140.900; -471.000; -406.000
255.628; -180.400; -780.000; -781.000
255.770; -192.000; -676.000; -536.000
255.912; -123.300; -559.000; -468.000
256.053; -191.000; -730.000; -508.000
256.195;  329.600; 1008.000;  903.000
256.337; -182.500; -861.000; -595.000
256.479;  176.600;  532.000;  416.000
256.621;  -94.700; -394.000; -212.000
256.762; -187.100; -789.000; -742.000
256.904;  127.400;  485.000;  487.000
257.046;  -80.700; -381.000; -271.000
257.188; -107.500; -351.000; -264.000
257.329; -122.400; -525.000; -464.000
257.471; -209.100; -939.000; -807.000
257.613; -110.400; -584.000; -498.000
257.755; -316.500;-1073.000; -982.000
257.896;   75.600;  286.000;  392.000
258.038; -147.700; -403.000; -352.000
258.180;  -77.000; -354.000; -279.000
258.321; -190.800; -581.000; -457.000
258.463;   31.800;  -71.000;  133.000
258.605; -175.800; -562.000; -570.000
258.746; -191.300; -886.000; -772.000
258.888; -294.300;-1026.000;-1020.000
259.029;   63.000;  121.000;   -8.000
259.171; -176.500; -614.000; -550.000
259.313;   21.200;  -49.000;  -47.000
259.454; -151.300; -536.000; -414.000
259.596;  -95.000; -483.000; -390.000
259.737; -136.800; -590.000; -474.000
259.879;  102.800;  217.000;  311.000
260.020;  202.300;  901.000;  636.000
260.162;  -31.600; -146.000; -253.000
260.303; -247.900; -768.000; -687.000
260.445; -135.400; -609.000; -613.000
260.586;   86.900;  392.000;  157.000
260.728;  -69.100; -360.000; -248.000
260.869; -145.400; -350.000; -343.000
261.011;  201.900;  706.000;  537.000
261.152; -118.400; -479.000; -319.000
261.293; -132.500; -576.000; -595.000
261.435;  -53.100; -219.000; -184.000
261.576;  -90.900; -455.000; -325.000
261.718;  140.700;  420.000;  470.000
261.859; -220.300; -940.000; -949.000
262.000; -281.200; -951.000;-1016.000
262.142;  -41.800;  -52.000;  -60.000
262.283; -220.300; -808.000; -691.000
262.424; -166.500; -666.000; -625.000
262.566; -324.600;-1161.000; -983.000
262.707; -199.300; -840.000; -830.000
262.848; -252.900; -769.000; -726.000
262.990;  -46.700; -362.000; -345.000
263.131;  188.600;  650.000;  681.000
263.272;    8.800;  -61.000;  -41.000
263.413; -161.200; -589.000; -561.000
263.555;  -78.700; -669.000; -143.000
263.696; -172.800; -550.000; -641.000
263.837; -110.400; -449.000; -551.000
263.978;    6.300;   -5.000;  -77.000
264.119;  -70.200; -283.000; -264.000
264.261; -208.600; -847.000; -630.000
264.402;  -22.100;   33.000;   40.000
264.543; -142.100; -509.000; -524.000
264.684;   11.500;   61.000;  -50.000
264.825; -149.900; -816.000; -538.000
264.966;   28.400;  -84.000;  -67.000
265.107; -237.400; -646.000; -670.000
265.248; -213.500; -825.000; -812.000
265.390;    2.100;  152.000;   -9.000
265.531;  -40.500; -238.000; -107.000
265.672; -171.300; -557.000; -630.000
265.813;  165.200;  563.000;  439.000
265.954; -269.900; -959.000; -940.000
266.095;  -32.300; -372.000; -322.000
266.236; -173.200; -686.000; -548.000
266.377;  -65.300; -243.000; -297.000
266.518; -150.200; -619.000; -547.000
266.659;   63.100;  170.000;  268.000
266.800;   22.900;   83.000;   85.000
266.941; -140.800; -487.000; -478.000
267.082;   41.700;  354.000;   99.000
267.223; -112.400; -344.000; -273.000
267.364; -233.700; -892.000; -686.000
267.504;   15.600;    3.000;  135.000
267.645;   15.800;  160.000;   67.000
267.786;  -69.900; -147.000;  -86.000
267.927; -117.700; -473.000; -379.000
268.068;  -12.700; -186.000;  -61.000
268.209;  -57.800; -175.000; -413.000
268.350;  -58.200; -388.000; -532.000
268.490; -188.200; -648.000; -521.000
268.631;   94.100;  127.000;  225.000
268.772; -246.700; -874.000; -647.000
268.913;  -62.700; -328.000; -476.000
269.054;  -21.700; -117.000;   12.000
269.194;  -82.000; -418.000; -402.000
269.335; -301.700;-1137.000;-1074.000
269.476;  -32.200;   33.000;  -35.000
269.617;  -76.200; -347.000; -392.000
269.757; -149.300; -713.000; -646.000
269.898; -216.300; -856.000; -613.000
270.039; -118.800; -415.000; -405.000
270.180; -262.700; -952.000; -816.000
270.320;  -16.100; -190.000; -250.000
270.461;  -50.800; -277.000; -249.000
270.602;  -23.100; -186.000; -156.000
270.742; -242.900; -868.000; -943.000
270.883;  -99.000; -442.000; -390.000
271.023; -140.200; -358.000; -357.000
271.164; -140.900; -607.000; -528.000
271.305; -189.400; -666.000; -654.000
271.445; -152.300; -722.000; -683.000
271.586; -155.600; -462.000; -283.000
271.726;  -73.900; -397.000; -322.000
271.867; -151.400; -594.000; -534.000
272.008;  290.300; -473.000; -285.000
272.148;  235.900;  462.000;  468.000
272.289;   23.900; -113.000; -181.000
272.429;   48.500;   19.000;  185.000
272.570; -163.500; -633.000; -737.000
272.710; -191.700; -825.000; -775.000
272.851;  -39.000;  113.000; -130.000
272.991; -336.200;-1173.000;-1077.000
273.131;  -94.000; -419.000; -459.000
273.272; -180.500; -683.000; -723.000
273.412;   30.000; -143.000;  -31.000
273.553; -112.500; -488.000; -507.000
273.693;  315.800;  913.000;  858.000
273.834; -175.900; -894.000; -692.000
273.974; -141.400; -664.000; -615.000
274.114; -210.200; -772.000; -560.000
274.255;  144.000;  414.000;  373.000
274.395;    9.100; -180.000; -125.000
274.535;   83.700;  199.000;  350.000
274.676;   57.600;  225.000;   94.000
274.816;   16.300;  110.000;   34.000
274.956; -157.200; -624.000; -690.000
275.097; -139.100;-1014.000; -922.000
275.237; -239.300; -913.000; -803.000
275.377; -174.100; -778.000; -689.000
275.517; -309.700; -878.000; -937.000
275.658; -114.000; -590.000; -555.000
275.798; -119.500; -606.000; -413.000
275.938;   77.300;  215.000;  323.000
276.078; -189.400; -626.000; -395.000
276.218;   13.700;   99.000;  104.000
276.359; -280.600;-1026.000;-1024.000
276.499; -114.800; -605.000; -446.000
276.639;  -50.800; -305.000; -151.000
276.779;  -76.900; -475.000; -357.000
276.919; -205.800; -783.000; -624.000
277.059;  -16.100; -261.000; -212.000
277.199;  -81.300; -357.000; -259.000
277.340;  100.700;  287.000;  175.000
277.480; -227.200; -840.000; -693.000
277.620;  119.300;  192.000;   16.000
277.760; -391.100;-1533.000;-1294.000
277.900;   48.600;  113.000;   33.000
278.040;   42.000;  137.000;  159.000
278.180;   91.900;  270.000;  170.000
278.320;   -5.900;   21.000;   56.000
278.460; -129.100; -443.000; -469.000
278.600; -154.900; -708.000; -598.000
278.740;  125.700;  448.000;  224.000
278.880; -141.500; -768.000; -791.000
279.020;   54.200; -194.000; -144.000
279.160; -191.100; -672.000; -595.000
279.300; -228.400; -926.000; -873.000
279.440; -174.000; -709.000; -622.000
279.579; -133.600;-1014.000; -929.000
279.719; -102.200; -410.000; -394.000
279.859;  144.100;   -4.000;   41.000
279.999;   43.700; -208.000;  101.000
280.139;  -45.100; -435.000; -387.000
280.279; -151.700; -708.000; -745.000
280.419;  -33.900; -229.000; -147.000
280.559;  -46.200; -259.000; -180.000
280.698; -142.000; -790.000; -639.000
280.838; -206.300; -778.000; -800.000
280.978; -158.600; -846.000; -790.000
281.118; -223.200; -811.000; -704.000
281.257;   42.800;   24.000;    6.000
281.397; -251.000;-1094.000; -960.000
281.537; -185.900; -599.000; -712.000
281.677;   -8.700; -150.000; -101.000
281.816; -160.200; -700.000; -630.000
281.956;  -19.500; -193.000; -257.000
282.096;  -56.500; -539.000; -396.000
282.235; -197.100; -672.000; -638.000
282.375;  -35.100; -243.000;  -98.000
282.515; -206.100; -715.000; -707.000
282.654;   82.700;   29.000;  106.000
282.794;   79.700;  388.000;  244.000
282.934;  -82.700; -530.000; -491.000
283.073; -245.400;-1030.000; -857.000
283.213;  -69.300; -460.000; -467.000
283.353;  -62.500; -408.000; -349.000
283.492;  -46.200; -264.000; -296.000
283.632;  -50.600; -254.000; -168.000
283.771; -175.700; -859.000; -730.000
283.911;  -75.100; -369.000; -260.000
284.050; -183.600; -794.000; -748.000
284.190; -298.500;-1229.000;-1096.000
284.329; -261.500;-1055.000; -964.000
284.469; -135.100; -516.000; -591.000
284.608; -111.700; -559.000; -598.000
284.748; -159.200; -614.000; -570.000
284.887;   11.800;  -87.000;  -20.000
285.027; -263.900; -844.000; -892.000
285.166;  -50.600; -192.000; -249.000
285.306;   -2.000; -116.000;  -33.000
285.445;  -59.600; -229.000; -343.000
285.584; -156.900; -630.000; -494.000
285.724;  -64.200; -282.000; -322.000
285.863; -233.500; -857.000; -507.000
286.002;  -92.600; -366.000; -276.000
286.142; -207.400; -715.000; -622.000
286.281; -139.000; -525.000; -493.000
286.420; -167.900; -554.000; -417.000
286.560;  219.800;  653.000;  623.000
286.699; -252.200; -958.000; -912.000
286.838; -162.400; -590.000; -591.000
286.978; -149.000; -533.000; -537.000
287.117; -254.200;-1085.000; -950.000
287.256;  -63.300; -228.000; -211.000
287.395;  -65.600; -197.000; -378.000
287.535;  -91.200; -370.000; -298.000
287.674; -131.000; -509.000; -484.000
287.813;  156.800;  661.000;  533.000
287.952; -243.500;-1010.000; -871.000
288.091; -292.700;-1049.000; -915.000
288.231;   66.600;   13.000;   15.000
288.370; -352.100;-1217.000;-1200.000
288.509; -136.100; -728.000; -645.000
288.648; -155.400; -770.000; -548.000
288.787;  -24.000; -243.000;  -87.000
288.926; -103.600; -454.000; -475.000
289.065;  264.900;  859.000;  672.000
289.204;  -81.300; -377.000; -217.000
289.344; -159.900; -791.000; -690.000
289.483;   70.200;  416.000;  304.000
289.622;    3.200; -291.000; -149.000
289.761;  -15.500; -309.000; -166.000
289.900; -212.900; -785.000; -626.000
290.039;   -9.100;  -12.000;  -95.000
290.178;  -44.000; -274.000; -180.000
290.317; -125.400; -618.000; -479.000
290.456; -111.600; -463.000; -451.000
290.595; -251.500; -961.000; -833.000
290.734; -239.500; -904.000; -891.000
290.873; -120.300; -456.000; -420.000
291.011; -209.500; -833.000; -843.000
291.150; -197.200; -770.000; -682.000
291.289;  -16.000; -343.000; -110.000
291.428; -163.100; -599.000; -480.000
291.567;  -81.600; -370.000; -442.000
291.706;    0.700;  109.000;  154.000
291.845; -145.700; -597.000; -505.000
291.984; -339.000;-1234.000;-1061.000
292.122;  192.300;  602.000;  582.000
292.261;   98.600;  620.000;  463.000
292.400;   39.500; -144.000;  211.000
292.539; -256.400; -959.000; -813.000
292.678;  -44.500; -325.000; -300.000
292.816; -282.900;-1136.000; -965.000
292.955; -161.900; -844.000; -684.000
293.094;  -36.800; -173.000; -337.000
293.233;  -86.700; -556.000; -400.000
293.371;  -49.000; -225.000;  -84.000
293.510; -193.900; -866.000; -780.000
293.649; -243.600; -959.000; -924.000
293.787; -151.900;-1083.000;-1012.000
293.926;  -16.600; -113.000;  -32.000
294.065;  -49.000; -379.000; -290.000
294.203;  123.200;  298.000;  406.000
294.342;   74.500;   74.000;  156.000
294.481;11268.300;51180.000; -836.000
294.619;  -34.000; -425.000; -582.000
294.758; -292.200;-1230.000;-1137.000
294.896;  120.200; -125.000;    5.000
295.035; -267.700;-1040.000;-1006.000
295.174; -223.600;-1082.000; -954.000
295.312;  -66.400; -323.000; -203.000
295.451;   -5.100; -307.000; -428.000
295.589; -104.600; -389.000; -518.000
295.728;   43.100; -292.000; -165.000
295.866;   -1.500;  -36.000;  -51.000
296.005; -129.100; -584.000; -341.000
296.143; -141.600; -558.000; -596.000
296.282; -208.400; -957.000; -881.000
296.420; -165.800; -657.000; -557.000
296.559; -158.300; -892.000; -633.000
296.697;   -1.800; -847.000; -665.000
296.835;   71.300;-1141.000;-1002.000
296.974;  133.000;  -23.000;   39.000
297.112;   29.200; -443.000; -504.000
297.251; -146.600; -815.000; -755.000
297.389;  138.900; -576.000; -438.000
297.527;   83.000; -145.000;  -83.000
297.666;  -78.200; -486.000; -438.000
297.804;  -80.200; -404.000; -264.000
297.942;   32.500; -136.000; -161.000
298.081;   23.000; -183.000;   63.000
298.219;  129.600;  -17.000;  -19.000
298.357;   87.100; -144.000;  -71.000
298.495;   52.800; -810.000; -812.000
298.634;  168.500;  245.000;  219.000
298.772;  120.700; -220.000; -338.000
298.910;  -50.500; -309.000; -182.000
299.048;    0.500; -130.000; -153.000
299.187;  -47.800; -350.000; -250.000
299.325;   74.500;   52.000;  122.000
299.463;   85.200; -389.000; -299.000
299.601;  209.300; -327.000; -271.000
299.739; -207.900; -908.000; -883.000
299.877; -150.300; -791.000; -703.000
300.016; -113.400;-1095.000; -935.000
300.154;  271.000;  -19.000; -161.000
300.292;   51.000; -428.000; -348.000
300.430;   64.100; -408.000; -291.000
300.568; -208.500; -940.000; -874.000
300.706;  -75.200; -366.000; -469.000
300.844; -174.600;-1108.000; -979.000
300.982;  254.700;  246.000;  282.000
301.120; -195.100; -965.000; -866.000
301.258; -112.000; -812.000; -705.000
301.396;   63.500;  104.000;  -41.000
301.534;  138.000; -218.000; -293.000
301.672;  -11.600; -664.000; -521.000
301.810;   31.400; -613.000; -545.000
301.948;  270.000;   53.000;  149.000
302.086;  964.400; -250.000;  -32.000
302.224; 1504.200; -610.000; -585.000
302.362;   33.200; -558.000; -622.000
302.500;  -99.800; -923.000; -893.000
302.638;  203.300;  128.000;  245.000
302.776;   16.100; -352.000; -408.000
302.913;  125.100;  447.000;  236.000
303.051;   12.000;  -86.000;  -23.000
303.189;  114.100;   90.000;  118.000
303.327;  -48.800; -341.000; -256.000
303.465; -160.500; -832.000; -588.000
303.603; -172.200; -805.000; -604.000
303.740;  193.600;  417.000;  241.000
303.878;   -2.800; -800.000; -759.000
304.016; -184.200; -915.000; -790.000
304.154; -260.000;-1123.000;-1152.000
304.291;  -54.800; -505.000; -554.000
304.429;   18.500;  102.000;   74.000
304.567; -221.100; -908.000; -893.000
304.705; -115.100; -408.000; -515.000
304.842;  129.100; -616.000; -540.000
304.980;  124.100;  215.000;   35.000
305.118;   67.400; -367.000; -365.000
305.255; -178.700; -945.000; -927.000
305.393;  170.800;  178.000;  239.000
305.531; -197.300;-1173.000; -956.000
305.668; -108.100; -663.000; -582.000
305.806;  151.000; -358.000; -439.000
305.943;  146.900; -629.000; -637.000
306.081;  111.600; -378.000; -267.000
306.219; -175.200; -863.000; -748.000
306.356;   28.000;  158.000;   27.000
306.494;  343.300;  981.000;  761.000
306.631;   21.200;  -11.000;  -55.000
306.769;   14.200; -613.000; -485.000
306.906;  -29.600; -284.000; -258.000
307.044;  -43.200; -473.000; -488.000
307.181;  -93.500; -410.000; -332.000
307.319;   84.000;  112.000;   87.000
307.456; -350.000;-1191.000;-1153.000
307.594; -191.700; -980.000; -727.000
307.731;   27.800; -371.000; -164.000
307.868;   23.600;  -15.000;   20.000
308.006; -257.500; -961.000; -847.000
308.143;  -77.900; -618.000; -330.000
308.281;  372.100;  -37.000; -254.000
308.418;   17.700; -748.000; -640.000
308.555;  -98.800; -400.000; -250.000
308.693;  -82.600; -577.000; -573.000
308.830; -191.500; -712.000; -657.000
308.967;   13.000; -215.000;  -95.000
309.105;  -22.800; -507.000; -396.000
309.242;  124.800; -468.000; -367.000
309.379;  750.600; -577.000; -655.000
309.517;  -55.700; -936.000; -948.000
309.654; -197.700; -910.000; -734.000
309.791; -104.200; -662.000; -580.000
309.928; -197.400; -977.000; -914.000
310.065;  367.400;  819.000;  697.000
310.203;  -21.800; -825.000; -850.000
310.340;   43.400; -465.000; -321.000
310.477; -119.100; -412.000; -516.000
310.614;  -69.200; -383.000; -473.000
310.751; -117.500; -427.000; -518.000
310.889;   19.200;    1.000;   11.000
311.026; -297.700;-1161.000; -939.000
311.163;  -65.300; -386.000; -380.000
311.300; -150.200; -512.000; -479.000
311.437; -124.800; -658.000; -619.000
311.574; -287.200;-1226.000; -985.000
311.711; -102.900; -595.000; -433.000
311.848;  -64.100; -380.000; -388.000
311.985;   85.200;  270.000;   93.000
312.122; -214.100; -932.000; -762.000
312.259; -190.100; -941.000; -994.000
312.396; -114.500; -508.000; -551.000
312.533; -132.900; -812.000; -790.000
312.670; -244.800;-1070.000; -898.000
312.807;  -30.600; -352.000; -367.000
312.944; -129.400; -513.000; -611.000
313.081;  -37.500; -150.000; -415.000
313.218; -238.300;-1111.000; -867.000
313.355;   64.400; -531.000; -449.000
313.492;   13.000; -455.000; -292.000
313.629;  262.400;  815.000;  735.000
313.766; -306.400;-1176.000;-1008.000
313.902;    0.900; -186.000;   21.000
314.039; -100.400; -372.000; -289.000
314.176;   79.600;  286.000;  192.000
314.313; -143.700; -569.000; -473.000
314.450; -128.900; -788.000; -684.000
314.587;  -82.000; -468.000; -480.000
314.723;   46.500;  -78.000;  130.000
314.860;   82.200;  318.000;  332.000
314.997;  118.000;  223.000;  142.000
315.134;  -89.900; -385.000; -368.000
315.270;   -4.600; -480.000; -496.000
315.407; -259.600;-1094.000; -967.000
315.544; -103.200; -657.000; -538.000
315.681; -134.800; -681.000; -565.000
315.817;   72.700; -133.000; -176.000
315.954;  -15.800; -613.000; -392.000
316.091; -236.700;-1045.000;-1023.000
316.227;  -10.800;  -71.000; -179.000
316.364;   54.000;   23.000;    6.000
316.500;  -31.000; -113.000; -300.000
316.637;  -45.100; -181.000; -302.000
316.774; -134.100; -625.000; -358.000
316.910; -124.700; -598.000; -629.000
317.047;  -88.700; -487.000; -351.000
317.183;  -68.800; -435.000; -566.000
317.320;  -28.500; -367.000; -321.000
317.456; -120.100; -733.000; -805.000
317.593; -163.700; -598.000; -641.000
317.729;   23.400;  168.000;  -67.000
317.866; -372.800;-1434.000;-1285.000
318.002; -163.000; -708.000; -948.000
318.139; -198.700; -883.000; -867.000
318.275; -204.200;-1003.000; -738.000
318.412;  -92.700; -517.000; -336.000
318.548;  -55.100; -751.000; -720.000
318.685; -198.300; -985.000; -888.000
318.821; -165.700; -762.000; -735.000
318.957;   -8.900;   34.000;  -23.000
319.094;  122.700;  297.000;  154.000
319.230; -129.600; -756.000; -742.000
319.367;  206.800; -471.000; -520.000
319.503;   97.000; -538.000; -436.000
319.639; -156.500; -877.000; -793.000
319.775; -130.400; -750.000; -685.000
319.912;  -68.500; -424.000; -519.000
320.048; -216.500;-1184.000;-1184.000
320.184;  113.300;   59.000;   70.000
320.321; -112.900; -497.000; -467.000
320.457;  162.800;  475.000;  662.000
320.593;  -86.200; -375.000; -382.000
320.729; -189.500; -732.000; -734.000
320.866; -123.400; -577.000; -635.000
321.002; -113.900; -759.000; -809.000
321.138;  -25.200; -135.000; -211.000
321.274;  156.000; -148.000; -115.000
321.410;  -56.000; -585.000; -353.000
321.546;  -61.400;-1011.000; -911.000
321.683;   90.200;  400.000;  185.000
321.819;   16.200;  -48.000; -117.000
321.955; -221.300; -743.000; -722.000
322.091;  -81.000; -585.000; -540.000
322.227;   -8.400; -382.000; -202.000
322.363;  -34.500; -320.000; -215.000
322.499; -104.200; -343.000; -331.000
322.635;  334.100;  636.000;  443.000
322.771;   45.700; -139.000;   12.000
322.907;  185.700;  129.000;  327.000
323.043;  -32.500; -115.000; -206.000
323.179;  -26.900; -394.000; -363.000
323.315;   13.700; -401.000; -371.000
323.451;  177.100; -328.000; -236.000
323.587;   70.200;  -60.000;  -77.000
323.723;   20.200; -682.000; -601.000
323.859;  -38.500; -258.000;  -76.000
323.995;  -31.100; -467.000; -409.000
324.131; -242.200; -967.000; -892.000
324.267;  -35.200; -254.000; -276.000
324.402; -269.400; -960.000; -983.000
324.538;   11.200; -279.000; -104.000
324.674;   93.700;  164.000;   77.000
324.810;  322.000;  226.000;  308.000
324.946;   31.600; -810.000; -658.000
325.082; -101.400; -568.000; -475.000
325.217;   21.500;  -62.000;   16.000
325.353; -170.400; -764.000; -659.000
325.489; -119.100; -540.000; -506.000
325.625;  -88.300; -579.000; -525.000
325.760;  105.700;  517.000;  376.000
325.896;  -67.900; -515.000; -702.000
326.032;  -83.300; -403.000; -352.000
326.168;  -94.400; -462.000; -369.000
326.303;  -89.100; -352.000; -461.000
326.439;  -29.200; -336.000; -276.000
326.575;  -10.200; -190.000;  -29.000
326.710;   25.500; -156.000;  -30.000
326.846;    3.100;  146.000;  103.000
326.982; -170.900; -530.000; -548.000
327.117; -128.900; -481.000; -442.000
327.253; -148.300; -745.000; -742.000
327.388; -265.600;-1137.000;-1153.000
327.524;   -2.000; -811.000; -578.000
327.659;  -55.200;  -58.000;  -22.000
327.795;  -10.200;   69.000;   45.000
327.931; -165.900; -723.000; -499.000
328.066;   -0.300; -417.000; -276.000
328.202;   31.200;   12.000; -129.000
328.337;  256.400;  957.000;  713.000
328.473;   -9.200;  -12.000;  -74.000
328.608;   -8.400; -256.000; -267.000
328.743; -164.800; -799.000; -664.000
328.879;  102.800;  214.000;  114.000
329.014;  -83.300; -102.000; -122.000
329.150; -133.500; -358.000; -483.000
329.285; -143.700; -465.000; -466.000
329.421;  -67.700; -548.000; -246.000
329.556;   11.700;  -36.000;   85.000
329.691; -131.200; -633.000; -615.000
329.827; -134.600; -626.000; -480.000
329.962;  -38.900;  131.000; -301.000
330.097; -184.300; -673.000; -585.000
330.233;  -53.600; -410.000; -223.000
330.368; -227.600; -839.000; -628.000
330.503;   22.900;    3.000;   98.000
330.638;   14.800;  -93.000; -125.000
330.774;  -90.000; -609.000; -530.000
330.909;  -60.200; -434.000; -244.000
331.044; -139.500; -714.000; -708.000
331.179; -323.300;-1217.000;-1109.000
331.315;   51.700;   77.000;   20.000
331.450;   57.400;  157.000;  285.000
331.585; -160.400; -805.000; -706.000
331.720; -176.700; -510.000; -460.000
331.855;    4.200;  -35.000; -102.000
331.990;  342.600;   62.000;  138.000
332.126;  200.500; -110.000;   71.000
332.261;  -18.000; -379.000; -265.000
332.396;   19.200; -135.000; -242.000
332.531; -246.300;-1074.000;-1031.000
332.666;   20.900; -519.000; -363.000
332.801; -202.000; -726.000; -807.000
332.936;  -12.000; -192.000; -122.000
333.071; -281.600; -870.000; -817.000
333.206;   65.200;  307.000;  379.000
333.341;  120.400;  344.000;  418.000
333.476; -147.400; -627.000; -623.000
333.611;  -52.100; -251.000; -173.000
333.746;  -21.800; -381.000; -464.000
333.881; -227.800; -973.000; -935.000
334.016; -213.300; -936.000; -917.000
334.151; -245.600; -746.000; -702.000
334.286;   57.300;  152.000;  186.000
334.421;  -26.600; -125.000; -178.000
334.556; -133.500; -611.000; -567.000
334.690; -152.700; -631.000; -577.000
334.825;  159.400;  381.000;   83.000
334.960; -109.100; -285.000; -413.000
335.095;   58.000;  135.000;  -91.000
335.230; -198.900; -722.000; -738.000
335.365; -228.800;-1084.000; -990.000
335.499; -285.700;-1108.000;-1037.000
335.634;   63.900;    9.000;  534.000
335.769; -209.900; -755.000; -720.000
335.904; -111.300; -603.000; -561.000
336.038; -149.800; -735.000; -657.000
336.173; -251.800;-1206.000;-1194.000
336.308;   22.100; -116.000; -189.000
336.443;   38.400; -544.000; -634.000
336.577; -161.800; -936.000; -787.000
336.712;   99.400;   -4.000;  -12.000
336.847;  -71.500; -724.000; -607.000
336.981;  120.200; -272.000; -208.000
337.116;  445.300;  615.000;  501.000
337.250;  220.300; -434.000; -421.000
337.385;  284.600; -297.000; -208.000
337.520;   61.700; -632.000; -603.000
337.654;  -84.100; -215.000; -126.000
337.789; -249.800; -989.000; -933.000
337.923;  -49.500; -104.000; -205.000
338.058; -151.700; -673.000; -738.000
338.192;  -84.800; -611.000; -488.000
338.327;   30.300;  -18.000; -155.000
338.461; -117.200; -299.000; -469.000
338.596; -175.000; -780.000; -638.000
338.730; -227.600; -767.000; -803.000
338.865;  107.600;  -46.000; -140.000
338.999; -159.200; -846.000; -702.000
339.134;  -62.300; -634.000; -536.000
339.268;  -25.700; -741.000; -603.000
339.403;  356.800; -740.000; -775.000
339.537;   52.300; -894.000; -820.000
339.671; -188.700; -829.000; -813.000
339.806; -133.400; -556.000; -512.000
339.940;   31.600; -261.000; -235.000
340.074; -191.800; -685.000; -510.000
340.209;  -82.800; -351.000; -230.000
340.343; -163.700; -517.000; -573.000
340.477;  324.600;  998.000; 1036.000
340.612; -153.100;-1033.000; -900.000
340.746;  192.800; -199.000; -243.000
340.880; -146.900; -924.000; -785.000
341.014;   -4.200;  -45.000; -154.000
341.149; -208.100; -756.000; -718.000
341.283; -160.800; -839.000; -754.000
341.417; -217.800;-1124.000; -938.000
341.551;  187.200; -768.000; -708.000
341.685; -109.400; -633.000; -611.000
341.820; -121.000; -562.000; -493.000
341.954;  -78.500; -218.000; -349.000
342.088; -277.900;-1102.000;-1019.000
342.222;  100.800;  565.000;  618.000
342.356; -109.000; -395.000; -335.000
342.490; -169.700; -880.000; -841.000
342.624;  -56.800; -339.000; -242.000
342.758;   -7.100; -364.000; -312.000
342.892;  -84.100; -710.000; -585.000
343.026;  -52.200;  -58.000; -116.000
343.160;  -85.600; -426.000; -376.000
343.294; -136.600; -474.000; -337.000
343.428;  -11.200; -488.000; -448.000
343.562;  -22.200; -172.000;  -23.000
343.696;  -19.300; -385.000; -314.000
343.830;   -9.600; -362.000; -356.000
343.964;   69.300; -231.000; -168.000
344.098; 1543.800;  199.000;   70.000
344.232; 1249.500; -266.000; -127.000
344.366;  124.100; -567.000; -453.000
344.500;  109.500; -665.000; -744.000
344.634;   76.300; -324.000; -164.000
344.768;    8.600; -531.000; -341.000
344.902;   77.200;  278.000;  256.000
345.035; -114.300; -556.000; -496.000
345.169; -241.700; -933.000; -656.000
345.303;    0.300; -308.000; -482.000
345.437; -148.300; -826.000; -717.000
345.571; -144.400; -675.000; -594.000
345.704; -110.200; -309.000; -532.000
345.838;   18.400; -331.000; -284.000
345.972;  -95.500; -543.000; -495.000
346.106;  226.500; -179.000; -190.000
346.239;  582.000; -312.000; -243.000
346.373;   46.600; -343.000; -302.000
346.507; -275.900; -950.000; -962.000
346.640;  281.100;  -30.000;   13.000
346.774; -124.300; -650.000; -797.000
346.908;   14.700; -138.000;  -11.000
347.041; -145.200; -646.000; -593.000
347.175;   54.300;  259.000;   27.000
347.309; -129.700; -698.000; -628.000
347.442; -199.500; -883.000; -732.000
347.576;  521.700;  670.000;  668.000
347.709;  360.700; -123.000;  -52.000
347.843; -188.200; -933.000; -825.000
347.976;  104.800;  235.000;  294.000
348.110; -351.600;-1268.000;-1186.000
348.243; -189.700; -679.000; -772.000
348.377;   77.300;  -26.000;   60.000
348.510;  152.900;  403.000;  540.000
348.644;  -38.200;  -37.000; -159.000
348.777;   67.700;  180.000;  191.000
348.911;  -71.800; -142.000; -112.000
349.044;  340.100;  471.000;  448.000
349.178;  242.900;-1069.000;-1006.000
349.311;  204.300;  141.000;  255.000
349.444;  -90.700; -927.000; -813.000
349.578;   -5.300; -347.000; -200.000
349.711; -174.000; -959.000; -862.000
349.845;   14.000; -661.000; -591.000
349.978; -293.600;-1224.000;-1137.000
350.111; -147.000; -546.000; -612.000
350.244; -117.300; -596.000; -700.000
350.378;   30.900; -392.000; -393.000
350.511; -138.100; -393.000; -426.000
350.644; -181.200; -808.000; -806.000
350.778;   14.200;  168.000;  104.000
350.911;   72.100;  134.000;  140.000
351.044; -158.200; -685.000; -615.000
351.177;    0.700; -321.000; -281.000
351.310;   -2.000;    3.000; -131.000
351.444; -147.100; -888.000; -788.000
351.577;  180.000;  140.000;   90.000
351.710;  233.200;  593.000;  417.000
351.843;  -35.000; -165.000;  -77.000
351.976;   31.700;  149.000;  -79.000
352.109; -156.900; -621.000; -612.000
352.242;   -5.700; -464.000; -419.000
352.376; -120.500; -580.000; -636.000
352.509;  252.600; -437.000; -356.000
352.642;  -34.800; -654.000; -604.000
352.775;  127.300; -141.000;  -98.000
352.908; -228.200; -933.000; -904.000
353.041; -174.400; -814.000; -824.000
353.174;  -67.000; -551.000; -424.000
353.307; -115.300; -753.000; -764.000
353.440;  171.800;  541.000;  453.000
353.573; -197.300; -957.000;-1008.000
353.706;  -70.000; -384.000; -558.000
353.839;  -31.400; -264.000; -220.000
353.971; -169.100; -657.000; -512.000
354.104; -145.900; -896.000; -835.000
354.237;  -94.400; -627.000; -662.000
354.370; -149.500; -846.000; -879.000
354.503; -343.400;-1231.000;-1308.000
354.636;  -33.200; -529.000; -348.000
354.769; -248.400; -937.000; -860.000
354.902;   -4.700; -230.000; -139.000
355.034;  -14.800; -164.000; -220.000
355.167;   -1.500; -262.000; -162.000
355.300; -204.300;-1061.000; -880.000
355.433; 1198.700;  -71.000;  -14.000
355.565; 1804.200; -402.000; -384.000
355.698;  476.400; -356.000; -296.000
355.831;  -67.300; -882.000; -801.000
355.964;  161.000; -285.000; -170.000
356.096; -181.800; -856.000; -843.000
356.229;    9.500; -523.000; -530.000
356.362;  375.900; -373.000; -266.000
356.494;  757.500; -229.000; -162.000
356.627;  728.000;  269.000;  377.000
356.760;  885.800;  120.000;   53.000
356.892; 1123.300; -286.000; -601.000
357.025; 1097.300;  403.000;  389.000
357.157;  939.900; -167.000; -179.000
357.290;  794.800; -856.000; -713.000
357.423;  182.000; -667.000; -556.000
357.555;  186.400; -217.000; -228.000
357.688;  135.800; -483.000; -364.000
357.820;  645.100; -870.000; -877.000
357.953; 5839.700; -563.000; -589.000
358.085; 1220.500; -632.000; -612.000
358.218; 1871.700;-1131.000; -932.000
358.350;  318.100;  -58.000;  312.000
358.483; -237.200;-1300.000;-1187.000
358.615;  -47.500;-1182.000;-1078.000
358.747; -139.500;-1187.000;-1058.000
358.880;    0.400; -810.000; -744.000
359.012;    9.700; -376.000; -202.000
359.145;  -66.600; -480.000; -511.000
359.277;   41.000; -962.000; -913.000
359.409; 5002.500;  536.000;  231.000
359.542; 1190.600; -738.000; -688.000
359.674;  138.100;   46.000;   13.000
359.806; -130.300; -565.000; -438.000
359.939;  -73.500; -617.000; -516.000
360.071;  -65.200; -583.000; -579.000
360.203;  -12.100; -411.000; -364.000
360.335;   80.200;  164.000;  -16.000
360.468;  287.300; -249.000; -307.000
360.600; 3732.100; -547.000; -454.000
360.732; 3502.900; -546.000; -423.000
360.864;  363.000;-1216.000;-1044.000
360.996;  468.300; -516.000; -554.000
361.129;   79.500; -389.000; -598.000
361.261;   77.200;  110.000; -113.000
361.393;  -50.400; -252.000; -214.000
361.525;   73.200;   94.000;  244.000
361.657;  -65.900; -821.000; -703.000
361.789;   58.200; -139.000; -155.000
361.921;  384.700; -642.000; -593.000
362.053;  491.900;  524.000;  541.000
362.185;  127.500;  288.000;   72.000
362.318; -130.400; -709.000; -705.000
362.450;  272.100;  294.000;  444.000
362.582;  181.900; -913.000; -870.000
362.714;  -67.500; -353.000; -332.000
362.846; -153.300; -606.000; -490.000
362.978; -293.000; -941.000; -811.000
363.109;  103.600; -161.000; -260.000
363.241;  647.000; -739.000; -749.000
363.373;  514.500; -649.000; -564.000
363.505;  794.300; -186.000;  -91.000
363.637;  192.700; -787.000; -601.000
363.769; -245.000;-1067.000;-1080.000
363.901;  -80.000; -596.000; -654.000
364.033; -207.100;-1103.000;-1062.000
364.165;    9.800; -283.000; -283.000
364.296;   91.000; -316.000; -177.000
364.428;  -17.900;-1344.000;-1220.000
364.560; -142.800; -679.000; -661.000
364.692; -106.000; -738.000; -835.000
364.824;  414.600; -588.000; -456.000
364.955;  591.200; -402.000; -564.000
365.087;  964.600;-1097.000; -852.000
365.219;  -13.100; -686.000; -816.000
365.351; -120.900; -526.000; -572.000
365.482;  159.400;  300.000;  240.000
365.614;  -78.400; -402.000; -314.000
365.746; -144.800; -729.000; -752.000
365.877; -185.800; -706.000; -672.000
366.009;  373.100;  -35.000;  -62.000
366.141; -203.600;-1249.000;-1134.000
366.272; -184.700; -803.000; -719.000
366.404; -188.400;-1005.000; -874.000
366.535;   19.100; -139.000;  -12.000
366.667; -188.800; -644.000; -649.000
366.799;  131.700;  353.000;  203.000
366.930; -200.500; -862.000; -996.000
367.062;  117.800; -639.000; -613.000
367.193;   66.500; -872.000; -842.000
367.325; -137.200; -580.000; -684.000
367.456;   94.500; -246.000;   31.000
367.588;  233.600; -371.000; -318.000
367.719;   24.200;  -44.000;  -45.000
367.851;   10.200; -222.000; -241.000
367.982;  -89.300; -875.000; -732.000
368.113;  214.700; -475.000; -358.000
368.245; -216.600; -960.000; -841.000
368.376;  -11.400; -254.000; -302.000
368.508;  -36.000; -188.000; -263.000
368.639; -221.100;-1166.000;-1034.000
368.770;  -54.700; -670.000; -589.000
368.902; -127.500; -836.000; -926.000
369.033; -220.300; -906.000; -855.000
369.164; -101.500; -720.000; -653.000
369.296; -188.200; -452.000; -601.000
369.427;   21.900; -209.000; -144.000
369.558;  -96.600; -593.000; -377.000
369.689; -137.300; -721.000; -569.000
369.821; -220.300; -951.000; -845.000
369.952;    5.600;   42.000; -108.000
370.083;  -85.300; -229.000; -108.000
370.214; -118.700; -735.000; -650.000
370.345;   21.800;   65.000;   81.000
370.477; -122.300; -810.000; -790.000
370.608;  379.500; -328.000; -264.000
370.739; -107.900;-1233.000;-1292.000
370.870; -107.600;-1102.000; -923.000
371.001;  161.700; -378.000; -467.000
371.132; -160.900; -754.000; -735.000
371.263;   -8.100;  -42.000; -148.000
371.394; -261.000; -841.000; -748.000
371.525;   83.900;  345.000;  225.000
371.657; -151.600; -808.000; -670.000
371.788;  165.500;  103.000;  199.000
371.919;  328.900; -384.000; -304.000
372.050; 6094.600;  -91.000; -156.000
372.181; 1798.800; -188.000; -294.000
372.311;  661.400;   42.000; -127.000
372.442;   46.400; -457.000; -451.000
372.573;    0.700; -444.000; -340.000
372.704; -224.500;-1008.000; -980.000
372.835;  176.400; -228.000; -289.000
372.966; -109.300; -646.000; -554.000
373.097;  -99.400; -575.000; -711.000
373.228; -104.300; -717.000; -542.000
373.359;  264.800; -824.000; -536.000
373.490; 1477.900; -881.000; -727.000
373.620; 1905.500;-1001.000; -803.000
373.751; 3021.800; -332.000; -396.000
373.882; 1336.200; -663.000; -733.000
374.013;  111.500; -449.000; -262.000
374.143;  -50.300; -581.000; -659.000
374.274; -198.400; -987.000; -908.000
374.405;  282.800; -388.000; -276.000
374.536;  734.000; -526.000; -387.000
374.666; 1904.500; -759.000; -807.000
374.797;  366.700; -817.000; -868.000
374.928; 1403.400; -710.000; -560.000
375.058; 1459.200; -535.000; -500.000
375.189;  165.100;  -59.000;  -93.000
375.320; -212.700; -928.000;-1034.000
375.450;  -57.500; -625.000; -616.000
375.581;  -79.800; -526.000; -436.000
375.712;  -21.200; -574.000; -250.000
375.842;  509.500; -438.000; -415.000
375.973;  363.900; -554.000; -513.000
376.103;  -95.000; -665.000; -648.000
376.234;  -97.900; -531.000; -552.000
376.364;  -74.000; -944.000; -867.000
376.495;  624.000;  925.000;  529.000
376.625;   -3.500; -472.000; -485.000
376.756;  103.100; -709.000; -678.000
376.886; -149.100;-1178.000;-1026.000
377.017;   -0.300;-1048.000;-1061.000
377.147;  369.700; -786.000; -782.000
377.278;  123.900;  174.000;  228.000
377.408; -220.800; -801.000; -815.000
377.538; -157.900; -707.000; -693.000
377.669; -125.800; -537.000; -613.000
377.799; -141.800; -645.000; -635.000
377.929;  -85.600; -610.000; -428.000
378.060; -209.400; -781.000; -847.000
378.190; -138.000; -726.000; -531.000
378.320;  -58.500; -401.000; -406.000
378.451;   13.200; -131.000;  -22.000
378.581;   46.700;  -67.000; -110.000
378.711;  324.500; 1035.000;  866.000
378.841;  -42.700; -533.000; -675.000
378.972; -149.300; -871.000; -751.000
379.102;    4.400; -652.000; -579.000
379.232;  -11.000; -126.000;  -73.000
379.362; -181.800;-1001.000; -885.000
379.492;   13.100; -373.000; -424.000
379.623;  218.700;    0.000;  111.000
379.753; -198.400;-1107.000; -974.000
379.883;  385.800;   59.000;  156.000
380.013;  -11.300;-1081.000;-1017.000
380.143; -194.400;-1097.000;-1056.000
380.273; -201.000; -985.000; -861.000
380.403;   15.000; -344.000; -257.000
380.533;  -78.800; -651.000; -664.000
380.663;  140.600;  173.000;  128.000
380.793; -202.000;-1027.000;-1074.000
380.923;  -22.800; -103.000;  -34.000
381.053; -169.300; -613.000; -623.000
381.183;  -10.500; -106.000; -248.000
381.313;   37.300; -656.000; -470.000
381.443;  117.700; -692.000; -473.000
381.573;  353.500; -402.000; -409.000
381.703;  445.900;-1249.000;-1095.000
381.833; -260.900;-1454.000;-1336.000
381.963;  206.500; -134.000;  -87.000
382.093; 2184.800; -925.000; -909.000
382.223;  656.900; -713.000; -602.000
382.353;  -73.000; -801.000; -608.000
382.482;  644.700;-1091.000; -964.000
382.612; 1195.100; -872.000; -644.000
382.742;  662.700; -695.000; -622.000
382.872;  426.900; -565.000; -551.000
383.002;  149.800;  347.000; -132.000
383.131;    7.300; -226.000; -160.000
383.261; -103.500; -706.000; -768.000
383.391;  359.700; -552.000; -377.000
383.521; 3937.200;  451.000;  263.000
383.650;  744.900; -947.000; -904.000
383.780;  -43.000; -783.000; -656.000
383.910;  250.400;  880.000;  802.000
384.039;   28.500; -794.000; -656.000
384.169;  251.400;-1205.000;-1017.000
384.299;  -36.000; -650.000; -662.000
384.428; -193.100; -764.000; -680.000
384.558;  -32.000; -308.000; -275.000
384.687;  -34.700; -414.000; -334.000
384.817;   47.800;   75.000;   -2.000
384.947;   42.000; -234.000; -141.000
385.076;  567.800;  982.000;  912.000
385.206;  226.000;  369.000;  480.000
385.335;  -14.900; -549.000; -417.000
385.465; -157.900; -655.000; -663.000
385.594;  311.500;  -53.000;  -44.000
385.724;  712.900; -868.000; -838.000
385.853;  215.500; -296.000; -270.000
385.982; 2355.500; -743.000; -787.000
386.112; 3521.400;-1052.000; -871.000
386.241;  225.000; -307.000; -312.000
386.371;   69.700; -174.000;  -87.000
386.500;   20.700; -825.000; -789.000
386.629;   -1.700; -874.000; -817.000
386.759;  121.700;  -43.000;   68.000
386.888;   41.000; -170.000; -250.000
387.017; -119.900; -648.000; -620.000
387.147; -167.200; -771.000; -798.000
387.276;  -10.700; -410.000; -397.000
387.405;   68.200; -398.000; -342.000
387.535;  -74.000; -452.000; -361.000
387.664;  -74.300; -692.000; -620.000
387.793;  120.300; -198.000; -113.000
387.922;  916.900;  255.000;  200.000
388.052;   13.700; -576.000; -423.000
388.181;   55.500; -342.000; -472.000
388.310;  -31.400; -889.000; -710.000
388.439;  -81.100; -749.000; -742.000
388.568;  380.900;  365.000;  244.000
388.697; 1790.400; -756.000; -653.000
388.826;  276.500; -768.000; -666.000
388.956;  151.500; -285.000; -307.000
389.085;  -31.200; -347.000; -287.000
389.214; -173.000; -842.000; -872.000
389.343; -134.000; -645.000; -413.000
389.472;  576.500;  126.000;  149.000
389.601;  714.100;   91.000;    0.000
389.730;   65.100; -568.000; -687.000
389.859;  170.900;  226.000;   46.000
389.988;  358.300; -423.000; -408.000
390.117;  234.600; -168.000; -146.000
390.246;   21.300; -331.000; -320.000
390.375;  188.700; -673.000; -626.000
390.504;  -66.600; -703.000; -621.000
390.633; -197.200; -672.000; -726.000
390.761; -100.100; -732.000; -645.000
390.890;  100.700;   -4.000; -130.000
391.019;   35.400; -421.000; -441.000
391.148; -222.600; -826.000; -855.000
391.277; -100.600; -576.000; -493.000
391.406; -129.700; -821.000; -805.000
391.534;  128.800;  574.000; -301.000
391.663;  -94.300; -583.000; -645.000
391.792; -116.400; -673.000; -701.000
391.921;  188.100;   -3.000;   15.000
392.050;  339.300; -287.000; -228.000
392.178;  -74.800;-1206.000;-1061.000
392.307;  273.500; -758.000; -712.000
392.436;  136.600; -427.000; -641.000
392.564;   66.100;  166.000;   -6.000
392.693; -171.900; -860.000; -682.000
392.822;  326.800; -529.000; -534.000
392.950;  144.600; -880.000; -714.000
393.079;  599.200; -188.000; -328.000
393.208;   44.900; -488.000; -511.000
393.336;    8.200; -170.000; -145.000
393.465;  -63.600; -317.000; -199.000
393.593;   58.400;   62.000;   79.000
393.722; -278.000;-1121.000; -916.000
393.850;   25.000; -188.000;  -61.000
393.979; -281.800; -926.000; -805.000
394.107;  -96.700; -517.000; -537.000
394.236;  -65.400; -570.000; -507.000
394.364;  530.800;  383.000;  206.000
394.493;  795.200; -911.000; -767.000
394.621;  -23.500; -955.000; -916.000
394.750;  833.200; -873.000; -923.000
394.878; 3684.200; -247.000; -149.000
395.007; 4555.900; -721.000; -807.000
395.135;  306.000; -790.000; -721.000
395.263; -174.000;-1038.000;-1040.000
395.392;   71.100;  -25.000; -107.000
395.520; -165.100; -818.000; -679.000
395.648; -167.600; -865.000; -915.000
395.777;  -20.400; -366.000; -405.000
395.905;   -7.900; -449.000; -564.000
396.033;   87.400;  217.000;  172.000
396.162; 1376.200; -399.000; -453.000
396.290; 1136.900;  -17.000;   -2.000
396.418;  206.700; -555.000; -514.000
396.546; -122.700; -571.000; -466.000
396.674; -165.000; -850.000; -878.000
396.803;   43.900;  -72.000;  -23.000
396.931;  181.900; -179.000; -199.000
397.059;   62.700;-1026.000; -989.000
397.187; -184.000;-1026.000; -975.000
397.315; -234.800; -884.000; -649.000
397.443; -110.100; -592.000; -443.000
397.572; -145.700; -578.000; -424.000
397.700;  -31.400; -607.000; -614.000
397.828;   33.700;  120.000;  -90.000
397.956;  -78.400; -508.000; -478.000
398.084; -163.500; -767.000; -626.000
398.212;  106.600;  137.000;  124.000
398.340;   44.600;  -56.000;  159.000
398.468;   56.000; -390.000; -169.000
398.596; -235.800; -993.000; -953.000
398.724; -219.400; -762.000; -767.000
398.852; -274.700;-1024.000; -976.000
398.980; -103.000; -560.000; -560.000
399.108;  -92.900; -982.000; -735.000
399.236;  114.900;   13.000;    8.000
399.363;   61.200;  222.000;  196.000
399.491;  -75.300; -404.000; -398.000
399.619; -240.500; -829.000; -800.000
399.747; -174.400; -859.000; -771.000
399.875;  163.000;  220.000;  234.000
400.003;  -71.300; -359.000; -284.000
400.130; -153.400; -421.000; -341.000
400.258;   17.000;  -83.000;   38.000
400.386;  -76.000; -352.000; -168.000
400.514;  -60.800; -526.000; -587.000
400.641; -157.900; -928.000; -802.000
400.769; -238.900; -979.000; -888.000
400.897; -119.400; -838.000; -793.000
401.025;   20.100; -166.000; -152.000
401.152;   48.900;  220.000;   38.000
401.280; -121.100; -430.000; -429.000
401.408; -184.100; -712.000; -576.000
401.535; -198.200; -735.000; -758.000
401.663; -355.600;-1134.000;-1054.000
401.790; -144.600; -514.000; -525.000
401.918;  130.400;  436.000;  405.000
402.046;   34.000;  134.000;  122.000
402.173;  -25.900;  -18.000;    7.000
402.301; -109.200; -519.000; -397.000
402.428;  120.500;  528.000;  383.000
402.556; -259.200;-1188.000; -913.000
402.683;  -12.800;  -20.000;   -1.000
402.811;   19.000;  -37.000; -206.000
402.938;  -20.900;   20.000;   27.000
403.066;  337.600; -574.000; -558.000
403.193;  556.400;  299.000;  239.000
403.321;  410.200; -396.000; -574.000
403.448;  534.800;   83.000;   27.000
403.575;  290.100;  -90.000;  -46.000
403.703; -171.900; -732.000; -557.000
403.830;  -90.000; -531.000; -496.000
403.957; -259.900;-1117.000;-1023.000
404.085;   56.300;  -61.000; -172.000
404.212;  176.100;  -50.000;   63.000
404.339;  350.300; -566.000; -306.000
404.467; 6961.800; -612.000; -524.000
404.594; 4625.100; -287.000; -227.000
404.721; 1118.100; -869.000; -764.000
404.848;  126.400; -113.000; -202.000
404.976; -186.600; -856.000; -783.000
405.103;    5.600;  -14.000;  -82.000
405.230;   64.400;  190.000;  226.000
405.357;   36.700;  117.000;   44.000
405.484;  381.700;  -49.000;    5.000
405.612;   50.300; -548.000; -563.000
405.739;  -86.400; -488.000; -243.000
405.866;  199.800;  669.000;  385.000
405.993;  -56.700; -398.000; -102.000
406.120; -236.500; -801.000; -887.000
406.247;  -67.900; -323.000; -342.000
406.374;  818.700;  540.000;  629.000
406.501;  175.800; -632.000; -702.000
406.628;  -97.600; -621.000; -589.000
406.755; -147.300; -803.000; -620.000
406.882;  -54.800; -228.000; -277.000
407.009; -161.200; -719.000; -628.000
407.136;  164.600; -480.000; -401.000
407.263;  200.600; -939.000; -829.000
407.390; -147.400; -692.000; -614.000
407.517; -303.300;-1139.000;-1187.000
407.644;  -76.600; -332.000; -256.000
407.771; -271.000; -249.000; -287.000
407.898;   62.700;  168.000;  328.000
408.025; -111.900; -421.000; -313.000
408.151;   71.700;   82.000;  153.000
408.278; -110.000; -267.000; -216.000
408.405; -177.700; -931.000; -899.000
408.532; -101.000; -549.000; -542.000
408.659; -203.300; -677.000; -648.000
408.785; -386.100;-1298.000;-1170.000
408.912;  -84.900; -412.000; -296.000
409.039; -155.200; -610.000; -686.000
409.166; -153.800; -591.000; -555.000
409.292; -198.200; -571.000; -534.000
409.419; -204.700; -665.000; -649.000
409.546; -121.100; -431.000; -192.000
409.672; -194.400; -713.000; -545.000
409.799;  -14.900;  -36.000;   34.000
409.926;  -26.300; -180.000; -179.000
410.052; -330.700;-1127.000;-1091.000
410.179;  -72.200; -368.000; -392.000
410.305; -159.200; -375.000; -493.000
410.432;  -16.600; -220.000; -333.000
410.558; -114.700; -305.000; -380.000
410.685; -154.000; -688.000; -431.000
410.812; -140.000; -409.000; -588.000
410.938; -232.100; -964.000; -808.000
411.065; -105.800; -671.000; -645.000
411.191;   -5.200; -189.000; -174.000
411.317; -192.600; -823.000; -742.000
411.444;  -54.700; -317.000; -246.000
411.570; -110.300; -339.000; -294.000
411.697; -203.500; -758.000; -752.000
411.823; -315.000; -989.000; -999.000
411.949;   -4.700;  -56.000;   17.000
412.076; -183.400; -539.000; -519.000
412.202; -172.700; -758.000; -757.000
412.329; -246.800; -798.000; -752.000
412.455; -178.800; -821.000; -657.000
412.581;  -30.500;  -15.000;  172.000
412.707;  -99.200; -540.000; -457.000
412.834;   75.600;  156.000;  219.000
412.960; -138.500; -785.000; -784.000
413.086; -192.400; -743.000; -701.000
413.212;  310.900;  604.000;  578.000
413.339; -131.600; -685.000; -701.000
413.465;   12.000; -364.000; -310.000
413.591; -161.300; -757.000; -474.000
413.717;  -71.600; -358.000; -366.000
413.843; -268.300; -839.000; -861.000
413.969;  -54.600;  -47.000; -292.000
414.096; -149.000; -679.000; -679.000
414.222;   25.100;  -33.000;   85.000
414.348;  -36.200; -652.000; -385.000
414.474;  206.700;   38.000;  -52.000
414.600;   -2.600; -126.000; -144.000
414.726;    4.600;  -96.000;  -55.000
414.852; -113.000; -365.000; -342.000
414.978;   66.100;  104.000;  -18.000
415.104;   72.600;   38.000;   80.000
415.230;   32.200; -329.000; -330.000
415.356;   35.500; -409.000; -514.000
415.482;  294.800;   13.000;  -35.000
415.608;  324.300; -247.000; -323.000
415.734; 1254.400;   67.000;   38.000
415.860;25725.700; -875.000; -767.000
415.986;16934.100; -685.000; -607.000
416.111; 1299.800; -798.000; -652.000
416.237;  223.400; -424.000; -571.000
416.363; 1398.100; -765.000; -733.000
416.489; 4955.800; -324.000; -251.000
416.615;  393.200; -707.000; -742.000
416.741;  -58.900; -677.000; -784.000
416.866; -179.300; -673.000; -736.000
416.992; -227.400; -801.000; -818.000
417.118;  -26.500;  -41.000;  -80.000
417.244; -109.500; -798.000; -531.000
417.369; -156.000; -801.000; -612.000
417.495;   16.600; -325.000; -254.000
417.621; -186.200;-1015.000; -803.000
417.746;    7.500; -579.000; -572.000
417.872;   50.500; -254.000; -144.000
417.998;   29.200; -515.000; -530.000
418.123; 1284.900;-1073.000; -845.000
418.249; 6308.400; -512.000; -601.000
418.374;  702.600; -916.000; -824.000
418.500;   66.700; -383.000; -482.000
418.626;  178.600;   70.000;  -59.000
418.751;  153.800; -549.000; -448.000
418.877;  206.900; -637.000; -643.000
419.002; 2409.500; -688.000; -560.000
419.128;15153.300; -930.000; -721.000
419.253; 3259.400; -967.000; -837.000
419.379;  443.900; -391.000; -338.000
419.504;  551.600;  325.000;  415.000
419.629;  674.800; -393.000; -212.000
419.755; 4539.800; -317.000; -254.000
419.880;24767.100;  -98.000;   67.000
420.006;14189.200; -280.000; -221.000
420.131;35372.500; -662.000; -775.000
420.256; 4665.700; -315.000; -316.000
420.382;  577.800; -665.000; -687.000
420.507;   60.900; -649.000; -778.000
420.632;  257.000; -337.000; -339.000
420.758;  451.400; -251.000; -425.000
420.883; -151.100; -876.000; -672.000
421.008; -135.900; -775.000; -619.000
421.133; -140.900; -509.000; -467.000
421.259;  -14.600; -325.000; -259.000
421.384; -186.900; -834.000; -693.000
421.509;  -56.400;-1052.000; -862.000
421.634; 2172.100; -936.000; -820.000
421.759;  902.700; -359.000; -327.000
421.885;  -94.000; -717.000; -656.000
422.010; -113.700; -673.000; -542.000
422.135; -260.100; -695.000; -727.000
422.260;  112.300;  340.000;  280.000
422.385;  -25.300;   12.000;  -98.000
422.510;   73.700;  151.000;  -26.000
422.635;   98.400;  -87.000;  -43.000
422.760;  166.200; -766.000; -791.000
422.885;  107.200;  -57.000;  -80.000
423.010;  -29.200; -112.000; -169.000
423.135; -147.300; -481.000; -561.000
423.260;   21.800; -150.000; -245.000
423.385;  173.800;  476.000;  222.000
423.510;  106.800;   71.000;  -22.000
423.635;  171.100;  133.000;   45.000
423.760;  166.900;  383.000;  328.000
423.885;  145.400;  336.000;  391.000
424.010;   46.500;  -68.000;  -13.000
424.135;   -2.700;    5.000;  -33.000
424.259; -122.700; -654.000; -457.000
424.384;  -93.800; -279.000; -272.000
424.509;    8.600; -260.000; -186.000
424.634; -156.100; -761.000; -623.000
424.759;  -72.600; -688.000; -544.000
424.883;  -42.900; -506.000; -527.000
425.008;  202.700; -502.000; -410.000
425.133; 2497.300; -679.000; -653.000
425.258; 1016.800; -517.000; -381.000
425.382; 1717.600; -867.000; -774.000
425.507; 4176.700; -487.000; -543.000
425.632;  521.400; -802.000; -663.000
425.756;  577.400; -256.000; -146.000
425.881; 8214.000; -831.000; -857.000
426.006;19996.200; -604.000; -355.000
426.130; 2919.300; -696.000; -508.000
426.255;  397.900; -611.000; -491.000
426.379;  195.400; -189.000; -577.000
426.504;  568.700;  660.000;  544.000
426.629; 5133.900; -519.000; -466.000
426.753; 3262.800;   64.000;  -46.000
426.878;  388.100; -252.000; -288.000
427.002;  128.300; -651.000; -668.000
427.127; 2235.400;  -35.000; -158.000
427.251;14257.900;  372.000;  401.000
427.375; 3595.500; -191.000; -173.000
427.500; 3713.800; -616.000; -610.000
427.624; 1123.400; -234.000; -400.000
427.749;  187.400; -216.000; -225.000
427.873;  -42.200; -499.000; -412.000
427.997;  -41.500; -222.000; -230.000
428.122;  216.400;  795.000;  703.000
428.246;  187.200;  433.000;  434.000
428.371; -206.100; -869.000; -773.000
428.495; -109.800; -624.000; -646.000
428.619;  -12.400; -186.000; -117.000
428.743;  101.800;   65.000;  132.000
428.868;   42.600; -732.000; -643.000
428.992; 2387.500; -219.000; -326.000
429.116;  899.900; -329.000; -357.000
429.240;  550.000;  419.000;  426.000
429.365;  -43.700; -454.000; -574.000
429.489;  -35.200; -638.000; -647.000
429.613;   51.300; -236.000; -177.000
429.737;   60.800; -563.000; -432.000
429.861;  366.500; -247.000; -133.000
429.985; 7165.400; -425.000; -305.000
430.109; 7020.300; -770.000; -908.000
430.234;  821.000;   76.000;  -50.000
430.358;   41.000; -250.000; -160.000
430.482; -108.700; -672.000; -564.000
430.606;  -71.700; -655.000; -375.000
430.730;   51.700; -437.000; -388.000
430.854;  205.500; -909.000; -835.000
430.978; -133.200; -795.000; -764.000
431.102; -111.700; -499.000; -422.000
431.226; -140.400; -874.000; -815.000
431.350;  116.500;  345.000;  422.000
431.474;  -88.100; -661.000; -373.000
431.597; -260.900;-1060.000; -848.000
431.721; -116.500; -276.000; -267.000
431.845; -198.600; -704.000; -472.000
431.969;  -96.800; -304.000; -349.000
432.093; -126.100; -395.000; -317.000
432.217;   44.700;   32.000;   82.000
432.341; -143.000; -523.000; -518.000
432.464;   57.100;   96.000;   40.000
432.588;  369.600; -401.000; -329.000
432.712;  209.100;  -52.000;  -52.000
432.836;  124.600;  213.000;  263.000
432.959;  -25.900; -372.000; -311.000
433.083;  144.100;   11.000;    2.000
433.207;  541.800;  285.000;  930.000
433.330; 6347.600; -391.000; -200.000
433.454; 7108.500; -654.000; -638.000
433.578; 4279.100;  583.000;  278.000
433.701;  670.100; -623.000; -675.000
433.825;  173.300; -292.000; -299.000
433.949;  338.700;   28.000;  -72.000
434.072;  113.600; -410.000; -323.000
434.196;  -27.800; -309.000; -117.000
434.319; 7766.400;25482.000;25124.000
434.443; 1042.200; -656.000; -603.000
434.566; 3229.800;  281.000;   62.000
434.690;  430.700; -637.000; -383.000
434.813;   40.100; -251.000; -173.000
434.937; -123.300; -569.000; -696.000
435.060;  -31.700; -423.000; -332.000
435.184;  613.400; -492.000; -217.000
435.307;  303.600;  159.000;  102.000
435.431;   36.500;  -40.000;   24.000
435.554;  -77.200; -399.000; -240.000
435.677;  -99.700; -350.000; -258.000
435.801;  -32.300;  -25.000;   49.000
435.924;   45.800;    1.000;  -67.000
436.048; -179.600;-1019.000; -732.000
436.171;  -79.000; -240.000;  -66.000
436.294;  -65.200; -248.000; -229.000
436.417;   66.100; -963.000; -849.000
436.541; -180.900; -814.000; -840.000
436.664;  -64.800; -242.000; -316.000
436.787;   -1.400;   13.000;  113.000
436.910; -140.700; -792.000; -422.000
437.034;   68.200;  142.000;  143.000
437.157;  175.600;  -11.000;    0.000
437.280;  -74.100; -392.000; -292.000
437.403; -168.900; -982.000; -869.000
437.526; 1302.000; -903.000; -865.000
437.649; 4106.900; -505.000; -332.000
437.772;  523.900; -692.000; -540.000
437.896;  289.300;  700.000;  544.000
438.019; -164.800; -758.000; -503.000
438.142; -113.000; -596.000; -506.000
438.265;   -1.500; -639.000; -670.000
438.388;  954.900; -520.000; -410.000
438.511;  132.700; -597.000; -394.000
438.634;  -43.400; -247.000; -125.000
438.757; -235.600; -693.000; -619.000
438.880;   29.300;  -34.000;  -57.000
439.003; -101.700; -417.000; -437.000
439.126;  -61.900; -287.000; -167.000
439.248;  -41.000;  -98.000; -139.000
439.371;  -20.800;    9.000;  -53.000
439.494;  110.400;  510.000;  439.000
439.617;  -12.200;   65.000;  -88.000
439.740; -319.500; -968.000; -816.000
439.863; -241.800; -755.000; -595.000
439.986; -197.900; -476.000; -431.000
440.108;  -27.100; -161.000; -112.000
440.231; -275.700; -950.000; -836.000
440.354;    3.800;  -64.000; -150.000
440.477;   93.500; -566.000; -542.000
440.599;   33.900; -200.000; -225.000
440.722; -190.400; -709.000; -586.000
440.845;  215.500;  751.000;  928.000
440.968; -180.700; -415.000; -311.000
441.090;  -70.100; -199.000;  -33.000
441.213; -323.400;-1021.000; -825.000
441.336;  -50.100; -159.000;   -5.000
441.458; -103.000; -549.000; -396.000
441.581; -140.000; -628.000; -629.000
441.703;  -95.600; -152.000;   13.000
441.826; -146.700; -557.000; -400.000
441.948;  -46.000;   56.000;   51.000
442.071;  113.900;  555.000;  424.000
442.193; -178.800; -531.000; -485.000
442.316;  112.800;  152.000;   97.000
442.438;   56.200; -233.000;  -10.000
442.561;  171.400;  272.000;  262.000
442.683; 1018.200; -809.000; -522.000
442.806; 2078.600;   -8.000;   74.000
442.928;   26.000; -859.000; -604.000
443.051; -109.900; -577.000; -373.000
443.173; -142.500; -341.000; -339.000
443.295; -111.600; -263.000; -371.000
443.418;  -92.100; -321.000;  -29.000
443.540;   42.200; -106.000;   -4.000
443.662; -210.300; -563.000; -465.000
443.785;   20.300;  335.000;  199.000
443.907; -164.800; -362.000; -208.000
444.029; -198.400; -767.000; -494.000
444.152; -247.400; -644.000; -554.000
444.274;    9.000;  -18.000;  -24.000
444.396; -164.600; -461.000; -221.000
444.518; -211.300; -691.000; -454.000
444.640; -158.700; -268.000; -111.000
444.763;   27.900;  388.000;  249.000
444.885; -188.200; -432.000; -392.000
445.007;   19.200;   35.000;   86.000
445.129; -213.800; -610.000; -515.000
445.251; -147.800; -372.000; -439.000
445.373; -237.100; -537.000; -386.000
445.495;   89.000;  242.000;  350.000
445.617;  161.100;  853.000;  753.000
445.739;  -75.500; -215.000;  -97.000
445.861;   -9.400; -245.000; -112.000
445.984;  -22.400; -267.000; -101.000
446.105;  406.900; -418.000; -251.000
446.227; 1098.500; -176.000;  -19.000
446.349;   21.600; -358.000; -249.000
446.471; -155.800; -615.000; -448.000
446.593;  -72.100; -316.000;   19.000
446.715;   58.900;  -67.000;   41.000
446.837;  186.600;  697.000;  832.000
446.959; -117.800; -457.000; -478.000
447.081; -229.300; -628.000; -518.000
447.203;  162.900;  862.000;  834.000
447.325; -125.600; -270.000;   42.000
447.446;   86.900;  286.000;  530.000
447.568; -263.400; -921.000; -803.000
447.690;  -90.900; -236.000; -245.000
447.812; -226.800; -798.000; -519.000
447.933;   26.000;  155.000;  127.000
448.055; -114.400; -306.000; -261.000
448.177;  357.200;   31.000;   79.000
448.299;  121.800; -935.000; -727.000
448.420;  113.600;  -25.000;  159.000
448.542;  -25.500;   -3.000;   33.000
448.664;   28.300;  109.000;  322.000
448.785;  -19.100;  265.000;   83.000
448.907;  -94.300; -614.000; -353.000
449.028;  -67.300; -771.000; -471.000
449.150;  183.500;  492.000;  589.000
449.272; -304.700;-1044.000; -913.000
449.393;  125.100;  612.000;  694.000
449.515; -227.300; -634.000; -581.000
449.636;  -32.700; -264.000; -155.000
449.758;  174.100;  763.000;  622.000
449.879; -123.700; -498.000; -396.000
450.001; -129.900; -149.000;  -49.000
450.122;  -36.200;  -95.000;  162.000
450.244;  -23.800;   37.000;  364.000
450.365; -169.700; -495.000; -301.000
450.486;  -17.000;   80.000;  268.000
450.608;   94.600;  393.000;  326.000
450.729;  123.800;  578.000;  645.000
450.850;  -29.000; -574.000; -466.000
450.972;  893.100; -552.000; -389.000
451.093; 6016.000;  190.000;  588.000
451.214; 2187.600; -516.000; -337.000
451.336;  541.100;  773.000;  579.000
451.457;  139.400;  264.000;  393.000
451.578;  -38.200; -118.000;  -74.000
451.699; -200.900; -546.000; -540.000
451.821;  -69.000; -284.000;  -50.000
451.942;    5.300;  278.000;  285.000
452.063;  119.400;  228.000;  419.000
452.184;  695.900;  -54.000;  -49.000
452.305; 1336.000;  103.000;  170.000
452.427;  102.900; -549.000; -301.000
452.548;   -3.800;   23.000;   79.000
452.669;  -52.500; -257.000;  -89.000
452.790;  -22.500;    3.000;  -18.000
452.911;   43.000;  195.000;  259.000
453.032;  -46.800; -289.000;  -60.000
453.153;  -37.300;  -29.000;   81.000
453.274;  235.200;  737.000;  868.000
453.395;  -66.000;  -51.000;  175.000
453.516;  327.200; 1317.000; 1388.000
453.637;  -95.800; -205.000; -150.000
453.758;  -31.400;   15.000;   69.000
453.879; -186.700; -462.000; -250.000
454.000;  243.200; 1086.000;  948.000
454.121; -188.300; -554.000; -326.000
454.242; -165.600; -599.000; -383.000
454.362;  -67.300;  -99.000;  114.000
454.483;  -31.000; -309.000; -229.000
454.604;  141.600;  512.000;  580.000
454.725; -193.700; -627.000; -555.000
454.846; -215.000; -474.000; -406.000
454.967;    2.900;  230.000;  539.000
455.087;   -8.000;  179.000;  153.000
455.208;  109.100;  554.000;  856.000
455.329;  -68.200;  -22.000;   82.000
455.450;  128.800;  473.000;  633.000
455.570;  -93.500; -234.000; -211.000
455.691;   -0.100;  201.000;  407.000
455.812; -159.700; -270.000;  -92.000
455.932;  -52.200;  107.000;  -97.000
456.053;  -76.500;   36.000;   24.000
456.173; -172.900; -433.000; -355.000
456.294; -223.500; -476.000; -303.000
456.415;  -73.600;  -73.000;   70.000
456.535;   -9.800;  297.000;  273.000
456.656;  -36.000;  132.000;  240.000
456.776;  -81.400;    3.000;  298.000
456.897;   54.300;  308.000;  513.000
457.017; -111.400; -153.000;   -3.000
457.138; -151.700; -402.000; -249.000
457.258;   41.300;  263.000;  224.000
457.379;   70.600;  509.000;  521.000
457.499;    2.900;  443.000;  432.000
457.620; -170.100; -407.000; -231.000
457.740; -138.200; -132.000;  -11.000
457.860;  -57.100;   87.000;   44.000
457.981;  -55.000;  132.000;  124.000
458.101;  -82.200;  -89.000;   40.000
458.221;   39.300;  336.000;  402.000
458.342;  -62.300;   -4.000;  -37.000
458.462;   95.600;  617.000;  352.000
458.582;  -63.900; -302.000; -294.000
458.703;   76.900;  303.000;  154.000
458.823;  -11.200;   22.000;  163.000
458.943;   67.000;  341.000;  467.000
459.063;   14.900; 1124.000;  192.000
459.183;   -5.800;  328.000;  313.000
459.304;   47.900;  315.000;  517.000
459.424;  -79.300; -246.000;  -89.000
459.544;  513.500;  388.000;  764.000
459.664; 1086.300;  499.000;  506.000
459.784;  467.300; 1004.000; 1175.000
459.904;  176.900;  867.000;  744.000
460.024;  205.000;  867.000;  684.000
460.144;   85.900;  449.000;  554.000
460.264;   82.400;  515.000;  327.000
460.385; -134.700; -145.000; -119.000
460.505;  160.400;  905.000;  858.000
460.625; -141.800;  -17.000;  -68.000
460.745;   65.200;  396.000;  541.000
460.864;  -45.700;  153.000;  469.000
460.984;   79.900;  499.000;  573.000
461.104;  315.100; 1656.000; 1775.000
461.224;  123.600;  657.000;  650.000
461.344;   -2.100;  431.000;  360.000
461.464;   10.600;  258.000;  513.000
461.584;   38.600;  283.000;  466.000
461.704;  -42.800;   58.000;  108.000
461.824;  -65.100;  238.000;  259.000
461.943;  -11.700;  191.000;  130.000
462.063;  -96.700;    2.000;  324.000
462.183;  137.900;  639.000;  717.000
462.303;  252.700; 1678.000; 1230.000
462.422;  129.200;  781.000;  840.000
462.542;  -24.900;  271.000;  391.000
462.662;  143.900;  353.000;  380.000
462.782;  399.700;  833.000;  572.000
462.901;  653.500;  545.000;  717.000
463.021;  526.400; 1702.000; 1638.000
463.141;   66.700;  337.000;  770.000
463.260;   23.700;  614.000;  474.000
463.380;   86.900;  902.000;  884.000
463.499;  -24.600;  342.000;  332.000
463.619;    9.700;  581.000;  559.000
463.738;  326.600; 1644.000;  903.000
463.858;  113.500;  657.000;  811.000
463.978;    5.300;  542.000;  396.000
464.097;  144.500;  921.000; 1114.000
464.217;  256.300; 1196.000; 1143.000
464.336;  275.500; 1068.000; 1130.000
464.455;  -17.800;  328.000;  659.000
464.575;  147.700;  597.000;  602.000
464.694;  346.200; 1204.000; 1179.000
464.814;  276.400; 1190.000; 1138.000
464.933;  211.700; 1095.000; 1027.000
465.052;  278.100; 1412.000; 1054.000
465.172;  209.900;  922.000;  799.000
465.291;  352.200; 1376.000; 1320.000
465.410;  105.800;  462.000;  735.000
465.530;  256.200; 1355.000; 1310.000
465.649;  232.200; 1209.000; 1273.000
465.768;  348.000; 1673.000; 1508.000
465.888;  160.900;  941.000; 1174.000
466.007;  279.700; 1335.000; 1440.000
466.126;   39.400;  721.000;  641.000
466.245;  189.800; 1176.000; 1187.000
466.364;   83.400;  950.000; 1060.000
466.484;  211.500; 1024.000; 1213.000
466.603;  131.300; 1101.000; 1222.000
466.722;  317.100; 1490.000; 1769.000
466.841;  215.900; 1151.000; 1401.000
466.960;  130.800; 1069.000;  972.000
467.079;  337.800; 1971.000; 1786.000
467.198;  195.200; 1238.000; 1181.000
467.317;  231.200; 1768.000; 1162.000
467.436;  229.600; 1709.000; 1261.000
467.555;  309.100; 1796.000; 1746.000
467.674;  212.900; 1227.000; 1329.000
467.793;  168.200; 1376.000; 1374.000
467.912;  265.100; 1658.000; 1539.000
468.031;  338.200; 2038.000; 1930.000
468.150;  366.500; 1842.000; 1837.000
468.269;  473.300; 2313.000; 2090.000
468.388;  443.400; 2168.000; 2339.000
468.507;  588.200; 2884.000; 2903.000
468.626;  606.500; 2555.000; 2541.000
468.744;  333.900; 2018.000; 2174.000
468.863;  446.300; 2312.000; 2523.000
468.982;  245.600; 1503.000; 1555.000
469.101;  525.900; 2788.000; 2692.000
469.220;  382.400; 2333.000; 2176.000
469.338;  566.100; 2935.000; 3051.000
469.457;  448.500; 2719.000; 2545.000
469.576;  798.700; 3953.000; 3784.000
469.695;  540.800; 2877.000; 3066.000
469.813;  933.100; 4148.000; 4192.000
469.932;  879.700; 4255.000; 4485.000
470.051;  888.800; 4075.000; 4161.000
470.169; 1505.000; 4470.000; 4338.000
470.288; 2218.700; 4700.000; 4809.000
470.406; 1458.700; 5059.000; 5194.000
470.525; 1325.600; 6101.000; 5787.000
470.644; 1325.800; 6847.000; 6794.000
470.762; 1705.900; 8397.000; 7873.000
470.881; 1838.300; 8651.000; 8464.000
470.999; 2161.200; 9685.000; 9151.000
471.118; 2298.200;11174.000;10711.000

