
Integration time [ms]: 100.000
Averaging Nr. [scans]: 40
Smoothing Nr. [pixels]: 0
Data measured with spectrometer [name]: 2101012U2
Wave   ;Sample   ;Dark     ;Reference
[nm]   ;[counts] ;[counts] ;[counts] 

197.733;   55.650;  516.000;  404.000
197.879;  -87.500; -610.000; -634.000
198.025;  -49.900; -475.000; -420.000
198.171;  -88.675; -602.000; -612.000
198.317;  -37.625; -401.000; -316.000
198.463;  -65.500; -655.000; -404.000
198.609;    4.375;  181.000; -137.000
198.755;  -91.225; -644.000; -410.000
198.901;  -67.225; -505.000; -424.000
199.047;  -79.775; -615.000; -488.000
199.193;  -28.250; -230.000; -468.000
199.339;  -39.250; -222.000; -369.000
199.485;   32.925;  330.000;  271.000
199.631;   10.300;  227.000;  310.000
199.777;  -57.375; -466.000; -398.000
199.923;  -62.125; -610.000; -424.000
200.069;   -6.475; -141.000;  -58.000
200.215;   47.525;  128.000;  453.000
200.361;   38.775;  243.000;  477.000
200.507;  -68.025; -600.000; -373.000
200.653;  -42.750; -371.000; -194.000
200.798;  -36.700; -215.000; -125.000
200.944;   -2.675; -146.000;  -41.000
201.090;   31.050;   61.000;  222.000
201.236;   -8.675; -116.000; -158.000
201.382;  133.375;  874.000;  903.000
201.528;   -0.775;  -58.000;  -48.000
201.674;  -61.700; -386.000; -293.000
201.819;  -60.850; -540.000; -439.000
201.965; -102.250; -699.000; -447.000
202.111;  -25.025; -273.000; -226.000
202.257;  -30.950; -250.000; -238.000
202.402;    0.475;   13.000;  -36.000
202.548;  -39.475; -169.000; -116.000
202.694;   69.200;  410.000; -183.000
202.840;  -85.200; -603.000; -531.000
202.985;  -81.125; -681.000; -639.000
203.131; -115.100; -832.000; -666.000
203.277;  -31.825; -199.000; -262.000
203.423;  -58.600; -434.000; -520.000
203.568;  -41.250; -462.000; -237.000
203.714;  -63.800; -535.000; -542.000
203.860;  -91.775; -682.000; -641.000
204.005;    2.525;  112.000;  167.000
204.151;   73.150;  561.000;  556.000
204.296;  -55.400; -354.000; -221.000
204.442;  -80.575; -600.000; -547.000
204.588;  -73.450; -592.000; -579.000
204.733;   17.925;  178.000;  168.000
204.879; -135.075;-1018.000; -822.000
205.025;   14.925;  -99.000;  126.000
205.170;   -3.425;  -17.000;   94.000
205.316;   83.775;  438.000;  661.000
205.461;  -74.400; -698.000; -554.000
205.607;   82.725;  609.000;  665.000
205.752;  -83.100; -626.000; -551.000
205.898;  -64.600; -501.000; -391.000
206.043;  -72.075; -578.000; -506.000
206.189;  -41.950; -243.000; -285.000
206.334;   79.050;  554.000;  606.000
206.480;   86.075;  409.000;  239.000
206.625;  -86.875; -529.000; -552.000
206.771;  -43.400; -451.000; -373.000
206.916;  -40.525; -210.000; -537.000
207.062;  -74.925; -545.000; -591.000
207.207;  -64.875; -546.000; -443.000
207.353;   52.500;  185.000;  460.000
207.498;   11.725;  196.000;   85.000
207.643;  -58.300; -501.000; -370.000
207.789; -135.250;-1069.000; -910.000
207.934; -109.125; -665.000; -713.000
208.080;  -34.950; -154.000;   66.000
208.225;   -1.325;  -22.000;  -57.000
208.370;  -90.500; -727.000; -619.000
208.516;  -74.900; -741.000; -487.000
208.661;  -27.775; -127.000;  -69.000
208.806;  -35.500; -165.000; -171.000
208.952; -121.775;-1044.000; -731.000
209.097;   78.100;  378.000;  349.000
209.242;  -57.600; -307.000; -382.000
209.387;   47.350;  392.000;  350.000
209.533;  -63.150; -321.000; -350.000
209.678;   72.400;  472.000;  543.000
209.823;  -59.525; -408.000; -310.000
209.969; -109.150; -860.000; -757.000
210.114; -105.100; -907.000; -719.000
210.259; -122.150; -939.000; -889.000
210.404;  -14.025; -171.000;  103.000
210.549;   21.975;  108.000;    3.000
210.695;  -19.150;   -3.000;  -95.000
210.840;   31.875;   94.000;   67.000
210.985;  -70.600; -484.000; -303.000
211.130;   62.850;  268.000;  406.000
211.275;    8.700;  207.000;  199.000
211.420;  -61.475; -300.000; -289.000
211.566;  -82.375; -536.000; -489.000
211.711;   34.950;  218.000;  157.000
211.856;  -61.400; -545.000; -519.000
212.001;   12.650;  151.000;   44.000
212.146;   21.225;  153.000;   49.000
212.291;  -30.775; -210.000; -186.000
212.436;  -33.450; -280.000;   -6.000
212.581;  -93.425; -685.000; -653.000
212.726;  -84.600; -487.000; -538.000
212.871;  -54.350; -552.000; -217.000
213.016; -156.575;-1172.000;-1029.000
213.161;   44.900;  406.000;  291.000
213.306;  -71.300; -435.000; -577.000
213.451; -100.475; -778.000; -689.000
213.596;  -49.775; -455.000; -347.000
213.741;  -51.025; -448.000; -538.000
213.886;  -82.150; -498.000; -517.000
214.031;  -27.900; -294.000; -124.000
214.176;  -68.975; -408.000; -341.000
214.321;  -20.750; -296.000; -157.000
214.466;  -21.975; -163.000;  -43.000
214.611;   -0.375;  -61.000;  -10.000
214.756; -122.475; -948.000; -858.000
214.901;  -28.800; -388.000; -226.000
215.046; -124.425; -797.000; -825.000
215.191;   10.625;  128.000;   35.000
215.336;  -16.175; -157.000;  -19.000
215.480;  -86.175; -684.000; -505.000
215.625;  -11.450; -175.000;  -19.000
215.770;  -79.150; -757.000; -662.000
215.915;  -19.675;   -5.000;  -97.000
216.060;  -15.650; -113.000;  -21.000
216.205; -107.800; -731.000; -779.000
216.349;  -81.850; -470.000; -533.000
216.494; -143.200; -939.000; -867.000
216.639; -111.250; -823.000; -888.000
216.784;  -89.425; -577.000; -525.000
216.929;   28.325;  392.000;  281.000
217.073;  -17.925; -244.000;  -31.000
217.218;   12.275;   78.000;  -47.000
217.363;  -87.000; -656.000; -618.000
217.507;  -88.600; -623.000; -588.000
217.652; -132.475; -845.000; -874.000
217.797;  -85.950; -708.000; -659.000
217.942; -118.175; -856.000; -720.000
218.086;   64.125;  608.000;  539.000
218.231;  -14.800; -174.000;  -26.000
218.376;  -33.550; -337.000; -229.000
218.520;    2.025;  -41.000;   96.000
218.665;  -37.700; -338.000; -204.000
218.810;  -49.725; -275.000; -233.000
218.954;   20.625;  201.000;   35.000
219.099; -119.250; -713.000; -963.000
219.243;  -64.800; -589.000; -554.000
219.388;  -51.100; -264.000; -136.000
219.532;  -22.625; -116.000; -116.000
219.677;  -82.900; -564.000; -521.000
219.822;    2.550;   33.000;   89.000
219.966;    4.875;   17.000;  -99.000
220.111;  -53.175; -328.000;  -40.000
220.255; -106.275; -797.000; -750.000
220.400;  -22.450; -180.000; -146.000
220.544;  -65.875; -516.000; -450.000
220.689;  -55.475; -422.000; -451.000
220.833;  -27.600; -123.000;  -58.000
220.978;  -58.450; -393.000; -563.000
221.122;   12.125;  319.000;  307.000
221.267; -131.400; -906.000; -837.000
221.411;  -85.100; -478.000; -394.000
221.555;    2.825; -104.000;  -23.000
221.700;  -51.200; -329.000; -222.000
221.844;   24.100;  255.000;  272.000
221.989;  -57.175; -328.000; -311.000
222.133;  -48.050; -289.000; -307.000
222.277;  -14.250;    5.000;   78.000
222.422;   17.375;  227.000;  113.000
222.566;  -48.675; -381.000; -214.000
222.711;  -65.925; -414.000; -479.000
222.855;  -74.850; -643.000; -586.000
222.999; -103.950; -642.000; -717.000
223.144;  -39.550; -195.000; -194.000
223.288;   51.175;  423.000;  251.000
223.432;   29.375;  184.000;  230.000
223.576;    5.975;  152.000;  -21.000
223.721;   37.600;  364.000;  273.000
223.865;  -72.300; -472.000; -475.000
224.009;  272.400; 1673.000; 1631.000
224.153;  -94.875; -660.000; -671.000
224.298;  -84.650; -531.000; -489.000
224.442;  -24.600;  -74.000;  -33.000
224.586;  -18.850; -169.000; -106.000
224.730; -104.750; -858.000; -670.000
224.875; -138.250; -739.000; -688.000
225.019;   -3.300;  102.000;  188.000
225.163;   50.400;  208.000;  341.000
225.307;    7.550;   97.000;  -91.000
225.451;   54.250;  360.000;  481.000
225.595;   19.600;  264.000;  176.000
225.739;  -20.825; -170.000;  -94.000
225.884;  -11.225;   86.000;    5.000
226.028;  -90.425; -760.000; -626.000
226.172;  -36.175; -260.000; -273.000
226.316; -131.125; -941.000; -902.000
226.460;  -72.325; -645.000; -493.000
226.604;  -47.025; -406.000; -400.000
226.748; -105.875; -836.000; -733.000
226.892;  -36.175; -227.000; -181.000
227.036;  -48.175; -537.000; -447.000
227.180;  -68.125; -551.000; -375.000
227.324;  -63.075; -561.000; -580.000
227.468; -131.200; -819.000; -717.000
227.612;    7.050;  242.000;  -28.000
227.756; -110.375; -845.000; -698.000
227.900;   56.700;  342.000;  441.000
228.044;  -67.500; -509.000; -290.000
228.188;   35.000;  448.000;  568.000
228.332;  -91.550; -546.000; -472.000
228.476;  -35.650; -223.000; -149.000
228.620;  -37.550; -210.000; -150.000
228.764;   61.750;  431.000;  349.000
228.908;  -36.075; -155.000;   30.000
229.052;  -62.125; -615.000; -528.000
229.195;   -9.725; -172.000;   13.000
229.339;  -28.250; -235.000; -305.000
229.483;  -23.550;    5.000; -162.000
229.627;  -12.550; -156.000;  139.000
229.771;  -55.500; -218.000; -294.000
229.915;   -3.600;  230.000;   79.000
230.059;  -93.050; -648.000; -663.000
230.202;  -44.400; -370.000; -317.000
230.346;  -16.550; -107.000;  107.000
230.490;  -75.400; -489.000; -521.000
230.634;  -96.925; -736.000; -553.000
230.777;   72.725;  478.000;  509.000
230.921;  -67.100; -450.000; -359.000
231.065;  -45.750; -246.000; -286.000
231.209;   27.000;  261.000;  265.000
231.352;    7.425;   54.000;   40.000
231.496;   15.750;  568.000;  188.000
231.640;  -93.300; -693.000; -621.000
231.783;   55.300;  546.000;  525.000
231.927;  -46.000; -294.000; -365.000
232.071; -137.925; -962.000; -736.000
232.214; -117.175; -980.000; -764.000
232.358; -116.075; -683.000; -599.000
232.502;   14.575;  -19.000;    7.000
232.645; -140.125;-1090.000; -927.000
232.789;  -36.575; -257.000; -218.000
232.933;  -46.850; -407.000; -224.000
233.076; -134.850;-1038.000; -897.000
233.220; -114.800; -752.000; -777.000
233.363;  -85.900; -669.000; -477.000
233.507;   48.400;  371.000;  129.000
233.650; -114.900; -764.000; -834.000
233.794;   36.275;  438.000;  461.000
233.938;  -67.125; -530.000; -362.000
234.081;  -24.050;  -93.000;   31.000
234.225;  -62.475; -631.000; -539.000
234.368; -120.825; -773.000; -723.000
234.512;  -44.825; -385.000; -299.000
234.655;  -93.950; -582.000; -555.000
234.798;  -85.100; -493.000; -466.000
234.942; -131.025; -884.000;-1002.000
235.085;  -78.800; -651.000; -443.000
235.229;  -81.275; -405.000; -410.000
235.372;  -57.725; -247.000; -191.000
235.516;  -75.575; -397.000; -321.000
235.659;   22.350;   92.000;  121.000
235.802;  -16.500;  -38.000;  -22.000
235.946;   36.300;  335.000;  215.000
236.089;    8.075;  126.000;  250.000
236.233;   46.125;  275.000;  298.000
236.376;  -50.025; -235.000; -378.000
236.519;  -45.950; -297.000; -319.000
236.663;  -27.200; -215.000; -117.000
236.806; -139.200;-1029.000; -999.000
236.949;   70.625;  543.000;  431.000
237.092;   58.025;  412.000;  391.000
237.236;  -87.600; -589.000; -502.000
237.379;   65.900;  352.000;  428.000
237.522; -134.650; -879.000; -768.000
237.666;  -17.775; -271.000;   18.000
237.809; -129.725; -851.000; -823.000
237.952;   41.975;  469.000;  271.000
238.095;  -75.150; -447.000; -442.000
238.238;   79.500;  688.000;  700.000
238.382;   -6.725;  166.000;  103.000
238.525;  -77.350; -598.000; -511.000
238.668; -145.275;-1060.000; -985.000
238.811; -101.025; -638.000; -643.000
238.954;  -65.575; -483.000; -334.000
239.097;   85.325;  617.000;  664.000
239.241;   18.975;  394.000;  326.000
239.384;  -33.025; -254.000; -214.000
239.527;  -65.775; -424.000; -224.000
239.670; -159.325; -994.000;-1091.000
239.813; -121.525; -696.000; -658.000
239.956;   73.925;  579.000;  473.000
240.099; -108.125; -778.000; -725.000
240.242;   57.925;  428.000;  432.000
240.385;   52.600;  466.000;  450.000
240.528;  -72.325; -706.000; -473.000
240.671;    1.925;  189.000;  134.000
240.814;  -50.225; -441.000; -158.000
240.957;  -97.825; -767.000; -578.000
241.100;  -93.225; -779.000; -755.000
241.243; -155.625;-1234.000; -893.000
241.386;  -84.325; -508.000; -379.000
241.529; -104.550; -735.000; -547.000
241.672;  -75.150; -566.000; -495.000
241.815; -119.625; -832.000; -808.000
241.958;  -37.100; -125.000; -182.000
242.101;  -74.775; -545.000; -390.000
242.244;  -39.000; -270.000; -325.000
242.387;  -51.350; -304.000; -246.000
242.530;   72.900;  470.000;  134.000
242.673;  -45.950; -381.000; -309.000
242.815; -126.200; -925.000; -899.000
242.958;  -94.350; -482.000; -381.000
243.101;    2.800;  132.000;  187.000
243.244;  -90.150; -564.000; -521.000
243.387;  -54.150; -313.000; -316.000
243.530; -109.475; -657.000; -674.000
243.672;  -10.700;   43.000;  -92.000
243.815;  -59.000; -355.000; -283.000
243.958;  -14.525;   98.000;  -26.000
244.101;   -1.550;   59.000;  -16.000
244.243;   -0.750;  -47.000;  101.000
244.386; -123.850; -761.000; -630.000
244.529;  -37.050; -132.000; -139.000
244.672; -158.125;-1154.000; -951.000
244.814; -119.925; -621.000; -794.000
244.957;  -51.850; -380.000; -304.000
245.100;  -86.200; -489.000; -489.000
245.242;  -74.125; -387.000; -374.000
245.385;  -15.075;  -59.000;  -39.000
245.528; -131.600; -871.000; -705.000
245.670;   84.475;  612.000;  634.000
245.813;  -99.500; -599.000; -547.000
245.956;  -37.400; -324.000; -275.000
246.098;  -83.950; -508.000; -650.000
246.241;   -0.600;  194.000;   48.000
246.383;  -25.800; -119.000;  -73.000
246.526;  -77.900; -454.000; -525.000
246.669; -111.025; -889.000; -780.000
246.811;    6.900;  172.000;   -1.000
246.954;  -56.000; -512.000; -426.000
247.096;  -27.400;  -84.000;   -6.000
247.239;  -84.250; -482.000; -445.000
247.381;  -82.450; -647.000; -488.000
247.524;   90.775;  645.000;  679.000
247.666;   -7.400;   58.000;   11.000
247.809; -130.725; -887.000; -691.000
247.951;  -16.225;  -75.000;  138.000
248.094;    6.950;  432.000;  308.000
248.236; -171.875;-1262.000;-1238.000
248.378;  -47.150; -356.000;  -81.000
248.521;  -47.575; -334.000; -337.000
248.663;  -55.100; -236.000; -267.000
248.806;  -51.500; -300.000; -266.000
248.948; -132.025; -886.000; -763.000
249.090;  -79.900; -428.000; -398.000
249.233;  -76.175; -344.000; -381.000
249.375;  -69.450; -474.000; -451.000
249.518;  -32.050;  -83.000; -133.000
249.660;  -20.050; -103.000;    3.000
249.802; -191.775;-1303.000;-1189.000
249.945;  -98.450; -612.000; -540.000
250.087; -130.700; -834.000; -768.000
250.229;  -63.925; -362.000; -480.000
250.371;  -77.600; -494.000; -439.000
250.514;  -58.900; -310.000; -244.000
250.656;  -63.275;   69.000;  102.000
250.798; -124.700; -849.000; -800.000
250.940;  -76.225; -322.000; -322.000
251.083;  -38.450; -335.000; -111.000
251.225;   44.250;  338.000;  310.000
251.367;  -54.050; -274.000; -373.000
251.509;  -41.725; -265.000; -210.000
251.651; -106.625; -731.000; -671.000
251.794;   70.375;  538.000;  632.000
251.936; -125.050; -821.000; -747.000
252.078;  -93.150; -540.000; -461.000
252.220;  -82.200; -645.000; -477.000
252.362;   20.725;  344.000;  462.000
252.504;  -93.875; -677.000; -584.000
252.646; -130.350; -875.000; -722.000
252.788;  -29.475;   14.000; -128.000
252.931;  -61.225; -257.000; -253.000
253.073;  -61.300; -376.000; -317.000
253.215;  -15.350;  141.000;  122.000
253.357;  -26.500;   82.000; -153.000
253.499;  -66.300; -374.000; -234.000
253.641; -120.500; -749.000; -594.000
253.783; -117.150; -609.000; -527.000
253.925; -102.350; -586.000; -591.000
254.067; -134.025; -744.000; -667.000
254.209;  -52.925; -391.000; -259.000
254.351; -150.100; -865.000; -883.000
254.493;  -74.975; -441.000; -417.000
254.635; -156.675; -936.000; -818.000
254.777; -112.075; -752.000; -687.000
254.918;  -94.525; -512.000; -430.000
255.060;  -72.975; -551.000; -395.000
255.202;  -68.875; -473.000; -261.000
255.344;  -83.725; -658.000; -455.000
255.486;  -78.225; -471.000; -406.000
255.628; -112.625; -780.000; -781.000
255.770; -112.850; -676.000; -536.000
255.912;  -87.600; -559.000; -468.000
256.053;  -92.950; -730.000; -508.000
256.195;  152.700; 1008.000;  903.000
256.337; -128.625; -861.000; -595.000
256.479;   69.225;  532.000;  416.000
256.621;  -72.300; -394.000; -212.000
256.762; -115.450; -789.000; -742.000
256.904;   43.200;  485.000;  487.000
257.046;  -56.900; -381.000; -271.000
257.188;  -58.475; -351.000; -264.000
257.329;  -81.775; -525.000; -464.000
257.471; -126.550; -939.000; -807.000
257.613;  -77.850; -584.000; -498.000
257.755; -170.150;-1073.000; -982.000
257.896;   29.025;  286.000;  392.000
258.038;  -71.150; -403.000; -352.000
258.180;  -51.400; -354.000; -279.000
258.321;  -96.950; -581.000; -457.000
258.463;  -10.650;  -71.000;  133.000
258.605; -109.450; -562.000; -570.000
258.746; -118.700; -886.000; -772.000
258.888; -151.425;-1026.000;-1020.000
259.029;    3.375;  121.000;   -8.000
259.171; -112.375; -614.000; -550.000
259.313;  -23.300;  -49.000;  -47.000
259.454;  -79.175; -536.000; -414.000
259.596;  -73.875; -483.000; -390.000
259.737;  -90.300; -590.000; -474.000
259.879;   35.125;  217.000;  311.000
260.020;   79.375;  901.000;  636.000
260.162;  -39.750; -146.000; -253.000
260.303; -113.425; -768.000; -687.000
260.445;  -95.525; -609.000; -613.000
260.586;   10.050;  392.000;  157.000
260.728;  -49.825; -360.000; -248.000
260.869; -131.525; -350.000; -343.000
261.011;   71.475;  706.000;  537.000
261.152;  -68.700; -479.000; -319.000
261.293;  -93.200; -576.000; -595.000
261.435;  -51.975; -219.000; -184.000
261.576;  -69.100; -455.000; -325.000
261.718;   37.950;  420.000;  470.000
261.859; -147.500; -940.000; -949.000
262.000; -141.875; -951.000;-1016.000
262.142;  -33.675;  -52.000;  -60.000
262.283; -135.275; -808.000; -691.000
262.424; -113.725; -666.000; -625.000
262.566; -164.100;-1161.000; -983.000
262.707; -135.950; -840.000; -830.000
262.848; -126.500; -769.000; -726.000
262.990;  -48.000; -362.000; -345.000
263.131;   69.300;  650.000;  681.000
263.272;  -24.200;  -61.000;  -41.000
263.413; -100.700; -589.000; -561.000
263.555;  -81.750; -669.000; -143.000
263.696; -106.850; -550.000; -641.000
263.837;  -65.850; -449.000; -551.000
263.978;  -10.400;   -5.000;  -77.000
264.119;  -50.525; -283.000; -264.000
264.261; -126.975; -847.000; -630.000
264.402;   -9.325;   33.000;   40.000
264.543; -102.150; -509.000; -524.000
264.684;  -18.000;   61.000;  -50.000
264.825;  -89.500; -816.000; -538.000
264.966;  -24.475;  -84.000;  -67.000
265.107; -126.375; -646.000; -670.000
265.248; -128.725; -825.000; -812.000
265.390;  -24.025;  152.000;   -9.000
265.531;  -34.200; -238.000; -107.000
265.672; -102.875; -557.000; -630.000
265.813;   52.725;  563.000;  439.000
265.954; -160.475; -959.000; -940.000
266.095;  -25.500; -372.000; -322.000
266.236; -111.100; -686.000; -548.000
266.377;  -54.400; -243.000; -297.000
266.518;  -79.700; -619.000; -547.000
266.659;   20.250;  170.000;  268.000
266.800;   -8.600;   83.000;   85.000
266.941;  -88.300; -487.000; -478.000
267.082;    2.100;  354.000;   99.000
267.223;  -62.825; -344.000; -273.000
267.364; -118.875; -892.000; -686.000
267.504;  -18.775;    3.000;  135.000
267.645;  -13.075;  160.000;   67.000
267.786;  -45.025; -147.000;  -86.000
267.927; -100.325; -473.000; -379.000
268.068;  -31.275; -186.000;  -61.000
268.209;  -62.275; -175.000; -413.000
268.350;  -70.425; -388.000; -532.000
268.490;  -97.000; -648.000; -521.000
268.631;   21.175;  127.000;  225.000
268.772; -118.650; -874.000; -647.000
268.913;  -72.950; -328.000; -476.000
269.054;  -39.475; -117.000;   12.000
269.194;  -66.675; -418.000; -402.000
269.335; -167.875;-1137.000;-1074.000
269.476;  -31.575;   33.000;  -35.000
269.617;  -69.300; -347.000; -392.000
269.757; -109.950; -713.000; -646.000
269.898; -129.000; -856.000; -613.000
270.039;  -82.450; -415.000; -405.000
270.180; -146.200; -952.000; -816.000
270.320;  -43.075; -190.000; -250.000
270.461;  -55.975; -277.000; -249.000
270.602;  -28.825; -186.000; -156.000
270.742; -142.750; -868.000; -943.000
270.883;  -69.400; -442.000; -390.000
271.023;  -85.150; -358.000; -357.000
271.164;  -88.500; -607.000; -528.000
271.305; -128.900; -666.000; -654.000
271.445;  -89.850; -722.000; -683.000
271.586;  -83.725; -462.000; -283.000
271.726;  -59.300; -397.000; -322.000
271.867; -117.075; -594.000; -534.000
272.008;  -50.500; -473.000; -285.000
272.148;   37.750;  462.000;  468.000
272.289;  -36.525; -113.000; -181.000
272.429;   -3.975;   19.000;  185.000
272.570; -120.150; -633.000; -737.000
272.710; -127.325; -825.000; -775.000
272.851;  -24.475;  113.000; -130.000
272.991; -180.375;-1173.000;-1077.000
273.131;  -89.350; -419.000; -459.000
273.272; -118.350; -683.000; -723.000
273.412;  -42.475; -143.000;  -31.000
273.553;  -92.475; -488.000; -507.000
273.693;   96.325;  913.000;  858.000
273.834; -146.225; -894.000; -692.000
273.974;  -93.825; -664.000; -615.000
274.114; -118.975; -772.000; -560.000
274.255;   17.800;  414.000;  373.000
274.395;  -47.600; -180.000; -125.000
274.535;   15.850;  199.000;  350.000
274.676;    5.025;  225.000;   94.000
274.816;   -4.250;  110.000;   34.000
274.956; -128.425; -624.000; -690.000
275.097; -142.425;-1014.000; -922.000
275.237; -144.800; -913.000; -803.000
275.377; -124.800; -778.000; -689.000
275.517; -176.125; -878.000; -937.000
275.658;  -89.050; -590.000; -555.000
275.798; -117.050; -606.000; -413.000
275.938;   10.400;  215.000;  323.000
276.078; -106.975; -626.000; -395.000
276.218;    0.475;   99.000;  104.000
276.359; -145.525;-1026.000;-1024.000
276.499;  -90.250; -605.000; -446.000
276.639;  -47.375; -305.000; -151.000
276.779;  -72.975; -475.000; -357.000
276.919; -121.350; -783.000; -624.000
277.059;  -35.100; -261.000; -212.000
277.199;  -63.850; -357.000; -259.000
277.340;   33.075;  287.000;  175.000
277.480; -126.375; -840.000; -693.000
277.620;    6.075;  192.000;   16.000
277.760; -222.375;-1533.000;-1294.000
277.900;  -11.650;  113.000;   33.000
278.040;  -18.625;  137.000;  159.000
278.180;   17.800;  270.000;  170.000
278.320;  -28.450;   21.000;   56.000
278.460;  -81.675; -443.000; -469.000
278.600;  -97.500; -708.000; -598.000
278.740;   40.100;  448.000;  224.000
278.880; -152.050; -768.000; -791.000
279.020;  -38.975; -194.000; -144.000
279.160;  -97.325; -672.000; -595.000
279.300; -140.325; -926.000; -873.000
279.440; -119.575; -709.000; -622.000
279.579; -152.975;-1014.000; -929.000
279.719;  -92.050; -410.000; -394.000
279.859;  -18.000;   -4.000;   41.000
279.999;  -42.100; -208.000;  101.000
280.139;  -72.375; -435.000; -387.000
280.279; -120.375; -708.000; -745.000
280.419;  -33.525; -229.000; -147.000
280.559;  -49.375; -259.000; -180.000
280.698; -100.925; -790.000; -639.000
280.838; -126.700; -778.000; -800.000
280.978; -115.825; -846.000; -790.000
281.118; -131.250; -811.000; -704.000
281.257;  -14.225;   24.000;    6.000
281.397; -177.650;-1094.000; -960.000
281.537; -105.350; -599.000; -712.000
281.677;  -48.600; -150.000; -101.000
281.816; -107.200; -700.000; -630.000
281.956;  -50.575; -193.000; -257.000
282.096;  -83.225; -539.000; -396.000
282.235; -129.225; -672.000; -638.000
282.375;  -40.875; -243.000;  -98.000
282.515; -138.050; -715.000; -707.000
282.654;  -20.800;   29.000;  106.000
282.794;   14.825;  388.000;  244.000
282.934;  -74.325; -530.000; -491.000
283.073; -158.975;-1030.000; -857.000
283.213;  -74.475; -460.000; -467.000
283.353;  -83.425; -408.000; -349.000
283.492;  -40.825; -264.000; -296.000
283.632;  -66.500; -254.000; -168.000
283.771; -122.400; -859.000; -730.000
283.911;  -74.075; -369.000; -260.000
284.050; -118.650; -794.000; -748.000
284.190; -180.825;-1229.000;-1096.000
284.329; -167.525;-1055.000; -964.000
284.469; -113.175; -516.000; -591.000
284.608;  -88.200; -559.000; -598.000
284.748;  -99.975; -614.000; -570.000
284.887;  -29.850;  -87.000;  -20.000
285.027; -147.025; -844.000; -892.000
285.166;  -41.575; -192.000; -249.000
285.306;  -27.325; -116.000;  -33.000
285.445;  -64.800; -229.000; -343.000
285.584; -105.725; -630.000; -494.000
285.724;  -52.625; -282.000; -322.000
285.863; -137.350; -857.000; -507.000
286.002;  -80.375; -366.000; -276.000
286.142; -119.025; -715.000; -622.000
286.281;  -84.300; -525.000; -493.000
286.420;  -89.700; -554.000; -417.000
286.560;   87.050;  653.000;  623.000
286.699; -163.975; -958.000; -912.000
286.838; -113.875; -590.000; -591.000
286.978; -116.800; -533.000; -537.000
287.117; -154.200;-1085.000; -950.000
287.256;  -44.025; -228.000; -211.000
287.395;  -60.950; -197.000; -378.000
287.535;  -71.125; -370.000; -298.000
287.674; -105.025; -509.000; -484.000
287.813;   52.300;  661.000;  533.000
287.952; -151.825;-1010.000; -871.000
288.091; -174.375;-1049.000; -915.000
288.231;   -8.350;   13.000;   15.000
288.370; -199.925;-1217.000;-1200.000
288.509; -101.075; -728.000; -645.000
288.648; -107.750; -770.000; -548.000
288.787;  -59.700; -243.000;  -87.000
288.926;  -88.900; -454.000; -475.000
289.065;   93.150;  859.000;  672.000
289.204;  -78.250; -377.000; -217.000
289.344; -112.800; -791.000; -690.000
289.483;   -1.975;  416.000;  304.000
289.622;  -47.175; -291.000; -149.000
289.761;  -40.975; -309.000; -166.000
289.900; -122.375; -785.000; -626.000
290.039;  -39.950;  -12.000;  -95.000
290.178;  -53.775; -274.000; -180.000
290.317; -110.650; -618.000; -479.000
290.456;  -74.650; -463.000; -451.000
290.595; -165.025; -961.000; -833.000
290.734; -163.950; -904.000; -891.000
290.873;  -80.800; -456.000; -420.000
291.011; -139.850; -833.000; -843.000
291.150; -127.900; -770.000; -682.000
291.289;  -40.550; -343.000; -110.000
291.428; -122.550; -599.000; -480.000
291.567;  -62.300; -370.000; -442.000
291.706;  -19.400;  109.000;  154.000
291.845; -102.175; -597.000; -505.000
291.984; -177.125;-1234.000;-1061.000
292.122;   54.000;  602.000;  582.000
292.261;   26.250;  620.000;  463.000
292.400;  -19.450; -144.000;  211.000
292.539; -144.125; -959.000; -813.000
292.678;  -67.275; -325.000; -300.000
292.816; -178.525;-1136.000; -965.000
292.955; -123.850; -844.000; -684.000
293.094;  -49.725; -173.000; -337.000
293.233;  -78.900; -556.000; -400.000
293.371;  -57.525; -225.000;  -84.000
293.510; -133.000; -866.000; -780.000
293.649; -155.150; -959.000; -924.000
293.787; -168.100;-1083.000;-1012.000
293.926;  -51.700; -113.000;  -32.000
294.065;  -73.725; -379.000; -290.000
294.203;   13.900;  298.000;  406.000
294.342;   -7.800;   74.000;  156.000
294.481; 6310.350;51180.000; -836.000
294.619;  -53.400; -425.000; -582.000
294.758; -188.650;-1230.000;-1137.000
294.896;  -27.425; -125.000;    5.000
295.035; -173.375;-1040.000;-1006.000
295.174; -164.250;-1082.000; -954.000
295.312;  -70.175; -323.000; -203.000
295.451;  -78.075; -307.000; -428.000
295.589; -101.875; -389.000; -518.000
295.728;   -6.925; -292.000; -165.000
295.866;  -34.175;  -36.000;  -51.000
296.005;  -91.475; -584.000; -341.000
296.143; -117.150; -558.000; -596.000
296.282; -145.175; -957.000; -881.000
296.420; -106.325; -657.000; -557.000
296.559; -128.575; -892.000; -633.000
296.697; -110.750; -847.000; -665.000
296.835; -166.125;-1141.000;-1002.000
296.974;  -13.650;  -23.000;   39.000
297.112;  -86.725; -443.000; -504.000
297.251; -136.550; -815.000; -755.000
297.389;  -98.350; -576.000; -438.000
297.527;  -51.575; -145.000;  -83.000
297.666; -100.550; -486.000; -438.000
297.804;  -95.050; -404.000; -264.000
297.942;  -27.775; -136.000; -161.000
298.081;  -40.275; -183.000;   63.000
298.219;  -26.600;  -17.000;  -19.000
298.357;  -50.200; -144.000;  -71.000
298.495; -142.950; -810.000; -812.000
298.634;  -14.875;  245.000;  219.000
298.772;  -55.000; -220.000; -338.000
298.910;  -73.650; -309.000; -182.000
299.048;  -31.550; -130.000; -153.000
299.187;  -57.125; -350.000; -250.000
299.325;  -26.250;   52.000;  122.000
299.463;  -82.750; -389.000; -299.000
299.601;  -69.525; -327.000; -271.000
299.739; -151.725; -908.000; -883.000
299.877; -114.850; -791.000; -703.000
300.016; -171.725;-1095.000; -935.000
300.154;  -25.525;  -19.000; -161.000
300.292;  -99.675; -428.000; -348.000
300.430;  -60.800; -408.000; -291.000
300.568; -159.500; -940.000; -874.000
300.706;  -80.700; -366.000; -469.000
300.844; -175.200;-1108.000; -979.000
300.982;   22.550;  246.000;  282.000
301.120; -169.675; -965.000; -866.000
301.258; -134.300; -812.000; -705.000
301.396;  -19.075;  104.000;  -41.000
301.534;  -82.375; -218.000; -293.000
301.672; -110.675; -664.000; -521.000
301.810; -109.500; -613.000; -545.000
301.948;  -34.350;   53.000;  149.000
302.086;  -53.625; -250.000;  -32.000
302.224; -123.775; -610.000; -585.000
302.362; -118.000; -558.000; -622.000
302.500; -147.500; -923.000; -893.000
302.638;  -21.950;  128.000;  245.000
302.776;  -76.675; -352.000; -408.000
302.913;   11.000;  447.000;  236.000
303.051;  -71.350;  -86.000;  -23.000
303.189;   -3.750;   90.000;  118.000
303.327;  -76.475; -341.000; -256.000
303.465; -109.875; -832.000; -588.000
303.603; -118.475; -805.000; -604.000
303.740;   23.875;  417.000;  241.000
303.878; -139.700; -800.000; -759.000
304.016; -136.100; -915.000; -790.000
304.154; -182.575;-1123.000;-1152.000
304.291;  -97.050; -505.000; -554.000
304.429;  -20.125;  102.000;   74.000
304.567; -166.900; -908.000; -893.000
304.705;  -93.525; -408.000; -515.000
304.842; -119.375; -616.000; -540.000
304.980;   -7.375;  215.000;   35.000
305.118;  -73.250; -367.000; -365.000
305.255; -162.725; -945.000; -927.000
305.393;   17.350;  178.000;  239.000
305.531; -176.925;-1173.000; -956.000
305.668; -103.775; -663.000; -582.000
305.806;  -77.425; -358.000; -439.000
305.943;  -99.600; -629.000; -637.000
306.081;  -76.250; -378.000; -267.000
306.219; -135.975; -863.000; -748.000
306.356;  -26.625;  158.000;   27.000
306.494;   75.625;  981.000;  761.000
306.631;  -26.025;  -11.000;  -55.000
306.769;  -90.350; -613.000; -485.000
306.906;  -94.075; -284.000; -258.000
307.044;  -92.175; -473.000; -488.000
307.181;  -87.850; -410.000; -332.000
307.319;  -16.200;  112.000;   87.000
307.456; -201.225;-1191.000;-1153.000
307.594; -146.075; -980.000; -727.000
307.731;  -65.125; -371.000; -164.000
307.868;  -28.150;  -15.000;   20.000
308.006; -169.375; -961.000; -847.000
308.143; -115.375; -618.000; -330.000
308.281;  -48.500;  -37.000; -254.000
308.418; -111.975; -748.000; -640.000
308.555; -103.875; -400.000; -250.000
308.693; -101.100; -577.000; -573.000
308.830; -142.275; -712.000; -657.000
308.967;  -43.275; -215.000;  -95.000
309.105;  -77.725; -507.000; -396.000
309.242;  -69.300; -468.000; -367.000
309.379; -133.375; -577.000; -655.000
309.517; -145.775; -936.000; -948.000
309.654; -152.150; -910.000; -734.000
309.791; -104.375; -662.000; -580.000
309.928; -157.100; -977.000; -914.000
310.065;   72.500;  819.000;  697.000
310.203; -142.900; -825.000; -850.000
310.340; -110.525; -465.000; -321.000
310.477; -113.100; -412.000; -516.000
310.614;  -93.325; -383.000; -473.000
310.751; -100.675; -427.000; -518.000
310.889;  -31.925;    1.000;   11.000
311.026; -180.250;-1161.000; -939.000
311.163;  -81.550; -386.000; -380.000
311.300; -120.050; -512.000; -479.000
311.437; -115.450; -658.000; -619.000
311.574; -207.900;-1226.000; -985.000
311.711; -100.500; -595.000; -433.000
311.848;  -68.300; -380.000; -388.000
311.985;  -21.550;  270.000;   93.000
312.122; -145.575; -932.000; -762.000
312.259; -154.625; -941.000; -994.000
312.396; -103.500; -508.000; -551.000
312.533; -131.250; -812.000; -790.000
312.670; -186.550;-1070.000; -898.000
312.807;  -64.000; -352.000; -367.000
312.944; -116.525; -513.000; -611.000
313.081;  -77.150; -150.000; -415.000
313.218; -160.225;-1111.000; -867.000
313.355;  -93.125; -531.000; -449.000
313.492;  -64.700; -455.000; -292.000
313.629;   68.725;  815.000;  735.000
313.766; -193.550;-1176.000;-1008.000
313.902;  -26.275; -186.000;   21.000
314.039;  -78.775; -372.000; -289.000
314.176;    3.825;  286.000;  192.000
314.313; -123.775; -569.000; -473.000
314.450; -123.800; -788.000; -684.000
314.587; -102.900; -468.000; -480.000
314.723;  -33.600;  -78.000;  130.000
314.860;   -7.550;  318.000;  332.000
314.997;   -4.900;  223.000;  142.000
315.134;  -93.525; -385.000; -368.000
315.270;  -98.375; -480.000; -496.000
315.407; -190.000;-1094.000; -967.000
315.544; -122.025; -657.000; -538.000
315.681; -127.725; -681.000; -565.000
315.817;  -41.500; -133.000; -176.000
315.954; -109.575; -613.000; -392.000
316.091; -178.500;-1045.000;-1023.000
316.227;  -57.775;  -71.000; -179.000
316.364;  -15.900;   23.000;    6.000
316.500;  -70.650; -113.000; -300.000
316.637;  -78.400; -181.000; -302.000
316.774; -103.925; -625.000; -358.000
316.910; -106.525; -598.000; -629.000
317.047; -113.150; -487.000; -351.000
317.183; -101.125; -435.000; -566.000
317.320;  -91.300; -367.000; -321.000
317.456; -127.675; -733.000; -805.000
317.593; -122.925; -598.000; -641.000
317.729;   -7.025;  168.000;  -67.000
317.866; -238.350;-1434.000;-1285.000
318.002; -126.300; -708.000; -948.000
318.139; -171.525; -883.000; -867.000
318.275; -142.375;-1003.000; -738.000
318.412;  -93.350; -517.000; -336.000
318.548; -120.300; -751.000; -720.000
318.685; -160.000; -985.000; -888.000
318.821; -145.550; -762.000; -735.000
318.957;  -42.350;   34.000;  -23.000
319.094;   19.175;  297.000;  154.000
319.230; -151.375; -756.000; -742.000
319.367;  -92.225; -471.000; -520.000
319.503;  -96.900; -538.000; -436.000
319.639; -134.725; -877.000; -793.000
319.775; -133.975; -750.000; -685.000
319.912;  -88.425; -424.000; -519.000
320.048; -191.900;-1184.000;-1184.000
320.184;  -24.700;   59.000;   70.000
320.321;  -94.475; -497.000; -467.000
320.457;   36.575;  475.000;  662.000
320.593;  -98.800; -375.000; -382.000
320.729; -138.775; -732.000; -734.000
320.866; -124.825; -577.000; -635.000
321.002; -137.325; -759.000; -809.000
321.138;  -67.700; -135.000; -211.000
321.274;  -38.475; -148.000; -115.000
321.410;  -98.650; -585.000; -353.000
321.546; -167.975;-1011.000; -911.000
321.683;    0.025;  400.000;  185.000
321.819;  -46.600;  -48.000; -117.000
321.955; -145.600; -743.000; -722.000
322.091; -102.325; -585.000; -540.000
322.227;  -64.525; -382.000; -202.000
322.363;  -73.725; -320.000; -215.000
322.499;  -74.725; -343.000; -331.000
322.635;   40.150;  636.000;  443.000
322.771;  -50.450; -139.000;   12.000
322.907;   11.625;  129.000;  327.000
323.043;  -79.825; -115.000; -206.000
323.179;  -86.825; -394.000; -363.000
323.315; -100.800; -401.000; -371.000
323.451;  -67.675; -328.000; -236.000
323.587;  -55.550;  -60.000;  -77.000
323.723; -123.650; -682.000; -601.000
323.859;  -39.950; -258.000;  -76.000
323.995;  -74.475; -467.000; -409.000
324.131; -169.425; -967.000; -892.000
324.267;  -61.650; -254.000; -276.000
324.402; -167.325; -960.000; -983.000
324.538;  -52.975; -279.000; -104.000
324.674;  -28.550;  164.000;   77.000
324.810;  -12.100;  226.000;  308.000
324.946; -100.625; -810.000; -658.000
325.082;  -99.400; -568.000; -475.000
325.217;  -43.875;  -62.000;   16.000
325.353; -130.725; -764.000; -659.000
325.489; -125.500; -540.000; -506.000
325.625;  -95.075; -579.000; -525.000
325.760;   15.125;  517.000;  376.000
325.896; -105.450; -515.000; -702.000
326.032;  -79.325; -403.000; -352.000
326.168;  -94.525; -462.000; -369.000
326.303;  -86.825; -352.000; -461.000
326.439;  -65.700; -336.000; -276.000
326.575;  -50.925; -190.000;  -29.000
326.710;  -46.100; -156.000;  -30.000
326.846;  -45.125;  146.000;  103.000
326.982; -115.475; -530.000; -548.000
327.117;  -98.875; -481.000; -442.000
327.253; -134.850; -745.000; -742.000
327.388; -192.600;-1137.000;-1153.000
327.524; -125.800; -811.000; -578.000
327.659;  -34.800;  -58.000;  -22.000
327.795;  -47.925;   69.000;   45.000
327.931; -126.950; -723.000; -499.000
328.066;  -78.950; -417.000; -276.000
328.202;  -54.075;   12.000; -129.000
328.337;   77.100;  957.000;  713.000
328.473;    5.250;  -12.000;  -74.000
328.608;  -65.200; -256.000; -267.000
328.743; -150.450; -799.000; -664.000
328.879;  -20.800;  214.000;  114.000
329.014;  -57.300; -102.000; -122.000
329.150; -109.200; -358.000; -483.000
329.285; -112.825; -465.000; -466.000
329.421;  -69.325; -548.000; -246.000
329.556;  -41.300;  -36.000;   85.000
329.691; -121.525; -633.000; -615.000
329.827; -110.775; -626.000; -480.000
329.962;  -75.950;  131.000; -301.000
330.097; -128.875; -673.000; -585.000
330.233;  -73.675; -410.000; -223.000
330.368; -147.925; -839.000; -628.000
330.503;  -38.925;    3.000;   98.000
330.638;  -41.500;  -93.000; -125.000
330.774; -117.125; -609.000; -530.000
330.909;  -79.450; -434.000; -244.000
331.044; -128.750; -714.000; -708.000
331.179; -202.100;-1217.000;-1109.000
331.315;  -13.100;   77.000;   20.000
331.450;  -10.650;  157.000;  285.000
331.585; -136.425; -805.000; -706.000
331.720; -125.900; -510.000; -460.000
331.855;  -42.900;  -35.000; -102.000
331.990;  -38.800;   62.000;  138.000
332.126;  -23.850; -110.000;   71.000
332.261;  -95.875; -379.000; -265.000
332.396;  -68.125; -135.000; -242.000
332.531; -182.500;-1074.000;-1031.000
332.666;  -87.650; -519.000; -363.000
332.801; -139.000; -726.000; -807.000
332.936;  -48.700; -192.000; -122.000
333.071; -162.200; -870.000; -817.000
333.206;  -16.800;  307.000;  379.000
333.341;    6.875;  344.000;  418.000
333.476; -118.350; -627.000; -623.000
333.611;  -65.575; -251.000; -173.000
333.746;  -77.000; -381.000; -464.000
333.881; -154.125; -973.000; -935.000
334.016; -154.700; -936.000; -917.000
334.151; -146.025; -746.000; -702.000
334.286;  -23.950;  152.000;  186.000
334.421;  -36.750; -125.000; -178.000
334.556; -130.075; -611.000; -567.000
334.690; -127.700; -631.000; -577.000
334.825;   36.100;  381.000;   83.000
334.960; -104.875; -285.000; -413.000
335.095;  -22.800;  135.000;  -91.000
335.230; -139.975; -722.000; -738.000
335.365; -185.825;-1084.000; -990.000
335.499; -185.400;-1108.000;-1037.000
335.634;  -32.875;    9.000;  534.000
335.769; -166.025; -755.000; -720.000
335.904; -113.400; -603.000; -561.000
336.038; -149.500; -735.000; -657.000
336.173; -197.700;-1206.000;-1194.000
336.308;  -81.175; -116.000; -189.000
336.443;  -96.950; -544.000; -634.000
336.577; -162.375; -936.000; -787.000
336.712;  -46.625;   -4.000;  -12.000
336.847; -139.875; -724.000; -607.000
336.981;  -80.825; -272.000; -208.000
337.116;   26.275;  615.000;  501.000
337.250; -112.075; -434.000; -421.000
337.385;  -81.800; -297.000; -208.000
337.520; -129.900; -632.000; -603.000
337.654;  -84.500; -215.000; -126.000
337.789; -160.200; -989.000; -933.000
337.923;  -62.900; -104.000; -205.000
338.058; -136.750; -673.000; -738.000
338.192; -117.525; -611.000; -488.000
338.327;  -43.950;  -18.000; -155.000
338.461; -115.050; -299.000; -469.000
338.596; -119.500; -780.000; -638.000
338.730; -148.450; -767.000; -803.000
338.865;  -45.250;  -46.000; -140.000
338.999; -172.275; -846.000; -702.000
339.134; -114.125; -634.000; -536.000
339.268; -136.525; -741.000; -603.000
339.403; -140.900; -740.000; -775.000
339.537; -142.025; -894.000; -820.000
339.671; -158.650; -829.000; -813.000
339.806; -129.175; -556.000; -512.000
339.940;  -51.950; -261.000; -235.000
340.074; -140.550; -685.000; -510.000
340.209;  -73.250; -351.000; -230.000
340.343; -122.175; -517.000; -573.000
340.477;  102.925;  998.000; 1036.000
340.612; -167.925;-1033.000; -900.000
340.746;  -81.700; -199.000; -243.000
340.880; -159.150; -924.000; -785.000
341.014;  -56.300;  -45.000; -154.000
341.149; -142.475; -756.000; -718.000
341.283; -143.200; -839.000; -754.000
341.417; -167.400;-1124.000; -938.000
341.551; -136.725; -768.000; -708.000
341.685; -112.250; -633.000; -611.000
341.820; -112.100; -562.000; -493.000
341.954;  -94.375; -218.000; -349.000
342.088; -183.175;-1102.000;-1019.000
342.222;   14.875;  565.000;  618.000
342.356;  -93.025; -395.000; -335.000
342.490; -151.450; -880.000; -841.000
342.624;  -84.925; -339.000; -242.000
342.758;  -89.625; -364.000; -312.000
342.892; -133.825; -710.000; -585.000
343.026;  -65.650;  -58.000; -116.000
343.160;  -83.675; -426.000; -376.000
343.294; -121.225; -474.000; -337.000
343.428; -112.475; -488.000; -448.000
343.562;  -65.025; -172.000;  -23.000
343.696;  -66.425; -385.000; -314.000
343.830;  -88.575; -362.000; -356.000
343.964;  -68.175; -231.000; -168.000
344.098;  -25.175;  199.000;   70.000
344.232;  -56.250; -266.000; -127.000
344.366; -140.700; -567.000; -453.000
344.500; -128.450; -665.000; -744.000
344.634;  -81.150; -324.000; -164.000
344.768; -101.400; -531.000; -341.000
344.902;  -20.600;  278.000;  256.000
345.035;  -96.925; -556.000; -496.000
345.169; -168.825; -933.000; -656.000
345.303; -106.050; -308.000; -482.000
345.437; -144.925; -826.000; -717.000
345.571; -130.550; -675.000; -594.000
345.704; -103.900; -309.000; -532.000
345.838;  -61.225; -331.000; -284.000
345.972; -120.425; -543.000; -495.000
346.106;  -27.500; -179.000; -190.000
346.239;  -93.100; -312.000; -243.000
346.373;  -89.025; -343.000; -302.000
346.507; -180.850; -950.000; -962.000
346.640;  -49.900;  -30.000;   13.000
346.774; -147.750; -650.000; -797.000
346.908;  -46.450; -138.000;  -11.000
347.041; -132.950; -646.000; -593.000
347.175;  -31.625;  259.000;   27.000
347.309; -134.525; -698.000; -628.000
347.442; -153.225; -883.000; -732.000
347.576;   62.100;  670.000;  668.000
347.709;  -49.500; -123.000;  -52.000
347.843; -158.250; -933.000; -825.000
347.976;   11.275;  235.000;  294.000
348.110; -209.725;-1268.000;-1186.000
348.243; -134.900; -679.000; -772.000
348.377;  -41.750;  -26.000;   60.000
348.510;   14.325;  403.000;  540.000
348.644;  -82.750;  -37.000; -159.000
348.777;  -24.400;  180.000;  191.000
348.911;  -68.925; -142.000; -112.000
349.044;    7.950;  471.000;  448.000
349.178; -197.025;-1069.000;-1006.000
349.311;  -14.650;  141.000;  255.000
349.444; -168.350; -927.000; -813.000
349.578;  -85.300; -347.000; -200.000
349.711; -174.975; -959.000; -862.000
349.845; -133.100; -661.000; -591.000
349.978; -210.150;-1224.000;-1137.000
350.111; -113.575; -546.000; -612.000
350.244; -127.175; -596.000; -700.000
350.378;  -93.625; -392.000; -393.000
350.511; -111.125; -393.000; -426.000
350.644; -139.825; -808.000; -806.000
350.778;  -26.925;  168.000;  104.000
350.911;  -27.925;  134.000;  140.000
351.044; -127.525; -685.000; -615.000
351.177;  -80.900; -321.000; -281.000
351.310;  -49.575;    3.000; -131.000
351.444; -154.150; -888.000; -788.000
351.577;  -24.600;  140.000;   90.000
351.710;   53.200;  593.000;  417.000
351.843;  -65.150; -165.000;  -77.000
351.976;  -25.050;  149.000;  -79.000
352.109; -137.025; -621.000; -612.000
352.242;  -99.075; -464.000; -419.000
352.376; -129.150; -580.000; -636.000
352.509;  -88.175; -437.000; -356.000
352.642; -192.575; -654.000; -604.000
352.775;  -59.350; -141.000;  -98.000
352.908; -174.100; -933.000; -904.000
353.041; -151.950; -814.000; -824.000
353.174; -103.475; -551.000; -424.000
353.307; -152.425; -753.000; -764.000
353.440;   16.950;  541.000;  453.000
353.573; -168.800; -957.000;-1008.000
353.706; -137.200; -384.000; -558.000
353.839;  -82.900; -264.000; -220.000
353.971; -127.350; -657.000; -512.000
354.104; -158.775; -896.000; -835.000
354.237; -138.000; -627.000; -662.000
354.370; -149.025; -846.000; -879.000
354.503; -224.200;-1231.000;-1308.000
354.636;  -89.425; -529.000; -348.000
354.769; -178.850; -937.000; -860.000
354.902;  -71.900; -230.000; -139.000
355.034;  -74.825; -164.000; -220.000
355.167;  -65.975; -262.000; -162.000
355.300; -183.450;-1061.000; -880.000
355.433;  -29.000;  -71.000;  -14.000
355.565; -107.000; -402.000; -384.000
355.698;  -83.850; -356.000; -296.000
355.831; -170.875; -882.000; -801.000
355.964;  -71.025; -285.000; -170.000
356.096; -166.925; -856.000; -843.000
356.229; -122.625; -523.000; -530.000
356.362;  -69.550; -373.000; -266.000
356.494;  -82.225; -229.000; -162.000
356.627;   -4.975;  269.000;  377.000
356.760;  -36.000;  120.000;   53.000
356.892; -126.600; -286.000; -601.000
357.025;   27.675;  403.000;  389.000
357.157;  -60.650; -167.000; -179.000
357.290; -171.075; -856.000; -713.000
357.423; -129.075; -667.000; -556.000
357.555;  -67.825; -217.000; -228.000
357.688; -104.875; -483.000; -364.000
357.820; -164.550; -870.000; -877.000
357.953; -123.450; -563.000; -589.000
358.085; -134.875; -632.000; -612.000
358.218; -187.900;-1131.000; -932.000
358.350;  -41.125;  -58.000;  312.000
358.483; -209.425;-1300.000;-1187.000
358.615; -192.350;-1182.000;-1078.000
358.747; -227.725;-1187.000;-1058.000
358.880; -153.625; -810.000; -744.000
359.012;  -92.725; -376.000; -202.000
359.145; -100.400; -480.000; -511.000
359.277; -179.275; -962.000; -913.000
359.409;   22.100;  536.000;  231.000
359.542; -151.150; -738.000; -688.000
359.674;  -34.800;   46.000;   13.000
359.806; -105.725; -565.000; -438.000
359.939; -128.300; -617.000; -516.000
360.071; -132.900; -583.000; -579.000
360.203;  -94.275; -411.000; -364.000
360.335;  -44.600;  164.000;  -16.000
360.468;  -70.075; -249.000; -307.000
360.600; -122.750; -547.000; -454.000
360.732; -119.825; -546.000; -423.000
360.864; -204.175;-1216.000;-1044.000
360.996;  -94.700; -516.000; -554.000
361.129; -114.750; -389.000; -598.000
361.261;  -43.375;  110.000; -113.000
361.393;  -76.400; -252.000; -214.000
361.525;  -17.250;   94.000;  244.000
361.657; -164.800; -821.000; -703.000
361.789;  -57.450; -139.000; -155.000
361.921; -134.325; -642.000; -593.000
362.053;   29.925;  524.000;  541.000
362.185;  -34.850;  288.000;   72.000
362.318; -143.575; -709.000; -705.000
362.450;   -9.150;  294.000;  444.000
362.582; -167.375; -913.000; -870.000
362.714;  -96.375; -353.000; -332.000
362.846; -117.400; -606.000; -490.000
362.978; -171.100; -941.000; -811.000
363.109;  -78.950; -161.000; -260.000
363.241; -159.350; -739.000; -749.000
363.373; -128.475; -649.000; -564.000
363.505;  -57.075; -186.000;  -91.000
363.637; -137.225; -787.000; -601.000
363.769; -203.650;-1067.000;-1080.000
363.901; -111.850; -596.000; -654.000
364.033; -203.125;-1103.000;-1062.000
364.165;  -68.800; -283.000; -283.000
364.296;  -93.550; -316.000; -177.000
364.428; -220.350;-1344.000;-1220.000
364.560; -143.025; -679.000; -661.000
364.692; -119.050; -738.000; -835.000
364.824; -129.525; -588.000; -456.000
364.955;  -89.425; -402.000; -564.000
365.087; -197.850;-1097.000; -852.000
365.219; -139.950; -686.000; -816.000
365.351; -131.975; -526.000; -572.000
365.482;   -4.325;  300.000;  240.000
365.614;  -90.200; -402.000; -314.000
365.746; -135.350; -729.000; -752.000
365.877; -148.425; -706.000; -672.000
366.009;  -35.125;  -35.000;  -62.000
366.141; -216.700;-1249.000;-1134.000
366.272; -142.325; -803.000; -719.000
366.404; -154.875;-1005.000; -874.000
366.535;  -61.175; -139.000;  -12.000
366.667; -134.375; -644.000; -649.000
366.799;    6.925;  353.000;  203.000
366.930; -193.100; -862.000; -996.000
367.062; -134.500; -639.000; -613.000
367.193; -180.750; -872.000; -842.000
367.325; -124.875; -580.000; -684.000
367.456;  -95.675; -246.000;   31.000
367.588;  -96.600; -371.000; -318.000
367.719;  -77.625;  -44.000;  -45.000
367.851;  -78.000; -222.000; -241.000
367.982; -168.200; -875.000; -732.000
368.113;  -94.025; -475.000; -358.000
368.245; -181.350; -960.000; -841.000
368.376;  -70.375; -254.000; -302.000
368.508;  -90.500; -188.000; -263.000
368.639; -191.975;-1166.000;-1034.000
368.770; -141.650; -670.000; -589.000
368.902; -161.325; -836.000; -926.000
369.033; -171.150; -906.000; -855.000
369.164; -130.700; -720.000; -653.000
369.296; -147.800; -452.000; -601.000
369.427;  -68.225; -209.000; -144.000
369.558; -118.850; -593.000; -377.000
369.689; -131.850; -721.000; -569.000
369.821; -176.925; -951.000; -845.000
369.952;  -41.625;   42.000; -108.000
370.083;  -88.825; -229.000; -108.000
370.214; -148.525; -735.000; -650.000
370.345;  -41.675;   65.000;   81.000
370.477; -174.750; -810.000; -790.000
370.608;  -96.750; -328.000; -264.000
370.739; -206.175;-1233.000;-1292.000
370.870; -174.550;-1102.000; -923.000
371.001; -109.050; -378.000; -467.000
371.132; -144.650; -754.000; -735.000
371.263;  -63.725;  -42.000; -148.000
371.394; -170.375; -841.000; -748.000
371.525;   -6.775;  345.000;  225.000
371.657; -154.225; -808.000; -670.000
371.788;  -18.925;  103.000;  199.000
371.919; -121.625; -384.000; -304.000
372.050;  -51.300;  -91.000; -156.000
372.181;  -61.025; -188.000; -294.000
372.311;  -44.375;   42.000; -127.000
372.442; -116.400; -457.000; -451.000
372.573;  -72.900; -444.000; -340.000
372.704; -189.200;-1008.000; -980.000
372.835;  -87.025; -228.000; -289.000
372.966; -134.325; -646.000; -554.000
373.097; -150.550; -575.000; -711.000
373.228; -146.050; -717.000; -542.000
373.359; -143.075; -824.000; -536.000
373.490; -164.725; -881.000; -727.000
373.620; -167.300;-1001.000; -803.000
373.751; -114.750; -332.000; -396.000
373.882; -134.800; -663.000; -733.000
374.013;  -91.725; -449.000; -262.000
374.143; -128.375; -581.000; -659.000
374.274; -183.725; -987.000; -908.000
374.405;  -93.125; -388.000; -276.000
374.536; -117.300; -526.000; -387.000
374.666; -146.800; -759.000; -807.000
374.797; -158.350; -817.000; -868.000
374.928; -135.875; -710.000; -560.000
375.058; -128.050; -535.000; -500.000
375.189;  -52.500;  -59.000;  -93.000
375.320; -188.600; -928.000;-1034.000
375.450; -134.575; -625.000; -616.000
375.581; -127.825; -526.000; -436.000
375.712;  -80.675; -574.000; -250.000
375.842; -121.075; -438.000; -415.000
375.973; -125.900; -554.000; -513.000
376.103; -140.825; -665.000; -648.000
376.234; -107.500; -531.000; -552.000
376.364; -180.725; -944.000; -867.000
376.495;   72.500;  925.000;  529.000
376.625; -124.975; -472.000; -485.000
376.756; -137.675; -709.000; -678.000
376.886; -202.425;-1178.000;-1026.000
377.017; -195.825;-1048.000;-1061.000
377.147; -164.725; -786.000; -782.000
377.278;  -12.000;  174.000;  228.000
377.408; -167.375; -801.000; -815.000
377.538; -160.025; -707.000; -693.000
377.669; -129.525; -537.000; -613.000
377.799; -137.175; -645.000; -635.000
377.929; -118.100; -610.000; -428.000
378.060; -152.500; -781.000; -847.000
378.190; -143.875; -726.000; -531.000
378.320; -106.875; -401.000; -406.000
378.451;  -64.775; -131.000;  -22.000
378.581;  -54.525;  -67.000; -110.000
378.711;   56.450; 1035.000;  866.000
378.841; -142.425; -533.000; -675.000
378.972; -176.500; -871.000; -751.000
379.102; -136.675; -652.000; -579.000
379.232;  -84.425; -126.000;  -73.000
379.362; -177.925;-1001.000; -885.000
379.492; -116.325; -373.000; -424.000
379.623;  -23.600;    0.000;  111.000
379.753; -190.125;-1107.000; -974.000
379.883;  -25.100;   59.000;  156.000
380.013; -198.850;-1081.000;-1017.000
380.143; -196.575;-1097.000;-1056.000
380.273; -174.000; -985.000; -861.000
380.403;  -83.900; -344.000; -257.000
380.533; -160.525; -651.000; -664.000
380.663;  -20.600;  173.000;  128.000
380.793; -202.525;-1027.000;-1074.000
380.923;  -73.725; -103.000;  -34.000
381.053; -142.650; -613.000; -623.000
381.183;  -79.525; -106.000; -248.000
381.313; -141.775; -656.000; -470.000
381.443; -125.350; -692.000; -473.000
381.573; -124.425; -402.000; -409.000
381.703; -215.850;-1249.000;-1095.000
381.833; -241.525;-1454.000;-1336.000
381.963;  -20.275; -134.000;  -87.000
382.093; -191.600; -925.000; -909.000
382.223; -143.375; -713.000; -602.000
382.353; -147.200; -801.000; -608.000
382.482; -199.275;-1091.000; -964.000
382.612; -168.300; -872.000; -644.000
382.742; -143.425; -695.000; -622.000
382.872; -121.250; -565.000; -551.000
383.002;  -31.450;  347.000; -132.000
383.131;  -94.550; -226.000; -160.000
383.261; -137.750; -706.000; -768.000
383.391; -119.950; -552.000; -377.000
383.521;    1.800;  451.000;  263.000
383.650; -189.525; -947.000; -904.000
383.780; -137.150; -783.000; -656.000
383.910;   44.650;  880.000;  802.000
384.039; -159.200; -794.000; -656.000
384.169; -211.600;-1205.000;-1017.000
384.299; -133.350; -650.000; -662.000
384.428; -162.700; -764.000; -680.000
384.558;  -81.875; -308.000; -275.000
384.687;  -89.875; -414.000; -334.000
384.817;  -44.350;   75.000;   -2.000
384.947;  -80.250; -234.000; -141.000
385.076;   76.200;  982.000;  912.000
385.206;  -15.575;  369.000;  480.000
385.335; -105.825; -549.000; -417.000
385.465; -156.575; -655.000; -663.000
385.594;  -59.575;  -53.000;  -44.000
385.724; -181.475; -868.000; -838.000
385.853;  -77.750; -296.000; -270.000
385.982; -161.975; -743.000; -787.000
386.112; -175.900;-1052.000; -871.000
386.241;  -96.900; -307.000; -312.000
386.371;  -75.950; -174.000;  -87.000
386.500; -169.775; -825.000; -789.000
386.629; -161.650; -874.000; -817.000
386.759;  -52.350;  -43.000;   68.000
386.888;  -78.275; -170.000; -250.000
387.017; -134.450; -648.000; -620.000
387.147; -154.350; -771.000; -798.000
387.276; -123.050; -410.000; -397.000
387.405;  -92.175; -398.000; -342.000
387.535; -103.425; -452.000; -361.000
387.664; -128.200; -692.000; -620.000
387.793;  -76.375; -198.000; -113.000
387.922;  -16.475;  255.000;  200.000
388.052; -120.575; -576.000; -423.000
388.181; -112.775; -342.000; -472.000
388.310; -161.325; -889.000; -710.000
388.439; -170.750; -749.000; -742.000
388.568;  -38.550;  365.000;  244.000
388.697; -138.525; -756.000; -653.000
388.826; -141.100; -768.000; -666.000
388.956;  -78.775; -285.000; -307.000
389.085;  -98.900; -347.000; -287.000
389.214; -163.925; -842.000; -872.000
389.343; -127.375; -645.000; -413.000
389.472;   -2.750;  126.000;  149.000
389.601;  -38.550;   91.000;    0.000
389.730; -127.500; -568.000; -687.000
389.859;  -22.250;  226.000;   46.000
389.988; -104.250; -423.000; -408.000
390.117;  -83.925; -168.000; -146.000
390.246; -102.575; -331.000; -320.000
390.375; -154.075; -673.000; -626.000
390.504; -133.450; -703.000; -621.000
390.633; -170.700; -672.000; -726.000
390.761; -154.750; -732.000; -645.000
390.890;  -55.225;   -4.000; -130.000
391.019; -115.900; -421.000; -441.000
391.148; -164.900; -826.000; -855.000
391.277; -130.425; -576.000; -493.000
391.406; -171.975; -821.000; -805.000
391.534;  -37.900;  574.000; -301.000
391.663; -139.450; -583.000; -645.000
391.792; -152.275; -673.000; -701.000
391.921;  -42.525;   -3.000;   15.000
392.050;  -84.575; -287.000; -228.000
392.178; -210.200;-1206.000;-1061.000
392.307; -160.850; -758.000; -712.000
392.436; -152.975; -427.000; -641.000
392.564;  -39.675;  166.000;   -6.000
392.693; -152.200; -860.000; -682.000
392.822; -129.850; -529.000; -534.000
392.950; -158.875; -880.000; -714.000
393.079; -105.425; -188.000; -328.000
393.208; -129.075; -488.000; -511.000
393.336;  -68.625; -170.000; -145.000
393.465;  -96.425; -317.000; -199.000
393.593;  -30.775;   62.000;   79.000
393.722; -198.975;-1121.000; -916.000
393.850;  -65.000; -188.000;  -61.000
393.979; -189.200; -926.000; -805.000
394.107; -131.950; -517.000; -537.000
394.236; -135.375; -570.000; -507.000
394.364;  -22.550;  383.000;  206.000
394.493; -155.075; -911.000; -767.000
394.621; -191.250; -955.000; -916.000
394.750; -177.475; -873.000; -923.000
394.878;  -89.375; -247.000; -149.000
395.007; -157.225; -721.000; -807.000
395.135; -147.025; -790.000; -721.000
395.263; -189.200;-1038.000;-1040.000
395.392;  -47.525;  -25.000; -107.000
395.520; -172.500; -818.000; -679.000
395.648; -159.275; -865.000; -915.000
395.777; -124.100; -366.000; -405.000
395.905; -115.225; -449.000; -564.000
396.033;  -27.375;  217.000;  172.000
396.162;  -96.150; -399.000; -453.000
396.290;  -83.500;  -17.000;   -2.000
396.418; -127.650; -555.000; -514.000
396.546; -154.300; -571.000; -466.000
396.674; -166.325; -850.000; -878.000
396.803;  -54.525;  -72.000;  -23.000
396.931;  -72.325; -179.000; -199.000
397.059; -211.625;-1026.000; -989.000
397.187; -179.700;-1026.000; -975.000
397.315; -172.625; -884.000; -649.000
397.443; -137.575; -592.000; -443.000
397.572; -137.375; -578.000; -424.000
397.700; -151.350; -607.000; -614.000
397.828;  -92.825;  120.000;  -90.000
397.956; -107.600; -508.000; -478.000
398.084; -167.775; -767.000; -626.000
398.212;  -31.350;  137.000;  124.000
398.340;  -56.725;  -56.000;  159.000
398.468; -109.025; -390.000; -169.000
398.596; -186.375; -993.000; -953.000
398.724; -163.925; -762.000; -767.000
398.852; -209.600;-1024.000; -976.000
398.980; -132.100; -560.000; -560.000
399.108; -145.975; -982.000; -735.000
399.236;  -50.525;   13.000;    8.000
399.363;  -33.800;  222.000;  196.000
399.491; -119.675; -404.000; -398.000
399.619; -166.075; -829.000; -800.000
399.747; -171.475; -859.000; -771.000
399.875;   -4.700;  220.000;  234.000
400.003; -113.875; -359.000; -284.000
400.130; -121.000; -421.000; -341.000
400.258;  -46.900;  -83.000;   38.000
400.386; -101.325; -352.000; -168.000
400.514; -127.975; -526.000; -587.000
400.641; -199.300; -928.000; -802.000
400.769; -184.375; -979.000; -888.000
400.897; -156.525; -838.000; -793.000
401.025;  -56.425; -166.000; -152.000
401.152;  -26.675;  220.000;   38.000
401.280; -102.250; -430.000; -429.000
401.408; -148.875; -712.000; -576.000
401.535; -146.950; -735.000; -758.000
401.663; -234.175;-1134.000;-1054.000
401.790; -127.425; -514.000; -525.000
401.918;    6.550;  436.000;  405.000
402.046;  -48.225;  134.000;  122.000
402.173;  -69.950;  -18.000;    7.000
402.301; -108.150; -519.000; -397.000
402.428;    6.750;  528.000;  383.000
402.556; -198.625;-1188.000; -913.000
402.683;  -65.375;  -20.000;   -1.000
402.811;  -45.900;  -37.000; -206.000
402.938;  -62.975;   20.000;   27.000
403.066; -136.800; -574.000; -558.000
403.193;  -53.500;  299.000;  239.000
403.321; -134.325; -396.000; -574.000
403.448;  -32.900;   83.000;   27.000
403.575;  -61.750;  -90.000;  -46.000
403.703; -173.450; -732.000; -557.000
403.830; -117.875; -531.000; -496.000
403.957; -209.300;-1117.000;-1023.000
404.085;  -85.825;  -61.000; -172.000
404.212;  -44.250;  -50.000;   63.000
404.339; -109.625; -566.000; -306.000
404.467; -113.425; -612.000; -524.000
404.594;  -97.900; -287.000; -227.000
404.721; -152.250; -869.000; -764.000
404.848;  -79.550; -113.000; -202.000
404.976; -185.825; -856.000; -783.000
405.103;  -56.600;  -14.000;  -82.000
405.230;  -37.775;  190.000;  226.000
405.357;  -53.625;  117.000;   44.000
405.484;  -79.625;  -49.000;    5.000
405.612; -123.050; -548.000; -563.000
405.739; -110.850; -488.000; -243.000
405.866;   32.075;  669.000;  385.000
405.993; -109.200; -398.000; -102.000
406.120; -166.950; -801.000; -887.000
406.247; -111.100; -323.000; -342.000
406.374;   17.700;  540.000;  629.000
406.501; -149.225; -632.000; -702.000
406.628; -132.475; -621.000; -589.000
406.755; -155.400; -803.000; -620.000
406.882; -100.425; -228.000; -277.000
407.009; -161.825; -719.000; -628.000
407.136;  -93.975; -480.000; -401.000
407.263; -192.850; -939.000; -829.000
407.390; -153.700; -692.000; -614.000
407.517; -222.975;-1139.000;-1187.000
407.644; -106.125; -332.000; -256.000
407.771; -120.675; -249.000; -287.000
407.898;  -29.400;  168.000;  328.000
408.025; -119.075; -421.000; -313.000
408.151;  -57.250;   82.000;  153.000
408.278; -101.925; -267.000; -216.000
408.405; -166.925; -931.000; -899.000
408.532; -136.975; -549.000; -542.000
408.659; -170.850; -677.000; -648.000
408.785; -215.100;-1298.000;-1170.000
408.912;  -81.900; -412.000; -296.000
409.039; -147.125; -610.000; -686.000
409.166; -130.200; -591.000; -555.000
409.292; -131.575; -571.000; -534.000
409.419; -127.925; -665.000; -649.000
409.546; -104.150; -431.000; -192.000
409.672; -152.300; -713.000; -545.000
409.799;  -66.900;  -36.000;   34.000
409.926;  -79.775; -180.000; -179.000
410.052; -221.125;-1127.000;-1091.000
410.179; -115.625; -368.000; -392.000
410.305; -114.900; -375.000; -493.000
410.432;  -84.725; -220.000; -333.000
410.558; -143.625; -305.000; -380.000
410.685; -132.025; -688.000; -431.000
410.812; -132.100; -409.000; -588.000
410.938; -169.475; -964.000; -808.000
411.065; -137.475; -671.000; -645.000
411.191; -102.200; -189.000; -174.000
411.317; -177.075; -823.000; -742.000
411.444;  -84.225; -317.000; -246.000
411.570; -111.775; -339.000; -294.000
411.697; -147.825; -758.000; -752.000
411.823; -208.025; -989.000; -999.000
411.949;  -76.600;  -56.000;   17.000
412.076; -146.175; -539.000; -519.000
412.202; -146.200; -758.000; -757.000
412.329; -162.700; -798.000; -752.000
412.455; -154.175; -821.000; -657.000
412.581;  -62.575;  -15.000;  172.000
412.707; -137.375; -540.000; -457.000
412.834;  -38.025;  156.000;  219.000
412.960; -149.025; -785.000; -784.000
413.086; -161.725; -743.000; -701.000
413.212;   13.750;  604.000;  578.000
413.339; -167.250; -685.000; -701.000
413.465; -117.725; -364.000; -310.000
413.591; -155.475; -757.000; -474.000
413.717;  -95.700; -358.000; -366.000
413.843; -184.900; -839.000; -861.000
413.969; -108.750;  -47.000; -292.000
414.096; -155.550; -679.000; -679.000
414.222;  -60.900;  -33.000;   85.000
414.348; -128.625; -652.000; -385.000
414.474;  -67.650;   38.000;  -52.000
414.600;  -74.800; -126.000; -144.000
414.726;  -74.625;  -96.000;  -55.000
414.852; -128.000; -365.000; -342.000
414.978;  -69.575;  104.000;  -18.000
415.104;  -60.800;   38.000;   80.000
415.230; -102.950; -329.000; -330.000
415.356; -120.975; -409.000; -514.000
415.482;  -80.475;   13.000;  -35.000
415.608; -101.200; -247.000; -323.000
415.734;  -38.450;   67.000;   38.000
415.860; -171.450; -875.000; -767.000
415.986; -153.825; -685.000; -607.000
416.111; -174.425; -798.000; -652.000
416.237; -125.450; -424.000; -571.000
416.363; -166.125; -765.000; -733.000
416.489; -108.050; -324.000; -251.000
416.615; -177.125; -707.000; -742.000
416.741; -149.175; -677.000; -784.000
416.866; -158.350; -673.000; -736.000
416.992; -177.500; -801.000; -818.000
417.118;  -87.825;  -41.000;  -80.000
417.244; -166.150; -798.000; -531.000
417.369; -172.500; -801.000; -612.000
417.495; -105.800; -325.000; -254.000
417.621; -196.550;-1015.000; -803.000
417.746; -128.275; -579.000; -572.000
417.872;  -82.875; -254.000; -144.000
417.998; -140.050; -515.000; -530.000
418.123; -199.900;-1073.000; -845.000
418.249; -135.625; -512.000; -601.000
418.374; -188.750; -916.000; -824.000
418.500; -120.575; -383.000; -482.000
418.626;  -55.725;   70.000;  -59.000
418.751; -128.425; -549.000; -448.000
418.877; -152.775; -637.000; -643.000
419.002; -145.650; -688.000; -560.000
419.128; -171.800; -930.000; -721.000
419.253; -184.675; -967.000; -837.000
419.379; -145.275; -391.000; -338.000
419.504;  -16.400;  325.000;  415.000
419.629; -111.200; -393.000; -212.000
419.755;  -91.125; -317.000; -254.000
419.880; -107.950;  -98.000;   67.000
420.006;  -96.100; -280.000; -221.000
420.131; -159.100; -662.000; -775.000
420.256;  -88.925; -315.000; -316.000
420.382; -161.850; -665.000; -687.000
420.507; -162.125; -649.000; -778.000
420.632; -119.975; -337.000; -339.000
420.758;  -90.250; -251.000; -425.000
420.883; -163.575; -876.000; -672.000
421.008; -161.250; -775.000; -619.000
421.133; -122.000; -509.000; -467.000
421.259;  -80.375; -325.000; -259.000
421.384; -181.150; -834.000; -693.000
421.509; -178.575;-1052.000; -862.000
421.634; -193.750; -936.000; -820.000
421.759; -116.475; -359.000; -327.000
421.885; -150.975; -717.000; -656.000
422.010; -133.600; -673.000; -542.000
422.135; -174.575; -695.000; -727.000
422.260;   -7.350;  340.000;  280.000
422.385;  -88.725;   12.000;  -98.000
422.510;  -45.800;  151.000;  -26.000
422.635;  -73.700;  -87.000;  -43.000
422.760; -155.100; -766.000; -791.000
422.885;  -52.025;  -57.000;  -80.000
423.010;  -83.375; -112.000; -169.000
423.135; -144.850; -481.000; -561.000
423.260;  -85.425; -150.000; -245.000
423.385;  -29.750;  476.000;  222.000
423.510;  -42.550;   71.000;  -22.000
423.635;  -61.800;  133.000;   45.000
423.760;  -14.825;  383.000;  328.000
423.885;  -30.050;  336.000;  391.000
424.010;  -60.950;  -68.000;  -13.000
424.135;  -78.400;    5.000;  -33.000
424.259; -135.075; -654.000; -457.000
424.384; -142.775; -279.000; -272.000
424.509;  -87.225; -260.000; -186.000
424.634; -165.750; -761.000; -623.000
424.759; -143.400; -688.000; -544.000
424.883; -132.650; -506.000; -527.000
425.008; -131.975; -502.000; -410.000
425.133; -162.975; -679.000; -653.000
425.258; -118.625; -517.000; -381.000
425.382; -154.250; -867.000; -774.000
425.507; -131.425; -487.000; -543.000
425.632; -186.225; -802.000; -663.000
425.756;  -97.175; -256.000; -146.000
425.881; -181.350; -831.000; -857.000
426.006; -117.700; -604.000; -355.000
426.130; -167.875; -696.000; -508.000
426.255; -134.550; -611.000; -491.000
426.379;  -99.625; -189.000; -577.000
426.504;   36.725;  660.000;  544.000
426.629; -160.450; -519.000; -466.000
426.753;  -69.650;   64.000;  -46.000
426.878;  -94.575; -252.000; -288.000
427.002; -185.175; -651.000; -668.000
427.127; -105.275;  -35.000; -158.000
427.251;  -14.375;  372.000;  401.000
427.375;  -98.625; -191.000; -173.000
427.500; -145.225; -616.000; -610.000
427.624; -127.825; -234.000; -400.000
427.749; -105.925; -216.000; -225.000
427.873; -131.225; -499.000; -412.000
427.997;  -98.175; -222.000; -230.000
428.122;   22.475;  795.000;  703.000
428.246;   -5.550;  433.000;  434.000
428.371; -192.000; -869.000; -773.000
428.495; -145.025; -624.000; -646.000
428.619;  -87.075; -186.000; -117.000
428.743;  -47.575;   65.000;  132.000
428.868; -169.550; -732.000; -643.000
428.992; -115.750; -219.000; -326.000
429.116; -134.775; -329.000; -357.000
429.240;  -10.350;  419.000;  426.000
429.365; -141.850; -454.000; -574.000
429.489; -154.075; -638.000; -647.000
429.613;  -94.400; -236.000; -177.000
429.737; -136.675; -563.000; -432.000
429.861; -115.525; -247.000; -133.000
429.985; -134.150; -425.000; -305.000
430.109; -198.400; -770.000; -908.000
430.234;  -46.250;   76.000;  -50.000
430.358; -100.450; -250.000; -160.000
430.482; -159.450; -672.000; -564.000
430.606; -142.550; -655.000; -375.000
430.730; -129.950; -437.000; -388.000
430.854; -193.800; -909.000; -835.000
430.978; -168.675; -795.000; -764.000
431.102; -144.825; -499.000; -422.000
431.226; -177.950; -874.000; -815.000
431.350;  -32.375;  345.000;  422.000
431.474; -126.525; -661.000; -373.000
431.597; -205.025;-1060.000; -848.000
431.721; -109.625; -276.000; -267.000
431.845; -175.700; -704.000; -472.000
431.969; -113.400; -304.000; -349.000
432.093; -122.650; -395.000; -317.000
432.217;  -55.350;   32.000;   82.000
432.341; -144.650; -523.000; -518.000
432.464;  -71.675;   96.000;   40.000
432.588; -143.950; -401.000; -329.000
432.712;  -67.100;  -52.000;  -52.000
432.836;  -36.675;  213.000;  263.000
432.959; -110.325; -372.000; -311.000
433.083;  -80.300;   11.000;    2.000
433.207;  -10.950;  285.000;  930.000
433.330; -105.700; -391.000; -200.000
433.454; -156.000; -654.000; -638.000
433.578;  -16.950;  583.000;  278.000
433.701; -170.475; -623.000; -675.000
433.825; -131.075; -292.000; -299.000
433.949;  -77.850;   28.000;  -72.000
434.072; -122.700; -410.000; -323.000
434.196;  -81.550; -309.000; -117.000
434.319; 3724.275;25482.000;25124.000
434.443; -142.500; -656.000; -603.000
434.566;  -44.575;  281.000;   62.000
434.690; -145.425; -637.000; -383.000
434.813; -109.375; -251.000; -173.000
434.937; -149.800; -569.000; -696.000
435.060; -124.900; -423.000; -332.000
435.184; -109.275; -492.000; -217.000
435.307;  -61.250;  159.000;  102.000
435.431;  -62.000;  -40.000;   24.000
435.554; -107.150; -399.000; -240.000
435.677; -108.175; -350.000; -258.000
435.801;  -70.200;  -25.000;   49.000
435.924;  -73.325;    1.000;  -67.000
436.048; -195.125;-1019.000; -732.000
436.171; -119.750; -240.000;  -66.000
436.294; -109.700; -248.000; -229.000
436.417; -203.075; -963.000; -849.000
436.541; -183.675; -814.000; -840.000
436.664;  -85.300; -242.000; -316.000
436.787;  -82.875;   13.000;  113.000
436.910; -155.075; -792.000; -422.000
437.034;  -54.475;  142.000;  143.000
437.157;  -69.250;  -11.000;    0.000
437.280; -137.925; -392.000; -292.000
437.403; -195.250; -982.000; -869.000
437.526; -196.425; -903.000; -865.000
437.649; -131.975; -505.000; -332.000
437.772; -168.725; -692.000; -540.000
437.896;    3.000;  700.000;  544.000
438.019; -162.000; -758.000; -503.000
438.142; -143.150; -596.000; -506.000
438.265; -167.075; -639.000; -670.000
438.388; -114.025; -520.000; -410.000
438.511; -144.100; -597.000; -394.000
438.634; -111.875; -247.000; -125.000
438.757; -164.150; -693.000; -619.000
438.880;  -77.600;  -34.000;  -57.000
439.003; -140.475; -417.000; -437.000
439.126; -111.750; -287.000; -167.000
439.248;  -89.275;  -98.000; -139.000
439.371;  -62.350;    9.000;  -53.000
439.494;    0.550;  510.000;  439.000
439.617;  -64.150;   65.000;  -88.000
439.740; -208.825; -968.000; -816.000
439.863; -169.575; -755.000; -595.000
439.986; -153.000; -476.000; -431.000
440.108;  -94.925; -161.000; -112.000
440.231; -210.075; -950.000; -836.000
440.354;  -91.950;  -64.000; -150.000
440.477; -160.525; -566.000; -542.000
440.599; -135.925; -200.000; -225.000
440.722; -159.675; -709.000; -586.000
440.845;   29.975;  751.000;  928.000
440.968; -142.025; -415.000; -311.000
441.090;  -86.925; -199.000;  -33.000
441.213; -198.100;-1021.000; -825.000
441.336;  -87.300; -159.000;   -5.000
441.458; -117.875; -549.000; -396.000
441.581; -167.750; -628.000; -629.000
441.703;  -98.550; -152.000;   13.000
441.826; -143.300; -557.000; -400.000
441.948;  -77.875;   56.000;   51.000
442.071;   -5.125;  555.000;  424.000
442.193; -146.400; -531.000; -485.000
442.316;  -60.175;  152.000;   97.000
442.438; -124.675; -233.000;  -10.000
442.561;  -51.025;  272.000;  262.000
442.683; -176.500; -809.000; -522.000
442.806;  -76.100;   -8.000;   74.000
442.928; -198.250; -859.000; -604.000
443.051; -142.100; -577.000; -373.000
443.173; -142.850; -341.000; -339.000
443.295; -127.600; -263.000; -371.000
443.418; -120.925; -321.000;  -29.000
443.540;  -75.350; -106.000;   -4.000
443.662; -149.700; -563.000; -465.000
443.785;  -35.700;  335.000;  199.000
443.907; -134.475; -362.000; -208.000
444.029; -161.225; -767.000; -494.000
444.152; -164.050; -644.000; -554.000
444.274;  -63.750;  -18.000;  -24.000
444.396; -149.600; -461.000; -221.000
444.518; -161.825; -691.000; -454.000
444.640; -140.175; -268.000; -111.000
444.763;  -32.775;  388.000;  249.000
444.885; -152.850; -432.000; -392.000
445.007;  -58.700;   35.000;   86.000
445.129; -150.250; -610.000; -515.000
445.251; -138.125; -372.000; -439.000
445.373; -165.875; -537.000; -386.000
445.495;  -26.025;  242.000;  350.000
445.617;   27.925;  853.000;  753.000
445.739; -106.250; -215.000;  -97.000
445.861; -100.150; -245.000; -112.000
445.984;  -98.400; -267.000; -101.000
446.105; -127.725; -418.000; -251.000
446.227;  -87.750; -176.000;  -19.000
446.349; -150.200; -358.000; -249.000
446.471; -152.925; -615.000; -448.000
446.593; -109.375; -316.000;   19.000
446.715;  -81.225;  -67.000;   41.000
446.837;   38.650;  697.000;  832.000
446.959; -136.925; -457.000; -478.000
447.081; -164.275; -628.000; -518.000
447.203;   21.325;  862.000;  834.000
447.325; -123.975; -270.000;   42.000
447.446;  -26.175;  286.000;  530.000
447.568; -188.125; -921.000; -803.000
447.690; -120.475; -236.000; -245.000
447.812; -182.775; -798.000; -519.000
447.933;  -56.975;  155.000;  127.000
448.055; -109.475; -306.000; -261.000
448.177;  -56.825;   31.000;   79.000
448.299; -232.200; -935.000; -727.000
448.420;  -50.375;  -25.000;  159.000
448.542;  -97.975;   -3.000;   33.000
448.664;  -46.925;  109.000;  322.000
448.785;  -68.275;  265.000;   83.000
448.907; -153.950; -614.000; -353.000
449.028; -171.000; -771.000; -471.000
449.150;    2.300;  492.000;  589.000
449.272; -221.625;-1044.000; -913.000
449.393;   -4.975;  612.000;  694.000
449.515; -175.925; -634.000; -581.000
449.636; -126.350; -264.000; -155.000
449.758;   22.000;  763.000;  622.000
449.879; -138.825; -498.000; -396.000
450.001; -121.600; -149.000;  -49.000
450.122;  -86.000;  -95.000;  162.000
450.244;  -62.550;   37.000;  364.000
450.365; -133.650; -495.000; -301.000
450.486;  -88.100;   80.000;  268.000
450.608;  -49.200;  393.000;  326.000
450.729;    4.450;  578.000;  645.000
450.850; -159.250; -574.000; -466.000
450.972; -173.725; -552.000; -389.000
451.093;  -45.450;  190.000;  588.000
451.214; -141.250; -516.000; -337.000
451.336;   19.175;  773.000;  579.000
451.457;  -38.350;  264.000;  393.000
451.578;  -86.375; -118.000;  -74.000
451.699; -159.775; -546.000; -540.000
451.821; -104.075; -284.000;  -50.000
451.942;  -50.825;  278.000;  285.000
452.063;  -37.825;  228.000;  419.000
452.184; -101.425;  -54.000;  -49.000
452.305;  -40.375;  103.000;  170.000
452.427; -134.825; -549.000; -301.000
452.548;  -87.500;   23.000;   79.000
452.669; -117.200; -257.000;  -89.000
452.790;  -96.400;    3.000;  -18.000
452.911;  -66.325;  195.000;  259.000
453.032; -116.500; -289.000;  -60.000
453.153;  -90.100;  -29.000;   81.000
453.274;   34.800;  737.000;  868.000
453.395;  -88.850;  -51.000;  175.000
453.516;   69.850; 1317.000; 1388.000
453.637; -138.425; -205.000; -150.000
453.758;  -81.200;   15.000;   69.000
453.879; -154.000; -462.000; -250.000
454.000;   54.850; 1086.000;  948.000
454.121; -163.950; -554.000; -326.000
454.242; -162.425; -599.000; -383.000
454.362;  -82.150;  -99.000;  114.000
454.483; -121.275; -309.000; -229.000
454.604;  -34.700;  512.000;  580.000
454.725; -167.000; -627.000; -555.000
454.846; -143.550; -474.000; -406.000
454.967;  -43.450;  230.000;  539.000
455.087;  -60.400;  179.000;  153.000
455.208;   -3.325;  554.000;  856.000
455.329;  -89.925;  -22.000;   82.000
455.450;  -21.825;  473.000;  633.000
455.570; -131.075; -234.000; -211.000
455.691;  -52.500;  201.000;  407.000
455.812; -122.000; -270.000;  -92.000
455.932;  -86.025;  107.000;  -97.000
456.053;  -91.200;   36.000;   24.000
456.173; -142.150; -433.000; -355.000
456.294; -160.275; -476.000; -303.000
456.415; -102.150;  -73.000;   70.000
456.535;  -65.100;  297.000;  273.000
456.656;  -78.225;  132.000;  240.000
456.776;  -89.050;    3.000;  298.000
456.897;  -24.625;  308.000;  513.000
457.017; -113.950; -153.000;   -3.000
457.138; -147.625; -402.000; -249.000
457.258;  -64.425;  263.000;  224.000
457.379;  -29.900;  509.000;  521.000
457.499;  -51.025;  443.000;  432.000
457.620; -140.000; -407.000; -231.000
457.740; -117.200; -132.000;  -11.000
457.860;  -83.525;   87.000;   44.000
457.981;  -88.925;  132.000;  124.000
458.101; -105.775;  -89.000;   40.000
458.221;  -49.050;  336.000;  402.000
458.342;  -82.325;   -4.000;  -37.000
458.462;  -39.325;  617.000;  352.000
458.582; -129.400; -302.000; -294.000
458.703;  -88.700;  303.000;  154.000
458.823;  -95.100;   22.000;  163.000
458.943;  -56.850;  341.000;  467.000
459.063;  -73.850; 1124.000;  192.000
459.183;  -65.550;  328.000;  313.000
459.304;  -41.400;  315.000;  517.000
459.424; -114.800; -246.000;  -89.000
459.544;   -7.475;  388.000;  764.000
459.664;  -24.525;  499.000;  506.000
459.784;   29.925; 1004.000; 1175.000
459.904;  -17.100;  867.000;  744.000
460.024;   35.600;  867.000;  684.000
460.144;  -45.050;  449.000;  554.000
460.264;  -29.025;  515.000;  327.000
460.385; -116.850; -145.000; -119.000
460.505;    3.350;  905.000;  858.000
460.625; -113.575;  -17.000;  -68.000
460.745;  -38.225;  396.000;  541.000
460.864;  -77.225;  153.000;  469.000
460.984;  -30.700;  499.000;  573.000
461.104;  114.600; 1656.000; 1775.000
461.224;    8.300;  657.000;  650.000
461.344;  -48.025;  431.000;  360.000
461.464;  -72.225;  258.000;  513.000
461.584;  -68.750;  283.000;  466.000
461.704; -101.200;   58.000;  108.000
461.824;  -86.700;  238.000;  259.000
461.943;  -67.850;  191.000;  130.000
462.063;  -96.450;    2.000;  324.000
462.183;    5.625;  639.000;  717.000
462.303;   68.175; 1678.000; 1230.000
462.422;   -0.275;  781.000;  840.000
462.542;  -74.675;  271.000;  391.000
462.662;  -50.475;  353.000;  380.000
462.782;  -18.225;  833.000;  572.000
462.901;  -16.875;  545.000;  717.000
463.021;  117.250; 1702.000; 1638.000
463.141;  -45.550;  337.000;  770.000
463.260;  -60.500;  614.000;  474.000
463.380;   -5.875;  902.000;  884.000
463.499;  -53.475;  342.000;  332.000
463.619;  -62.875;  581.000;  559.000
463.738;   98.725; 1644.000;  903.000
463.858;   -6.125;  657.000;  811.000
463.978;  -59.475;  542.000;  396.000
464.097;   20.225;  921.000; 1114.000
464.217;   42.200; 1196.000; 1143.000
464.336;   42.725; 1068.000; 1130.000
464.455;  -65.825;  328.000;  659.000
464.575;  -21.100;  597.000;  602.000
464.694;   41.150; 1204.000; 1179.000
464.814;   13.825; 1190.000; 1138.000
464.933;   21.625; 1095.000; 1027.000
465.052;   41.725; 1412.000; 1054.000
465.172;    3.700;  922.000;  799.000
465.291;   77.100; 1376.000; 1320.000
465.410;  -29.600;  462.000;  735.000
465.530;   58.300; 1355.000; 1310.000
465.649;   24.975; 1209.000; 1273.000
465.768;   87.375; 1673.000; 1508.000
465.888;   17.625;  941.000; 1174.000
466.007;   71.075; 1335.000; 1440.000
466.126;  -33.225;  721.000;  641.000
466.245;   19.325; 1176.000; 1187.000
466.364;  -17.000;  950.000; 1060.000
466.484;   40.350; 1024.000; 1213.000
466.603;    0.050; 1101.000; 1222.000
466.722;   83.150; 1490.000; 1769.000
466.841;   34.725; 1151.000; 1401.000
466.960;   21.250; 1069.000;  972.000
467.079;  106.150; 1971.000; 1786.000
467.198;   22.050; 1238.000; 1181.000
467.317;   65.375; 1768.000; 1162.000
467.436;   58.450; 1709.000; 1261.000
467.555;  116.375; 1796.000; 1746.000
467.674;   50.025; 1227.000; 1329.000
467.793;   27.675; 1376.000; 1374.000
467.912;   62.675; 1658.000; 1539.000
468.031;  114.925; 2038.000; 1930.000
468.150;  106.100; 1842.000; 1837.000
468.269;  161.325; 2313.000; 2090.000
468.388;  160.975; 2168.000; 2339.000
468.507;  242.225; 2884.000; 2903.000
468.626;  218.700; 2555.000; 2541.000
468.744;  125.050; 2018.000; 2174.000
468.863;  179.000; 2312.000; 2523.000
468.982;   70.725; 1503.000; 1555.000
469.101;  202.525; 2788.000; 2692.000
469.220;  139.675; 2333.000; 2176.000
469.338;  230.000; 2935.000; 3051.000
469.457;  159.975; 2719.000; 2545.000
469.576;  341.300; 3953.000; 3784.000
469.695;  201.950; 2877.000; 3066.000
469.813;  399.025; 4148.000; 4192.000
469.932;  377.075; 4255.000; 4485.000
470.051;  362.900; 4075.000; 4161.000
470.169;  405.175; 4470.000; 4338.000
470.288;  434.100; 4700.000; 4809.000
470.406;  442.625; 5059.000; 5194.000
470.525;  559.150; 6101.000; 5787.000
470.644;  627.450; 6847.000; 6794.000
470.762;  765.625; 8397.000; 7873.000
470.881;  844.350; 8651.000; 8464.000
470.999;  981.350; 9685.000; 9151.000
471.118; 1081.325;11174.000;10711.000

