
Integration time [ms]: 100.000
Averaging Nr. [scans]: 40
Smoothing Nr. [pixels]: 0
Data measured with spectrometer [name]: 2101012U2
Wave   ;Sample   ;Dark     ;Reference
[nm]   ;[counts] ;[counts] ;[counts] 

197.733;   51.575;  516.000;  404.000
197.879;  -84.875; -610.000; -634.000
198.025;  -46.650; -475.000; -420.000
198.171;  -68.950; -602.000; -612.000
198.317;  -23.950; -401.000; -316.000
198.463;  -62.700; -655.000; -404.000
198.609;   15.975;  181.000; -137.000
198.755;  -78.525; -644.000; -410.000
198.901;  -61.025; -505.000; -424.000
199.047;  -50.875; -615.000; -488.000
199.193;  -40.000; -230.000; -468.000
199.339;  -28.900; -222.000; -369.000
199.485;   46.750;  330.000;  271.000
199.631;   27.125;  227.000;  310.000
199.777;  -45.700; -466.000; -398.000
199.923;  -58.950; -610.000; -424.000
200.069;  -13.425; -141.000;  -58.000
200.215;   48.975;  128.000;  453.000
200.361;   42.150;  243.000;  477.000
200.507;  -73.250; -600.000; -373.000
200.653;  -19.175; -371.000; -194.000
200.798;  -43.575; -215.000; -125.000
200.944;   -3.825; -146.000;  -41.000
201.090;   50.550;   61.000;  222.000
201.236;   -2.525; -116.000; -158.000
201.382;  135.025;  874.000;  903.000
201.528;   -0.625;  -58.000;  -48.000
201.674;  -36.000; -386.000; -293.000
201.819;  -75.325; -540.000; -439.000
201.965;  -84.075; -699.000; -447.000
202.111;  -15.625; -273.000; -226.000
202.257;  -25.450; -250.000; -238.000
202.402;    7.225;   13.000;  -36.000
202.548;  -23.725; -169.000; -116.000
202.694;   89.575;  410.000; -183.000
202.840;  -72.125; -603.000; -531.000
202.985;  -79.550; -681.000; -639.000
203.131; -100.000; -832.000; -666.000
203.277;  -17.100; -199.000; -262.000
203.423;  -32.425; -434.000; -520.000
203.568;  -42.000; -462.000; -237.000
203.714;  -46.325; -535.000; -542.000
203.860;  -78.700; -682.000; -641.000
204.005;   17.825;  112.000;  167.000
204.151;   63.875;  561.000;  556.000
204.296;  -52.875; -354.000; -221.000
204.442;  -70.800; -600.000; -547.000
204.588;  -81.500; -592.000; -579.000
204.733;   20.375;  178.000;  168.000
204.879; -124.275;-1018.000; -822.000
205.025;   12.750;  -99.000;  126.000
205.170;   -1.650;  -17.000;   94.000
205.316;   82.925;  438.000;  661.000
205.461;  -84.975; -698.000; -554.000
205.607;   93.000;  609.000;  665.000
205.752;  -79.650; -626.000; -551.000
205.898;  -46.625; -501.000; -391.000
206.043;  -60.550; -578.000; -506.000
206.189;  -36.825; -243.000; -285.000
206.334;   89.525;  554.000;  606.000
206.480;   84.075;  409.000;  239.000
206.625;  -86.975; -529.000; -552.000
206.771;  -46.050; -451.000; -373.000
206.916;  -24.425; -210.000; -537.000
207.062;  -75.475; -545.000; -591.000
207.207;  -48.925; -546.000; -443.000
207.353;   66.900;  185.000;  460.000
207.498;    6.925;  196.000;   85.000
207.643;  -54.075; -501.000; -370.000
207.789; -125.725;-1069.000; -910.000
207.934;  -97.700; -665.000; -713.000
208.080;  -28.925; -154.000;   66.000
208.225;  -18.600;  -22.000;  -57.000
208.370;  -90.175; -727.000; -619.000
208.516;  -77.200; -741.000; -487.000
208.661;  -18.875; -127.000;  -69.000
208.806;  -25.750; -165.000; -171.000
208.952; -120.175;-1044.000; -731.000
209.097;   84.600;  378.000;  349.000
209.242;  -42.100; -307.000; -382.000
209.387;   71.825;  392.000;  350.000
209.533;  -57.250; -321.000; -350.000
209.678;   85.475;  472.000;  543.000
209.823;  -44.650; -408.000; -310.000
209.969; -101.525; -860.000; -757.000
210.114; -111.900; -907.000; -719.000
210.259; -121.600; -939.000; -889.000
210.404;   -2.675; -171.000;  103.000
210.549;   23.225;  108.000;    3.000
210.695;   -8.000;   -3.000;  -95.000
210.840;   33.900;   94.000;   67.000
210.985;  -64.675; -484.000; -303.000
211.130;   71.225;  268.000;  406.000
211.275;   24.150;  207.000;  199.000
211.420;  -54.275; -300.000; -289.000
211.566;  -68.825; -536.000; -489.000
211.711;   25.725;  218.000;  157.000
211.856;  -52.675; -545.000; -519.000
212.001;   14.375;  151.000;   44.000
212.146;   26.825;  153.000;   49.000
212.291;  -22.825; -210.000; -186.000
212.436;  -20.350; -280.000;   -6.000
212.581;  -86.550; -685.000; -653.000
212.726;  -74.150; -487.000; -538.000
212.871;  -46.525; -552.000; -217.000
213.016; -147.475;-1172.000;-1029.000
213.161;   63.625;  406.000;  291.000
213.306;  -73.475; -435.000; -577.000
213.451; -102.750; -778.000; -689.000
213.596;  -44.950; -455.000; -347.000
213.741;  -57.125; -448.000; -538.000
213.886;  -68.200; -498.000; -517.000
214.031;  -19.175; -294.000; -124.000
214.176;  -35.200; -408.000; -341.000
214.321;  -14.225; -296.000; -157.000
214.466;  -22.300; -163.000;  -43.000
214.611;   -4.650;  -61.000;  -10.000
214.756; -119.550; -948.000; -858.000
214.901;  -26.925; -388.000; -226.000
215.046; -120.500; -797.000; -825.000
215.191;   22.400;  128.000;   35.000
215.336;  -14.450; -157.000;  -19.000
215.480;  -73.400; -684.000; -505.000
215.625;  -11.475; -175.000;  -19.000
215.770;  -80.775; -757.000; -662.000
215.915;   -9.825;   -5.000;  -97.000
216.060;   -5.625; -113.000;  -21.000
216.205; -110.275; -731.000; -779.000
216.349;  -76.475; -470.000; -533.000
216.494; -130.350; -939.000; -867.000
216.639; -113.775; -823.000; -888.000
216.784;  -84.025; -577.000; -525.000
216.929;   56.150;  392.000;  281.000
217.073;   -4.000; -244.000;  -31.000
217.218;   15.875;   78.000;  -47.000
217.363;  -90.125; -656.000; -618.000
217.507;  -88.675; -623.000; -588.000
217.652; -118.225; -845.000; -874.000
217.797;  -92.750; -708.000; -659.000
217.942; -102.125; -856.000; -720.000
218.086;   73.825;  608.000;  539.000
218.231;  -19.200; -174.000;  -26.000
218.376;  -36.050; -337.000; -229.000
218.520;    3.425;  -41.000;   96.000
218.665;  -34.150; -338.000; -204.000
218.810;  -38.875; -275.000; -233.000
218.954;   21.375;  201.000;   35.000
219.099; -113.975; -713.000; -963.000
219.243;  -62.300; -589.000; -554.000
219.388;  -34.600; -264.000; -136.000
219.532;   -8.150; -116.000; -116.000
219.677;  -71.575; -564.000; -521.000
219.822;    2.200;   33.000;   89.000
219.966;   12.200;   17.000;  -99.000
220.111;  -23.600; -328.000;  -40.000
220.255;  -89.225; -797.000; -750.000
220.400;  -11.250; -180.000; -146.000
220.544;  -56.925; -516.000; -450.000
220.689;  -53.075; -422.000; -451.000
220.833;  -29.500; -123.000;  -58.000
220.978;  -51.925; -393.000; -563.000
221.122;   35.750;  319.000;  307.000
221.267; -120.250; -906.000; -837.000
221.411;  -67.250; -478.000; -394.000
221.555;   -7.775; -104.000;  -23.000
221.700;  -40.550; -329.000; -222.000
221.844;   33.000;  255.000;  272.000
221.989;  -33.775; -328.000; -311.000
222.133;  -20.200; -289.000; -307.000
222.277;    9.025;    5.000;   78.000
222.422;   20.275;  227.000;  113.000
222.566;  -30.675; -381.000; -214.000
222.711;  -53.825; -414.000; -479.000
222.855;  -81.775; -643.000; -586.000
222.999;  -79.450; -642.000; -717.000
223.144;  -19.550; -195.000; -194.000
223.288;   56.925;  423.000;  251.000
223.432;   24.025;  184.000;  230.000
223.576;   27.050;  152.000;  -21.000
223.721;   59.875;  364.000;  273.000
223.865;  -57.800; -472.000; -475.000
224.009;  268.450; 1673.000; 1631.000
224.153;  -86.250; -660.000; -671.000
224.298;  -71.175; -531.000; -489.000
224.442;  -31.550;  -74.000;  -33.000
224.586;   -7.525; -169.000; -106.000
224.730;  -97.575; -858.000; -670.000
224.875;  -99.600; -739.000; -688.000
225.019;   15.600;  102.000;  188.000
225.163;   74.150;  208.000;  341.000
225.307;   15.050;   97.000;  -91.000
225.451;   56.275;  360.000;  481.000
225.595;   25.350;  264.000;  176.000
225.739;  -14.075; -170.000;  -94.000
225.884;   -4.050;   86.000;    5.000
226.028;  -91.900; -760.000; -626.000
226.172;  -42.875; -260.000; -273.000
226.316; -116.425; -941.000; -902.000
226.460;  -59.400; -645.000; -493.000
226.604;  -39.325; -406.000; -400.000
226.748; -118.200; -836.000; -733.000
226.892;  -19.800; -227.000; -181.000
227.036;  -56.375; -537.000; -447.000
227.180;  -69.000; -551.000; -375.000
227.324;  -57.675; -561.000; -580.000
227.468; -108.425; -819.000; -717.000
227.612;   19.100;  242.000;  -28.000
227.756;  -85.175; -845.000; -698.000
227.900;   73.050;  342.000;  441.000
228.044;  -61.000; -509.000; -290.000
228.188;   57.525;  448.000;  568.000
228.332;  -76.625; -546.000; -472.000
228.476;  -26.800; -223.000; -149.000
228.620;  -13.225; -210.000; -150.000
228.764;   85.100;  431.000;  349.000
228.908;  -26.425; -155.000;   30.000
229.052;  -59.775; -615.000; -528.000
229.195;  -17.100; -172.000;   13.000
229.339;  -33.250; -235.000; -305.000
229.483;  -22.775;    5.000; -162.000
229.627;    0.650; -156.000;  139.000
229.771;  -52.650; -218.000; -294.000
229.915;   19.275;  230.000;   79.000
230.059;  -79.000; -648.000; -663.000
230.202;  -28.450; -370.000; -317.000
230.346;  -20.200; -107.000;  107.000
230.490;  -63.775; -489.000; -521.000
230.634; -104.900; -736.000; -553.000
230.777;   83.400;  478.000;  509.000
230.921;  -56.000; -450.000; -359.000
231.065;  -36.275; -246.000; -286.000
231.209;   36.800;  261.000;  265.000
231.352;   35.050;   54.000;   40.000
231.496;   28.225;  568.000;  188.000
231.640;  -76.900; -693.000; -621.000
231.783;   75.550;  546.000;  525.000
231.927;  -52.825; -294.000; -365.000
232.071; -118.375; -962.000; -736.000
232.214; -110.150; -980.000; -764.000
232.358;  -89.650; -683.000; -599.000
232.502;    8.125;  -19.000;    7.000
232.645; -129.350;-1090.000; -927.000
232.789;  -19.900; -257.000; -218.000
232.933;  -54.500; -407.000; -224.000
233.076; -129.600;-1038.000; -897.000
233.220; -109.900; -752.000; -777.000
233.363;  -82.550; -669.000; -477.000
233.507;   56.175;  371.000;  129.000
233.650;  -97.775; -764.000; -834.000
233.794;   43.750;  438.000;  461.000
233.938;  -55.600; -530.000; -362.000
234.081;  -14.625;  -93.000;   31.000
234.225;  -70.025; -631.000; -539.000
234.368; -109.550; -773.000; -723.000
234.512;  -44.450; -385.000; -299.000
234.655;  -90.700; -582.000; -555.000
234.798;  -83.450; -493.000; -466.000
234.942; -131.300; -884.000;-1002.000
235.085;  -81.600; -651.000; -443.000
235.229;  -80.625; -405.000; -410.000
235.372;  -59.700; -247.000; -191.000
235.516;  -57.925; -397.000; -321.000
235.659;   32.800;   92.000;  121.000
235.802;  -12.600;  -38.000;  -22.000
235.946;   32.650;  335.000;  215.000
236.089;   34.725;  126.000;  250.000
236.233;   42.200;  275.000;  298.000
236.376;  -45.750; -235.000; -378.000
236.519;  -41.850; -297.000; -319.000
236.663;  -13.375; -215.000; -117.000
236.806; -136.925;-1029.000; -999.000
236.949;   56.650;  543.000;  431.000
237.092;   53.975;  412.000;  391.000
237.236;  -85.950; -589.000; -502.000
237.379;   77.875;  352.000;  428.000
237.522; -118.300; -879.000; -768.000
237.666;  -15.625; -271.000;   18.000
237.809; -132.425; -851.000; -823.000
237.952;   26.350;  469.000;  271.000
238.095;  -62.950; -447.000; -442.000
238.238;   86.750;  688.000;  700.000
238.382;    5.175;  166.000;  103.000
238.525;  -64.800; -598.000; -511.000
238.668; -143.025;-1060.000; -985.000
238.811;  -84.625; -638.000; -643.000
238.954;  -52.100; -483.000; -334.000
239.097;   84.825;  617.000;  664.000
239.241;   26.775;  394.000;  326.000
239.384;  -32.450; -254.000; -214.000
239.527;  -66.400; -424.000; -224.000
239.670; -147.725; -994.000;-1091.000
239.813; -121.375; -696.000; -658.000
239.956;   75.575;  579.000;  473.000
240.099; -120.400; -778.000; -725.000
240.242;   74.450;  428.000;  432.000
240.385;   60.025;  466.000;  450.000
240.528;  -71.925; -706.000; -473.000
240.671;   14.625;  189.000;  134.000
240.814;  -50.575; -441.000; -158.000
240.957; -106.850; -767.000; -578.000
241.100;  -99.150; -779.000; -755.000
241.243; -136.475;-1234.000; -893.000
241.386;  -62.525; -508.000; -379.000
241.529;  -89.625; -735.000; -547.000
241.672;  -66.200; -566.000; -495.000
241.815; -117.075; -832.000; -808.000
241.958;  -21.400; -125.000; -182.000
242.101;  -69.500; -545.000; -390.000
242.244;  -39.250; -270.000; -325.000
242.387;  -36.850; -304.000; -246.000
242.530;   59.500;  470.000;  134.000
242.673;  -42.275; -381.000; -309.000
242.815; -121.100; -925.000; -899.000
242.958;  -69.825; -482.000; -381.000
243.101;   28.325;  132.000;  187.000
243.244;  -85.625; -564.000; -521.000
243.387;  -44.775; -313.000; -316.000
243.530;  -89.300; -657.000; -674.000
243.672;    8.525;   43.000;  -92.000
243.815;  -43.925; -355.000; -283.000
243.958;   14.700;   98.000;  -26.000
244.101;   -6.175;   59.000;  -16.000
244.243;  -17.425;  -47.000;  101.000
244.386; -104.800; -761.000; -630.000
244.529;  -27.825; -132.000; -139.000
244.672; -149.775;-1154.000; -951.000
244.814; -102.925; -621.000; -794.000
244.957;  -36.700; -380.000; -304.000
245.100;  -60.125; -489.000; -489.000
245.242;  -56.350; -387.000; -374.000
245.385;   -2.775;  -59.000;  -39.000
245.528; -136.000; -871.000; -705.000
245.670;   74.700;  612.000;  634.000
245.813;  -94.725; -599.000; -547.000
245.956;  -34.150; -324.000; -275.000
246.098;  -77.825; -508.000; -650.000
246.241;    5.000;  194.000;   48.000
246.383;  -13.525; -119.000;  -73.000
246.526;  -72.400; -454.000; -525.000
246.669; -123.925; -889.000; -780.000
246.811;   17.100;  172.000;   -1.000
246.954;  -55.450; -512.000; -426.000
247.096;   -9.550;  -84.000;   -6.000
247.239;  -82.750; -482.000; -445.000
247.381;  -80.000; -647.000; -488.000
247.524;  100.750;  645.000;  679.000
247.666;   -7.000;   58.000;   11.000
247.809; -120.950; -887.000; -691.000
247.951;  -15.625;  -75.000;  138.000
248.094;   43.775;  432.000;  308.000
248.236; -152.000;-1262.000;-1238.000
248.378;    0.875; -356.000;  -81.000
248.521;  -23.925; -334.000; -337.000
248.663;  -39.625; -236.000; -267.000
248.806;  -18.400; -300.000; -266.000
248.948;  -99.300; -886.000; -763.000
249.090;  -43.250; -428.000; -398.000
249.233;  -47.825; -344.000; -381.000
249.375;  -62.125; -474.000; -451.000
249.518;  -22.875;  -83.000; -133.000
249.660;    2.225; -103.000;    3.000
249.802; -165.425;-1303.000;-1189.000
249.945;  -71.225; -612.000; -540.000
250.087; -113.150; -834.000; -768.000
250.229;  -43.425; -362.000; -480.000
250.371;  -76.950; -494.000; -439.000
250.514;  -64.100; -310.000; -244.000
250.656;  -64.200;   69.000;  102.000
250.798; -111.950; -849.000; -800.000
250.940;  -55.400; -322.000; -322.000
251.083;  -23.575; -335.000; -111.000
251.225;   52.925;  338.000;  310.000
251.367;  -35.450; -274.000; -373.000
251.509;  -26.150; -265.000; -210.000
251.651;  -94.600; -731.000; -671.000
251.794;   62.275;  538.000;  632.000
251.936; -117.675; -821.000; -747.000
252.078;  -76.225; -540.000; -461.000
252.220;  -70.525; -645.000; -477.000
252.362;   90.175;  344.000;  462.000
252.504;  -70.225; -677.000; -584.000
252.646; -112.325; -875.000; -722.000
252.788;    1.300;   14.000; -128.000
252.931;  -33.950; -257.000; -253.000
253.073;  -51.200; -376.000; -317.000
253.215;   -2.725;  141.000;  122.000
253.357;  -22.650;   82.000; -153.000
253.499;  -46.725; -374.000; -234.000
253.641;  -80.050; -749.000; -594.000
253.783;  -85.475; -609.000; -527.000
253.925;  -95.150; -586.000; -591.000
254.067;  -99.100; -744.000; -667.000
254.209;  -25.625; -391.000; -259.000
254.351; -128.875; -865.000; -883.000
254.493;  -64.350; -441.000; -417.000
254.635; -123.775; -936.000; -818.000
254.777;  -89.525; -752.000; -687.000
254.918;  -76.925; -512.000; -430.000
255.060;  -64.025; -551.000; -395.000
255.202;  -67.625; -473.000; -261.000
255.344;  -93.500; -658.000; -455.000
255.486;  -68.000; -471.000; -406.000
255.628; -103.450; -780.000; -781.000
255.770; -104.350; -676.000; -536.000
255.912;  -63.975; -559.000; -468.000
256.053; -101.825; -730.000; -508.000
256.195;  168.575; 1008.000;  903.000
256.337; -106.225; -861.000; -595.000
256.479;   61.950;  532.000;  416.000
256.621;  -41.225; -394.000; -212.000
256.762;  -88.075; -789.000; -742.000
256.904;   44.125;  485.000;  487.000
257.046;  -44.525; -381.000; -271.000
257.188;  -39.550; -351.000; -264.000
257.329;  -64.950; -525.000; -464.000
257.471; -120.125; -939.000; -807.000
257.613;  -73.150; -584.000; -498.000
257.755; -144.250;-1073.000; -982.000
257.896;   36.300;  286.000;  392.000
258.038;  -73.575; -403.000; -352.000
258.180;  -46.300; -354.000; -279.000
258.321;  -76.300; -581.000; -457.000
258.463;  -10.175;  -71.000;  133.000
258.605;  -95.125; -562.000; -570.000
258.746;  -98.825; -886.000; -772.000
258.888; -145.300;-1026.000;-1020.000
259.029;   15.225;  121.000;   -8.000
259.171;  -90.975; -614.000; -550.000
259.313;    6.425;  -49.000;  -47.000
259.454;  -79.050; -536.000; -414.000
259.596;  -59.125; -483.000; -390.000
259.737;  -77.900; -590.000; -474.000
259.879;   33.100;  217.000;  311.000
260.020;   97.075;  901.000;  636.000
260.162;  -31.700; -146.000; -253.000
260.303; -116.775; -768.000; -687.000
260.445;  -86.275; -609.000; -613.000
260.586;   28.100;  392.000;  157.000
260.728;  -31.400; -360.000; -248.000
260.869; -113.500; -350.000; -343.000
261.011;   82.325;  706.000;  537.000
261.152;  -68.275; -479.000; -319.000
261.293;  -86.100; -576.000; -595.000
261.435;  -26.750; -219.000; -184.000
261.576;  -57.700; -455.000; -325.000
261.718;   53.175;  420.000;  470.000
261.859; -132.825; -940.000; -949.000
262.000; -127.625; -951.000;-1016.000
262.142;  -20.650;  -52.000;  -60.000
262.283; -114.200; -808.000; -691.000
262.424;  -97.225; -666.000; -625.000
262.566; -151.175;-1161.000; -983.000
262.707; -117.000; -840.000; -830.000
262.848; -135.075; -769.000; -726.000
262.990;  -57.500; -362.000; -345.000
263.131;   79.600;  650.000;  681.000
263.272;  -12.000;  -61.000;  -41.000
263.413;  -86.575; -589.000; -561.000
263.555;  -55.850; -669.000; -143.000
263.696;  -85.500; -550.000; -641.000
263.837;  -60.625; -449.000; -551.000
263.978;    6.675;   -5.000;  -77.000
264.119;  -48.825; -283.000; -264.000
264.261;  -95.525; -847.000; -630.000
264.402;   -5.750;   33.000;   40.000
264.543;  -87.975; -509.000; -524.000
264.684;  -18.825;   61.000;  -50.000
264.825;  -82.775; -816.000; -538.000
264.966;   -1.125;  -84.000;  -67.000
265.107; -101.575; -646.000; -670.000
265.248; -111.575; -825.000; -812.000
265.390;   -7.075;  152.000;   -9.000
265.531;  -29.550; -238.000; -107.000
265.672;  -85.825; -557.000; -630.000
265.813;   50.450;  563.000;  439.000
265.954; -136.050; -959.000; -940.000
266.095;  -10.975; -372.000; -322.000
266.236;  -91.150; -686.000; -548.000
266.377;  -46.875; -243.000; -297.000
266.518;  -65.575; -619.000; -547.000
266.659;   15.050;  170.000;  268.000
266.800;    6.250;   83.000;   85.000
266.941;  -78.900; -487.000; -478.000
267.082;   29.775;  354.000;   99.000
267.223;  -57.275; -344.000; -273.000
267.364; -127.600; -892.000; -686.000
267.504;   -4.525;    3.000;  135.000
267.645;   16.550;  160.000;   67.000
267.786;  -32.950; -147.000;  -86.000
267.927;  -73.875; -473.000; -379.000
268.068;   -8.550; -186.000;  -61.000
268.209;  -49.000; -175.000; -413.000
268.350;  -58.400; -388.000; -532.000
268.490;  -95.200; -648.000; -521.000
268.631;   33.325;  127.000;  225.000
268.772; -109.650; -874.000; -647.000
268.913;  -56.275; -328.000; -476.000
269.054;    1.300; -117.000;   12.000
269.194;  -41.900; -418.000; -402.000
269.335; -154.650;-1137.000;-1074.000
269.476;  -17.825;   33.000;  -35.000
269.617;  -64.150; -347.000; -392.000
269.757;  -92.500; -713.000; -646.000
269.898;  -89.375; -856.000; -613.000
270.039;  -69.725; -415.000; -405.000
270.180; -126.575; -952.000; -816.000
270.320;  -12.025; -190.000; -250.000
270.461;  -60.550; -277.000; -249.000
270.602;  -16.450; -186.000; -156.000
270.742; -120.375; -868.000; -943.000
270.883;  -59.850; -442.000; -390.000
271.023;  -55.900; -358.000; -357.000
271.164;  -86.100; -607.000; -528.000
271.305; -108.650; -666.000; -654.000
271.445;  -92.375; -722.000; -683.000
271.586;  -80.650; -462.000; -283.000
271.726;  -34.975; -397.000; -322.000
271.867;  -67.450; -594.000; -534.000
272.008;  163.425; -473.000; -285.000
272.148;  127.225;  462.000;  468.000
272.289;   11.200; -113.000; -181.000
272.429;   18.075;   19.000;  185.000
272.570;  -91.925; -633.000; -737.000
272.710; -104.750; -825.000; -775.000
272.851;  -28.300;  113.000; -130.000
272.991; -170.400;-1173.000;-1077.000
273.131;  -68.725; -419.000; -459.000
273.272;  -93.425; -683.000; -723.000
273.412;   14.700; -143.000;  -31.000
273.553;  -53.025; -488.000; -507.000
273.693;  130.975;  913.000;  858.000
273.834;  -95.600; -894.000; -692.000
273.974;  -81.700; -664.000; -615.000
274.114;  -87.200; -772.000; -560.000
274.255;   80.425;  414.000;  373.000
274.395;   -5.750; -180.000; -125.000
274.535;   44.225;  199.000;  350.000
274.676;   22.950;  225.000;   94.000
274.816;    3.525;  110.000;   34.000
274.956;  -97.325; -624.000; -690.000
275.097;  -61.975;-1014.000; -922.000
275.237; -112.700; -913.000; -803.000
275.377;  -90.750; -778.000; -689.000
275.517; -140.550; -878.000; -937.000
275.658;  -56.700; -590.000; -555.000
275.798;  -81.200; -606.000; -413.000
275.938;   18.225;  215.000;  323.000
276.078; -112.825; -626.000; -395.000
276.218;   -9.175;   99.000;  104.000
276.359; -118.075;-1026.000;-1024.000
276.499;  -72.500; -605.000; -446.000
276.639;  -36.000; -305.000; -151.000
276.779;  -44.200; -475.000; -357.000
276.919; -113.450; -783.000; -624.000
277.059;  -32.975; -261.000; -212.000
277.199;  -32.975; -357.000; -259.000
277.340;   39.075;  287.000;  175.000
277.480; -117.750; -840.000; -693.000
277.620;   22.925;  192.000;   16.000
277.760; -201.675;-1533.000;-1294.000
277.900;    5.025;  113.000;   33.000
278.040;   24.600;  137.000;  159.000
278.180;   26.325;  270.000;  170.000
278.320;   -3.625;   21.000;   56.000
278.460;  -72.675; -443.000; -469.000
278.600;  -87.125; -708.000; -598.000
278.740;   50.250;  448.000;  224.000
278.880;  -64.700; -768.000; -791.000
279.020;  -14.225; -194.000; -144.000
279.160;  -91.825; -672.000; -595.000
279.300; -131.925; -926.000; -873.000
279.440;  -94.600; -709.000; -622.000
279.579;  -17.175;-1014.000; -929.000
279.719;  -60.425; -410.000; -394.000
279.859;   76.125;   -4.000;   41.000
279.999;   21.800; -208.000;  101.000
280.139;   -7.525; -435.000; -387.000
280.279;  -71.625; -708.000; -745.000
280.419;  -21.325; -229.000; -147.000
280.559;  -42.825; -259.000; -180.000
280.698; -100.200; -790.000; -639.000
280.838; -103.400; -778.000; -800.000
280.978; -112.825; -846.000; -790.000
281.118; -107.375; -811.000; -704.000
281.257;   10.450;   24.000;    6.000
281.397; -133.300;-1094.000; -960.000
281.537;  -92.675; -599.000; -712.000
281.677;  -22.200; -150.000; -101.000
281.816;  -95.125; -700.000; -630.000
281.956;  -31.475; -193.000; -257.000
282.096;  -77.950; -539.000; -396.000
282.235; -113.225; -672.000; -638.000
282.375;  -19.375; -243.000;  -98.000
282.515; -102.925; -715.000; -707.000
282.654;   26.850;   29.000;  106.000
282.794;   26.550;  388.000;  244.000
282.934;  -63.275; -530.000; -491.000
283.073; -131.375;-1030.000; -857.000
283.213;  -58.400; -460.000; -467.000
283.353;  -31.950; -408.000; -349.000
283.492;  -37.575; -264.000; -296.000
283.632;  -39.850; -254.000; -168.000
283.771; -101.575; -859.000; -730.000
283.911;  -63.125; -369.000; -260.000
284.050;  -93.750; -794.000; -748.000
284.190; -156.375;-1229.000;-1096.000
284.329; -147.050;-1055.000; -964.000
284.469;  -78.625; -516.000; -591.000
284.608;  -51.400; -559.000; -598.000
284.748;  -75.500; -614.000; -570.000
284.887;  -12.975;  -87.000;  -20.000
285.027; -136.900; -844.000; -892.000
285.166;  -30.200; -192.000; -249.000
285.306;    1.250; -116.000;  -33.000
285.445;  -43.900; -229.000; -343.000
285.584;  -93.775; -630.000; -494.000
285.724;  -58.575; -282.000; -322.000
285.863; -116.575; -857.000; -507.000
286.002;  -58.300; -366.000; -276.000
286.142; -112.125; -715.000; -622.000
286.281;  -81.100; -525.000; -493.000
286.420;  -82.475; -554.000; -417.000
286.560;  110.900;  653.000;  623.000
286.699; -129.650; -958.000; -912.000
286.838;  -91.075; -590.000; -591.000
286.978;  -78.200; -533.000; -537.000
287.117; -142.800;-1085.000; -950.000
287.256;  -31.200; -228.000; -211.000
287.395;  -48.525; -197.000; -378.000
287.535;  -65.725; -370.000; -298.000
287.674; -100.675; -509.000; -484.000
287.813;   58.100;  661.000;  533.000
287.952; -141.400;-1010.000; -871.000
288.091; -153.500;-1049.000; -915.000
288.231;    0.150;   13.000;   15.000
288.370; -172.275;-1217.000;-1200.000
288.509;  -87.400; -728.000; -645.000
288.648;  -85.125; -770.000; -548.000
288.787;  -42.125; -243.000;  -87.000
288.926;  -58.875; -454.000; -475.000
289.065;  117.825;  859.000;  672.000
289.204;  -48.950; -377.000; -217.000
289.344;  -99.075; -791.000; -690.000
289.483;   31.225;  416.000;  304.000
289.622;  -20.775; -291.000; -149.000
289.761;   -3.650; -309.000; -166.000
289.900; -129.350; -785.000; -626.000
290.039;  -25.100;  -12.000;  -95.000
290.178;  -40.350; -274.000; -180.000
290.317;  -73.775; -618.000; -479.000
290.456;  -76.375; -463.000; -451.000
290.595; -144.625; -961.000; -833.000
290.734; -136.825; -904.000; -891.000
290.873;  -61.425; -456.000; -420.000
291.011; -103.375; -833.000; -843.000
291.150; -110.825; -770.000; -682.000
291.289;  -27.000; -343.000; -110.000
291.428;  -87.975; -599.000; -480.000
291.567;  -58.050; -370.000; -442.000
291.706;    6.525;  109.000;  154.000
291.845;  -96.850; -597.000; -505.000
291.984; -174.825;-1234.000;-1061.000
292.122;   66.500;  602.000;  582.000
292.261;   43.525;  620.000;  463.000
292.400;    8.600; -144.000;  211.000
292.539; -132.700; -959.000; -813.000
292.678;  -40.075; -325.000; -300.000
292.816; -149.875;-1136.000; -965.000
292.955;  -97.175; -844.000; -684.000
293.094;  -28.175; -173.000; -337.000
293.233;  -50.200; -556.000; -400.000
293.371;  -25.825; -225.000;  -84.000
293.510; -106.375; -866.000; -780.000
293.649; -123.425; -959.000; -924.000
293.787;  -68.300;-1083.000;-1012.000
293.926;    9.200; -113.000;  -32.000
294.065;  -50.850; -379.000; -290.000
294.203;   53.050;  298.000;  406.000
294.342;   33.775;   74.000;  156.000
294.481; 6265.250;51180.000; -836.000
294.619;  -34.025; -425.000; -582.000
294.758; -152.175;-1230.000;-1137.000
294.896;   52.925; -125.000;    5.000
295.035; -131.025;-1040.000;-1006.000
295.174; -125.275;-1082.000; -954.000
295.312;  -45.575; -323.000; -203.000
295.451;  -23.375; -307.000; -428.000
295.589;  -53.150; -389.000; -518.000
295.728;   22.900; -292.000; -165.000
295.866;   -7.725;  -36.000;  -51.000
296.005;  -64.025; -584.000; -341.000
296.143;  -69.450; -558.000; -596.000
296.282; -117.325; -957.000; -881.000
296.420;  -87.000; -657.000; -557.000
296.559;  -90.200; -892.000; -633.000
296.697;    1.425; -847.000; -665.000
296.835;   26.375;-1141.000;-1002.000
296.974;   47.725;  -23.000;   39.000
297.112;   -5.325; -443.000; -504.000
297.251;  -71.000; -815.000; -755.000
297.389;   77.975; -576.000; -438.000
297.527;   43.650; -145.000;  -83.000
297.666;  -55.275; -486.000; -438.000
297.804;  -46.250; -404.000; -264.000
297.942;  -12.775; -136.000; -161.000
298.081;   -6.900; -183.000;   63.000
298.219;   51.400;  -17.000;  -19.000
298.357;   20.950; -144.000;  -71.000
298.495;   25.950; -810.000; -812.000
298.634;   67.325;  245.000;  219.000
298.772;   41.375; -220.000; -338.000
298.910;  -37.600; -309.000; -182.000
299.048;  -10.025; -130.000; -153.000
299.187;  -41.750; -350.000; -250.000
299.325;   16.500;   52.000;  122.000
299.463;   53.975; -389.000; -299.000
299.601;   82.350; -327.000; -271.000
299.739;  -98.750; -908.000; -883.000
299.877; -104.625; -791.000; -703.000
300.016;  -60.225;-1095.000; -935.000
300.154;  151.550;  -19.000; -161.000
300.292;   60.625; -428.000; -348.000
300.430;   14.150; -408.000; -291.000
300.568; -110.725; -940.000; -874.000
300.706;  -58.525; -366.000; -469.000
300.844;  -88.875;-1108.000; -979.000
300.982;  116.775;  246.000;  282.000
301.120; -116.475; -965.000; -866.000
301.258;  -75.300; -812.000; -705.000
301.396;   26.475;  104.000;  -41.000
301.534;   63.200; -218.000; -293.000
301.672;  -23.625; -664.000; -521.000
301.810;    7.075; -613.000; -545.000
301.948;   99.050;   53.000;  149.000
302.086;  562.450; -250.000;  -32.000
302.224;  865.325; -610.000; -585.000
302.362;   17.250; -558.000; -622.000
302.500;  -39.200; -923.000; -893.000
302.638;   93.950;  128.000;  245.000
302.776;   -8.150; -352.000; -408.000
302.913;   55.900;  447.000;  236.000
303.051;    5.725;  -86.000;  -23.000
303.189;   46.650;   90.000;  118.000
303.327;  -42.050; -341.000; -256.000
303.465; -103.775; -832.000; -588.000
303.603;  -82.575; -805.000; -604.000
303.740;   99.700;  417.000;  241.000
303.878;   15.325; -800.000; -759.000
304.016; -101.800; -915.000; -790.000
304.154; -140.650;-1123.000;-1152.000
304.291;  -45.375; -505.000; -554.000
304.429;    7.900;  102.000;   74.000
304.567; -121.975; -908.000; -893.000
304.705;  -53.075; -408.000; -515.000
304.842;   76.950; -616.000; -540.000
304.980;   58.050;  215.000;   35.000
305.118;   22.475; -367.000; -365.000
305.255;  -88.300; -945.000; -927.000
305.393;   67.450;  178.000;  239.000
305.531; -109.750;-1173.000; -956.000
305.668;  -64.875; -663.000; -582.000
305.806;   95.200; -358.000; -439.000
305.943;   92.150; -629.000; -637.000
306.081;   39.175; -378.000; -267.000
306.219;  -94.750; -863.000; -748.000
306.356;   10.200;  158.000;   27.000
306.494;  101.150;  981.000;  761.000
306.631;    2.725;  -11.000;  -55.000
306.769;   -0.350; -613.000; -485.000
306.906;  -30.300; -284.000; -258.000
307.044;  -62.475; -473.000; -488.000
307.181;  -69.750; -410.000; -332.000
307.319;    6.200;  112.000;   87.000
307.456; -176.550;-1191.000;-1153.000
307.594; -109.025; -980.000; -727.000
307.731;   -7.250; -371.000; -164.000
307.868;   -6.350;  -15.000;   20.000
308.006; -133.675; -961.000; -847.000
308.143;  -69.550; -618.000; -330.000
308.281;  102.750;  -37.000; -254.000
308.418;  -40.150; -748.000; -640.000
308.555;  -79.975; -400.000; -250.000
308.693;  -72.525; -577.000; -573.000
308.830; -108.400; -712.000; -657.000
308.967;  -13.700; -215.000;  -95.000
309.105;  -49.500; -507.000; -396.000
309.242;    0.450; -468.000; -367.000
309.379;  199.800; -577.000; -655.000
309.517;  -88.725; -936.000; -948.000
309.654; -110.575; -910.000; -734.000
309.791;  -61.250; -662.000; -580.000
309.928; -122.200; -977.000; -914.000
310.065;  164.650;  819.000;  697.000
310.203;  -21.500; -825.000; -850.000
310.340;   -9.150; -465.000; -321.000
310.477;  -72.075; -412.000; -516.000
310.614;  -68.025; -383.000; -473.000
310.751;  -81.150; -427.000; -518.000
310.889;  -32.750;    1.000;   11.000
311.026; -155.900;-1161.000; -939.000
311.163;  -55.200; -386.000; -380.000
311.300;  -87.750; -512.000; -479.000
311.437;  -80.225; -658.000; -619.000
311.574; -166.925;-1226.000; -985.000
311.711;  -66.425; -595.000; -433.000
311.848;  -42.000; -380.000; -388.000
311.985;   18.825;  270.000;   93.000
312.122; -110.925; -932.000; -762.000
312.259; -128.050; -941.000; -994.000
312.396;  -88.050; -508.000; -551.000
312.533; -105.875; -812.000; -790.000
312.670; -130.875;-1070.000; -898.000
312.807;  -48.500; -352.000; -367.000
312.944;  -76.175; -513.000; -611.000
313.081;  -47.025; -150.000; -415.000
313.218; -105.450;-1111.000; -867.000
313.355;  -14.400; -531.000; -449.000
313.492;   -7.525; -455.000; -292.000
313.629;  126.975;  815.000;  735.000
313.766; -155.900;-1176.000;-1008.000
313.902;  -11.375; -186.000;   21.000
314.039;  -41.375; -372.000; -289.000
314.176;   18.300;  286.000;  192.000
314.313;  -70.150; -569.000; -473.000
314.450;  -90.175; -788.000; -684.000
314.587;  -69.425; -468.000; -480.000
314.723;  -14.175;  -78.000;  130.000
314.860;   22.575;  318.000;  332.000
314.997;   39.100;  223.000;  142.000
315.134;  -30.750; -385.000; -368.000
315.270;  -40.400; -480.000; -496.000
315.407; -129.025;-1094.000; -967.000
315.544;  -52.050; -657.000; -538.000
315.681;  -65.425; -681.000; -565.000
315.817;   20.850; -133.000; -176.000
315.954;   16.200; -613.000; -392.000
316.091; -133.100;-1045.000;-1023.000
316.227;  -29.300;  -71.000; -179.000
316.364;  -15.025;   23.000;    6.000
316.500;  -44.450; -113.000; -300.000
316.637;  -39.425; -181.000; -302.000
316.774;  -86.500; -625.000; -358.000
316.910;  -86.250; -598.000; -629.000
317.047;  -64.050; -487.000; -351.000
317.183;  -66.150; -435.000; -566.000
317.320;  -19.025; -367.000; -321.000
317.456;  -69.500; -733.000; -805.000
317.593;  -80.175; -598.000; -641.000
317.729;   -5.475;  168.000;  -67.000
317.866; -200.650;-1434.000;-1285.000
318.002;  -90.225; -708.000; -948.000
318.139; -112.475; -883.000; -867.000
318.275; -107.725;-1003.000; -738.000
318.412;  -57.075; -517.000; -336.000
318.548;  -45.600; -751.000; -720.000
318.685; -102.475; -985.000; -888.000
318.821; -106.825; -762.000; -735.000
318.957;  -13.300;   34.000;  -23.000
319.094;   40.675;  297.000;  154.000
319.230;  -58.150; -756.000; -742.000
319.367;  106.925; -471.000; -520.000
319.503;   55.300; -538.000; -436.000
319.639; -111.325; -877.000; -793.000
319.775;  -62.875; -750.000; -685.000
319.912;  -66.100; -424.000; -519.000
320.048;  -89.675;-1184.000;-1184.000
320.184;   72.200;   59.000;   70.000
320.321;  -57.225; -497.000; -467.000
320.457;   74.600;  475.000;  662.000
320.593;  -51.725; -375.000; -382.000
320.729; -107.700; -732.000; -734.000
320.866;  -76.850; -577.000; -635.000
321.002;  -85.900; -759.000; -809.000
321.138;  -22.050; -135.000; -211.000
321.274;   70.225; -148.000; -115.000
321.410;  -24.100; -585.000; -353.000
321.546;  -45.975;-1011.000; -911.000
321.683;   49.700;  400.000;  185.000
321.819;   -8.900;  -48.000; -117.000
321.955; -121.500; -743.000; -722.000
322.091;  -45.200; -585.000; -540.000
322.227;    4.075; -382.000; -202.000
322.363;  -25.025; -320.000; -215.000
322.499;  -46.625; -343.000; -331.000
322.635;  150.975;  636.000;  443.000
322.771;   21.450; -139.000;   12.000
322.907;   78.800;  129.000;  327.000
323.043;   -9.850; -115.000; -206.000
323.179;  -31.225; -394.000; -363.000
323.315;   -3.925; -401.000; -371.000
323.451;   77.675; -328.000; -236.000
323.587;   62.275;  -60.000;  -77.000
323.723;   16.475; -682.000; -601.000
323.859;   -8.900; -258.000;  -76.000
323.995;  -40.425; -467.000; -409.000
324.131; -126.950; -967.000; -892.000
324.267;  -31.575; -254.000; -276.000
324.402; -138.050; -960.000; -983.000
324.538;  -15.625; -279.000; -104.000
324.674;   18.725;  164.000;   77.000
324.810;  102.150;  226.000;  308.000
324.946;    4.875; -810.000; -658.000
325.082;  -75.250; -568.000; -475.000
325.217;  -25.925;  -62.000;   16.000
325.353; -110.175; -764.000; -659.000
325.489;  -88.475; -540.000; -506.000
325.625;  -78.200; -579.000; -525.000
325.760;   67.375;  517.000;  376.000
325.896;  -22.175; -515.000; -702.000
326.032;  -56.725; -403.000; -352.000
326.168;  -62.875; -462.000; -369.000
326.303;  -64.725; -352.000; -461.000
326.439;  -33.275; -336.000; -276.000
326.575;    6.450; -190.000;  -29.000
326.710;  -11.050; -156.000;  -30.000
326.846;   -8.975;  146.000;  103.000
326.982; -100.250; -530.000; -548.000
327.117;  -66.725; -481.000; -442.000
327.253;  -84.375; -745.000; -742.000
327.388; -180.425;-1137.000;-1153.000
327.524;  -59.825; -811.000; -578.000
327.659;  -16.600;  -58.000;  -22.000
327.795;  -17.550;   69.000;   45.000
327.931;  -91.300; -723.000; -499.000
328.066;  -26.175; -417.000; -276.000
328.202;  -35.925;   12.000; -129.000
328.337;  100.350;  957.000;  713.000
328.473;   44.575;  -12.000;  -74.000
328.608;  -22.725; -256.000; -267.000
328.743;  -93.400; -799.000; -664.000
328.879;   19.000;  214.000;  114.000
329.014;  -40.275; -102.000; -122.000
329.150;  -89.050; -358.000; -483.000
329.285;  -71.800; -465.000; -466.000
329.421;  -53.950; -548.000; -246.000
329.556;  -28.475;  -36.000;   85.000
329.691;  -89.175; -633.000; -615.000
329.827;  -80.600; -626.000; -480.000
329.962;  -47.650;  131.000; -301.000
330.097;  -91.675; -673.000; -585.000
330.233;  -53.850; -410.000; -223.000
330.368; -123.275; -839.000; -628.000
330.503;   -8.000;    3.000;   98.000
330.638;   -2.725;  -93.000; -125.000
330.774;  -58.625; -609.000; -530.000
330.909;  -54.275; -434.000; -244.000
331.044;  -92.575; -714.000; -708.000
331.179; -176.875;-1217.000;-1109.000
331.315;    1.550;   77.000;   20.000
331.450;   24.450;  157.000;  285.000
331.585; -100.950; -805.000; -706.000
331.720;  -85.600; -510.000; -460.000
331.855;  -11.875;  -35.000; -102.000
331.990;  259.450;   62.000;  138.000
332.126;  117.550; -110.000;   71.000
332.261;   -3.100; -379.000; -265.000
332.396;  -18.575; -135.000; -242.000
332.531;  -96.825;-1074.000;-1031.000
332.666;   34.775; -519.000; -363.000
332.801; -108.350; -726.000; -807.000
332.936;  -19.425; -192.000; -122.000
333.071; -155.650; -870.000; -817.000
333.206;    9.550;  307.000;  379.000
333.341;   34.275;  344.000;  418.000
333.476;  -86.025; -627.000; -623.000
333.611;  -40.525; -251.000; -173.000
333.746;  -43.550; -381.000; -464.000
333.881; -116.825; -973.000; -935.000
334.016; -132.200; -936.000; -917.000
334.151; -118.850; -746.000; -702.000
334.286;   24.025;  152.000;  186.000
334.421;   -8.425; -125.000; -178.000
334.556;  -82.775; -611.000; -567.000
334.690;  -83.450; -631.000; -577.000
334.825;   59.975;  381.000;   83.000
334.960;  -52.600; -285.000; -413.000
335.095;    0.650;  135.000;  -91.000
335.230;  -94.125; -722.000; -738.000
335.365; -129.775;-1084.000; -990.000
335.499; -138.875;-1108.000;-1037.000
335.634;   21.675;    9.000;  534.000
335.769; -112.525; -755.000; -720.000
335.904;  -69.500; -603.000; -561.000
336.038;  -65.925; -735.000; -657.000
336.173; -126.300;-1206.000;-1194.000
336.308;   17.550; -116.000; -189.000
336.443;   -2.825; -544.000; -634.000
336.577;  -75.125; -936.000; -787.000
336.712;   71.575;   -4.000;  -12.000
336.847;  -39.900; -724.000; -607.000
336.981;   61.225; -272.000; -208.000
337.116;  275.000;  615.000;  501.000
337.250;  122.900; -434.000; -421.000
337.385;  277.925; -297.000; -208.000
337.520;   95.375; -632.000; -603.000
337.654;  -49.875; -215.000; -126.000
337.789; -130.500; -989.000; -933.000
337.923;  -43.125; -104.000; -205.000
338.058;  -99.250; -673.000; -738.000
338.192;  -22.950; -611.000; -488.000
338.327;   -9.225;  -18.000; -155.000
338.461;  -59.725; -299.000; -469.000
338.596; -106.150; -780.000; -638.000
338.730;  -95.150; -767.000; -803.000
338.865;   91.975;  -46.000; -140.000
338.999;  -49.950; -846.000; -702.000
339.134;  -29.725; -634.000; -536.000
339.268;    5.900; -741.000; -603.000
339.403;  366.450; -740.000; -775.000
339.537;  127.925; -894.000; -820.000
339.671; -113.275; -829.000; -813.000
339.806;  -53.975; -556.000; -512.000
339.940;   15.350; -261.000; -235.000
340.074;  -99.325; -685.000; -510.000
340.209;  -44.750; -351.000; -230.000
340.343;  -98.800; -517.000; -573.000
340.477;  170.975;  998.000; 1036.000
340.612;  -44.875;-1033.000; -900.000
340.746;  134.325; -199.000; -243.000
340.880;  -70.350; -924.000; -785.000
341.014;  -28.725;  -45.000; -154.000
341.149; -116.950; -756.000; -718.000
341.283; -114.000; -839.000; -754.000
341.417; -106.475;-1124.000; -938.000
341.551;   96.550; -768.000; -708.000
341.685;  -37.875; -633.000; -611.000
341.820;  -58.150; -562.000; -493.000
341.954;  -55.650; -218.000; -349.000
342.088; -148.225;-1102.000;-1019.000
342.222;   59.275;  565.000;  618.000
342.356;  -70.100; -395.000; -335.000
342.490; -100.800; -880.000; -841.000
342.624;  -54.175; -339.000; -242.000
342.758;    0.825; -364.000; -312.000
342.892;  -68.075; -710.000; -585.000
343.026;  -37.600;  -58.000; -116.000
343.160;  -70.125; -426.000; -376.000
343.294;  -70.550; -474.000; -337.000
343.428;  -41.400; -488.000; -448.000
343.562;    2.775; -172.000;  -23.000
343.696;  -32.075; -385.000; -314.000
343.830;  -31.275; -362.000; -356.000
343.964;    4.400; -231.000; -168.000
344.098;  833.125;  199.000;   70.000
344.232;  675.700; -266.000; -127.000
344.366;   81.700; -567.000; -453.000
344.500;   29.700; -665.000; -744.000
344.634;   14.725; -324.000; -164.000
344.768;  -20.625; -531.000; -341.000
344.902;   20.250;  278.000;  256.000
345.035;  -86.500; -556.000; -496.000
345.169; -143.225; -933.000; -656.000
345.303;  -40.000; -308.000; -482.000
345.437;  -95.525; -826.000; -717.000
345.571;  -75.450; -675.000; -594.000
345.704;  -62.675; -309.000; -532.000
345.838;  -16.675; -331.000; -284.000
345.972;  -40.925; -543.000; -495.000
346.106;  144.000; -179.000; -190.000
346.239;  401.025; -312.000; -243.000
346.373;  -10.150; -343.000; -302.000
346.507; -134.700; -950.000; -962.000
346.640;  128.975;  -30.000;   13.000
346.774;  -57.725; -650.000; -797.000
346.908;  -35.925; -138.000;  -11.000
347.041;  -87.550; -646.000; -593.000
347.175;    9.225;  259.000;   27.000
347.309;  -78.200; -698.000; -628.000
347.442; -114.675; -883.000; -732.000
347.576;  251.675;  670.000;  668.000
347.709;  167.125; -123.000;  -52.000
347.843; -106.450; -933.000; -825.000
347.976;   32.675;  235.000;  294.000
348.110; -188.750;-1268.000;-1186.000
348.243; -118.050; -679.000; -772.000
348.377;    5.975;  -26.000;   60.000
348.510;   34.425;  403.000;  540.000
348.644;  -39.575;  -37.000; -159.000
348.777;  -15.950;  180.000;  191.000
348.911;  -58.675; -142.000; -112.000
349.044;  164.025;  471.000;  448.000
349.178;  114.150;-1069.000;-1006.000
349.311;  123.575;  141.000;  255.000
349.444;   -6.300; -927.000; -813.000
349.578;  -30.850; -347.000; -200.000
349.711;  -97.875; -959.000; -862.000
349.845;  -24.525; -661.000; -591.000
349.978; -152.125;-1224.000;-1137.000
350.111;  -96.700; -546.000; -612.000
350.244;  -85.225; -596.000; -700.000
350.378;   -5.725; -392.000; -393.000
350.511;  -75.250; -393.000; -426.000
350.644; -108.775; -808.000; -806.000
350.778;   15.475;  168.000;  104.000
350.911;   -3.200;  134.000;  140.000
351.044;  -97.275; -685.000; -615.000
351.177;  -32.350; -321.000; -281.000
351.310;  -23.150;    3.000; -131.000
351.444;  -89.175; -888.000; -788.000
351.577;   93.525;  140.000;   90.000
351.710;   90.125;  593.000;  417.000
351.843;  -32.850; -165.000;  -77.000
351.976;   -6.950;  149.000;  -79.000
352.109;  -90.600; -621.000; -612.000
352.242;  -35.600; -464.000; -419.000
352.376;  -72.925; -580.000; -636.000
352.509;  152.900; -437.000; -356.000
352.642;  -11.200; -654.000; -604.000
352.775;   58.125; -141.000;  -98.000
352.908; -115.675; -933.000; -904.000
353.041; -103.525; -814.000; -824.000
353.174;  -64.700; -551.000; -424.000
353.307;  -93.500; -753.000; -764.000
353.440;   79.250;  541.000;  453.000
353.573; -117.950; -957.000;-1008.000
353.706;  -55.700; -384.000; -558.000
353.839;  -18.950; -264.000; -220.000
353.971;  -91.350; -657.000; -512.000
354.104;  -91.725; -896.000; -835.000
354.237;  -33.450; -627.000; -662.000
354.370;  -90.500; -846.000; -879.000
354.503; -180.925;-1231.000;-1308.000
354.636;  -37.825; -529.000; -348.000
354.769; -111.575; -937.000; -860.000
354.902;  -11.375; -230.000; -139.000
355.034;  -20.375; -164.000; -220.000
355.167;  -26.700; -262.000; -162.000
355.300;  -88.625;-1061.000; -880.000
355.433; 1003.550;  -71.000;  -14.000
355.565; 1535.700; -402.000; -384.000
355.698;  383.750; -356.000; -296.000
355.831;   -5.425; -882.000; -801.000
355.964;   70.825; -285.000; -170.000
356.096;  -97.375; -856.000; -843.000
356.229;  -15.375; -523.000; -530.000
356.362;  305.725; -373.000; -266.000
356.494;  594.350; -229.000; -162.000
356.627;  443.400;  269.000;  377.000
356.760;  648.450;  120.000;   53.000
356.892;  978.600; -286.000; -601.000
357.025;  602.875;  403.000;  389.000
357.157;  536.900; -167.000; -179.000
357.290;  709.600; -856.000; -713.000
357.423;  203.100; -667.000; -556.000
357.555;   99.625; -217.000; -228.000
357.688;  113.825; -483.000; -364.000
357.820;  433.700; -870.000; -877.000
357.953; 3501.150; -563.000; -589.000
358.085;  722.375; -632.000; -612.000
358.218;  961.800;-1131.000; -932.000
358.350;  197.525;  -58.000;  312.000
358.483; -123.200;-1300.000;-1187.000
358.615;  -25.975;-1182.000;-1078.000
358.747;  -70.575;-1187.000;-1058.000
358.880;   25.075; -810.000; -744.000
359.012;   -3.475; -376.000; -202.000
359.145;  -44.250; -480.000; -511.000
359.277;   49.650; -962.000; -913.000
359.409; 2870.325;  536.000;  231.000
359.542;  759.675; -738.000; -688.000
359.674;   68.275;   46.000;   13.000
359.806;  -59.350; -565.000; -438.000
359.939;  -40.025; -617.000; -516.000
360.071;  -12.850; -583.000; -579.000
360.203;  -30.100; -411.000; -364.000
360.335;   34.325;  164.000;  -16.000
360.468;  177.525; -249.000; -307.000
360.600; 2313.825; -547.000; -454.000
360.732; 2910.100; -546.000; -423.000
360.864;  392.975;-1216.000;-1044.000
360.996;  247.050; -516.000; -554.000
361.129;   24.050; -389.000; -598.000
361.261;    5.675;  110.000; -113.000
361.393;  -21.275; -252.000; -214.000
361.525;   20.325;   94.000;  244.000
361.657;  -41.800; -821.000; -703.000
361.789;    1.775; -139.000; -155.000
361.921;  180.550; -642.000; -593.000
362.053;  230.475;  524.000;  541.000
362.185;   42.225;  288.000;   72.000
362.318;  -91.450; -709.000; -705.000
362.450;  105.025;  294.000;  444.000
362.582;   56.075; -913.000; -870.000
362.714;  -41.575; -353.000; -332.000
362.846; -110.350; -606.000; -490.000
362.978; -148.325; -941.000; -811.000
363.109;   40.350; -161.000; -260.000
363.241;  369.650; -739.000; -749.000
363.373;  425.975; -649.000; -564.000
363.505;  693.175; -186.000;  -91.000
363.637;  151.725; -787.000; -601.000
363.769; -118.300;-1067.000;-1080.000
363.901;  -78.725; -596.000; -654.000
364.033; -134.450;-1103.000;-1062.000
364.165;   -8.050; -283.000; -283.000
364.296;   64.325; -316.000; -177.000
364.428;   59.575;-1344.000;-1220.000
364.560;  -74.125; -679.000; -661.000
364.692;  -76.800; -738.000; -835.000
364.824;  214.975; -588.000; -456.000
364.955;  416.175; -402.000; -564.000
365.087;  973.350;-1097.000; -852.000
365.219;   18.950; -686.000; -816.000
365.351;  -59.350; -526.000; -572.000
365.482;   42.650;  300.000;  240.000
365.614;  -54.525; -402.000; -314.000
365.746;  -88.825; -729.000; -752.000
365.877;  -90.900; -706.000; -672.000
366.009;  262.275;  -35.000;  -62.000
366.141;  -87.300;-1249.000;-1134.000
366.272; -109.500; -803.000; -719.000
366.404; -103.725;-1005.000; -874.000
366.535;   -6.025; -139.000;  -12.000
366.667; -112.375; -644.000; -649.000
366.799;   40.750;  353.000;  203.000
366.930; -138.125; -862.000; -996.000
367.062;  133.050; -639.000; -613.000
367.193;  147.050; -872.000; -842.000
367.325;  -63.675; -580.000; -684.000
367.456;   46.175; -246.000;   31.000
367.588;  167.825; -371.000; -318.000
367.719;   39.950;  -44.000;  -45.000
367.851;  -16.050; -222.000; -241.000
367.982;  -64.500; -875.000; -732.000
368.113;   92.175; -475.000; -358.000
368.245; -118.325; -960.000; -841.000
368.376;  -34.450; -254.000; -302.000
368.508;  -47.225; -188.000; -263.000
368.639; -149.725;-1166.000;-1034.000
368.770;  -21.200; -670.000; -589.000
368.902;  -77.050; -836.000; -926.000
369.033; -121.275; -906.000; -855.000
369.164;  -48.850; -720.000; -653.000
369.296; -115.400; -452.000; -601.000
369.427;  -13.825; -209.000; -144.000
369.558;  -54.275; -593.000; -377.000
369.689;  -81.725; -721.000; -569.000
369.821; -135.600; -951.000; -845.000
369.952;  -15.025;   42.000; -108.000
370.083;  -50.350; -229.000; -108.000
370.214;  -83.100; -735.000; -650.000
370.345;   -0.325;   65.000;   81.000
370.477;  -86.875; -810.000; -790.000
370.608;  182.775; -328.000; -264.000
370.739;  -76.125;-1233.000;-1292.000
370.870;  -43.275;-1102.000; -923.000
371.001;   50.325; -378.000; -467.000
371.132;  -72.725; -754.000; -735.000
371.263;  -34.500;  -42.000; -148.000
371.394; -132.350; -841.000; -748.000
371.525;   27.250;  345.000;  225.000
371.657; -100.550; -808.000; -670.000
371.788;   52.075;  103.000;  199.000
371.919;  134.800; -384.000; -304.000
372.050; 3372.550;  -91.000; -156.000
372.181;  979.100; -188.000; -294.000
372.311;  330.200;   42.000; -127.000
372.442;   11.275; -457.000; -451.000
372.573;  -16.625; -444.000; -340.000
372.704; -123.975;-1008.000; -980.000
372.835;   67.700; -228.000; -289.000
372.966;  -70.825; -646.000; -554.000
373.097;  -86.450; -575.000; -711.000
373.228;  -53.400; -717.000; -542.000
373.359;  105.525; -824.000; -536.000
373.490;  826.625; -881.000; -727.000
373.620; 1018.250;-1001.000; -803.000
373.751; 1636.100; -332.000; -396.000
373.882;  697.700; -663.000; -733.000
374.013;   47.300; -449.000; -262.000
374.143;  -55.525; -581.000; -659.000
374.274; -107.925; -987.000; -908.000
374.405;  150.725; -388.000; -276.000
374.536;  399.800; -526.000; -387.000
374.666;  990.275; -759.000; -807.000
374.797;  174.450; -817.000; -868.000
374.928;  760.450; -710.000; -560.000
375.058;  794.125; -535.000; -500.000
375.189;   65.450;  -59.000;  -93.000
375.320; -117.025; -928.000;-1034.000
375.450;  -58.675; -625.000; -616.000
375.581;  -56.025; -526.000; -436.000
375.712;  -38.525; -574.000; -250.000
375.842;  256.050; -438.000; -415.000
375.973;  160.125; -554.000; -513.000
376.103;  -63.450; -665.000; -648.000
376.234;  -90.400; -531.000; -552.000
376.364;  -44.375; -944.000; -867.000
376.495;  305.400;  925.000;  529.000
376.625;  -35.175; -472.000; -485.000
376.756;   43.475; -709.000; -678.000
376.886;  -98.450;-1178.000;-1026.000
377.017;   42.425;-1048.000;-1061.000
377.147;  352.125; -786.000; -782.000
377.278;   43.725;  174.000;  228.000
377.408; -119.925; -801.000; -815.000
377.538; -108.900; -707.000; -693.000
377.669;  -92.625; -537.000; -613.000
377.799; -110.550; -645.000; -635.000
377.929;  -58.800; -610.000; -428.000
378.060; -137.050; -781.000; -847.000
378.190;  -69.525; -726.000; -531.000
378.320;  -50.600; -401.000; -406.000
378.451;  -11.025; -131.000;  -22.000
378.581;   -2.800;  -67.000; -110.000
378.711;  149.225; 1035.000;  866.000
378.841;  -35.000; -533.000; -675.000
378.972;  -88.925; -871.000; -751.000
379.102;  -18.050; -652.000; -579.000
379.232;  -24.650; -126.000;  -73.000
379.362; -125.050;-1001.000; -885.000
379.492;    9.825; -373.000; -424.000
379.623;   96.850;    0.000;  111.000
379.753; -110.500;-1107.000; -974.000
379.883;  174.100;   59.000;  156.000
380.013;  -12.350;-1081.000;-1017.000
380.143; -118.575;-1097.000;-1056.000
380.273; -109.450; -985.000; -861.000
380.403;    2.525; -344.000; -257.000
380.533;  -14.100; -651.000; -664.000
380.663;   49.925;  173.000;  128.000
380.793; -119.400;-1027.000;-1074.000
380.923;  -26.825; -103.000;  -34.000
381.053; -103.475; -613.000; -623.000
381.183;  -40.400; -106.000; -248.000
381.313;   23.475; -656.000; -470.000
381.443;   21.975; -692.000; -473.000
381.573;  158.375; -402.000; -409.000
381.703;  208.775;-1249.000;-1095.000
381.833; -146.525;-1454.000;-1336.000
381.963;   88.775; -134.000;  -87.000
382.093; 1313.100; -925.000; -909.000
382.223;  382.175; -713.000; -602.000
382.353;  -31.925; -801.000; -608.000
382.482;  320.400;-1091.000; -964.000
382.612;  691.000; -872.000; -644.000
382.742;  397.425; -695.000; -622.000
382.872;  232.300; -565.000; -551.000
383.002;   46.125;  347.000; -132.000
383.131;  -31.500; -226.000; -160.000
383.261;  -42.975; -706.000; -768.000
383.391;  294.725; -552.000; -377.000
383.521; 3330.925;  451.000;  263.000
383.650;  767.575; -947.000; -904.000
383.780;  -28.975; -783.000; -656.000
383.910;  113.800;  880.000;  802.000
384.039;   -5.350; -794.000; -656.000
384.169;  149.000;-1205.000;-1017.000
384.299;  -25.850; -650.000; -662.000
384.428; -101.475; -764.000; -680.000
384.558;  -47.300; -308.000; -275.000
384.687;  -54.700; -414.000; -334.000
384.817;   -8.950;   75.000;   -2.000
384.947;    4.625; -234.000; -141.000
385.076;  266.500;  982.000;  912.000
385.206;  106.500;  369.000;  480.000
385.335;  -46.600; -549.000; -417.000
385.465;  -89.275; -655.000; -663.000
385.594;  120.700;  -53.000;  -44.000
385.724;  361.150; -868.000; -838.000
385.853;   96.775; -296.000; -270.000
385.982; 1263.925; -743.000; -787.000
386.112; 1937.325;-1052.000; -871.000
386.241;  114.100; -307.000; -312.000
386.371;   15.775; -174.000;  -87.000
386.500;  -17.000; -825.000; -789.000
386.629;    1.800; -874.000; -817.000
386.759;   48.025;  -43.000;   68.000
386.888;  -22.375; -170.000; -250.000
387.017;  -73.975; -648.000; -620.000
387.147;  -97.000; -771.000; -798.000
387.276;    0.875; -410.000; -397.000
387.405;   -5.650; -398.000; -342.000
387.535;  -44.150; -452.000; -361.000
387.664;  -68.675; -692.000; -620.000
387.793;   56.975; -198.000; -113.000
387.922;  448.350;  255.000;  200.000
388.052;   -4.550; -576.000; -423.000
388.181;   -7.475; -342.000; -472.000
388.310;  -34.475; -889.000; -710.000
388.439;  -53.650; -749.000; -742.000
388.568;  163.850;  365.000;  244.000
388.697;  927.950; -756.000; -653.000
388.826;  178.275; -768.000; -666.000
388.956;   35.625; -285.000; -307.000
389.085;  -44.225; -347.000; -287.000
389.214; -118.700; -842.000; -872.000
389.343;  -74.575; -645.000; -413.000
389.472;  398.300;  126.000;  149.000
389.601;  538.550;   91.000;    0.000
389.730;   -5.625; -568.000; -687.000
389.859;   48.375;  226.000;   46.000
389.988;  174.625; -423.000; -408.000
390.117;  127.250; -168.000; -146.000
390.246;  -16.525; -331.000; -320.000
390.375;   88.000; -673.000; -626.000
390.504;  -69.250; -703.000; -621.000
390.633; -110.725; -672.000; -726.000
390.761;  -69.600; -732.000; -645.000
390.890;    4.825;   -4.000; -130.000
391.019;  -44.900; -421.000; -441.000
391.148; -123.425; -826.000; -855.000
391.277;  -76.300; -576.000; -493.000
391.406;  -94.225; -821.000; -805.000
391.534;   15.025;  574.000; -301.000
391.663;  -73.825; -583.000; -645.000
391.792;  -91.725; -673.000; -701.000
391.921;   67.175;   -3.000;   15.000
392.050;  161.575; -287.000; -228.000
392.178;  -64.500;-1206.000;-1061.000
392.307;  119.675; -758.000; -712.000
392.436;   37.400; -427.000; -641.000
392.564;    9.000;  166.000;   -6.000
392.693;  -98.275; -860.000; -682.000
392.822;  164.475; -529.000; -534.000
392.950;   50.575; -880.000; -714.000
393.079;  276.800; -188.000; -328.000
393.208;    2.075; -488.000; -511.000
393.336;  -24.950; -170.000; -145.000
393.465;  -61.450; -317.000; -199.000
393.593;  -11.300;   62.000;   79.000
393.722; -155.525;-1121.000; -916.000
393.850;  -31.625; -188.000;  -61.000
393.979; -160.475; -926.000; -805.000
394.107;  -71.325; -517.000; -537.000
394.236;  -35.425; -570.000; -507.000
394.364;  177.250;  383.000;  206.000
394.493;  218.925; -911.000; -767.000
394.621;  -36.950; -955.000; -916.000
394.750;  732.800; -873.000; -923.000
394.878; 3002.050; -247.000; -149.000
395.007; 4019.325; -721.000; -807.000
395.135;  279.450; -790.000; -721.000
395.263;  -90.275;-1038.000;-1040.000
395.392;    1.450;  -25.000; -107.000
395.520; -145.600; -818.000; -679.000
395.648;  -96.825; -865.000; -915.000
395.777;  -31.325; -366.000; -405.000
395.905;  -67.825; -449.000; -564.000
396.033;    0.800;  217.000;  172.000
396.162;  375.475; -399.000; -453.000
396.290;  347.950;  -17.000;   -2.000
396.418;   70.725; -555.000; -514.000
396.546;  -84.075; -571.000; -466.000
396.674; -110.275; -850.000; -878.000
396.803;    7.925;  -72.000;  -23.000
396.931;   67.600; -179.000; -199.000
397.059;   10.800;-1026.000; -989.000
397.187; -120.175;-1026.000; -975.000
397.315; -135.000; -884.000; -649.000
397.443; -103.725; -592.000; -443.000
397.572;  -93.000; -578.000; -424.000
397.700;  -41.775; -607.000; -614.000
397.828;    3.575;  120.000;  -90.000
397.956;  -47.850; -508.000; -478.000
398.084;  -67.275; -767.000; -626.000
398.212;   33.975;  137.000;  124.000
398.340;    2.950;  -56.000;  159.000
398.468;    9.750; -390.000; -169.000
398.596; -136.075; -993.000; -953.000
398.724; -121.975; -762.000; -767.000
398.852; -149.475;-1024.000; -976.000
398.980;  -74.550; -560.000; -560.000
399.108;  -68.275; -982.000; -735.000
399.236;   31.375;   13.000;    8.000
399.363;   12.250;  222.000;  196.000
399.491;  -73.675; -404.000; -398.000
399.619; -129.300; -829.000; -800.000
399.747; -108.825; -859.000; -771.000
399.875;   55.825;  220.000;  234.000
400.003;  -66.900; -359.000; -284.000
400.130;  -95.150; -421.000; -341.000
400.258;  -36.875;  -83.000;   38.000
400.386;  -73.375; -352.000; -168.000
400.514;  -69.575; -526.000; -587.000
400.641; -103.700; -928.000; -802.000
400.769; -159.150; -979.000; -888.000
400.897; -120.400; -838.000; -793.000
401.025;  -25.300; -166.000; -152.000
401.152;   -2.500;  220.000;   38.000
401.280;  -97.075; -430.000; -429.000
401.408; -116.450; -712.000; -576.000
401.535; -130.025; -735.000; -758.000
401.663; -195.775;-1134.000;-1054.000
401.790;  -91.275; -514.000; -525.000
401.918;   46.650;  436.000;  405.000
402.046;  -24.950;  134.000;  122.000
402.173;  -41.950;  -18.000;    7.000
402.301;  -76.950; -519.000; -397.000
402.428;   36.175;  528.000;  383.000
402.556; -151.675;-1188.000; -913.000
402.683;  -37.550;  -20.000;   -1.000
402.811;  -23.750;  -37.000; -206.000
402.938;    1.225;   20.000;   27.000
403.066;  179.850; -574.000; -558.000
403.193;  295.725;  299.000;  239.000
403.321;  222.075; -396.000; -574.000
403.448;  288.675;   83.000;   27.000
403.575;  122.525;  -90.000;  -46.000
403.703;  -92.075; -732.000; -557.000
403.830;  -65.600; -531.000; -496.000
403.957; -136.350;-1117.000;-1023.000
404.085;   -3.125;  -61.000; -172.000
404.212;   95.000;  -50.000;   63.000
404.339;  270.925; -566.000; -306.000
404.467; 6031.600; -612.000; -524.000
404.594; 3727.775; -287.000; -227.000
404.721;  828.975; -869.000; -764.000
404.848;   62.125; -113.000; -202.000
404.976; -103.375; -856.000; -783.000
405.103;  -14.100;  -14.000;  -82.000
405.230;  -10.125;  190.000;  226.000
405.357;    6.175;  117.000;   44.000
405.484;  272.450;  -49.000;    5.000
405.612;   27.875; -548.000; -563.000
405.739;  -68.150; -488.000; -243.000
405.866;   80.750;  669.000;  385.000
405.993;  -57.625; -398.000; -102.000
406.120; -138.400; -801.000; -887.000
406.247;  -53.525; -323.000; -342.000
406.374;  384.150;  540.000;  629.000
406.501;   63.950; -632.000; -702.000
406.628;  -84.275; -621.000; -589.000
406.755;  -88.575; -803.000; -620.000
406.882;  -35.550; -228.000; -277.000
407.009; -107.850; -719.000; -628.000
407.136;   31.525; -480.000; -401.000
407.263;   76.275; -939.000; -829.000
407.390;  -87.675; -692.000; -614.000
407.517; -168.500;-1139.000;-1187.000
407.644;  -55.875; -332.000; -256.000
407.771; -140.600; -249.000; -287.000
407.898;   -7.875;  168.000;  328.000
408.025;  -60.450; -421.000; -313.000
408.151;  -14.350;   82.000;  153.000
408.278;  -79.150; -267.000; -216.000
408.405; -124.450; -931.000; -899.000
408.532;  -77.375; -549.000; -542.000
408.659; -113.200; -677.000; -648.000
408.785; -190.800;-1298.000;-1170.000
408.912;  -78.100; -412.000; -296.000
409.039; -109.675; -610.000; -686.000
409.166; -110.625; -591.000; -555.000
409.292; -110.700; -571.000; -534.000
409.419; -125.650; -665.000; -649.000
409.546;  -83.675; -431.000; -192.000
409.672; -112.050; -713.000; -545.000
409.799;  -26.925;  -36.000;   34.000
409.926;  -54.800; -180.000; -179.000
410.052; -175.475;-1127.000;-1091.000
410.179;  -56.025; -368.000; -392.000
410.305;  -92.775; -375.000; -493.000
410.432;  -51.350; -220.000; -333.000
410.558; -112.575; -305.000; -380.000
410.685; -108.425; -688.000; -431.000
410.812;  -96.625; -409.000; -588.000
410.938; -148.750; -964.000; -808.000
411.065;  -99.525; -671.000; -645.000
411.191;  -21.250; -189.000; -174.000
411.317; -119.575; -823.000; -742.000
411.444;  -74.350; -317.000; -246.000
411.570;  -78.300; -339.000; -294.000
411.697; -126.425; -758.000; -752.000
411.823; -170.825; -989.000; -999.000
411.949;  -42.425;  -56.000;   17.000
412.076; -108.900; -539.000; -519.000
412.202; -122.025; -758.000; -757.000
412.329; -143.050; -798.000; -752.000
412.455; -120.200; -821.000; -657.000
412.581;  -26.425;  -15.000;  172.000
412.707;  -70.575; -540.000; -457.000
412.834;   12.425;  156.000;  219.000
412.960;  -78.200; -785.000; -784.000
413.086; -114.375; -743.000; -701.000
413.212;  138.475;  604.000;  578.000
413.339;  -70.750; -685.000; -701.000
413.465;  -10.900; -364.000; -310.000
413.591;  -97.575; -757.000; -474.000
413.717;  -68.475; -358.000; -366.000
413.843; -142.250; -839.000; -861.000
413.969;  -49.175;  -47.000; -292.000
414.096; -103.725; -679.000; -679.000
414.222;  -10.175;  -33.000;   85.000
414.348;  -38.200; -652.000; -385.000
414.474;   80.400;   38.000;  -52.000
414.600;  -24.475; -126.000; -144.000
414.726;  -16.025;  -96.000;  -55.000
414.852;  -58.875; -365.000; -342.000
414.978;   28.000;  104.000;  -18.000
415.104;   46.975;   38.000;   80.000
415.230;    6.900; -329.000; -330.000
415.356;   31.500; -409.000; -514.000
415.482;  192.325;   13.000;  -35.000
415.608;  263.675; -247.000; -323.000
415.734;  988.725;   67.000;   38.000
415.860;20513.000; -875.000; -767.000
415.986;14363.750; -685.000; -607.000
416.111; 1199.350; -798.000; -652.000
416.237;  252.975; -424.000; -571.000
416.363; 1204.800; -765.000; -733.000
416.489; 4283.325; -324.000; -251.000
416.615;  437.600; -707.000; -742.000
416.741;  -23.850; -677.000; -784.000
416.866;  -88.450; -673.000; -736.000
416.992; -128.325; -801.000; -818.000
417.118;  -22.825;  -41.000;  -80.000
417.244;  -88.475; -798.000; -531.000
417.369;  -90.650; -801.000; -612.000
417.495;  -15.025; -325.000; -254.000
417.621;  -89.375;-1015.000; -803.000
417.746;   -6.125; -579.000; -572.000
417.872;   52.500; -254.000; -144.000
417.998;   55.875; -515.000; -530.000
418.123; 1134.450;-1073.000; -845.000
418.249; 5539.850; -512.000; -601.000
418.374;  756.525; -916.000; -824.000
418.500;   99.075; -383.000; -482.000
418.626;  114.025;   70.000;  -59.000
418.751;  121.325; -549.000; -448.000
418.877;  196.825; -637.000; -643.000
419.002; 1905.575; -688.000; -560.000
419.128;13012.100; -930.000; -721.000
419.253; 3050.075; -967.000; -837.000
419.379;  389.875; -391.000; -338.000
419.504;  382.400;  325.000;  415.000
419.629;  512.825; -393.000; -212.000
419.755; 3833.975; -317.000; -254.000
419.880;21988.375;  -98.000;   67.000
420.006;11827.175; -280.000; -221.000
420.131;30012.475; -662.000; -775.000
420.256; 4158.250; -315.000; -316.000
420.382;  524.550; -665.000; -687.000
420.507;   48.425; -649.000; -778.000
420.632;  121.425; -337.000; -339.000
420.758;  188.600; -251.000; -425.000
420.883;  -94.825; -876.000; -672.000
421.008; -101.250; -775.000; -619.000
421.133;  -82.550; -509.000; -467.000
421.259;  -57.475; -325.000; -259.000
421.384; -122.675; -834.000; -693.000
421.509;  -61.750;-1052.000; -862.000
421.634; 1002.000; -936.000; -820.000
421.759;  394.250; -359.000; -327.000
421.885;  -73.725; -717.000; -656.000
422.010; -104.750; -673.000; -542.000
422.135; -155.250; -695.000; -727.000
422.260;   22.200;  340.000;  280.000
422.385;  -42.650;   12.000;  -98.000
422.510;    3.400;  151.000;  -26.000
422.635;    9.675;  -87.000;  -43.000
422.760;   78.150; -766.000; -791.000
422.885;   47.650;  -57.000;  -80.000
423.010;  -33.975; -112.000; -169.000
423.135;  -91.375; -481.000; -561.000
423.260;  -19.050; -150.000; -245.000
423.385;   56.525;  476.000;  222.000
423.510;   23.650;   71.000;  -22.000
423.635;   60.300;  133.000;   45.000
423.760;   46.875;  383.000;  328.000
423.885;   69.550;  336.000;  391.000
424.010;    0.200;  -68.000;  -13.000
424.135;  -28.575;    5.000;  -33.000
424.259;  -87.000; -654.000; -457.000
424.384;  -85.875; -279.000; -272.000
424.509;  -23.775; -260.000; -186.000
424.634; -110.775; -761.000; -623.000
424.759;  -37.450; -688.000; -544.000
424.883;  -17.850; -506.000; -527.000
425.008;  158.525; -502.000; -410.000
425.133; 2055.750; -679.000; -653.000
425.258;  913.600; -517.000; -381.000
425.382;  979.075; -867.000; -774.000
425.507; 2420.150; -487.000; -543.000
425.632;  402.600; -802.000; -663.000
425.756;  450.600; -256.000; -146.000
425.881; 7060.025; -831.000; -857.000
426.006;18557.400; -604.000; -355.000
426.130; 2770.100; -696.000; -508.000
426.255;  362.325; -611.000; -491.000
426.379;  143.650; -189.000; -577.000
426.504;  369.000;  660.000;  544.000
426.629; 4144.050; -519.000; -466.000
426.753; 2738.000;   64.000;  -46.000
426.878;  323.700; -252.000; -288.000
427.002;  161.850; -651.000; -668.000
427.127; 1671.325;  -35.000; -158.000
427.251;11820.750;  372.000;  401.000
427.375; 3213.225; -191.000; -173.000
427.500; 2145.275; -616.000; -610.000
427.624;  691.475; -234.000; -400.000
427.749;   67.400; -216.000; -225.000
427.873;  -50.600; -499.000; -412.000
427.997;  -31.700; -222.000; -230.000
428.122;   74.450;  795.000;  703.000
428.246;   75.500;  433.000;  434.000
428.371; -137.850; -869.000; -773.000
428.495; -107.625; -624.000; -646.000
428.619;  -33.125; -186.000; -117.000
428.743;    9.250;   65.000;  132.000
428.868;    0.950; -732.000; -643.000
428.992; 1301.450; -219.000; -326.000
429.116;  489.700; -329.000; -357.000
429.240;  234.150;  419.000;  426.000
429.365;  -29.375; -454.000; -574.000
429.489;  -51.850; -638.000; -647.000
429.613;   24.750; -236.000; -177.000
429.737;   19.250; -563.000; -432.000
429.861;  283.275; -247.000; -133.000
429.985; 5848.150; -425.000; -305.000
430.109; 6133.475; -770.000; -908.000
430.234;  684.850;   76.000;  -50.000
430.358;   71.075; -250.000; -160.000
430.482;  -79.175; -672.000; -564.000
430.606;  -69.925; -655.000; -375.000
430.730;   -3.425; -437.000; -388.000
430.854;   82.500; -909.000; -835.000
430.978;  -90.700; -795.000; -764.000
431.102;  -90.700; -499.000; -422.000
431.226; -130.375; -874.000; -815.000
431.350;   21.275;  345.000;  422.000
431.474;  -99.600; -661.000; -373.000
431.597; -156.225;-1060.000; -848.000
431.721;  -77.925; -276.000; -267.000
431.845; -137.150; -704.000; -472.000
431.969;  -81.800; -304.000; -349.000
432.093; -101.275; -395.000; -317.000
432.217;  -25.250;   32.000;   82.000
432.341;  -95.000; -523.000; -518.000
432.464;   11.125;   96.000;   40.000
432.588;  160.025; -401.000; -329.000
432.712;   81.050;  -52.000;  -52.000
432.836;   40.025;  213.000;  263.000
432.959;   -9.225; -372.000; -311.000
433.083;   92.475;   11.000;    2.000
433.207;  400.700;  285.000;  930.000
433.330; 5332.775; -391.000; -200.000
433.454; 6367.550; -654.000; -638.000
433.578; 3641.675;  583.000;  278.000
433.701;  658.375; -623.000; -675.000
433.825;  109.575; -292.000; -299.000
433.949;  140.775;   28.000;  -72.000
434.072;   32.725; -410.000; -323.000
434.196;  -49.750; -309.000; -117.000
434.319; 3790.200;25482.000;25124.000
434.443;  729.400; -656.000; -603.000
434.566; 2724.950;  281.000;   62.000
434.690;  433.825; -637.000; -383.000
434.813;   51.000; -251.000; -173.000
434.937;  -97.300; -569.000; -696.000
435.060;  -57.050; -423.000; -332.000
435.184;  231.800; -492.000; -217.000
435.307;  128.675;  159.000;  102.000
435.431;  -20.750;  -40.000;   24.000
435.554;  -77.750; -399.000; -240.000
435.677; -112.050; -350.000; -258.000
435.801;  -61.175;  -25.000;   49.000
435.924;  -12.775;    1.000;  -67.000
436.048; -137.500;-1019.000; -732.000
436.171;  -72.975; -240.000;  -66.000
436.294;  -35.275; -248.000; -229.000
436.417;   94.750; -963.000; -849.000
436.541; -115.925; -814.000; -840.000
436.664;  -55.450; -242.000; -316.000
436.787;  -30.550;   13.000;  113.000
436.910; -120.925; -792.000; -422.000
437.034;   -6.875;  142.000;  143.000
437.157;   34.325;  -11.000;    0.000
437.280;  -58.800; -392.000; -292.000
437.403;  -97.025; -982.000; -869.000
437.526;  514.500; -903.000; -865.000
437.649; 1916.050; -505.000; -332.000
437.772;  250.675; -692.000; -540.000
437.896;  112.000;  700.000;  544.000
438.019; -116.275; -758.000; -503.000
438.142; -101.800; -596.000; -506.000
438.265;  -28.300; -639.000; -670.000
438.388;  462.525; -520.000; -410.000
438.511;   59.425; -597.000; -394.000
438.634;  -65.175; -247.000; -125.000
438.757; -125.750; -693.000; -619.000
438.880;  -32.600;  -34.000;  -57.000
439.003;  -88.050; -417.000; -437.000
439.126;  -59.050; -287.000; -167.000
439.248;  -66.700;  -98.000; -139.000
439.371;  -60.025;    9.000;  -53.000
439.494;   24.500;  510.000;  439.000
439.617;  -57.850;   65.000;  -88.000
439.740; -178.325; -968.000; -816.000
439.863; -150.775; -755.000; -595.000
439.986; -122.675; -476.000; -431.000
440.108;  -57.350; -161.000; -112.000
440.231; -170.325; -950.000; -836.000
440.354;  -49.800;  -64.000; -150.000
440.477;    3.300; -566.000; -542.000
440.599;  -23.350; -200.000; -225.000
440.722; -126.575; -709.000; -586.000
440.845;   65.725;  751.000;  928.000
440.968; -112.750; -415.000; -311.000
441.090;  -84.850; -199.000;  -33.000
441.213; -173.875;-1021.000; -825.000
441.336;  -54.575; -159.000;   -5.000
441.458;  -80.425; -549.000; -396.000
441.581;  -94.975; -628.000; -629.000
441.703;  -70.675; -152.000;   13.000
441.826; -117.200; -557.000; -400.000
441.948;  -42.650;   56.000;   51.000
442.071;   29.775;  555.000;  424.000
442.193; -109.850; -531.000; -485.000
442.316;    7.900;  152.000;   97.000
442.438;   40.000; -233.000;  -10.000
442.561;   68.125;  272.000;  262.000
442.683;  455.475; -809.000; -522.000
442.806;  967.675;   -8.000;   74.000
442.928;  -21.950; -859.000; -604.000
443.051;  -92.625; -577.000; -373.000
443.173;  -88.750; -341.000; -339.000
443.295; -110.075; -263.000; -371.000
443.418;  -78.525; -321.000;  -29.000
443.540;  -19.475; -106.000;   -4.000
443.662; -130.900; -563.000; -465.000
443.785;  -13.525;  335.000;  199.000
443.907; -112.900; -362.000; -208.000
444.029; -143.875; -767.000; -494.000
444.152; -150.425; -644.000; -554.000
444.274;  -29.150;  -18.000;  -24.000
444.396; -127.700; -461.000; -221.000
444.518; -151.425; -691.000; -454.000
444.640; -113.675; -268.000; -111.000
444.763;  -27.150;  388.000;  249.000
444.885; -121.300; -432.000; -392.000
445.007;  -45.500;   35.000;   86.000
445.129; -125.525; -610.000; -515.000
445.251;  -99.975; -372.000; -439.000
445.373; -139.025; -537.000; -386.000
445.495;   -5.025;  242.000;  350.000
445.617;   51.025;  853.000;  753.000
445.739;  -86.650; -215.000;  -97.000
445.861;  -43.925; -245.000; -112.000
445.984;  -47.825; -267.000; -101.000
446.105;  171.950; -418.000; -251.000
446.227;  523.675; -176.000;  -19.000
446.349;  -20.975; -358.000; -249.000
446.471; -114.700; -615.000; -448.000
446.593;  -82.625; -316.000;   19.000
446.715;  -17.775;  -67.000;   41.000
446.837;   53.000;  697.000;  832.000
446.959; -112.000; -457.000; -478.000
447.081; -130.675; -628.000; -518.000
447.203;   54.450;  862.000;  834.000
447.325;  -90.825; -270.000;   42.000
447.446;  -13.350;  286.000;  530.000
447.568; -156.125; -921.000; -803.000
447.690;  -99.025; -236.000; -245.000
447.812; -158.525; -798.000; -519.000
447.933;  -36.225;  155.000;  127.000
448.055;  -67.325; -306.000; -261.000
448.177;  133.750;   31.000;   79.000
448.299;   48.800; -935.000; -727.000
448.420;   15.775;  -25.000;  159.000
448.542;  -49.650;   -3.000;   33.000
448.664;  -37.200;  109.000;  322.000
448.785;  -36.000;  265.000;   83.000
448.907;  -90.350; -614.000; -353.000
449.028;  -36.600; -771.000; -471.000
449.150;   45.850;  492.000;  589.000
449.272; -182.300;-1044.000; -913.000
449.393;   22.500;  612.000;  694.000
449.515; -152.350; -634.000; -581.000
449.636;  -64.925; -264.000; -155.000
449.758;   82.500;  763.000;  622.000
449.879;  -84.900; -498.000; -396.000
450.001;  -75.975; -149.000;  -49.000
450.122;  -47.725;  -95.000;  162.000
450.244;  -19.875;   37.000;  364.000
450.365; -109.200; -495.000; -301.000
450.486;  -20.375;   80.000;  268.000
450.608;   27.200;  393.000;  326.000
450.729;   81.250;  578.000;  645.000
450.850;    2.125; -574.000; -466.000
450.972;  810.575; -552.000; -389.000
451.093; 5181.750;  190.000;  588.000
451.214; 2135.950; -516.000; -337.000
451.336;  381.000;  773.000;  579.000
451.457;   64.925;  264.000;  393.000
451.578;  -41.300; -118.000;  -74.000
451.699; -117.150; -546.000; -540.000
451.821;  -66.850; -284.000;  -50.000
451.942;  -10.000;  278.000;  285.000
452.063;   32.450;  228.000;  419.000
452.184;  576.350;  -54.000;  -49.000
452.305; 1118.575;  103.000;  170.000
452.427;  129.250; -549.000; -301.000
452.548;  -16.550;   23.000;   79.000
452.669;  -68.450; -257.000;  -89.000
452.790;  -56.475;    3.000;  -18.000
452.911;  -11.375;  195.000;  259.000
453.032;  -70.675; -289.000;  -60.000
453.153;  -44.050;  -29.000;   81.000
453.274;   59.775;  737.000;  868.000
453.395;  -58.700;  -51.000;  175.000
453.516;  127.700; 1317.000; 1388.000
453.637;  -69.975; -205.000; -150.000
453.758;  -63.800;   15.000;   69.000
453.879; -129.875; -462.000; -250.000
454.000;   74.675; 1086.000;  948.000
454.121; -116.525; -554.000; -326.000
454.242; -122.950; -599.000; -383.000
454.362;  -64.800;  -99.000;  114.000
454.483;  -54.125; -309.000; -229.000
454.604;   34.000;  512.000;  580.000
454.725; -154.500; -627.000; -555.000
454.846; -116.300; -474.000; -406.000
454.967;  -26.325;  230.000;  539.000
455.087;  -41.750;  179.000;  153.000
455.208;   -2.150;  554.000;  856.000
455.329;  -63.175;  -22.000;   82.000
455.450;   32.675;  473.000;  633.000
455.570;  -85.175; -234.000; -211.000
455.691;  -53.125;  201.000;  407.000
455.812; -110.675; -270.000;  -92.000
455.932;  -71.650;  107.000;  -97.000
456.053;  -89.025;   36.000;   24.000
456.173; -114.650; -433.000; -355.000
456.294; -135.500; -476.000; -303.000
456.415;  -64.700;  -73.000;   70.000
456.535;  -34.075;  297.000;  273.000
456.656;  -38.500;  132.000;  240.000
456.776;  -79.925;    3.000;  298.000
456.897;   -4.575;  308.000;  513.000
457.017;  -97.975; -153.000;   -3.000
457.138; -113.500; -402.000; -249.000
457.258;  -37.750;  263.000;  224.000
457.379;  -27.050;  509.000;  521.000
457.499;  -17.625;  443.000;  432.000
457.620; -126.525; -407.000; -231.000
457.740; -102.200; -132.000;  -11.000
457.860;  -59.950;   87.000;   44.000
457.981;  -63.800;  132.000;  124.000
458.101;  -91.125;  -89.000;   40.000
458.221;  -23.225;  336.000;  402.000
458.342;  -61.850;   -4.000;  -37.000
458.462;   21.200;  617.000;  352.000
458.582;  -41.425; -302.000; -294.000
458.703;   28.400;  303.000;  154.000
458.823;  -25.075;   22.000;  163.000
458.943;   13.350;  341.000;  467.000
459.063;  -17.475; 1124.000;  192.000
459.183;  -24.925;  328.000;  313.000
459.304;    5.750;  315.000;  517.000
459.424;  -64.075; -246.000;  -89.000
459.544;  341.650;  388.000;  764.000
459.664;  838.525;  499.000;  506.000
459.784;  315.475; 1004.000; 1175.000
459.904;   57.175;  867.000;  744.000
460.024;   55.875;  867.000;  684.000
460.144;    9.525;  449.000;  554.000
460.264;  -15.825;  515.000;  327.000
460.385; -106.250; -145.000; -119.000
460.505;   25.825;  905.000;  858.000
460.625;  -90.175;  -17.000;  -68.000
460.745;  -34.825;  396.000;  541.000
460.864;  -61.725;  153.000;  469.000
460.984;   -3.100;  499.000;  573.000
461.104;  126.975; 1656.000; 1775.000
461.224;    4.550;  657.000;  650.000
461.344;  -41.300;  431.000;  360.000
461.464;  -40.125;  258.000;  513.000
461.584;  -27.975;  283.000;  466.000
461.704;  -58.475;   58.000;  108.000
461.824;  -57.800;  238.000;  259.000
461.943;  -45.850;  191.000;  130.000
462.063;  -69.050;    2.000;  324.000
462.183;   20.075;  639.000;  717.000
462.303;  104.475; 1678.000; 1230.000
462.422;   21.900;  781.000;  840.000
462.542;  -50.275;  271.000;  391.000
462.662;   12.150;  353.000;  380.000
462.782;  262.550;  833.000;  572.000
462.901;  482.100;  545.000;  717.000
463.021;  270.525; 1702.000; 1638.000
463.141;  -10.350;  337.000;  770.000
463.260;  -26.900;  614.000;  474.000
463.380;   10.225;  902.000;  884.000
463.499;  -43.750;  342.000;  332.000
463.619;  -39.675;  581.000;  559.000
463.738;  109.250; 1644.000;  903.000
463.858;    0.775;  657.000;  811.000
463.978;  -26.300;  542.000;  396.000
464.097;   29.850;  921.000; 1114.000
464.217;  121.875; 1196.000; 1143.000
464.336;  118.275; 1068.000; 1130.000
464.455;  -32.825;  328.000;  659.000
464.575;   41.675;  597.000;  602.000
464.694;  168.475; 1204.000; 1179.000
464.814;  109.825; 1190.000; 1138.000
464.933;   59.475; 1095.000; 1027.000
465.052;   86.350; 1412.000; 1054.000
465.172;   78.450;  922.000;  799.000
465.291;  136.875; 1376.000; 1320.000
465.410;   16.400;  462.000;  735.000
465.530;   83.225; 1355.000; 1310.000
465.649;   58.325; 1209.000; 1273.000
465.768;  138.200; 1673.000; 1508.000
465.888;   53.550;  941.000; 1174.000
466.007;   86.100; 1335.000; 1440.000
466.126;  -13.650;  721.000;  641.000
466.245;   49.475; 1176.000; 1187.000
466.364;   20.675;  950.000; 1060.000
466.484;   56.575; 1024.000; 1213.000
466.603;   41.675; 1101.000; 1222.000
466.722;  109.250; 1490.000; 1769.000
466.841;   65.450; 1151.000; 1401.000
466.960;   34.825; 1069.000;  972.000
467.079;  122.525; 1971.000; 1786.000
467.198;   31.300; 1238.000; 1181.000
467.317;   87.600; 1768.000; 1162.000
467.436;   66.550; 1709.000; 1261.000
467.555;  123.450; 1796.000; 1746.000
467.674;   47.125; 1227.000; 1329.000
467.793;   42.875; 1376.000; 1374.000
467.912;   70.950; 1658.000; 1539.000
468.031;  134.450; 2038.000; 1930.000
468.150;  146.025; 1842.000; 1837.000
468.269;  179.950; 2313.000; 2090.000
468.388;  171.350; 2168.000; 2339.000
468.507;  246.825; 2884.000; 2903.000
468.626;  283.375; 2555.000; 2541.000
468.744;  132.650; 2018.000; 2174.000
468.863;  199.625; 2312.000; 2523.000
468.982;   95.425; 1503.000; 1555.000
469.101;  224.325; 2788.000; 2692.000
469.220;  154.800; 2333.000; 2176.000
469.338;  261.675; 2935.000; 3051.000
469.457;  201.575; 2719.000; 2545.000
469.576;  341.200; 3953.000; 3784.000
469.695;  239.575; 2877.000; 3066.000
469.813;  417.600; 4148.000; 4192.000
469.932;  408.525; 4255.000; 4485.000
470.051;  407.225; 4075.000; 4161.000
470.169;  897.350; 4470.000; 4338.000
470.288; 1522.875; 4700.000; 4809.000
470.406;  874.125; 5059.000; 5194.000
470.525;  645.500; 6101.000; 5787.000
470.644;  657.025; 6847.000; 6794.000
470.762;  823.550; 8397.000; 7873.000
470.881;  909.900; 8651.000; 8464.000
470.999; 1055.800; 9685.000; 9151.000
471.118; 1118.550;11174.000;10711.000

