
Integration time [ms]: 200.000
Averaging Nr. [scans]: 10
Smoothing Nr. [pixels]: 0
Data measured with spectrometer [name]: 2101012U2
Wave   ;Sample   ;Dark     ;Reference
[nm]   ;[counts] ;[counts] ;[counts] 

197.733;  108.500;  516.000;  404.000
197.879; -165.900; -610.000; -634.000
198.025; -115.700; -475.000; -420.000
198.171; -143.900; -602.000; -612.000
198.317;  -99.200; -401.000; -316.000
198.463; -117.800; -655.000; -404.000
198.609;   45.100;  181.000; -137.000
198.755; -201.600; -644.000; -410.000
198.901; -139.300; -505.000; -424.000
199.047; -146.200; -615.000; -488.000
199.193;  -86.400; -230.000; -468.000
199.339;  -92.100; -222.000; -369.000
199.485;   84.100;  330.000;  271.000
199.631;   48.900;  227.000;  310.000
199.777; -111.700; -466.000; -398.000
199.923; -130.200; -610.000; -424.000
200.069;  -28.400; -141.000;  -58.000
200.215;  125.000;  128.000;  453.000
200.361;   94.900;  243.000;  477.000
200.507; -158.000; -600.000; -373.000
200.653;  -82.700; -371.000; -194.000
200.798;  -85.900; -215.000; -125.000
200.944;   -5.900; -146.000;  -41.000
201.090;   77.600;   61.000;  222.000
201.236;  -32.500; -116.000; -158.000
201.382;  285.000;  874.000;  903.000
201.528;    1.000;  -58.000;  -48.000
201.674;  -93.500; -386.000; -293.000
201.819; -131.700; -540.000; -439.000
201.965; -150.400; -699.000; -447.000
202.111;  -63.800; -273.000; -226.000
202.257;  -72.900; -250.000; -238.000
202.402;   15.100;   13.000;  -36.000
202.548;  -21.600; -169.000; -116.000
202.694;  217.600;  410.000; -183.000
202.840; -138.300; -603.000; -531.000
202.985; -170.100; -681.000; -639.000
203.131; -233.500; -832.000; -666.000
203.277;  -53.600; -199.000; -262.000
203.423;  -88.300; -434.000; -520.000
203.568;  -99.400; -462.000; -237.000
203.714; -104.800; -535.000; -542.000
203.860; -185.600; -682.000; -641.000
204.005;   50.600;  112.000;  167.000
204.151;  170.800;  561.000;  556.000
204.296; -118.900; -354.000; -221.000
204.442; -175.300; -600.000; -547.000
204.588; -181.700; -592.000; -579.000
204.733;   39.100;  178.000;  168.000
204.879; -272.000;-1018.000; -822.000
205.025;   32.200;  -99.000;  126.000
205.170;   17.800;  -17.000;   94.000
205.316;  184.400;  438.000;  661.000
205.461; -170.800; -698.000; -554.000
205.607;  210.200;  609.000;  665.000
205.752; -160.600; -626.000; -551.000
205.898; -126.800; -501.000; -391.000
206.043; -124.200; -578.000; -506.000
206.189;  -88.800; -243.000; -285.000
206.334;  141.300;  554.000;  606.000
206.480;  147.800;  409.000;  239.000
206.625; -150.400; -529.000; -552.000
206.771; -124.400; -451.000; -373.000
206.916;  -54.200; -210.000; -537.000
207.062; -146.000; -545.000; -591.000
207.207; -101.400; -546.000; -443.000
207.353;  139.100;  185.000;  460.000
207.498;   53.900;  196.000;   85.000
207.643; -102.000; -501.000; -370.000
207.789; -263.300;-1069.000; -910.000
207.934; -209.900; -665.000; -713.000
208.080;  -26.100; -154.000;   66.000
208.225;   14.400;  -22.000;  -57.000
208.370; -169.500; -727.000; -619.000
208.516; -177.700; -741.000; -487.000
208.661;  -65.800; -127.000;  -69.000
208.806;  -20.100; -165.000; -171.000
208.952; -264.000;-1044.000; -731.000
209.097;  163.500;  378.000;  349.000
209.242;  -86.800; -307.000; -382.000
209.387;  124.300;  392.000;  350.000
209.533;  -93.100; -321.000; -350.000
209.678;  181.500;  472.000;  543.000
209.823; -115.000; -408.000; -310.000
209.969; -214.600; -860.000; -757.000
210.114; -249.800; -907.000; -719.000
210.259; -235.100; -939.000; -889.000
210.404;  -16.000; -171.000;  103.000
210.549;   -2.800;  108.000;    3.000
210.695;  -52.500;   -3.000;  -95.000
210.840;   82.700;   94.000;   67.000
210.985; -116.800; -484.000; -303.000
211.130;  152.100;  268.000;  406.000
211.275;   28.900;  207.000;  199.000
211.420;  -85.600; -300.000; -289.000
211.566; -145.800; -536.000; -489.000
211.711;   44.900;  218.000;  157.000
211.856; -123.600; -545.000; -519.000
212.001;   56.500;  151.000;   44.000
212.146;   24.700;  153.000;   49.000
212.291;  -28.200; -210.000; -186.000
212.436;  -15.500; -280.000;   -6.000
212.581; -198.000; -685.000; -653.000
212.726; -142.200; -487.000; -538.000
212.871; -119.400; -552.000; -217.000
213.016; -332.300;-1172.000;-1029.000
213.161;  148.000;  406.000;  291.000
213.306; -146.500; -435.000; -577.000
213.451; -204.400; -778.000; -689.000
213.596; -105.800; -455.000; -347.000
213.741; -118.500; -448.000; -538.000
213.886; -145.000; -498.000; -517.000
214.031;  -67.600; -294.000; -124.000
214.176; -120.600; -408.000; -341.000
214.321;  -41.900; -296.000; -157.000
214.466;  -33.600; -163.000;  -43.000
214.611;    3.500;  -61.000;  -10.000
214.756; -254.100; -948.000; -858.000
214.901;  -55.500; -388.000; -226.000
215.046; -261.200; -797.000; -825.000
215.191;   36.200;  128.000;   35.000
215.336;  -32.200; -157.000;  -19.000
215.480; -127.300; -684.000; -505.000
215.625;  -44.200; -175.000;  -19.000
215.770; -205.400; -757.000; -662.000
215.915;  -34.800;   -5.000;  -97.000
216.060;  -10.400; -113.000;  -21.000
216.205; -255.100; -731.000; -779.000
216.349; -129.100; -470.000; -533.000
216.494; -288.100; -939.000; -867.000
216.639; -234.000; -823.000; -888.000
216.784; -187.200; -577.000; -525.000
216.929;  116.300;  392.000;  281.000
217.073;  -40.200; -244.000;  -31.000
217.218;   16.300;   78.000;  -47.000
217.363; -165.500; -656.000; -618.000
217.507; -149.800; -623.000; -588.000
217.652; -250.600; -845.000; -874.000
217.797; -171.000; -708.000; -659.000
217.942; -223.400; -856.000; -720.000
218.086;  158.000;  608.000;  539.000
218.231;  -24.900; -174.000;  -26.000
218.376;  -44.400; -337.000; -229.000
218.520;   11.300;  -41.000;   96.000
218.665;  -48.000; -338.000; -204.000
218.810;  -72.600; -275.000; -233.000
218.954;   27.900;  201.000;   35.000
219.099; -191.700; -713.000; -963.000
219.243; -152.700; -589.000; -554.000
219.388;  -64.100; -264.000; -136.000
219.532;    7.800; -116.000; -116.000
219.677; -131.300; -564.000; -521.000
219.822;   -0.600;   33.000;   89.000
219.966;   38.700;   17.000;  -99.000
220.111;  -38.300; -328.000;  -40.000
220.255; -187.400; -797.000; -750.000
220.400;  -63.200; -180.000; -146.000
220.544; -155.800; -516.000; -450.000
220.689;  -99.900; -422.000; -451.000
220.833;  -10.700; -123.000;  -58.000
220.978;  -78.400; -393.000; -563.000
221.122;   46.200;  319.000;  307.000
221.267; -240.500; -906.000; -837.000
221.411; -138.500; -478.000; -394.000
221.555;  -20.700; -104.000;  -23.000
221.700; -135.500; -329.000; -222.000
221.844;   63.200;  255.000;  272.000
221.989; -102.000; -328.000; -311.000
222.133;  -82.900; -289.000; -307.000
222.277;  -21.300;    5.000;   78.000
222.422;   43.000;  227.000;  113.000
222.566;  -65.400; -381.000; -214.000
222.711; -113.000; -414.000; -479.000
222.855; -179.600; -643.000; -586.000
222.999; -141.400; -642.000; -717.000
223.144;  -46.500; -195.000; -194.000
223.288;  127.300;  423.000;  251.000
223.432;   40.000;  184.000;  230.000
223.576;   51.800;  152.000;  -21.000
223.721;   96.100;  364.000;  273.000
223.865; -105.800; -472.000; -475.000
224.009;  593.500; 1673.000; 1631.000
224.153; -156.100; -660.000; -671.000
224.298; -138.900; -531.000; -489.000
224.442;  -20.100;  -74.000;  -33.000
224.586;  -18.100; -169.000; -106.000
224.730; -233.000; -858.000; -670.000
224.875; -192.600; -739.000; -688.000
225.019;   40.800;  102.000;  188.000
225.163;  107.300;  208.000;  341.000
225.307;   33.500;   97.000;  -91.000
225.451;   95.700;  360.000;  481.000
225.595;   77.900;  264.000;  176.000
225.739;  -21.300; -170.000;  -94.000
225.884;   16.600;   86.000;    5.000
226.028; -228.800; -760.000; -626.000
226.172;  -93.900; -260.000; -273.000
226.316; -256.100; -941.000; -902.000
226.460; -128.400; -645.000; -493.000
226.604;  -86.000; -406.000; -400.000
226.748; -190.000; -836.000; -733.000
226.892;  -60.200; -227.000; -181.000
227.036;  -97.100; -537.000; -447.000
227.180;  -92.500; -551.000; -375.000
227.324; -116.700; -561.000; -580.000
227.468; -264.500; -819.000; -717.000
227.612;    9.300;  242.000;  -28.000
227.756; -188.200; -845.000; -698.000
227.900;  128.800;  342.000;  441.000
228.044; -128.300; -509.000; -290.000
228.188;  118.200;  448.000;  568.000
228.332; -194.100; -546.000; -472.000
228.476;  -66.400; -223.000; -149.000
228.620;  -46.900; -210.000; -150.000
228.764;  137.500;  431.000;  349.000
228.908;  -58.000; -155.000;   30.000
229.052; -129.200; -615.000; -528.000
229.195;  -28.300; -172.000;   13.000
229.339;  -50.900; -235.000; -305.000
229.483;  -33.900;    5.000; -162.000
229.627;  -17.900; -156.000;  139.000
229.771;  -77.300; -218.000; -294.000
229.915;   27.800;  230.000;   79.000
230.059; -181.800; -648.000; -663.000
230.202;  -67.800; -370.000; -317.000
230.346;  -16.300; -107.000;  107.000
230.490; -145.400; -489.000; -521.000
230.634; -214.200; -736.000; -553.000
230.777;  186.700;  478.000;  509.000
230.921; -106.700; -450.000; -359.000
231.065;  -90.200; -246.000; -286.000
231.209;   79.000;  261.000;  265.000
231.352;   63.500;   54.000;   40.000
231.496;   61.300;  568.000;  188.000
231.640; -162.800; -693.000; -621.000
231.783;  169.100;  546.000;  525.000
231.927;  -67.100; -294.000; -365.000
232.071; -249.800; -962.000; -736.000
232.214; -219.200; -980.000; -764.000
232.358; -197.000; -683.000; -599.000
232.502;   22.800;  -19.000;    7.000
232.645; -293.300;-1090.000; -927.000
232.789;  -51.500; -257.000; -218.000
232.933;  -79.400; -407.000; -224.000
233.076; -251.800;-1038.000; -897.000
233.220; -241.500; -752.000; -777.000
233.363; -166.600; -669.000; -477.000
233.507;  122.500;  371.000;  129.000
233.650; -196.100; -764.000; -834.000
233.794;  105.800;  438.000;  461.000
233.938; -128.900; -530.000; -362.000
234.081;  -54.100;  -93.000;   31.000
234.225; -122.300; -631.000; -539.000
234.368; -233.900; -773.000; -723.000
234.512;  -71.300; -385.000; -299.000
234.655; -177.700; -582.000; -555.000
234.798; -123.500; -493.000; -466.000
234.942; -266.000; -884.000;-1002.000
235.085; -161.500; -651.000; -443.000
235.229; -131.400; -405.000; -410.000
235.372;  -88.200; -247.000; -191.000
235.516; -121.900; -397.000; -321.000
235.659;   57.100;   92.000;  121.000
235.802;   -4.500;  -38.000;  -22.000
235.946;   56.200;  335.000;  215.000
236.089;   69.800;  126.000;  250.000
236.233;  114.600;  275.000;  298.000
236.376;  -78.200; -235.000; -378.000
236.519;  -82.900; -297.000; -319.000
236.663;  -11.300; -215.000; -117.000
236.806; -290.500;-1029.000; -999.000
236.949;  132.600;  543.000;  431.000
237.092;  135.500;  412.000;  391.000
237.236; -182.400; -589.000; -502.000
237.379;  134.800;  352.000;  428.000
237.522; -266.600; -879.000; -768.000
237.666;  -51.100; -271.000;   18.000
237.809; -275.000; -851.000; -823.000
237.952;   95.500;  469.000;  271.000
238.095; -102.100; -447.000; -442.000
238.238;  195.100;  688.000;  700.000
238.382;   27.900;  166.000;  103.000
238.525; -179.100; -598.000; -511.000
238.668; -264.200;-1060.000; -985.000
238.811; -185.600; -638.000; -643.000
238.954;  -88.700; -483.000; -334.000
239.097;  224.200;  617.000;  664.000
239.241;   51.300;  394.000;  326.000
239.384;  -65.200; -254.000; -214.000
239.527; -122.400; -424.000; -224.000
239.670; -313.200; -994.000;-1091.000
239.813; -229.900; -696.000; -658.000
239.956;  191.000;  579.000;  473.000
240.099; -222.100; -778.000; -725.000
240.242;  146.300;  428.000;  432.000
240.385;  114.300;  466.000;  450.000
240.528; -136.300; -706.000; -473.000
240.671;   41.100;  189.000;  134.000
240.814;  -88.400; -441.000; -158.000
240.957; -197.200; -767.000; -578.000
241.100; -192.200; -779.000; -755.000
241.243; -275.400;-1234.000; -893.000
241.386; -110.800; -508.000; -379.000
241.529; -203.200; -735.000; -547.000
241.672; -128.100; -566.000; -495.000
241.815; -245.300; -832.000; -808.000
241.958;  -65.200; -125.000; -182.000
242.101; -168.200; -545.000; -390.000
242.244;  -83.300; -270.000; -325.000
242.387;  -73.500; -304.000; -246.000
242.530;  134.600;  470.000;  134.000
242.673;  -82.200; -381.000; -309.000
242.815; -245.400; -925.000; -899.000
242.958; -124.700; -482.000; -381.000
243.101;   38.500;  132.000;  187.000
243.244; -130.900; -564.000; -521.000
243.387;  -89.300; -313.000; -316.000
243.530; -187.500; -657.000; -674.000
243.672;    0.300;   43.000;  -92.000
243.815; -128.400; -355.000; -283.000
243.958;   38.200;   98.000;  -26.000
244.101;    7.900;   59.000;  -16.000
244.243;    8.800;  -47.000;  101.000
244.386; -231.000; -761.000; -630.000
244.529;  -28.100; -132.000; -139.000
244.672; -344.200;-1154.000; -951.000
244.814; -199.200; -621.000; -794.000
244.957; -118.100; -380.000; -304.000
245.100; -156.300; -489.000; -489.000
245.242;  -98.500; -387.000; -374.000
245.385;   -1.100;  -59.000;  -39.000
245.528; -219.900; -871.000; -705.000
245.670;  232.100;  612.000;  634.000
245.813; -197.500; -599.000; -547.000
245.956;  -51.800; -324.000; -275.000
246.098; -117.900; -508.000; -650.000
246.241;    3.400;  194.000;   48.000
246.383;   -0.700; -119.000;  -73.000
246.526; -143.300; -454.000; -525.000
246.669; -234.400; -889.000; -780.000
246.811;   72.700;  172.000;   -1.000
246.954; -142.900; -512.000; -426.000
247.096;  -19.200;  -84.000;   -6.000
247.239; -153.800; -482.000; -445.000
247.381; -131.900; -647.000; -488.000
247.524;  193.600;  645.000;  679.000
247.666;   -6.500;   58.000;   11.000
247.809; -234.800; -887.000; -691.000
247.951;    2.700;  -75.000;  138.000
248.094;   97.600;  432.000;  308.000
248.236; -350.600;-1262.000;-1238.000
248.378;   17.300; -356.000;  -81.000
248.521;  -36.700; -334.000; -337.000
248.663;  -71.800; -236.000; -267.000
248.806;  -58.500; -300.000; -266.000
248.948; -177.200; -886.000; -763.000
249.090;  -99.000; -428.000; -398.000
249.233;  -92.000; -344.000; -381.000
249.375; -132.600; -474.000; -451.000
249.518;  -15.500;  -83.000; -133.000
249.660;   -2.900; -103.000;    3.000
249.802; -368.800;-1303.000;-1189.000
249.945; -160.900; -612.000; -540.000
250.087; -247.000; -834.000; -768.000
250.229; -114.700; -362.000; -480.000
250.371; -134.700; -494.000; -439.000
250.514;  -90.300; -310.000; -244.000
250.656;  -23.800;   69.000;  102.000
250.798; -229.400; -849.000; -800.000
250.940; -118.500; -322.000; -322.000
251.083;  -41.000; -335.000; -111.000
251.225;  120.100;  338.000;  310.000
251.367; -112.900; -274.000; -373.000
251.509;  -77.400; -265.000; -210.000
251.651; -195.000; -731.000; -671.000
251.794;  138.600;  538.000;  632.000
251.936; -233.700; -821.000; -747.000
252.078; -141.500; -540.000; -461.000
252.220; -130.100; -645.000; -477.000
252.362;  166.100;  344.000;  462.000
252.504; -118.100; -677.000; -584.000
252.646; -192.100; -875.000; -722.000
252.788;   16.600;   14.000; -128.000
252.931;  -61.000; -257.000; -253.000
253.073;  -61.300; -376.000; -317.000
253.215;   11.300;  141.000;  122.000
253.357;   -0.200;   82.000; -153.000
253.499; -104.600; -374.000; -234.000
253.641; -177.400; -749.000; -594.000
253.783; -189.700; -609.000; -527.000
253.925; -149.400; -586.000; -591.000
254.067; -214.000; -744.000; -667.000
254.209;  -35.700; -391.000; -259.000
254.351; -250.500; -865.000; -883.000
254.493; -109.500; -441.000; -417.000
254.635; -218.800; -936.000; -818.000
254.777; -161.200; -752.000; -687.000
254.918; -161.500; -512.000; -430.000
255.060; -105.400; -551.000; -395.000
255.202;  -96.900; -473.000; -261.000
255.344; -135.800; -658.000; -455.000
255.486; -149.200; -471.000; -406.000
255.628; -217.900; -780.000; -781.000
255.770; -163.200; -676.000; -536.000
255.912; -101.800; -559.000; -468.000
256.053; -180.500; -730.000; -508.000
256.195;  328.100; 1008.000;  903.000
256.337; -183.500; -861.000; -595.000
256.479;  186.500;  532.000;  416.000
256.621;  -92.700; -394.000; -212.000
256.762; -179.000; -789.000; -742.000
256.904;  119.900;  485.000;  487.000
257.046;  -92.300; -381.000; -271.000
257.188;  -78.600; -351.000; -264.000
257.329; -169.700; -525.000; -464.000
257.471; -227.500; -939.000; -807.000
257.613; -128.200; -584.000; -498.000
257.755; -309.300;-1073.000; -982.000
257.896;  133.000;  286.000;  392.000
258.038; -147.200; -403.000; -352.000
258.180;  -88.900; -354.000; -279.000
258.321; -159.500; -581.000; -457.000
258.463;    4.000;  -71.000;  133.000
258.605; -173.600; -562.000; -570.000
258.746; -200.100; -886.000; -772.000
258.888; -308.800;-1026.000;-1020.000
259.029;   61.900;  121.000;   -8.000
259.171; -190.800; -614.000; -550.000
259.313;   20.600;  -49.000;  -47.000
259.454; -141.900; -536.000; -414.000
259.596; -105.300; -483.000; -390.000
259.737; -122.000; -590.000; -474.000
259.879;   94.200;  217.000;  311.000
260.020;  207.800;  901.000;  636.000
260.162;  -30.300; -146.000; -253.000
260.303; -220.200; -768.000; -687.000
260.445; -164.300; -609.000; -613.000
260.586;   70.200;  392.000;  157.000
260.728;  -61.500; -360.000; -248.000
260.869; -136.800; -350.000; -343.000
261.011;  172.000;  706.000;  537.000
261.152;  -91.600; -479.000; -319.000
261.293; -180.100; -576.000; -595.000
261.435;  -59.100; -219.000; -184.000
261.576; -105.100; -455.000; -325.000
261.718;   91.700;  420.000;  470.000
261.859; -284.700; -940.000; -949.000
262.000; -271.200; -951.000;-1016.000
262.142;  -27.600;  -52.000;  -60.000
262.283; -207.900; -808.000; -691.000
262.424; -169.500; -666.000; -625.000
262.566; -324.800;-1161.000; -983.000
262.707; -243.800; -840.000; -830.000
262.848; -254.400; -769.000; -726.000
262.990;  -65.400; -362.000; -345.000
263.131;  187.700;  650.000;  681.000
263.272;   -4.400;  -61.000;  -41.000
263.413; -192.400; -589.000; -561.000
263.555; -125.600; -669.000; -143.000
263.696; -169.500; -550.000; -641.000
263.837; -116.800; -449.000; -551.000
263.978;   19.900;   -5.000;  -77.000
264.119;  -72.300; -283.000; -264.000
264.261; -236.500; -847.000; -630.000
264.402;   -4.800;   33.000;   40.000
264.543; -133.300; -509.000; -524.000
264.684;  -17.000;   61.000;  -50.000
264.825; -134.600; -816.000; -538.000
264.966;   18.100;  -84.000;  -67.000
265.107; -236.500; -646.000; -670.000
265.248; -251.000; -825.000; -812.000
265.390;    0.600;  152.000;   -9.000
265.531;  -42.200; -238.000; -107.000
265.672; -168.400; -557.000; -630.000
265.813;  152.400;  563.000;  439.000
265.954; -297.500; -959.000; -940.000
266.095;  -11.900; -372.000; -322.000
266.236; -182.100; -686.000; -548.000
266.377;  -44.100; -243.000; -297.000
266.518; -111.400; -619.000; -547.000
266.659;  106.600;  170.000;  268.000
266.800;   43.500;   83.000;   85.000
266.941; -169.900; -487.000; -478.000
267.082;   17.100;  354.000;   99.000
267.223;  -80.900; -344.000; -273.000
267.364; -219.500; -892.000; -686.000
267.504;  -17.600;    3.000;  135.000
267.645;   31.400;  160.000;   67.000
267.786;  -65.000; -147.000;  -86.000
267.927; -120.800; -473.000; -379.000
268.068;  -29.700; -186.000;  -61.000
268.209;  -90.900; -175.000; -413.000
268.350; -100.900; -388.000; -532.000
268.490; -163.300; -648.000; -521.000
268.631;   92.200;  127.000;  225.000
268.772; -215.000; -874.000; -647.000
268.913;  -90.500; -328.000; -476.000
269.054;   14.900; -117.000;   12.000
269.194;  -75.600; -418.000; -402.000
269.335; -294.500;-1137.000;-1074.000
269.476;  -15.900;   33.000;  -35.000
269.617; -103.700; -347.000; -392.000
269.757; -167.000; -713.000; -646.000
269.898; -192.800; -856.000; -613.000
270.039; -115.600; -415.000; -405.000
270.180; -288.900; -952.000; -816.000
270.320;  -48.900; -190.000; -250.000
270.461;  -60.400; -277.000; -249.000
270.602;  -11.800; -186.000; -156.000
270.742; -261.100; -868.000; -943.000
270.883; -126.600; -442.000; -390.000
271.023; -120.000; -358.000; -357.000
271.164; -161.600; -607.000; -528.000
271.305; -199.500; -666.000; -654.000
271.445; -177.400; -722.000; -683.000
271.586; -116.400; -462.000; -283.000
271.726;  -77.600; -397.000; -322.000
271.867; -116.500; -594.000; -534.000
272.008;  352.100; -473.000; -285.000
272.148;  243.100;  462.000;  468.000
272.289;   36.300; -113.000; -181.000
272.429;    7.000;   19.000;  185.000
272.570; -175.900; -633.000; -737.000
272.710; -203.700; -825.000; -775.000
272.851;  -16.200;  113.000; -130.000
272.991; -342.100;-1173.000;-1077.000
273.131; -134.600; -419.000; -459.000
273.272; -189.500; -683.000; -723.000
273.412;    9.000; -143.000;  -31.000
273.553; -118.600; -488.000; -507.000
273.693;  271.800;  913.000;  858.000
273.834; -189.400; -894.000; -692.000
273.974; -138.300; -664.000; -615.000
274.114; -172.000; -772.000; -560.000
274.255;  167.200;  414.000;  373.000
274.395;    3.700; -180.000; -125.000
274.535;  103.300;  199.000;  350.000
274.676;  105.000;  225.000;   94.000
274.816;   23.800;  110.000;   34.000
274.956; -173.700; -624.000; -690.000
275.097; -168.800;-1014.000; -922.000
275.237; -269.500; -913.000; -803.000
275.377; -195.900; -778.000; -689.000
275.517; -286.100; -878.000; -937.000
275.658; -117.700; -590.000; -555.000
275.798; -128.000; -606.000; -413.000
275.938;   63.100;  215.000;  323.000
276.078; -129.600; -626.000; -395.000
276.218;   31.800;   99.000;  104.000
276.359; -251.900;-1026.000;-1024.000
276.499; -168.200; -605.000; -446.000
276.639;  -62.800; -305.000; -151.000
276.779; -103.600; -475.000; -357.000
276.919; -186.800; -783.000; -624.000
277.059;   -8.400; -261.000; -212.000
277.199;  -80.000; -357.000; -259.000
277.340;  101.500;  287.000;  175.000
277.480; -209.200; -840.000; -693.000
277.620;   83.000;  192.000;   16.000
277.760; -400.400;-1533.000;-1294.000
277.900;   43.800;  113.000;   33.000
278.040;   71.000;  137.000;  159.000
278.180;   56.500;  270.000;  170.000
278.320;   22.500;   21.000;   56.000
278.460; -119.300; -443.000; -469.000
278.600; -153.900; -708.000; -598.000
278.740;  109.300;  448.000;  224.000
278.880; -169.100; -768.000; -791.000
279.020;   27.500; -194.000; -144.000
279.160; -159.700; -672.000; -595.000
279.300; -216.100; -926.000; -873.000
279.440; -169.200; -709.000; -622.000
279.579;  -90.300;-1014.000; -929.000
279.719; -131.000; -410.000; -394.000
279.859;   93.000;   -4.000;   41.000
279.999;   53.800; -208.000;  101.000
280.139;  -50.300; -435.000; -387.000
280.279; -147.000; -708.000; -745.000
280.419;  -22.600; -229.000; -147.000
280.559;  -42.400; -259.000; -180.000
280.698; -168.700; -790.000; -639.000
280.838; -181.100; -778.000; -800.000
280.978; -188.700; -846.000; -790.000
281.118; -212.600; -811.000; -704.000
281.257;   45.600;   24.000;    6.000
281.397; -243.300;-1094.000; -960.000
281.537; -175.600; -599.000; -712.000
281.677;  -34.200; -150.000; -101.000
281.816; -171.500; -700.000; -630.000
281.956;  -54.000; -193.000; -257.000
282.096; -112.300; -539.000; -396.000
282.235; -197.800; -672.000; -638.000
282.375;  -48.300; -243.000;  -98.000
282.515; -187.900; -715.000; -707.000
282.654;   68.700;   29.000;  106.000
282.794;   94.700;  388.000;  244.000
282.934; -117.900; -530.000; -491.000
283.073; -262.300;-1030.000; -857.000
283.213; -123.400; -460.000; -467.000
283.353;  -77.400; -408.000; -349.000
283.492;  -34.900; -264.000; -296.000
283.632;  -97.100; -254.000; -168.000
283.771; -163.400; -859.000; -730.000
283.911;  -91.100; -369.000; -260.000
284.050; -189.000; -794.000; -748.000
284.190; -314.300;-1229.000;-1096.000
284.329; -281.400;-1055.000; -964.000
284.469; -135.800; -516.000; -591.000
284.608; -133.100; -559.000; -598.000
284.748; -165.000; -614.000; -570.000
284.887;   -7.300;  -87.000;  -20.000
285.027; -232.000; -844.000; -892.000
285.166;  -75.000; -192.000; -249.000
285.306;   28.300; -116.000;  -33.000
285.445;  -82.000; -229.000; -343.000
285.584; -180.200; -630.000; -494.000
285.724;  -62.000; -282.000; -322.000
285.863; -223.000; -857.000; -507.000
286.002;  -94.700; -366.000; -276.000
286.142; -187.200; -715.000; -622.000
286.281; -136.200; -525.000; -493.000
286.420; -152.700; -554.000; -417.000
286.560;  260.700;  653.000;  623.000
286.699; -262.100; -958.000; -912.000
286.838; -155.700; -590.000; -591.000
286.978; -165.000; -533.000; -537.000
287.117; -267.800;-1085.000; -950.000
287.256;  -48.700; -228.000; -211.000
287.395;  -87.000; -197.000; -378.000
287.535;  -89.000; -370.000; -298.000
287.674; -150.100; -509.000; -484.000
287.813;  148.200;  661.000;  533.000
287.952; -252.800;-1010.000; -871.000
288.091; -292.700;-1049.000; -915.000
288.231;   65.300;   13.000;   15.000
288.370; -335.000;-1217.000;-1200.000
288.509; -167.100; -728.000; -645.000
288.648; -165.400; -770.000; -548.000
288.787;  -46.400; -243.000;  -87.000
288.926; -125.000; -454.000; -475.000
289.065;  265.600;  859.000;  672.000
289.204;  -71.800; -377.000; -217.000
289.344; -192.900; -791.000; -690.000
289.483;   63.600;  416.000;  304.000
289.622;  -21.600; -291.000; -149.000
289.761;  -17.300; -309.000; -166.000
289.900; -178.100; -785.000; -626.000
290.039;  -22.300;  -12.000;  -95.000
290.178;  -51.000; -274.000; -180.000
290.317; -136.600; -618.000; -479.000
290.456;  -77.900; -463.000; -451.000
290.595; -271.200; -961.000; -833.000
290.734; -287.300; -904.000; -891.000
290.873; -137.800; -456.000; -420.000
291.011; -216.100; -833.000; -843.000
291.150; -200.000; -770.000; -682.000
291.289;  -37.200; -343.000; -110.000
291.428; -152.600; -599.000; -480.000
291.567; -120.100; -370.000; -442.000
291.706;   19.300;  109.000;  154.000
291.845; -164.700; -597.000; -505.000
291.984; -347.700;-1234.000;-1061.000
292.122;  192.700;  602.000;  582.000
292.261;  141.800;  620.000;  463.000
292.400;   53.600; -144.000;  211.000
292.539; -205.400; -959.000; -813.000
292.678;  -62.300; -325.000; -300.000
292.816; -314.000;-1136.000; -965.000
292.955; -187.600; -844.000; -684.000
293.094;  -50.500; -173.000; -337.000
293.233;  -95.800; -556.000; -400.000
293.371;  -58.100; -225.000;  -84.000
293.510; -205.300; -866.000; -780.000
293.649; -232.800; -959.000; -924.000
293.787; -147.000;-1083.000;-1012.000
293.926;   -6.700; -113.000;  -32.000
294.065;  -65.000; -379.000; -290.000
294.203;  111.100;  298.000;  406.000
294.342;   63.500;   74.000;  156.000
294.481;13809.700;51180.000; -836.000
294.619;  -36.800; -425.000; -582.000
294.758; -298.100;-1230.000;-1137.000
294.896;  136.800; -125.000;    5.000
295.035; -260.400;-1040.000;-1006.000
295.174; -214.100;-1082.000; -954.000
295.312;  -65.700; -323.000; -203.000
295.451;  -17.000; -307.000; -428.000
295.589; -104.300; -389.000; -518.000
295.728;   68.600; -292.000; -165.000
295.866;   27.200;  -36.000;  -51.000
296.005; -145.300; -584.000; -341.000
296.143; -118.400; -558.000; -596.000
296.282; -206.100; -957.000; -881.000
296.420; -167.500; -657.000; -557.000
296.559; -173.700; -892.000; -633.000
296.697;  -19.600; -847.000; -665.000
296.835;   38.200;-1141.000;-1002.000
296.974;   81.600;  -23.000;   39.000
297.112;   13.500; -443.000; -504.000
297.251; -156.100; -815.000; -755.000
297.389;  110.900; -576.000; -438.000
297.527;   74.100; -145.000;  -83.000
297.666; -103.600; -486.000; -438.000
297.804;  -74.200; -404.000; -264.000
297.942;  -11.600; -136.000; -161.000
298.081;    3.200; -183.000;   63.000
298.219;  114.900;  -17.000;  -19.000
298.357;   77.100; -144.000;  -71.000
298.495;   16.300; -810.000; -812.000
298.634;  146.800;  245.000;  219.000
298.772;   80.200; -220.000; -338.000
298.910;  -47.200; -309.000; -182.000
299.048;  -29.900; -130.000; -153.000
299.187;  -69.000; -350.000; -250.000
299.325;   77.400;   52.000;  122.000
299.463;   50.800; -389.000; -299.000
299.601;  167.400; -327.000; -271.000
299.739; -195.300; -908.000; -883.000
299.877; -182.800; -791.000; -703.000
300.016; -130.100;-1095.000; -935.000
300.154;  265.600;  -19.000; -161.000
300.292;   60.900; -428.000; -348.000
300.430;   48.200; -408.000; -291.000
300.568; -204.600; -940.000; -874.000
300.706;  -82.200; -366.000; -469.000
300.844; -204.900;-1108.000; -979.000
300.982;  246.400;  246.000;  282.000
301.120; -231.400; -965.000; -866.000
301.258; -160.600; -812.000; -705.000
301.396;   61.900;  104.000;  -41.000
301.534;  104.200; -218.000; -293.000
301.672;  -54.900; -664.000; -521.000
301.810;    9.400; -613.000; -545.000
301.948;  272.100;   53.000;  149.000
302.086;  913.000; -250.000;  -32.000
302.224; 1477.800; -610.000; -585.000
302.362;   23.300; -558.000; -622.000
302.500;  -77.100; -923.000; -893.000
302.638;  175.700;  128.000;  245.000
302.776;   25.900; -352.000; -408.000
302.913;  133.900;  447.000;  236.000
303.051;  -17.700;  -86.000;  -23.000
303.189;   97.800;   90.000;  118.000
303.327;  -68.300; -341.000; -256.000
303.465; -139.200; -832.000; -588.000
303.603; -163.800; -805.000; -604.000
303.740;  161.800;  417.000;  241.000
303.878;  -17.500; -800.000; -759.000
304.016; -165.300; -915.000; -790.000
304.154; -238.800;-1123.000;-1152.000
304.291;  -80.600; -505.000; -554.000
304.429;   31.300;  102.000;   74.000
304.567; -221.300; -908.000; -893.000
304.705; -104.100; -408.000; -515.000
304.842;  105.600; -616.000; -540.000
304.980;  105.100;  215.000;   35.000
305.118;   53.600; -367.000; -365.000
305.255; -150.400; -945.000; -927.000
305.393;  112.700;  178.000;  239.000
305.531; -206.900;-1173.000; -956.000
305.668; -138.600; -663.000; -582.000
305.806;  180.800; -358.000; -439.000
305.943;  111.300; -629.000; -637.000
306.081;   90.600; -378.000; -267.000
306.219; -188.200; -863.000; -748.000
306.356;   76.400;  158.000;   27.000
306.494;  256.000;  981.000;  761.000
306.631;   35.600;  -11.000;  -55.000
306.769;   15.800; -613.000; -485.000
306.906;   12.700; -284.000; -258.000
307.044; -129.400; -473.000; -488.000
307.181;  -89.800; -410.000; -332.000
307.319;  102.800;  112.000;   87.000
307.456; -336.400;-1191.000;-1153.000
307.594; -185.600; -980.000; -727.000
307.731;  -27.700; -371.000; -164.000
307.868;    8.200;  -15.000;   20.000
308.006; -257.600; -961.000; -847.000
308.143; -120.600; -618.000; -330.000
308.281;  348.400;  -37.000; -254.000
308.418;  -10.700; -748.000; -640.000
308.555; -112.300; -400.000; -250.000
308.693; -110.500; -577.000; -573.000
308.830; -168.300; -712.000; -657.000
308.967;  -16.900; -215.000;  -95.000
309.105;  -81.000; -507.000; -396.000
309.242;   84.700; -468.000; -367.000
309.379;  736.100; -577.000; -655.000
309.517; -101.500; -936.000; -948.000
309.654; -198.400; -910.000; -734.000
309.791; -134.300; -662.000; -580.000
309.928; -207.100; -977.000; -914.000
310.065;  340.500;  819.000;  697.000
310.203;  -66.200; -825.000; -850.000
310.340;   16.200; -465.000; -321.000
310.477; -143.400; -412.000; -516.000
310.614; -134.500; -383.000; -473.000
310.751; -141.700; -427.000; -518.000
310.889;  -41.300;    1.000;   11.000
311.026; -280.600;-1161.000; -939.000
311.163;  -86.400; -386.000; -380.000
311.300; -143.400; -512.000; -479.000
311.437; -148.200; -658.000; -619.000
311.574; -308.900;-1226.000; -985.000
311.711; -101.000; -595.000; -433.000
311.848;  -24.200; -380.000; -388.000
311.985;   54.900;  270.000;   93.000
312.122; -236.100; -932.000; -762.000
312.259; -215.700; -941.000; -994.000
312.396; -131.000; -508.000; -551.000
312.533; -157.000; -812.000; -790.000
312.670; -264.300;-1070.000; -898.000
312.807;  -26.500; -352.000; -367.000
312.944; -133.400; -513.000; -611.000
313.081;  -52.200; -150.000; -415.000
313.218; -190.100;-1111.000; -867.000
313.355;   34.800; -531.000; -449.000
313.492;   57.300; -455.000; -292.000
313.629;  301.400;  815.000;  735.000
313.766; -299.900;-1176.000;-1008.000
313.902;  -16.400; -186.000;   21.000
314.039;  -64.500; -372.000; -289.000
314.176;   64.800;  286.000;  192.000
314.313; -118.700; -569.000; -473.000
314.450; -162.700; -788.000; -684.000
314.587;  -96.100; -468.000; -480.000
314.723;   28.900;  -78.000;  130.000
314.860;   80.800;  318.000;  332.000
314.997;   63.700;  223.000;  142.000
315.134;  -47.300; -385.000; -368.000
315.270;  -34.800; -480.000; -496.000
315.407; -218.300;-1094.000; -967.000
315.544;  -87.000; -657.000; -538.000
315.681; -111.000; -681.000; -565.000
315.817;   69.200; -133.000; -176.000
315.954;   55.000; -613.000; -392.000
316.091; -246.000;-1045.000;-1023.000
316.227;  -35.400;  -71.000; -179.000
316.364;   16.100;   23.000;    6.000
316.500;  -50.900; -113.000; -300.000
316.637;  -58.600; -181.000; -302.000
316.774; -140.500; -625.000; -358.000
316.910; -190.400; -598.000; -629.000
317.047;  -93.500; -487.000; -351.000
317.183;  -94.800; -435.000; -566.000
317.320;    5.100; -367.000; -321.000
317.456; -118.100; -733.000; -805.000
317.593; -172.500; -598.000; -641.000
317.729;   53.300;  168.000;  -67.000
317.866; -408.100;-1434.000;-1285.000
318.002; -173.100; -708.000; -948.000
318.139; -208.200; -883.000; -867.000
318.275; -215.900;-1003.000; -738.000
318.412; -129.800; -517.000; -336.000
318.548;  -86.200; -751.000; -720.000
318.685; -197.000; -985.000; -888.000
318.821; -180.200; -762.000; -735.000
318.957;  -17.000;   34.000;  -23.000
319.094;  116.700;  297.000;  154.000
319.230; -117.400; -756.000; -742.000
319.367;  187.200; -471.000; -520.000
319.503;   72.100; -538.000; -436.000
319.639; -192.900; -877.000; -793.000
319.775; -119.800; -750.000; -685.000
319.912;  -83.800; -424.000; -519.000
320.048; -191.300;-1184.000;-1184.000
320.184;  181.200;   59.000;   70.000
320.321;  -82.100; -497.000; -467.000
320.457;  161.300;  475.000;  662.000
320.593; -119.100; -375.000; -382.000
320.729; -201.300; -732.000; -734.000
320.866; -131.200; -577.000; -635.000
321.002; -156.700; -759.000; -809.000
321.138;  -22.300; -135.000; -211.000
321.274;  138.300; -148.000; -115.000
321.410;  -75.100; -585.000; -353.000
321.546; -102.300;-1011.000; -911.000
321.683;  127.900;  400.000;  185.000
321.819;   46.700;  -48.000; -117.000
321.955; -174.200; -743.000; -722.000
322.091;  -91.800; -585.000; -540.000
322.227;    1.200; -382.000; -202.000
322.363;   -9.900; -320.000; -215.000
322.499;  -68.400; -343.000; -331.000
322.635;  300.000;  636.000;  443.000
322.771;   39.800; -139.000;   12.000
322.907;  217.800;  129.000;  327.000
323.043;  -32.000; -115.000; -206.000
323.179;  -30.900; -394.000; -363.000
323.315;   15.700; -401.000; -371.000
323.451;  114.300; -328.000; -236.000
323.587;  105.300;  -60.000;  -77.000
323.723;    4.100; -682.000; -601.000
323.859;  -12.500; -258.000;  -76.000
323.995;  -30.100; -467.000; -409.000
324.131; -246.200; -967.000; -892.000
324.267;  -40.200; -254.000; -276.000
324.402; -274.400; -960.000; -983.000
324.538;  -37.300; -279.000; -104.000
324.674;   68.000;  164.000;   77.000
324.810;  210.500;  226.000;  308.000
324.946;  -22.500; -810.000; -658.000
325.082; -116.000; -568.000; -475.000
325.217;    1.700;  -62.000;   16.000
325.353; -187.400; -764.000; -659.000
325.489; -130.600; -540.000; -506.000
325.625; -101.500; -579.000; -525.000
325.760;  154.300;  517.000;  376.000
325.896;  -23.100; -515.000; -702.000
326.032;  -89.400; -403.000; -352.000
326.168; -116.400; -462.000; -369.000
326.303;  -50.900; -352.000; -461.000
326.439;  -17.000; -336.000; -276.000
326.575;   38.800; -190.000;  -29.000
326.710;   50.500; -156.000;  -30.000
326.846;   14.400;  146.000;  103.000
326.982; -184.700; -530.000; -548.000
327.117; -127.300; -481.000; -442.000
327.253; -143.600; -745.000; -742.000
327.388; -244.300;-1137.000;-1153.000
327.524; -128.600; -811.000; -578.000
327.659;   -6.600;  -58.000;  -22.000
327.795;   10.000;   69.000;   45.000
327.931; -151.600; -723.000; -499.000
328.066;  -20.300; -417.000; -276.000
328.202;    8.200;   12.000; -129.000
328.337;  265.800;  957.000;  713.000
328.473;  -26.400;  -12.000;  -74.000
328.608;  -28.700; -256.000; -267.000
328.743; -170.300; -799.000; -664.000
328.879;   93.600;  214.000;  114.000
329.014; -112.500; -102.000; -122.000
329.150; -143.000; -358.000; -483.000
329.285; -134.000; -465.000; -466.000
329.421;  -84.100; -548.000; -246.000
329.556;   21.600;  -36.000;   85.000
329.691; -166.900; -633.000; -615.000
329.827; -163.000; -626.000; -480.000
329.962;  -50.000;  131.000; -301.000
330.097; -139.800; -673.000; -585.000
330.233;  -59.300; -410.000; -223.000
330.368; -222.400; -839.000; -628.000
330.503;   15.000;    3.000;   98.000
330.638;   53.000;  -93.000; -125.000
330.774; -120.600; -609.000; -530.000
330.909;  -59.000; -434.000; -244.000
331.044; -153.000; -714.000; -708.000
331.179; -348.600;-1217.000;-1109.000
331.315;   66.100;   77.000;   20.000
331.450;   59.500;  157.000;  285.000
331.585; -160.600; -805.000; -706.000
331.720; -134.500; -510.000; -460.000
331.855;   30.700;  -35.000; -102.000
331.990;  596.800;   62.000;  138.000
332.126;  322.600; -110.000;   71.000
332.261;    5.800; -379.000; -265.000
332.396;    9.100; -135.000; -242.000
332.531; -162.600;-1074.000;-1031.000
332.666;   86.600; -519.000; -363.000
332.801; -177.500; -726.000; -807.000
332.936;  -25.500; -192.000; -122.000
333.071; -225.500; -870.000; -817.000
333.206;   58.600;  307.000;  379.000
333.341;   76.800;  344.000;  418.000
333.476; -124.500; -627.000; -623.000
333.611;  -44.300; -251.000; -173.000
333.746;  -75.500; -381.000; -464.000
333.881; -214.000; -973.000; -935.000
334.016; -237.300; -936.000; -917.000
334.151; -250.800; -746.000; -702.000
334.286;   94.800;  152.000;  186.000
334.421;    2.700; -125.000; -178.000
334.556; -158.900; -611.000; -567.000
334.690; -171.400; -631.000; -577.000
334.825;  151.700;  381.000;   83.000
334.960;  -88.400; -285.000; -413.000
335.095;   68.000;  135.000;  -91.000
335.230; -213.900; -722.000; -738.000
335.365; -270.600;-1084.000; -990.000
335.499; -290.000;-1108.000;-1037.000
335.634;   80.100;    9.000;  534.000
335.769; -197.400; -755.000; -720.000
335.904; -120.000; -603.000; -561.000
336.038; -102.700; -735.000; -657.000
336.173; -257.400;-1206.000;-1194.000
336.308;   23.500; -116.000; -189.000
336.443;   55.500; -544.000; -634.000
336.577; -151.300; -936.000; -787.000
336.712;  117.800;   -4.000;  -12.000
336.847; -107.700; -724.000; -607.000
336.981;   70.700; -272.000; -208.000
337.116;  495.300;  615.000;  501.000
337.250;  219.900; -434.000; -421.000
337.385;  589.600; -297.000; -208.000
337.520;  225.200; -632.000; -603.000
337.654;  -37.200; -215.000; -126.000
337.789; -236.300; -989.000; -933.000
337.923;  -20.500; -104.000; -205.000
338.058; -175.700; -673.000; -738.000
338.192;  -61.400; -611.000; -488.000
338.327;   28.700;  -18.000; -155.000
338.461; -121.800; -299.000; -469.000
338.596; -184.500; -780.000; -638.000
338.730; -162.600; -767.000; -803.000
338.865;  235.100;  -46.000; -140.000
338.999;  -63.800; -846.000; -702.000
339.134;  -37.500; -634.000; -536.000
339.268;   33.900; -741.000; -603.000
339.403;  745.700; -740.000; -775.000
339.537;  301.900; -894.000; -820.000
339.671; -170.400; -829.000; -813.000
339.806;  -99.800; -556.000; -512.000
339.940;   92.700; -261.000; -235.000
340.074; -161.700; -685.000; -510.000
340.209;  -66.100; -351.000; -230.000
340.343; -162.500; -517.000; -573.000
340.477;  331.200;  998.000; 1036.000
340.612;  -46.300;-1033.000; -900.000
340.746;  357.000; -199.000; -243.000
340.880; -144.500; -924.000; -785.000
341.014;   -8.800;  -45.000; -154.000
341.149; -198.500; -756.000; -718.000
341.283; -203.300; -839.000; -754.000
341.417; -212.500;-1124.000; -938.000
341.551;  161.000; -768.000; -708.000
341.685;  -68.100; -633.000; -611.000
341.820;  -60.400; -562.000; -493.000
341.954;  -63.100; -218.000; -349.000
342.088; -304.000;-1102.000;-1019.000
342.222;   95.800;  565.000;  618.000
342.356; -117.800; -395.000; -335.000
342.490; -207.400; -880.000; -841.000
342.624;  -65.800; -339.000; -242.000
342.758;   -2.700; -364.000; -312.000
342.892; -120.300; -710.000; -585.000
343.026;  -46.300;  -58.000; -116.000
343.160;  -63.200; -426.000; -376.000
343.294; -111.200; -474.000; -337.000
343.428;  -42.800; -488.000; -448.000
343.562;  -21.400; -172.000;  -23.000
343.696;  -31.200; -385.000; -314.000
343.830;  -25.900; -362.000; -356.000
343.964;   27.200; -231.000; -168.000
344.098; 1403.700;  199.000;   70.000
344.232; 1205.500; -266.000; -127.000
344.366;  151.700; -567.000; -453.000
344.500;   51.600; -665.000; -744.000
344.634;   33.600; -324.000; -164.000
344.768;  -20.200; -531.000; -341.000
344.902;   94.500;  278.000;  256.000
345.035; -128.200; -556.000; -496.000
345.169; -238.600; -933.000; -656.000
345.303;  -29.200; -308.000; -482.000
345.437; -155.800; -826.000; -717.000
345.571; -151.100; -675.000; -594.000
345.704; -104.100; -309.000; -532.000
345.838;   -4.800; -331.000; -284.000
345.972;  -56.500; -543.000; -495.000
346.106;  376.800; -179.000; -190.000
346.239;  852.700; -312.000; -243.000
346.373;   12.200; -343.000; -302.000
346.507; -261.200; -950.000; -962.000
346.640;  244.500;  -30.000;   13.000
346.774;  -63.500; -650.000; -797.000
346.908;  -11.900; -138.000;  -11.000
347.041; -172.100; -646.000; -593.000
347.175;   40.900;  259.000;   27.000
347.309; -173.700; -698.000; -628.000
347.442; -160.800; -883.000; -732.000
347.576;  489.100;  670.000;  668.000
347.709;  316.800; -123.000;  -52.000
347.843; -182.500; -933.000; -825.000
347.976;  110.100;  235.000;  294.000
348.110; -357.600;-1268.000;-1186.000
348.243; -201.200; -679.000; -772.000
348.377;   47.400;  -26.000;   60.000
348.510;  153.800;  403.000;  540.000
348.644;  -68.100;  -37.000; -159.000
348.777;   20.900;  180.000;  191.000
348.911;  -82.400; -142.000; -112.000
349.044;  327.000;  471.000;  448.000
349.178;  177.300;-1069.000;-1006.000
349.311;  248.000;  141.000;  255.000
349.444;   -0.600; -927.000; -813.000
349.578;   -3.100; -347.000; -200.000
349.711; -206.300; -959.000; -862.000
349.845;  -27.400; -661.000; -591.000
349.978; -297.400;-1224.000;-1137.000
350.111; -133.300; -546.000; -612.000
350.244; -132.400; -596.000; -700.000
350.378;   19.800; -392.000; -393.000
350.511; -112.800; -393.000; -426.000
350.644; -186.800; -808.000; -806.000
350.778;   42.100;  168.000;  104.000
350.911;   63.100;  134.000;  140.000
351.044; -159.800; -685.000; -615.000
351.177;  -35.400; -321.000; -281.000
351.310;    6.900;    3.000; -131.000
351.444; -160.700; -888.000; -788.000
351.577;  251.900;  140.000;   90.000
351.710;  229.800;  593.000;  417.000
351.843;  -38.200; -165.000;  -77.000
351.976;   13.600;  149.000;  -79.000
352.109; -139.000; -621.000; -612.000
352.242;  -44.300; -464.000; -419.000
352.376; -127.200; -580.000; -636.000
352.509;  274.500; -437.000; -356.000
352.642;  -56.900; -654.000; -604.000
352.775;  126.500; -141.000;  -98.000
352.908; -212.100; -933.000; -904.000
353.041; -198.500; -814.000; -824.000
353.174;  -96.000; -551.000; -424.000
353.307; -178.100; -753.000; -764.000
353.440;  185.900;  541.000;  453.000
353.573; -204.900; -957.000;-1008.000
353.706; -154.700; -384.000; -558.000
353.839;  -21.800; -264.000; -220.000
353.971; -146.400; -657.000; -512.000
354.104; -192.600; -896.000; -835.000
354.237;  -85.400; -627.000; -662.000
354.370; -147.400; -846.000; -879.000
354.503; -369.100;-1231.000;-1308.000
354.636;  -41.400; -529.000; -348.000
354.769; -220.100; -937.000; -860.000
354.902;   30.000; -230.000; -139.000
355.034;   -7.800; -164.000; -220.000
355.167;    0.800; -262.000; -162.000
355.300; -155.600;-1061.000; -880.000
355.433; 2035.600;  -71.000;  -14.000
355.565; 3216.600; -402.000; -384.000
355.698;  785.400; -356.000; -296.000
355.831;  -11.800; -882.000; -801.000
355.964;  141.500; -285.000; -170.000
356.096; -154.100; -856.000; -843.000
356.229;   -7.300; -523.000; -530.000
356.362;  721.600; -373.000; -266.000
356.494; 1303.400; -229.000; -162.000
356.627;  879.400;  269.000;  377.000
356.760; 1354.000;  120.000;   53.000
356.892; 2025.100; -286.000; -601.000
357.025; 1113.200;  403.000;  389.000
357.157;  897.600; -167.000; -179.000
357.290; 1497.500; -856.000; -713.000
357.423;  425.500; -667.000; -556.000
357.555;  206.500; -217.000; -228.000
357.688;  185.100; -483.000; -364.000
357.820;  664.000; -870.000; -877.000
357.953; 5774.400; -563.000; -589.000
358.085; 1159.400; -632.000; -612.000
358.218; 1536.800;-1131.000; -932.000
358.350;  341.500;  -58.000;  312.000
358.483; -253.600;-1300.000;-1187.000
358.615;  -84.500;-1182.000;-1078.000
358.747; -159.000;-1187.000;-1058.000
358.880;   17.400; -810.000; -744.000
359.012;  -21.900; -376.000; -202.000
359.145;  -84.800; -480.000; -511.000
359.277;    4.100; -962.000; -913.000
359.409; 4832.600;  536.000;  231.000
359.542; 1150.100; -738.000; -688.000
359.674;  146.900;   46.000;   13.000
359.806; -106.700; -565.000; -438.000
359.939;  -48.300; -617.000; -516.000
360.071;   25.600; -583.000; -579.000
360.203;  -12.100; -411.000; -364.000
360.335;  128.100;  164.000;  -16.000
360.468;  346.400; -249.000; -307.000
360.600; 3988.000; -547.000; -454.000
360.732; 6068.400; -546.000; -423.000
360.864;  814.900;-1216.000;-1044.000
360.996;  425.000; -516.000; -554.000
361.129;   68.200; -389.000; -598.000
361.261;   47.800;  110.000; -113.000
361.393;  -14.400; -252.000; -214.000
361.525;   77.200;   94.000;  244.000
361.657;  -84.100; -821.000; -703.000
361.789;   52.700; -139.000; -155.000
361.921;  309.600; -642.000; -593.000
362.053;  477.500;  524.000;  541.000
362.185;  118.500;  288.000;   72.000
362.318; -138.000; -709.000; -705.000
362.450;  218.900;  294.000;  444.000
362.582;   63.700; -913.000; -870.000
362.714;  -54.900; -353.000; -332.000
362.846; -125.100; -606.000; -490.000
362.978; -239.100; -941.000; -811.000
363.109;   73.900; -161.000; -260.000
363.241;  692.000; -739.000; -749.000
363.373;  908.900; -649.000; -564.000
363.505; 1496.700; -186.000;  -91.000
363.637;  314.800; -787.000; -601.000
363.769; -234.300;-1067.000;-1080.000
363.901;  -92.500; -596.000; -654.000
364.033; -245.000;-1103.000;-1062.000
364.165;   12.400; -283.000; -283.000
364.296;  192.400; -316.000; -177.000
364.428;  217.300;-1344.000;-1220.000
364.560; -133.300; -679.000; -661.000
364.692; -133.000; -738.000; -835.000
364.824;  388.600; -588.000; -456.000
364.955;  918.500; -402.000; -564.000
365.087; 2123.400;-1097.000; -852.000
365.219;  106.100; -686.000; -816.000
365.351; -113.400; -526.000; -572.000
365.482;  129.900;  300.000;  240.000
365.614;  -36.900; -402.000; -314.000
365.746; -200.300; -729.000; -752.000
365.877; -179.800; -706.000; -672.000
366.009;  626.100;  -35.000;  -62.000
366.141; -120.100;-1249.000;-1134.000
366.272; -217.900; -803.000; -719.000
366.404; -206.000;-1005.000; -874.000
366.535;   38.700; -139.000;  -12.000
366.667; -166.200; -644.000; -649.000
366.799;  139.500;  353.000;  203.000
366.930; -243.200; -862.000; -996.000
367.062;  291.800; -639.000; -613.000
367.193;  382.100; -872.000; -842.000
367.325; -100.400; -580.000; -684.000
367.456;   26.500; -246.000;   31.000
367.588;  398.100; -371.000; -318.000
367.719;   92.100;  -44.000;  -45.000
367.851;  -15.100; -222.000; -241.000
367.982; -112.800; -875.000; -732.000
368.113;  122.200; -475.000; -358.000
368.245; -230.100; -960.000; -841.000
368.376;   -6.800; -254.000; -302.000
368.508;  -44.000; -188.000; -263.000
368.639; -277.600;-1166.000;-1034.000
368.770;  -71.900; -670.000; -589.000
368.902; -131.100; -836.000; -926.000
369.033; -215.800; -906.000; -855.000
369.164;  -43.200; -720.000; -653.000
369.296; -169.500; -452.000; -601.000
369.427;    7.500; -209.000; -144.000
369.558; -106.500; -593.000; -377.000
369.689; -132.600; -721.000; -569.000
369.821; -248.300; -951.000; -845.000
369.952;   22.700;   42.000; -108.000
370.083;  -63.000; -229.000; -108.000
370.214; -166.700; -735.000; -650.000
370.345;   20.300;   65.000;   81.000
370.477; -142.900; -810.000; -790.000
370.608;  339.900; -328.000; -264.000
370.739; -159.700;-1233.000;-1292.000
370.870; -112.900;-1102.000; -923.000
371.001;  113.200; -378.000; -467.000
371.132; -127.600; -754.000; -735.000
371.263;   -4.500;  -42.000; -148.000
371.394; -247.800; -841.000; -748.000
371.525;  107.600;  345.000;  225.000
371.657; -147.500; -808.000; -670.000
371.788;  162.200;  103.000;  199.000
371.919;  231.000; -384.000; -304.000
372.050; 5647.800;  -91.000; -156.000
372.181; 1596.200; -188.000; -294.000
372.311;  577.400;   42.000; -127.000
372.442;   54.900; -457.000; -451.000
372.573;  -47.400; -444.000; -340.000
372.704; -214.800;-1008.000; -980.000
372.835;  176.700; -228.000; -289.000
372.966;  -93.600; -646.000; -554.000
373.097;  -97.500; -575.000; -711.000
373.228;  -69.400; -717.000; -542.000
373.359;  183.800; -824.000; -536.000
373.490; 1358.400; -881.000; -727.000
373.620; 1649.300;-1001.000; -803.000
373.751; 2689.200; -332.000; -396.000
373.882; 1096.200; -663.000; -733.000
374.013;   61.100; -449.000; -262.000
374.143;  -75.900; -581.000; -659.000
374.274; -224.600; -987.000; -908.000
374.405;  309.500; -388.000; -276.000
374.536;  653.200; -526.000; -387.000
374.666; 1585.500; -759.000; -807.000
374.797;  311.200; -817.000; -868.000
374.928; 1241.200; -710.000; -560.000
375.058; 1328.200; -535.000; -500.000
375.189;  145.500;  -59.000;  -93.000
375.320; -167.500; -928.000;-1034.000
375.450;  -85.100; -625.000; -616.000
375.581;  -76.800; -526.000; -436.000
375.712;   -8.100; -574.000; -250.000
375.842;  464.600; -438.000; -415.000
375.973;  315.600; -554.000; -513.000
376.103; -114.700; -665.000; -648.000
376.234; -122.100; -531.000; -552.000
376.364;  -99.300; -944.000; -867.000
376.495;  627.000;  925.000;  529.000
376.625;  -18.400; -472.000; -485.000
376.756;   84.700; -709.000; -678.000
376.886; -188.600;-1178.000;-1026.000
377.017;  174.800;-1048.000;-1061.000
377.147;  803.400; -786.000; -782.000
377.278;  190.700;  174.000;  228.000
377.408; -222.900; -801.000; -815.000
377.538; -166.200; -707.000; -693.000
377.669; -135.900; -537.000; -613.000
377.799; -152.100; -645.000; -635.000
377.929;  -81.300; -610.000; -428.000
378.060; -233.200; -781.000; -847.000
378.190;  -53.900; -726.000; -531.000
378.320;  -46.400; -401.000; -406.000
378.451;   27.100; -131.000;  -22.000
378.581;   24.300;  -67.000; -110.000
378.711;  305.300; 1035.000;  866.000
378.841;  -10.500; -533.000; -675.000
378.972; -166.000; -871.000; -751.000
379.102;  -19.400; -652.000; -579.000
379.232;    2.100; -126.000;  -73.000
379.362; -215.600;-1001.000; -885.000
379.492;   11.900; -373.000; -424.000
379.623;  185.500;    0.000;  111.000
379.753; -219.800;-1107.000; -974.000
379.883;  400.900;   59.000;  156.000
380.013;  -67.500;-1081.000;-1017.000
380.143; -219.800;-1097.000;-1056.000
380.273; -198.700; -985.000; -861.000
380.403;   31.700; -344.000; -257.000
380.533;  -53.400; -651.000; -664.000
380.663;  122.900;  173.000;  128.000
380.793; -209.300;-1027.000;-1074.000
380.923;   11.000; -103.000;  -34.000
381.053; -155.400; -613.000; -623.000
381.183;  -19.800; -106.000; -248.000
381.313;   53.900; -656.000; -470.000
381.443;   23.500; -692.000; -473.000
381.573;  284.300; -402.000; -409.000
381.703;  335.100;-1249.000;-1095.000
381.833; -287.100;-1454.000;-1336.000
381.963;  168.000; -134.000;  -87.000
382.093; 2236.000; -925.000; -909.000
382.223;  525.700; -713.000; -602.000
382.353;  -80.900; -801.000; -608.000
382.482;  520.300;-1091.000; -964.000
382.612; 1194.200; -872.000; -644.000
382.742;  644.500; -695.000; -622.000
382.872;  346.000; -565.000; -551.000
383.002;  165.700;  347.000; -132.000
383.131;   22.000; -226.000; -160.000
383.261;  -78.300; -706.000; -768.000
383.391;  603.000; -552.000; -377.000
383.521; 7177.900;  451.000;  263.000
383.650; 1647.000; -947.000; -904.000
383.780;   10.500; -783.000; -656.000
383.910;  282.900;  880.000;  802.000
384.039;   28.400; -794.000; -656.000
384.169;  244.900;-1205.000;-1017.000
384.299;  -68.600; -650.000; -662.000
384.428; -164.500; -764.000; -680.000
384.558;  -55.900; -308.000; -275.000
384.687;  -75.200; -414.000; -334.000
384.817;   62.000;   75.000;   -2.000
384.947;   28.300; -234.000; -141.000
385.076;  510.700;  982.000;  912.000
385.206;  220.300;  369.000;  480.000
385.335;  -64.000; -549.000; -417.000
385.465; -169.500; -655.000; -663.000
385.594;  237.900;  -53.000;  -44.000
385.724;  534.300; -868.000; -838.000
385.853;  193.200; -296.000; -270.000
385.982; 2128.700; -743.000; -787.000
386.112; 3161.400;-1052.000; -871.000
386.241;  231.500; -307.000; -312.000
386.371;   61.000; -174.000;  -87.000
386.500;  -24.700; -825.000; -789.000
386.629;   57.200; -874.000; -817.000
386.759;  137.200;  -43.000;   68.000
386.888;   21.100; -170.000; -250.000
387.017; -141.400; -648.000; -620.000
387.147; -150.800; -771.000; -798.000
387.276;    2.300; -410.000; -397.000
387.405;   22.100; -398.000; -342.000
387.535;  -60.600; -452.000; -361.000
387.664; -113.000; -692.000; -620.000
387.793;  127.400; -198.000; -113.000
387.922;  837.600;  255.000;  200.000
388.052;  -13.900; -576.000; -423.000
388.181;   17.000; -342.000; -472.000
388.310;  -60.600; -889.000; -710.000
388.439; -111.900; -749.000; -742.000
388.568;  337.500;  365.000;  244.000
388.697; 1514.200; -756.000; -653.000
388.826;  234.600; -768.000; -666.000
388.956;   65.200; -285.000; -307.000
389.085;  -46.100; -347.000; -287.000
389.214; -196.400; -842.000; -872.000
389.343; -102.300; -645.000; -413.000
389.472;  952.800;  126.000;  149.000
389.601; 1058.600;   91.000;    0.000
389.730;   21.900; -568.000; -687.000
389.859;  139.800;  226.000;   46.000
389.988;  316.900; -423.000; -408.000
390.117;  215.400; -168.000; -146.000
390.246;  -20.600; -331.000; -320.000
390.375;  141.200; -673.000; -626.000
390.504; -108.800; -703.000; -621.000
390.633; -180.100; -672.000; -726.000
390.761; -117.500; -732.000; -645.000
390.890;   36.700;   -4.000; -130.000
391.019;  -38.700; -421.000; -441.000
391.148; -235.400; -826.000; -855.000
391.277;  -89.900; -576.000; -493.000
391.406; -178.100; -821.000; -805.000
391.534;   85.900;  574.000; -301.000
391.663; -116.300; -583.000; -645.000
391.792; -177.200; -673.000; -701.000
391.921;  208.300;   -3.000;   15.000
392.050;  266.700; -287.000; -228.000
392.178; -134.900;-1206.000;-1061.000
392.307;  183.600; -758.000; -712.000
392.436;   34.800; -427.000; -641.000
392.564;   93.700;  166.000;   -6.000
392.693; -166.000; -860.000; -682.000
392.822;  299.800; -529.000; -534.000
392.950;   97.900; -880.000; -714.000
393.079;  500.900; -188.000; -328.000
393.208;  -15.500; -488.000; -511.000
393.336;   23.900; -170.000; -145.000
393.465;  -83.900; -317.000; -199.000
393.593;   57.000;   62.000;   79.000
393.722; -275.700;-1121.000; -916.000
393.850;   11.900; -188.000;  -61.000
393.979; -259.900; -926.000; -805.000
394.107;  -93.700; -517.000; -537.000
394.236;    5.000; -570.000; -507.000
394.364;  523.800;  383.000;  206.000
394.493;  768.800; -911.000; -767.000
394.621;   32.200; -955.000; -916.000
394.750; 1691.600; -873.000; -923.000
394.878; 6744.300; -247.000; -149.000
395.007; 8521.900; -721.000; -807.000
395.135;  615.000; -790.000; -721.000
395.263; -159.300;-1038.000;-1040.000
395.392;   52.700;  -25.000; -107.000
395.520; -258.800; -818.000; -679.000
395.648; -168.100; -865.000; -915.000
395.777;  -32.800; -366.000; -405.000
395.905;  -58.200; -449.000; -564.000
396.033;  103.700;  217.000;  172.000
396.162; 1323.300; -399.000; -453.000
396.290; 1098.000;  -17.000;   -2.000
396.418;  147.000; -555.000; -514.000
396.546; -157.200; -571.000; -466.000
396.674; -184.500; -850.000; -878.000
396.803;   24.700;  -72.000;  -23.000
396.931;  163.100; -179.000; -199.000
397.059;  -12.500;-1026.000; -989.000
397.187; -197.200;-1026.000; -975.000
397.315; -260.500; -884.000; -649.000
397.443; -151.700; -592.000; -443.000
397.572; -115.400; -578.000; -424.000
397.700;  -45.600; -607.000; -614.000
397.828;   20.100;  120.000;  -90.000
397.956;  -40.100; -508.000; -478.000
398.084;  -36.400; -767.000; -626.000
398.212;  128.100;  137.000;  124.000
398.340;   17.400;  -56.000;  159.000
398.468;   30.100; -390.000; -169.000
398.596; -246.100; -993.000; -953.000
398.724; -233.900; -762.000; -767.000
398.852; -304.400;-1024.000; -976.000
398.980; -120.800; -560.000; -560.000
399.108; -103.000; -982.000; -735.000
399.236;  110.600;   13.000;    8.000
399.363;   41.100;  222.000;  196.000
399.491;  -89.000; -404.000; -398.000
399.619; -211.300; -829.000; -800.000
399.747; -191.000; -859.000; -771.000
399.875;  193.400;  220.000;  234.000
400.003;  -51.800; -359.000; -284.000
400.130; -123.200; -421.000; -341.000
400.258;  -10.100;  -83.000;   38.000
400.386; -101.800; -352.000; -168.000
400.514;  -58.800; -526.000; -587.000
400.641; -200.600; -928.000; -802.000
400.769; -264.400; -979.000; -888.000
400.897; -163.800; -838.000; -793.000
401.025;    0.900; -166.000; -152.000
401.152;   42.300;  220.000;   38.000
401.280; -128.600; -430.000; -429.000
401.408; -185.200; -712.000; -576.000
401.535; -187.400; -735.000; -758.000
401.663; -329.900;-1134.000;-1054.000
401.790; -139.200; -514.000; -525.000
401.918;  147.300;  436.000;  405.000
402.046;   14.700;  134.000;  122.000
402.173;  -12.700;  -18.000;    7.000
402.301; -115.900; -519.000; -397.000
402.428;  126.900;  528.000;  383.000
402.556; -267.400;-1188.000; -913.000
402.683;   -2.800;  -20.000;   -1.000
402.811;    7.400;  -37.000; -206.000
402.938;   26.400;   20.000;   27.000
403.066;  288.600; -574.000; -558.000
403.193;  504.200;  299.000;  239.000
403.321;  371.300; -396.000; -574.000
403.448;  517.900;   83.000;   27.000
403.575;  234.100;  -90.000;  -46.000
403.703; -181.000; -732.000; -557.000
403.830;  -79.800; -531.000; -496.000
403.957; -235.700;-1117.000;-1023.000
404.085;   52.900;  -61.000; -172.000
404.212;  243.500;  -50.000;   63.000
404.339;  698.800; -566.000; -306.000
404.467;13118.900; -612.000; -524.000
404.594; 7517.700; -287.000; -227.000
404.721; 1564.900; -869.000; -764.000
404.848;  172.500; -113.000; -202.000
404.976; -180.300; -856.000; -783.000
405.103;    9.100;  -14.000;  -82.000
405.230;   56.400;  190.000;  226.000
405.357;  117.200;  117.000;   44.000
405.484;  650.900;  -49.000;    5.000
405.612;  101.600; -548.000; -563.000
405.739;  -71.600; -488.000; -243.000
405.866;  203.900;  669.000;  385.000
405.993;  -92.200; -398.000; -102.000
406.120; -228.400; -801.000; -887.000
406.247;  -51.500; -323.000; -342.000
406.374;  756.600;  540.000;  629.000
406.501;   90.300; -632.000; -702.000
406.628; -144.400; -621.000; -589.000
406.755; -149.800; -803.000; -620.000
406.882;  -22.400; -228.000; -277.000
407.009; -181.300; -719.000; -628.000
407.136;   76.200; -480.000; -401.000
407.263;  156.800; -939.000; -829.000
407.390; -138.300; -692.000; -614.000
407.517; -298.500;-1139.000;-1187.000
407.644;  -90.300; -332.000; -256.000
407.771;  -87.000; -249.000; -287.000
407.898;   73.900;  168.000;  328.000
408.025; -108.900; -421.000; -313.000
408.151;   48.600;   82.000;  153.000
408.278;  -71.000; -267.000; -216.000
408.405; -200.300; -931.000; -899.000
408.532; -129.800; -549.000; -542.000
408.659; -196.700; -677.000; -648.000
408.785; -354.600;-1298.000;-1170.000
408.912; -114.500; -412.000; -296.000
409.039; -145.800; -610.000; -686.000
409.166; -173.700; -591.000; -555.000
409.292; -180.300; -571.000; -534.000
409.419; -178.400; -665.000; -649.000
409.546;  -96.200; -431.000; -192.000
409.672; -172.200; -713.000; -545.000
409.799;   -2.900;  -36.000;   34.000
409.926;  -38.500; -180.000; -179.000
410.052; -290.000;-1127.000;-1091.000
410.179; -107.100; -368.000; -392.000
410.305; -102.700; -375.000; -493.000
410.432;  -49.400; -220.000; -333.000
410.558; -126.700; -305.000; -380.000
410.685; -160.300; -688.000; -431.000
410.812; -176.600; -409.000; -588.000
410.938; -217.300; -964.000; -808.000
411.065; -158.900; -671.000; -645.000
411.191;   -2.700; -189.000; -174.000
411.317; -185.200; -823.000; -742.000
411.444;  -60.000; -317.000; -246.000
411.570;  -99.100; -339.000; -294.000
411.697; -211.400; -758.000; -752.000
411.823; -318.100; -989.000; -999.000
411.949;    1.600;  -56.000;   17.000
412.076; -178.400; -539.000; -519.000
412.202; -192.500; -758.000; -757.000
412.329; -234.500; -798.000; -752.000
412.455; -198.800; -821.000; -657.000
412.581;   42.500;  -15.000;  172.000
412.707; -108.000; -540.000; -457.000
412.834;  103.200;  156.000;  219.000
412.960; -133.500; -785.000; -784.000
413.086; -192.200; -743.000; -701.000
413.212;  338.300;  604.000;  578.000
413.339; -118.600; -685.000; -701.000
413.465;   -9.100; -364.000; -310.000
413.591; -140.200; -757.000; -474.000
413.717;  -74.100; -358.000; -366.000
413.843; -234.800; -839.000; -861.000
413.969;  -51.600;  -47.000; -292.000
414.096; -162.300; -679.000; -679.000
414.222;   50.400;  -33.000;   85.000
414.348;   10.200; -652.000; -385.000
414.474;  171.900;   38.000;  -52.000
414.600;   17.900; -126.000; -144.000
414.726;    3.000;  -96.000;  -55.000
414.852;  -77.000; -365.000; -342.000
414.978;  122.900;  104.000;  -18.000
415.104;  134.500;   38.000;   80.000
415.230;  101.100; -329.000; -330.000
415.356;  127.400; -409.000; -514.000
415.482;  487.400;   13.000;  -35.000
415.608;  665.800; -247.000; -323.000
415.734; 2191.700;   67.000;   38.000
415.860;44117.600; -875.000; -767.000
415.986;28787.400; -685.000; -607.000
416.111; 2386.100; -798.000; -652.000
416.237;  557.400; -424.000; -571.000
416.363; 2783.700; -765.000; -733.000
416.489; 9030.400; -324.000; -251.000
416.615;  952.700; -707.000; -742.000
416.741;   26.300; -677.000; -784.000
416.866; -145.200; -673.000; -736.000
416.992; -216.100; -801.000; -818.000
417.118;  -11.600;  -41.000;  -80.000
417.244;  -77.300; -798.000; -531.000
417.369; -125.500; -801.000; -612.000
417.495;    8.700; -325.000; -254.000
417.621; -153.700;-1015.000; -803.000
417.746;   52.900; -579.000; -572.000
417.872;  170.100; -254.000; -144.000
417.998;  175.000; -515.000; -530.000
418.123; 2677.500;-1073.000; -845.000
418.249;11846.400; -512.000; -601.000
418.374; 1499.700; -916.000; -824.000
418.500;  277.800; -383.000; -482.000
418.626;  304.600;   70.000;  -59.000
418.751;  282.500; -549.000; -448.000
418.877;  474.400; -637.000; -643.000
419.002; 4510.900; -688.000; -560.000
419.128;27661.300; -930.000; -721.000
419.253; 6088.400; -967.000; -837.000
419.379;  900.500; -391.000; -338.000
419.504;  895.300;  325.000;  415.000
419.629; 1178.800; -393.000; -212.000
419.755; 8894.900; -317.000; -254.000
419.880;46523.700;  -98.000;   67.000
420.006;25586.000; -280.000; -221.000
420.131;60377.000; -662.000; -775.000
420.256; 7750.600; -315.000; -316.000
420.382; 1115.800; -665.000; -687.000
420.507;  206.500; -649.000; -778.000
420.632;  233.000; -337.000; -339.000
420.758;  316.600; -251.000; -425.000
420.883; -185.600; -876.000; -672.000
421.008; -171.600; -775.000; -619.000
421.133; -106.300; -509.000; -467.000
421.259;  -45.600; -325.000; -259.000
421.384; -203.600; -834.000; -693.000
421.509; -111.500;-1052.000; -862.000
421.634; 1576.200; -936.000; -820.000
421.759;  602.400; -359.000; -327.000
421.885; -127.000; -717.000; -656.000
422.010;  -97.900; -673.000; -542.000
422.135; -225.600; -695.000; -727.000
422.260;  102.300;  340.000;  280.000
422.385;  -25.400;   12.000;  -98.000
422.510;   54.700;  151.000;  -26.000
422.635;   43.400;  -87.000;  -43.000
422.760;  164.700; -766.000; -791.000
422.885;  180.100;  -57.000;  -80.000
423.010;    2.800; -112.000; -169.000
423.135; -119.600; -481.000; -561.000
423.260;   13.600; -150.000; -245.000
423.385;  167.200;  476.000;  222.000
423.510;  101.900;   71.000;  -22.000
423.635;  156.900;  133.000;   45.000
423.760;  181.900;  383.000;  328.000
423.885;  166.500;  336.000;  391.000
424.010;   93.700;  -68.000;  -13.000
424.135;   21.600;    5.000;  -33.000
424.259; -127.700; -654.000; -457.000
424.384;  -54.200; -279.000; -272.000
424.509;   13.500; -260.000; -186.000
424.634; -150.700; -761.000; -623.000
424.759;  -21.200; -688.000; -544.000
424.883;   64.200; -506.000; -527.000
425.008;  420.200; -502.000; -410.000
425.133; 4538.100; -679.000; -653.000
425.258; 1857.000; -517.000; -381.000
425.382; 1751.300; -867.000; -774.000
425.507; 3917.800; -487.000; -543.000
425.632;  725.400; -802.000; -663.000
425.756; 1077.500; -256.000; -146.000
425.881;16559.500; -831.000; -857.000
426.006;39539.600; -604.000; -355.000
426.130; 5562.400; -696.000; -508.000
426.255;  793.800; -611.000; -491.000
426.379;  426.300; -189.000; -577.000
426.504;  896.200;  660.000;  544.000
426.629; 9151.600; -519.000; -466.000
426.753; 5534.300;   64.000;  -46.000
426.878;  692.500; -252.000; -288.000
427.002;  456.700; -651.000; -668.000
427.127; 3763.500;  -35.000; -158.000
427.251;25559.800;  372.000;  401.000
427.375; 6187.600; -191.000; -173.000
427.500; 3750.300; -616.000; -610.000
427.624; 1107.100; -234.000; -400.000
427.749;  218.600; -216.000; -225.000
427.873;  -75.500; -499.000; -412.000
427.997;  -11.700; -222.000; -230.000
428.122;  211.900;  795.000;  703.000
428.246;  211.000;  433.000;  434.000
428.371; -204.600; -869.000; -773.000
428.495; -186.500; -624.000; -646.000
428.619;    0.500; -186.000; -117.000
428.743;   86.300;   65.000;  132.000
428.868;   30.700; -732.000; -643.000
428.992; 2214.600; -219.000; -326.000
429.116;  750.300; -329.000; -357.000
429.240;  452.300;  419.000;  426.000
429.365;   14.400; -454.000; -574.000
429.489;  -56.500; -638.000; -647.000
429.613;   97.500; -236.000; -177.000
429.737;  145.600; -563.000; -432.000
429.861;  658.400; -247.000; -133.000
429.985;12925.800; -425.000; -305.000
430.109;12641.500; -770.000; -908.000
430.234; 1425.700;   76.000;  -50.000
430.358;  155.900; -250.000; -160.000
430.482;  -91.300; -672.000; -564.000
430.606;  -62.000; -655.000; -375.000
430.730;    8.700; -437.000; -388.000
430.854;  137.500; -909.000; -835.000
430.978; -124.400; -795.000; -764.000
431.102; -112.300; -499.000; -422.000
431.226; -175.500; -874.000; -815.000
431.350;   73.900;  345.000;  422.000
431.474;  -89.800; -661.000; -373.000
431.597; -283.000;-1060.000; -848.000
431.721; -106.200; -276.000; -267.000
431.845; -211.400; -704.000; -472.000
431.969;  -76.500; -304.000; -349.000
432.093; -131.000; -395.000; -317.000
432.217;   16.500;   32.000;   82.000
432.341; -131.200; -523.000; -518.000
432.464;   50.900;   96.000;   40.000
432.588;  374.300; -401.000; -329.000
432.712;  157.800;  -52.000;  -52.000
432.836;  170.900;  213.000;  263.000
432.959;   54.000; -372.000; -311.000
433.083;  251.100;   11.000;    2.000
433.207;  896.700;  285.000;  930.000
433.330;12125.500; -391.000; -200.000
433.454;13282.500; -654.000; -638.000
433.578; 7819.400;  583.000;  278.000
433.701; 1294.100; -623.000; -675.000
433.825;  283.400; -292.000; -299.000
433.949;  275.900;   28.000;  -72.000
434.072;   80.900; -410.000; -323.000
434.196;   25.200; -309.000; -117.000
434.319; 8075.500;25482.000;25124.000
434.443; 1626.000; -656.000; -603.000
434.566; 5801.200;  281.000;   62.000
434.690;  896.800; -637.000; -383.000
434.813;  167.800; -251.000; -173.000
434.937; -107.400; -569.000; -696.000
435.060;  -67.300; -423.000; -332.000
435.184;  390.800; -492.000; -217.000
435.307;  224.200;  159.000;  102.000
435.431;   37.700;  -40.000;   24.000
435.554;  -97.400; -399.000; -240.000
435.677; -106.600; -350.000; -258.000
435.801;  -36.900;  -25.000;   49.000
435.924;  -15.900;    1.000;  -67.000
436.048; -244.900;-1019.000; -732.000
436.171;  -94.500; -240.000;  -66.000
436.294;   33.100; -248.000; -229.000
436.417;  309.300; -963.000; -849.000
436.541; -130.100; -814.000; -840.000
436.664;  -30.200; -242.000; -316.000
436.787;   28.400;   13.000;  113.000
436.910; -153.500; -792.000; -422.000
437.034;   41.200;  142.000;  143.000
437.157;  150.600;  -11.000;    0.000
437.280;  -89.200; -392.000; -292.000
437.403; -164.600; -982.000; -869.000
437.526;  807.800; -903.000; -865.000
437.649; 2888.700; -505.000; -332.000
437.772;  311.500; -692.000; -540.000
437.896;  264.700;  700.000;  544.000
438.019; -149.200; -758.000; -503.000
438.142; -125.700; -596.000; -506.000
438.265;  -39.600; -639.000; -670.000
438.388;  823.500; -520.000; -410.000
438.511;  111.000; -597.000; -394.000
438.634;  -59.600; -247.000; -125.000
438.757; -214.500; -693.000; -619.000
438.880;    3.500;  -34.000;  -57.000
439.003; -124.600; -417.000; -437.000
439.126;  -85.500; -287.000; -167.000
439.248;  -71.000;  -98.000; -139.000
439.371;  -15.400;    9.000;  -53.000
439.494;  119.100;  510.000;  439.000
439.617;  -48.500;   65.000;  -88.000
439.740; -326.600; -968.000; -816.000
439.863; -238.100; -755.000; -595.000
439.986; -178.300; -476.000; -431.000
440.108;  -13.100; -161.000; -112.000
440.231; -285.600; -950.000; -836.000
440.354;  -42.200;  -64.000; -150.000
440.477;   39.900; -566.000; -542.000
440.599;   68.600; -200.000; -225.000
440.722; -179.700; -709.000; -586.000
440.845;  154.700;  751.000;  928.000
440.968; -161.500; -415.000; -311.000
441.090;  -82.800; -199.000;  -33.000
441.213; -289.300;-1021.000; -825.000
441.336;  -58.500; -159.000;   -5.000
441.458; -114.200; -549.000; -396.000
441.581; -151.400; -628.000; -629.000
441.703;  -79.600; -152.000;   13.000
441.826; -171.300; -557.000; -400.000
441.948;  -27.700;   56.000;   51.000
442.071;  123.500;  555.000;  424.000
442.193; -169.200; -531.000; -485.000
442.316;  118.000;  152.000;   97.000
442.438;  181.200; -233.000;  -10.000
442.561;  185.500;  272.000;  262.000
442.683;  773.800; -809.000; -522.000
442.806; 1519.600;   -8.000;   74.000
442.928;  -67.500; -859.000; -604.000
443.051; -109.800; -577.000; -373.000
443.173; -111.800; -341.000; -339.000
443.295; -127.500; -263.000; -371.000
443.418;  -64.700; -321.000;  -29.000
443.540;   30.700; -106.000;   -4.000
443.662; -194.900; -563.000; -465.000
443.785;   68.200;  335.000;  199.000
443.907; -149.200; -362.000; -208.000
444.029; -201.900; -767.000; -494.000
444.152; -206.400; -644.000; -554.000
444.274;    3.400;  -18.000;  -24.000
444.396; -160.500; -461.000; -221.000
444.518; -214.200; -691.000; -454.000
444.640; -164.100; -268.000; -111.000
444.763;   43.000;  388.000;  249.000
444.885; -189.300; -432.000; -392.000
445.007;   17.800;   35.000;   86.000
445.129; -190.900; -610.000; -515.000
445.251; -167.400; -372.000; -439.000
445.373; -221.200; -537.000; -386.000
445.495;   82.900;  242.000;  350.000
445.617;  176.600;  853.000;  753.000
445.739; -122.900; -215.000;  -97.000
445.861;  -46.200; -245.000; -112.000
445.984;  -41.300; -267.000; -101.000
446.105;  304.300; -418.000; -251.000
446.227;  836.600; -176.000;  -19.000
446.349;  -53.400; -358.000; -249.000
446.471; -180.800; -615.000; -448.000
446.593; -117.900; -316.000;   19.000
446.715;   18.500;  -67.000;   41.000
446.837;  217.800;  697.000;  832.000
446.959; -149.500; -457.000; -478.000
447.081; -222.600; -628.000; -518.000
447.203;  177.300;  862.000;  834.000
447.325; -128.500; -270.000;   42.000
447.446;   55.400;  286.000;  530.000
447.568; -294.100; -921.000; -803.000
447.690; -105.800; -236.000; -245.000
447.812; -261.500; -798.000; -519.000
447.933;    7.200;  155.000;  127.000
448.055;  -86.600; -306.000; -261.000
448.177;  256.700;   31.000;   79.000
448.299;   22.000; -935.000; -727.000
448.420;   80.600;  -25.000;  159.000
448.542;  -55.100;   -3.000;   33.000
448.664;   -3.800;  109.000;  322.000
448.785;  -22.600;  265.000;   83.000
448.907; -131.300; -614.000; -353.000
449.028;  -96.700; -771.000; -471.000
449.150;  164.000;  492.000;  589.000
449.272; -324.500;-1044.000; -913.000
449.393;  122.000;  612.000;  694.000
449.515; -221.000; -634.000; -581.000
449.636;  -62.500; -264.000; -155.000
449.758;  231.300;  763.000;  622.000
449.879; -125.400; -498.000; -396.000
450.001; -128.600; -149.000;  -49.000
450.122;  -11.100;  -95.000;  162.000
450.244;   41.200;   37.000;  364.000
450.365; -128.400; -495.000; -301.000
450.486;   13.500;   80.000;  268.000
450.608;  124.000;  393.000;  326.000
450.729;  236.000;  578.000;  645.000
450.850;  108.100; -574.000; -466.000
450.972; 1984.000; -552.000; -389.000
451.093;11673.100;  190.000;  588.000
451.214; 4252.000; -516.000; -337.000
451.336;  863.500;  773.000;  579.000
451.457;  202.000;  264.000;  393.000
451.578;  -36.900; -118.000;  -74.000
451.699; -176.900; -546.000; -540.000
451.821;  -37.700; -284.000;  -50.000
451.942;   69.400;  278.000;  285.000
452.063;  176.800;  228.000;  419.000
452.184; 1455.000;  -54.000;  -49.000
452.305; 2396.500;  103.000;  170.000
452.427;  269.700; -549.000; -301.000
452.548;   -3.100;   23.000;   79.000
452.669;  -79.100; -257.000;  -89.000
452.790;  -60.900;    3.000;  -18.000
452.911;   19.800;  195.000;  259.000
453.032;  -88.100; -289.000;  -60.000
453.153;  -51.000;  -29.000;   81.000
453.274;  191.900;  737.000;  868.000
453.395;  -23.800;  -51.000;  175.000
453.516;  379.900; 1317.000; 1388.000
453.637; -104.200; -205.000; -150.000
453.758;  -39.200;   15.000;   69.000
453.879; -178.500; -462.000; -250.000
454.000;  226.800; 1086.000;  948.000
454.121; -164.700; -554.000; -326.000
454.242; -190.600; -599.000; -383.000
454.362;  -28.400;  -99.000;  114.000
454.483;    4.600; -309.000; -229.000
454.604;  188.300;  512.000;  580.000
454.725; -221.800; -627.000; -555.000
454.846; -214.700; -474.000; -406.000
454.967;   67.000;  230.000;  539.000
455.087;  -24.900;  179.000;  153.000
455.208;   73.600;  554.000;  856.000
455.329;  -90.800;  -22.000;   82.000
455.450;  145.500;  473.000;  633.000
455.570; -119.700; -234.000; -211.000
455.691;  -27.300;  201.000;  407.000
455.812; -158.100; -270.000;  -92.000
455.932;  -50.600;  107.000;  -97.000
456.053;  -87.900;   36.000;   24.000
456.173; -154.800; -433.000; -355.000
456.294; -202.300; -476.000; -303.000
456.415;  -39.900;  -73.000;   70.000
456.535;  -17.400;  297.000;  273.000
456.656;  -12.900;  132.000;  240.000
456.776;  -78.900;    3.000;  298.000
456.897;   45.000;  308.000;  513.000
457.017;  -77.400; -153.000;   -3.000
457.138; -188.600; -402.000; -249.000
457.258;   -1.300;  263.000;  224.000
457.379;   54.500;  509.000;  521.000
457.499;   46.900;  443.000;  432.000
457.620; -153.400; -407.000; -231.000
457.740; -122.700; -132.000;  -11.000
457.860;  -66.000;   87.000;   44.000
457.981;  -22.400;  132.000;  124.000
458.101;  -78.900;  -89.000;   40.000
458.221;   55.500;  336.000;  402.000
458.342;  -45.600;   -4.000;  -37.000
458.462;  139.600;  617.000;  352.000
458.582;    2.400; -302.000; -294.000
458.703;   92.000;  303.000;  154.000
458.823;   20.400;   22.000;  163.000
458.943;  110.700;  341.000;  467.000
459.063;   37.900; 1124.000;  192.000
459.183;    4.000;  328.000;  313.000
459.304;  133.700;  315.000;  517.000
459.424;  -36.800; -246.000;  -89.000
459.544;  848.100;  388.000;  764.000
459.664; 1916.500;  499.000;  506.000
459.784;  672.800; 1004.000; 1175.000
459.904;  197.100;  867.000;  744.000
460.024;  203.400;  867.000;  684.000
460.144;   37.300;  449.000;  554.000
460.264;   41.200;  515.000;  327.000
460.385; -124.000; -145.000; -119.000
460.505;  133.200;  905.000;  858.000
460.625; -126.800;  -17.000;  -68.000
460.745;    7.300;  396.000;  541.000
460.864;  -11.900;  153.000;  469.000
460.984;  110.500;  499.000;  573.000
461.104;  361.300; 1656.000; 1775.000
461.224;  112.600;  657.000;  650.000
461.344;   36.600;  431.000;  360.000
461.464;  -23.500;  258.000;  513.000
461.584;   62.300;  283.000;  466.000
461.704;  -25.800;   58.000;  108.000
461.824;  -55.400;  238.000;  259.000
461.943;  -55.700;  191.000;  130.000
462.063;  -98.300;    2.000;  324.000
462.183;  115.800;  639.000;  717.000
462.303;  292.600; 1678.000; 1230.000
462.422;  120.500;  781.000;  840.000
462.542;  -24.400;  271.000;  391.000
462.662;  153.400;  353.000;  380.000
462.782;  633.100;  833.000;  572.000
462.901; 1133.200;  545.000;  717.000
463.021;  633.200; 1702.000; 1638.000
463.141;   47.000;  337.000;  770.000
463.260;    2.200;  614.000;  474.000
463.380;   69.800;  902.000;  884.000
463.499;  -22.100;  342.000;  332.000
463.619;    7.200;  581.000;  559.000
463.738;  276.200; 1644.000;  903.000
463.858;  101.200;  657.000;  811.000
463.978;  -27.100;  542.000;  396.000
464.097;  167.500;  921.000; 1114.000
464.217;  354.500; 1196.000; 1143.000
464.336;  278.500; 1068.000; 1130.000
464.455;    4.700;  328.000;  659.000
464.575;  148.500;  597.000;  602.000
464.694;  401.700; 1204.000; 1179.000
464.814;  292.100; 1190.000; 1138.000
464.933;  195.300; 1095.000; 1027.000
465.052;  280.300; 1412.000; 1054.000
465.172;  251.600;  922.000;  799.000
465.291;  345.100; 1376.000; 1320.000
465.410;  109.200;  462.000;  735.000
465.530;  249.100; 1355.000; 1310.000
465.649;  221.600; 1209.000; 1273.000
465.768;  363.400; 1673.000; 1508.000
465.888;  185.800;  941.000; 1174.000
466.007;  273.300; 1335.000; 1440.000
466.126;   84.500;  721.000;  641.000
466.245;  171.900; 1176.000; 1187.000
466.364;  118.400;  950.000; 1060.000
466.484;  141.400; 1024.000; 1213.000
466.603;  198.300; 1101.000; 1222.000
466.722;  284.600; 1490.000; 1769.000
466.841;  209.500; 1151.000; 1401.000
466.960;  122.500; 1069.000;  972.000
467.079;  354.400; 1971.000; 1786.000
467.198;  155.100; 1238.000; 1181.000
467.317;  250.800; 1768.000; 1162.000
467.436;  236.300; 1709.000; 1261.000
467.555;  309.600; 1796.000; 1746.000
467.674;  224.100; 1227.000; 1329.000
467.793;  182.300; 1376.000; 1374.000
467.912;  244.100; 1658.000; 1539.000
468.031;  349.300; 2038.000; 1930.000
468.150;  398.000; 1842.000; 1837.000
468.269;  464.900; 2313.000; 2090.000
468.388;  483.100; 2168.000; 2339.000
468.507;  574.900; 2884.000; 2903.000
468.626;  631.000; 2555.000; 2541.000
468.744;  345.700; 2018.000; 2174.000
468.863;  475.400; 2312.000; 2523.000
468.982;  263.700; 1503.000; 1555.000
469.101;  527.800; 2788.000; 2692.000
469.220;  354.400; 2333.000; 2176.000
469.338;  598.500; 2935.000; 3051.000
469.457;  445.100; 2719.000; 2545.000
469.576;  801.300; 3953.000; 3784.000
469.695;  573.600; 2877.000; 3066.000
469.813;  960.900; 4148.000; 4192.000
469.932;  958.100; 4255.000; 4485.000
470.051;  947.400; 4075.000; 4161.000
470.169; 1965.300; 4470.000; 4338.000
470.288; 3320.200; 4700.000; 4809.000
470.406; 1744.200; 5059.000; 5194.000
470.525; 1390.800; 6101.000; 5787.000
470.644; 1371.200; 6847.000; 6794.000
470.762; 1749.600; 8397.000; 7873.000
470.881; 1949.000; 8651.000; 8464.000
470.999; 2171.900; 9685.000; 9151.000
471.118; 2283.100;11174.000;10711.000

