
Integration time [ms]: 100.000
Averaging Nr. [scans]: 40
Smoothing Nr. [pixels]: 0
Data measured with spectrometer [name]: 2101012U2
Wave   ;Sample   ;Dark     ;Reference
[nm]   ;[counts] ;[counts] ;[counts] 

197.733;   57.225;  516.000;  404.000
197.879;  -79.950; -610.000; -634.000
198.025;  -62.500; -475.000; -420.000
198.171;  -73.500; -602.000; -612.000
198.317;  -29.500; -401.000; -316.000
198.463;  -55.275; -655.000; -404.000
198.609;   22.725;  181.000; -137.000
198.755;  -74.775; -644.000; -410.000
198.901;  -80.175; -505.000; -424.000
199.047;  -57.450; -615.000; -488.000
199.193;  -45.900; -230.000; -468.000
199.339;  -50.125; -222.000; -369.000
199.485;   36.125;  330.000;  271.000
199.631;   19.900;  227.000;  310.000
199.777;  -59.800; -466.000; -398.000
199.923;  -62.625; -610.000; -424.000
200.069;   -3.100; -141.000;  -58.000
200.215;   47.250;  128.000;  453.000
200.361;   33.500;  243.000;  477.000
200.507;  -73.325; -600.000; -373.000
200.653;  -29.200; -371.000; -194.000
200.798;  -25.425; -215.000; -125.000
200.944;   -8.325; -146.000;  -41.000
201.090;   40.275;   61.000;  222.000
201.236;    4.150; -116.000; -158.000
201.382;  120.275;  874.000;  903.000
201.528;    0.550;  -58.000;  -48.000
201.674;  -40.175; -386.000; -293.000
201.819;  -71.025; -540.000; -439.000
201.965;  -92.125; -699.000; -447.000
202.111;  -25.700; -273.000; -226.000
202.257;  -37.025; -250.000; -238.000
202.402;    7.375;   13.000;  -36.000
202.548;  -31.500; -169.000; -116.000
202.694;   75.775;  410.000; -183.000
202.840;  -78.050; -603.000; -531.000
202.985;  -84.775; -681.000; -639.000
203.131; -114.950; -832.000; -666.000
203.277;  -18.600; -199.000; -262.000
203.423;  -49.250; -434.000; -520.000
203.568;  -56.675; -462.000; -237.000
203.714;  -70.475; -535.000; -542.000
203.860;  -83.800; -682.000; -641.000
204.005;   20.575;  112.000;  167.000
204.151;   78.900;  561.000;  556.000
204.296;  -40.575; -354.000; -221.000
204.442;  -75.775; -600.000; -547.000
204.588;  -74.400; -592.000; -579.000
204.733;   18.725;  178.000;  168.000
204.879; -125.275;-1018.000; -822.000
205.025;    2.350;  -99.000;  126.000
205.170;   -4.275;  -17.000;   94.000
205.316;   83.275;  438.000;  661.000
205.461;  -80.950; -698.000; -554.000
205.607;   89.500;  609.000;  665.000
205.752;  -76.600; -626.000; -551.000
205.898;  -58.850; -501.000; -391.000
206.043;  -56.475; -578.000; -506.000
206.189;  -42.925; -243.000; -285.000
206.334;   85.275;  554.000;  606.000
206.480;   73.550;  409.000;  239.000
206.625;  -87.775; -529.000; -552.000
206.771;  -61.575; -451.000; -373.000
206.916;  -37.375; -210.000; -537.000
207.062;  -83.600; -545.000; -591.000
207.207;  -64.950; -546.000; -443.000
207.353;   54.275;  185.000;  460.000
207.498;   24.825;  196.000;   85.000
207.643;  -68.750; -501.000; -370.000
207.789; -131.800;-1069.000; -910.000
207.934;  -98.850; -665.000; -713.000
208.080;  -21.750; -154.000;   66.000
208.225;   -8.800;  -22.000;  -57.000
208.370;  -87.900; -727.000; -619.000
208.516;  -70.200; -741.000; -487.000
208.661;  -31.250; -127.000;  -69.000
208.806;  -23.575; -165.000; -171.000
208.952; -118.125;-1044.000; -731.000
209.097;   66.700;  378.000;  349.000
209.242;  -48.125; -307.000; -382.000
209.387;   57.175;  392.000;  350.000
209.533;  -48.475; -321.000; -350.000
209.678;   85.675;  472.000;  543.000
209.823;  -54.050; -408.000; -310.000
209.969; -100.050; -860.000; -757.000
210.114; -113.225; -907.000; -719.000
210.259; -132.025; -939.000; -889.000
210.404;  -19.625; -171.000;  103.000
210.549;    1.250;  108.000;    3.000
210.695;  -13.725;   -3.000;  -95.000
210.840;   20.450;   94.000;   67.000
210.985;  -65.275; -484.000; -303.000
211.130;   62.425;  268.000;  406.000
211.275;   22.400;  207.000;  199.000
211.420;  -55.950; -300.000; -289.000
211.566;  -82.100; -536.000; -489.000
211.711;   15.050;  218.000;  157.000
211.856;  -69.000; -545.000; -519.000
212.001;    1.725;  151.000;   44.000
212.146;   27.875;  153.000;   49.000
212.291;  -26.200; -210.000; -186.000
212.436;  -29.750; -280.000;   -6.000
212.581;  -92.600; -685.000; -653.000
212.726;  -72.725; -487.000; -538.000
212.871;  -49.600; -552.000; -217.000
213.016; -151.375;-1172.000;-1029.000
213.161;   81.975;  406.000;  291.000
213.306;  -75.300; -435.000; -577.000
213.451;  -98.175; -778.000; -689.000
213.596;  -54.325; -455.000; -347.000
213.741;  -55.375; -448.000; -538.000
213.886;  -72.750; -498.000; -517.000
214.031;  -35.675; -294.000; -124.000
214.176;  -51.625; -408.000; -341.000
214.321;  -16.550; -296.000; -157.000
214.466;  -26.850; -163.000;  -43.000
214.611;    0.525;  -61.000;  -10.000
214.756; -110.525; -948.000; -858.000
214.901;  -28.100; -388.000; -226.000
215.046; -122.600; -797.000; -825.000
215.191;    5.375;  128.000;   35.000
215.336;  -13.475; -157.000;  -19.000
215.480;  -63.000; -684.000; -505.000
215.625;  -16.025; -175.000;  -19.000
215.770;  -95.325; -757.000; -662.000
215.915;    9.425;   -5.000;  -97.000
216.060;   -7.850; -113.000;  -21.000
216.205; -121.825; -731.000; -779.000
216.349;  -73.500; -470.000; -533.000
216.494; -145.150; -939.000; -867.000
216.639; -111.900; -823.000; -888.000
216.784;  -89.800; -577.000; -525.000
216.929;   56.075;  392.000;  281.000
217.073;  -21.175; -244.000;  -31.000
217.218;    7.350;   78.000;  -47.000
217.363;  -77.900; -656.000; -618.000
217.507;  -84.250; -623.000; -588.000
217.652; -129.925; -845.000; -874.000
217.797;  -99.050; -708.000; -659.000
217.942; -104.425; -856.000; -720.000
218.086;   72.000;  608.000;  539.000
218.231;  -27.025; -174.000;  -26.000
218.376;  -35.500; -337.000; -229.000
218.520;  -12.425;  -41.000;   96.000
218.665;  -34.650; -338.000; -204.000
218.810;  -33.150; -275.000; -233.000
218.954;   20.750;  201.000;   35.000
219.099; -110.575; -713.000; -963.000
219.243;  -67.925; -589.000; -554.000
219.388;  -21.800; -264.000; -136.000
219.532;  -14.475; -116.000; -116.000
219.677;  -73.450; -564.000; -521.000
219.822;    1.425;   33.000;   89.000
219.966;   -4.000;   17.000;  -99.000
220.111;  -34.725; -328.000;  -40.000
220.255;  -99.325; -797.000; -750.000
220.400;  -25.000; -180.000; -146.000
220.544;  -67.675; -516.000; -450.000
220.689;  -69.875; -422.000; -451.000
220.833;  -19.625; -123.000;  -58.000
220.978;  -50.350; -393.000; -563.000
221.122;   13.725;  319.000;  307.000
221.267; -113.725; -906.000; -837.000
221.411;  -65.575; -478.000; -394.000
221.555;   -9.425; -104.000;  -23.000
221.700;  -57.725; -329.000; -222.000
221.844;   29.925;  255.000;  272.000
221.989;  -52.900; -328.000; -311.000
222.133;  -39.525; -289.000; -307.000
222.277;  -11.625;    5.000;   78.000
222.422;   10.425;  227.000;  113.000
222.566;  -37.600; -381.000; -214.000
222.711;  -66.100; -414.000; -479.000
222.855;  -79.225; -643.000; -586.000
222.999;  -83.475; -642.000; -717.000
223.144;  -21.875; -195.000; -194.000
223.288;   37.325;  423.000;  251.000
223.432;   23.550;  184.000;  230.000
223.576;   13.900;  152.000;  -21.000
223.721;   35.350;  364.000;  273.000
223.865;  -58.500; -472.000; -475.000
224.009;  256.425; 1673.000; 1631.000
224.153;  -85.275; -660.000; -671.000
224.298;  -78.050; -531.000; -489.000
224.442;  -11.900;  -74.000;  -33.000
224.586;   -6.675; -169.000; -106.000
224.730;  -94.050; -858.000; -670.000
224.875; -136.700; -739.000; -688.000
225.019;   22.900;  102.000;  188.000
225.163;   51.825;  208.000;  341.000
225.307;   13.250;   97.000;  -91.000
225.451;   29.750;  360.000;  481.000
225.595;   30.725;  264.000;  176.000
225.739;  -10.925; -170.000;  -94.000
225.884;    7.775;   86.000;    5.000
226.028; -113.250; -760.000; -626.000
226.172;  -48.225; -260.000; -273.000
226.316; -133.175; -941.000; -902.000
226.460;  -76.400; -645.000; -493.000
226.604;  -60.425; -406.000; -400.000
226.748; -103.975; -836.000; -733.000
226.892;  -31.875; -227.000; -181.000
227.036;  -45.400; -537.000; -447.000
227.180;  -68.025; -551.000; -375.000
227.324;  -68.025; -561.000; -580.000
227.468; -105.900; -819.000; -717.000
227.612;   -6.275;  242.000;  -28.000
227.756; -101.050; -845.000; -698.000
227.900;   61.850;  342.000;  441.000
228.044;  -51.200; -509.000; -290.000
228.188;   59.325;  448.000;  568.000
228.332;  -83.425; -546.000; -472.000
228.476;  -43.700; -223.000; -149.000
228.620;  -40.100; -210.000; -150.000
228.764;   66.750;  431.000;  349.000
228.908;  -17.425; -155.000;   30.000
229.052;  -61.075; -615.000; -528.000
229.195;  -21.175; -172.000;   13.000
229.339;  -41.350; -235.000; -305.000
229.483;  -27.950;    5.000; -162.000
229.627;  -16.700; -156.000;  139.000
229.771;  -55.550; -218.000; -294.000
229.915;   14.850;  230.000;   79.000
230.059;  -94.475; -648.000; -663.000
230.202;  -46.975; -370.000; -317.000
230.346;  -13.000; -107.000;  107.000
230.490;  -72.050; -489.000; -521.000
230.634; -126.750; -736.000; -553.000
230.777;   84.300;  478.000;  509.000
230.921;  -58.425; -450.000; -359.000
231.065;  -47.100; -246.000; -286.000
231.209;   17.025;  261.000;  265.000
231.352;    7.925;   54.000;   40.000
231.496;   22.975;  568.000;  188.000
231.640;  -96.550; -693.000; -621.000
231.783;   48.275;  546.000;  525.000
231.927;  -48.975; -294.000; -365.000
232.071; -121.175; -962.000; -736.000
232.214; -118.075; -980.000; -764.000
232.358; -110.025; -683.000; -599.000
232.502;   -0.525;  -19.000;    7.000
232.645; -138.975;-1090.000; -927.000
232.789;  -20.275; -257.000; -218.000
232.933;  -46.800; -407.000; -224.000
233.076; -124.750;-1038.000; -897.000
233.220; -108.775; -752.000; -777.000
233.363;  -87.125; -669.000; -477.000
233.507;   64.500;  371.000;  129.000
233.650;  -94.225; -764.000; -834.000
233.794;   43.675;  438.000;  461.000
233.938;  -78.750; -530.000; -362.000
234.081;  -17.975;  -93.000;   31.000
234.225;  -80.400; -631.000; -539.000
234.368; -112.625; -773.000; -723.000
234.512;  -46.900; -385.000; -299.000
234.655;  -84.075; -582.000; -555.000
234.798;  -73.075; -493.000; -466.000
234.942; -134.200; -884.000;-1002.000
235.085;  -76.750; -651.000; -443.000
235.229;  -74.875; -405.000; -410.000
235.372;  -45.450; -247.000; -191.000
235.516;  -47.900; -397.000; -321.000
235.659;   14.550;   92.000;  121.000
235.802;  -21.900;  -38.000;  -22.000
235.946;   25.450;  335.000;  215.000
236.089;   16.525;  126.000;  250.000
236.233;   60.725;  275.000;  298.000
236.376;  -56.350; -235.000; -378.000
236.519;  -58.075; -297.000; -319.000
236.663;  -22.650; -215.000; -117.000
236.806; -133.450;-1029.000; -999.000
236.949;   41.450;  543.000;  431.000
237.092;   52.900;  412.000;  391.000
237.236;  -90.750; -589.000; -502.000
237.379;   58.375;  352.000;  428.000
237.522; -122.675; -879.000; -768.000
237.666;  -26.675; -271.000;   18.000
237.809; -126.925; -851.000; -823.000
237.952;   26.200;  469.000;  271.000
238.095;  -57.150; -447.000; -442.000
238.238;   93.875;  688.000;  700.000
238.382;   -4.200;  166.000;  103.000
238.525;  -68.000; -598.000; -511.000
238.668; -144.400;-1060.000; -985.000
238.811;  -82.175; -638.000; -643.000
238.954;  -56.800; -483.000; -334.000
239.097;   97.050;  617.000;  664.000
239.241;   22.275;  394.000;  326.000
239.384;  -43.325; -254.000; -214.000
239.527;  -65.300; -424.000; -224.000
239.670; -152.050; -994.000;-1091.000
239.813; -113.225; -696.000; -658.000
239.956;   60.950;  579.000;  473.000
240.099; -115.575; -778.000; -725.000
240.242;   58.650;  428.000;  432.000
240.385;   47.600;  466.000;  450.000
240.528;  -77.675; -706.000; -473.000
240.671;   13.925;  189.000;  134.000
240.814;  -47.425; -441.000; -158.000
240.957; -110.350; -767.000; -578.000
241.100;  -97.125; -779.000; -755.000
241.243; -158.175;-1234.000; -893.000
241.386;  -75.950; -508.000; -379.000
241.529;  -85.250; -735.000; -547.000
241.672;  -67.450; -566.000; -495.000
241.815; -100.125; -832.000; -808.000
241.958;  -26.975; -125.000; -182.000
242.101;  -78.850; -545.000; -390.000
242.244;  -40.050; -270.000; -325.000
242.387;  -40.900; -304.000; -246.000
242.530;   52.175;  470.000;  134.000
242.673;  -46.400; -381.000; -309.000
242.815; -126.825; -925.000; -899.000
242.958;  -79.400; -482.000; -381.000
243.101;    5.100;  132.000;  187.000
243.244;  -86.525; -564.000; -521.000
243.387;  -60.425; -313.000; -316.000
243.530;  -93.750; -657.000; -674.000
243.672;    3.750;   43.000;  -92.000
243.815;  -54.975; -355.000; -283.000
243.958;   -9.425;   98.000;  -26.000
244.101;   -0.775;   59.000;  -16.000
244.243;  -24.800;  -47.000;  101.000
244.386; -125.500; -761.000; -630.000
244.529;  -18.400; -132.000; -139.000
244.672; -155.025;-1154.000; -951.000
244.814;  -99.725; -621.000; -794.000
244.957;  -57.175; -380.000; -304.000
245.100;  -70.425; -489.000; -489.000
245.242;  -60.650; -387.000; -374.000
245.385;   -7.125;  -59.000;  -39.000
245.528; -120.325; -871.000; -705.000
245.670;   87.025;  612.000;  634.000
245.813;  -85.650; -599.000; -547.000
245.956;  -20.525; -324.000; -275.000
246.098;  -72.875; -508.000; -650.000
246.241;    4.750;  194.000;   48.000
246.383;  -11.900; -119.000;  -73.000
246.526;  -69.275; -454.000; -525.000
246.669; -124.200; -889.000; -780.000
246.811;   14.625;  172.000;   -1.000
246.954;  -68.450; -512.000; -426.000
247.096;  -20.875;  -84.000;   -6.000
247.239;  -55.975; -482.000; -445.000
247.381;  -76.025; -647.000; -488.000
247.524;   81.725;  645.000;  679.000
247.666;  -14.325;   58.000;   11.000
247.809; -117.175; -887.000; -691.000
247.951;   -7.575;  -75.000;  138.000
248.094;   32.025;  432.000;  308.000
248.236; -163.350;-1262.000;-1238.000
248.378;   -1.075; -356.000;  -81.000
248.521;  -17.250; -334.000; -337.000
248.663;  -49.000; -236.000; -267.000
248.806;  -36.625; -300.000; -266.000
248.948; -100.725; -886.000; -763.000
249.090;  -48.950; -428.000; -398.000
249.233;  -61.050; -344.000; -381.000
249.375;  -67.200; -474.000; -451.000
249.518;  -12.125;  -83.000; -133.000
249.660;  -13.150; -103.000;    3.000
249.802; -174.050;-1303.000;-1189.000
249.945;  -87.475; -612.000; -540.000
250.087; -116.425; -834.000; -768.000
250.229;  -58.525; -362.000; -480.000
250.371;  -71.150; -494.000; -439.000
250.514;  -62.625; -310.000; -244.000
250.656;   -5.400;   69.000;  102.000
250.798; -126.400; -849.000; -800.000
250.940;  -59.900; -322.000; -322.000
251.083;  -41.800; -335.000; -111.000
251.225;   57.850;  338.000;  310.000
251.367;  -45.125; -274.000; -373.000
251.509;  -45.750; -265.000; -210.000
251.651; -100.825; -731.000; -671.000
251.794;   60.200;  538.000;  632.000
251.936; -113.700; -821.000; -747.000
252.078;  -99.725; -540.000; -461.000
252.220;  -85.250; -645.000; -477.000
252.362;   85.725;  344.000;  462.000
252.504;  -75.575; -677.000; -584.000
252.646; -122.025; -875.000; -722.000
252.788;  -15.250;   14.000; -128.000
252.931;  -44.650; -257.000; -253.000
253.073;  -47.400; -376.000; -317.000
253.215;   -9.125;  141.000;  122.000
253.357;  -24.175;   82.000; -153.000
253.499;  -54.675; -374.000; -234.000
253.641;  -86.900; -749.000; -594.000
253.783;  -91.725; -609.000; -527.000
253.925;  -86.400; -586.000; -591.000
254.067; -104.725; -744.000; -667.000
254.209;  -50.050; -391.000; -259.000
254.351; -131.700; -865.000; -883.000
254.493;  -67.475; -441.000; -417.000
254.635; -122.100; -936.000; -818.000
254.777;  -89.875; -752.000; -687.000
254.918;  -66.225; -512.000; -430.000
255.060;  -59.850; -551.000; -395.000
255.202;  -62.250; -473.000; -261.000
255.344;  -79.450; -658.000; -455.000
255.486;  -65.625; -471.000; -406.000
255.628; -125.950; -780.000; -781.000
255.770;  -94.875; -676.000; -536.000
255.912;  -68.075; -559.000; -468.000
256.053;  -89.175; -730.000; -508.000
256.195;  151.625; 1008.000;  903.000
256.337;  -98.225; -861.000; -595.000
256.479;   61.425;  532.000;  416.000
256.621;  -45.475; -394.000; -212.000
256.762; -113.375; -789.000; -742.000
256.904;   51.950;  485.000;  487.000
257.046;  -47.475; -381.000; -271.000
257.188;  -48.175; -351.000; -264.000
257.329;  -86.175; -525.000; -464.000
257.471; -117.500; -939.000; -807.000
257.613;  -65.500; -584.000; -498.000
257.755; -133.100;-1073.000; -982.000
257.896;   30.725;  286.000;  392.000
258.038;  -74.100; -403.000; -352.000
258.180;  -43.950; -354.000; -279.000
258.321;  -85.925; -581.000; -457.000
258.463;   -9.275;  -71.000;  133.000
258.605; -101.225; -562.000; -570.000
258.746; -113.450; -886.000; -772.000
258.888; -157.525;-1026.000;-1020.000
259.029;   24.650;  121.000;   -8.000
259.171; -100.125; -614.000; -550.000
259.313;    4.900;  -49.000;  -47.000
259.454;  -73.900; -536.000; -414.000
259.596;  -64.950; -483.000; -390.000
259.737;  -81.450; -590.000; -474.000
259.879;   27.600;  217.000;  311.000
260.020;   86.175;  901.000;  636.000
260.162;  -30.400; -146.000; -253.000
260.303; -123.950; -768.000; -687.000
260.445;  -95.425; -609.000; -613.000
260.586;   26.875;  392.000;  157.000
260.728;  -47.725; -360.000; -248.000
260.869; -112.125; -350.000; -343.000
261.011;   82.375;  706.000;  537.000
261.152;  -72.350; -479.000; -319.000
261.293;  -85.300; -576.000; -595.000
261.435;  -41.950; -219.000; -184.000
261.576;  -59.675; -455.000; -325.000
261.718;   45.575;  420.000;  470.000
261.859; -126.825; -940.000; -949.000
262.000; -137.300; -951.000;-1016.000
262.142;  -34.575;  -52.000;  -60.000
262.283; -113.125; -808.000; -691.000
262.424; -105.625; -666.000; -625.000
262.566; -168.650;-1161.000; -983.000
262.707; -121.275; -840.000; -830.000
262.848; -120.400; -769.000; -726.000
262.990;  -40.850; -362.000; -345.000
263.131;   85.925;  650.000;  681.000
263.272;  -15.150;  -61.000;  -41.000
263.413; -109.500; -589.000; -561.000
263.555;  -72.600; -669.000; -143.000
263.696;  -93.675; -550.000; -641.000
263.837;  -72.925; -449.000; -551.000
263.978;   -5.300;   -5.000;  -77.000
264.119;  -47.800; -283.000; -264.000
264.261; -122.175; -847.000; -630.000
264.402;   -4.575;   33.000;   40.000
264.543;  -82.075; -509.000; -524.000
264.684;  -22.725;   61.000;  -50.000
264.825;  -80.825; -816.000; -538.000
264.966;  -17.725;  -84.000;  -67.000
265.107; -120.025; -646.000; -670.000
265.248; -126.950; -825.000; -812.000
265.390;  -20.950;  152.000;   -9.000
265.531;  -34.875; -238.000; -107.000
265.672;  -95.075; -557.000; -630.000
265.813;   53.150;  563.000;  439.000
265.954; -153.825; -959.000; -940.000
266.095;  -16.550; -372.000; -322.000
266.236; -114.950; -686.000; -548.000
266.377;  -63.750; -243.000; -297.000
266.518;  -70.200; -619.000; -547.000
266.659;   38.675;  170.000;  268.000
266.800;   10.225;   83.000;   85.000
266.941;  -80.925; -487.000; -478.000
267.082;   25.400;  354.000;   99.000
267.223;  -66.175; -344.000; -273.000
267.364; -118.200; -892.000; -686.000
267.504;  -20.575;    3.000;  135.000
267.645;  -14.225;  160.000;   67.000
267.786;  -40.850; -147.000;  -86.000
267.927;  -76.850; -473.000; -379.000
268.068;  -28.550; -186.000;  -61.000
268.209;  -55.550; -175.000; -413.000
268.350;  -64.975; -388.000; -532.000
268.490;  -90.125; -648.000; -521.000
268.631;   21.200;  127.000;  225.000
268.772; -112.875; -874.000; -647.000
268.913;  -59.350; -328.000; -476.000
269.054;  -25.450; -117.000;   12.000
269.194;  -54.625; -418.000; -402.000
269.335; -155.050;-1137.000;-1074.000
269.476;  -31.975;   33.000;  -35.000
269.617;  -44.000; -347.000; -392.000
269.757;  -96.025; -713.000; -646.000
269.898; -118.425; -856.000; -613.000
270.039;  -61.075; -415.000; -405.000
270.180; -138.875; -952.000; -816.000
270.320;  -31.350; -190.000; -250.000
270.461;  -54.675; -277.000; -249.000
270.602;  -29.075; -186.000; -156.000
270.742; -123.500; -868.000; -943.000
270.883;  -69.450; -442.000; -390.000
271.023;  -56.075; -358.000; -357.000
271.164;  -79.925; -607.000; -528.000
271.305; -105.450; -666.000; -654.000
271.445; -106.175; -722.000; -683.000
271.586;  -71.325; -462.000; -283.000
271.726;  -63.900; -397.000; -322.000
271.867;  -69.500; -594.000; -534.000
272.008;  149.475; -473.000; -285.000
272.148;  120.650;  462.000;  468.000
272.289;   -5.050; -113.000; -181.000
272.429;    8.950;   19.000;  185.000
272.570;  -93.625; -633.000; -737.000
272.710; -112.925; -825.000; -775.000
272.851;  -32.175;  113.000; -130.000
272.991; -171.600;-1173.000;-1077.000
273.131;  -80.175; -419.000; -459.000
273.272; -101.650; -683.000; -723.000
273.412;   -0.525; -143.000;  -31.000
273.553;  -49.600; -488.000; -507.000
273.693;  141.100;  913.000;  858.000
273.834;  -93.350; -894.000; -692.000
273.974;  -90.225; -664.000; -615.000
274.114; -105.150; -772.000; -560.000
274.255;   78.775;  414.000;  373.000
274.395;  -15.100; -180.000; -125.000
274.535;   34.150;  199.000;  350.000
274.676;   18.050;  225.000;   94.000
274.816;   -2.650;  110.000;   34.000
274.956;  -93.375; -624.000; -690.000
275.097;  -76.200;-1014.000; -922.000
275.237; -124.050; -913.000; -803.000
275.377; -107.150; -778.000; -689.000
275.517; -151.825; -878.000; -937.000
275.658;  -68.875; -590.000; -555.000
275.798;  -82.425; -606.000; -413.000
275.938;   -2.425;  215.000;  323.000
276.078; -113.225; -626.000; -395.000
276.218;    7.550;   99.000;  104.000
276.359; -140.825;-1026.000;-1024.000
276.499;  -77.125; -605.000; -446.000
276.639;  -29.575; -305.000; -151.000
276.779;  -49.450; -475.000; -357.000
276.919; -107.275; -783.000; -624.000
277.059;  -28.625; -261.000; -212.000
277.199;  -50.900; -357.000; -259.000
277.340;   33.025;  287.000;  175.000
277.480; -104.775; -840.000; -693.000
277.620;   30.600;  192.000;   16.000
277.760; -200.775;-1533.000;-1294.000
277.900;   -1.650;  113.000;   33.000
278.040;   10.775;  137.000;  159.000
278.180;   12.500;  270.000;  170.000
278.320;   -5.100;   21.000;   56.000
278.460;  -74.075; -443.000; -469.000
278.600;  -93.575; -708.000; -598.000
278.740;   47.075;  448.000;  224.000
278.880;  -74.125; -768.000; -791.000
279.020;  -19.400; -194.000; -144.000
279.160;  -98.450; -672.000; -595.000
279.300; -128.675; -926.000; -873.000
279.440;  -95.000; -709.000; -622.000
279.579;  -38.900;-1014.000; -929.000
279.719;  -50.375; -410.000; -394.000
279.859;   53.075;   -4.000;   41.000
279.999;   17.850; -208.000;  101.000
280.139;  -21.850; -435.000; -387.000
280.279;  -74.300; -708.000; -745.000
280.419;  -20.600; -229.000; -147.000
280.559;  -42.100; -259.000; -180.000
280.698;  -89.600; -790.000; -639.000
280.838; -103.100; -778.000; -800.000
280.978; -109.725; -846.000; -790.000
281.118; -125.575; -811.000; -704.000
281.257;    4.725;   24.000;    6.000
281.397; -133.900;-1094.000; -960.000
281.537; -100.200; -599.000; -712.000
281.677;  -24.225; -150.000; -101.000
281.816;  -97.225; -700.000; -630.000
281.956;  -32.000; -193.000; -257.000
282.096;  -71.225; -539.000; -396.000
282.235; -107.075; -672.000; -638.000
282.375;  -28.000; -243.000;  -98.000
282.515; -113.950; -715.000; -707.000
282.654;   16.800;   29.000;  106.000
282.794;   17.200;  388.000;  244.000
282.934;  -64.125; -530.000; -491.000
283.073; -149.900;-1030.000; -857.000
283.213;  -61.575; -460.000; -467.000
283.353;  -44.975; -408.000; -349.000
283.492;  -42.250; -264.000; -296.000
283.632;  -41.600; -254.000; -168.000
283.771; -109.100; -859.000; -730.000
283.911;  -52.350; -369.000; -260.000
284.050; -111.025; -794.000; -748.000
284.190; -178.225;-1229.000;-1096.000
284.329; -151.675;-1055.000; -964.000
284.469;  -84.425; -516.000; -591.000
284.608;  -70.725; -559.000; -598.000
284.748;  -87.550; -614.000; -570.000
284.887;  -18.625;  -87.000;  -20.000
285.027; -124.850; -844.000; -892.000
285.166;  -48.200; -192.000; -249.000
285.306;    0.250; -116.000;  -33.000
285.445;  -46.100; -229.000; -343.000
285.584;  -94.175; -630.000; -494.000
285.724;  -51.675; -282.000; -322.000
285.863; -124.450; -857.000; -507.000
286.002;  -49.375; -366.000; -276.000
286.142; -109.500; -715.000; -622.000
286.281;  -70.425; -525.000; -493.000
286.420;  -79.300; -554.000; -417.000
286.560;  108.950;  653.000;  623.000
286.699; -136.525; -958.000; -912.000
286.838;  -98.525; -590.000; -591.000
286.978;  -89.200; -533.000; -537.000
287.117; -137.325;-1085.000; -950.000
287.256;  -37.375; -228.000; -211.000
287.395;  -54.575; -197.000; -378.000
287.535;  -57.450; -370.000; -298.000
287.674;  -83.150; -509.000; -484.000
287.813;   38.375;  661.000;  533.000
287.952; -146.900;-1010.000; -871.000
288.091; -156.475;-1049.000; -915.000
288.231;  -11.550;   13.000;   15.000
288.370; -176.475;-1217.000;-1200.000
288.509;  -86.450; -728.000; -645.000
288.648;  -85.025; -770.000; -548.000
288.787;  -49.025; -243.000;  -87.000
288.926;  -62.800; -454.000; -475.000
289.065;  111.450;  859.000;  672.000
289.204;  -49.875; -377.000; -217.000
289.344; -111.525; -791.000; -690.000
289.483;   15.325;  416.000;  304.000
289.622;  -33.250; -291.000; -149.000
289.761;  -21.600; -309.000; -166.000
289.900; -104.625; -785.000; -626.000
290.039;  -18.750;  -12.000;  -95.000
290.178;  -57.100; -274.000; -180.000
290.317;  -89.450; -618.000; -479.000
290.456;  -75.125; -463.000; -451.000
290.595; -159.475; -961.000; -833.000
290.734; -147.375; -904.000; -891.000
290.873;  -66.650; -456.000; -420.000
291.011; -116.650; -833.000; -843.000
291.150; -105.275; -770.000; -682.000
291.289;  -35.875; -343.000; -110.000
291.428; -101.875; -599.000; -480.000
291.567;  -62.525; -370.000; -442.000
291.706;  -13.075;  109.000;  154.000
291.845; -101.600; -597.000; -505.000
291.984; -170.050;-1234.000;-1061.000
292.122;   56.125;  602.000;  582.000
292.261;   39.100;  620.000;  463.000
292.400;    9.225; -144.000;  211.000
292.539; -130.075; -959.000; -813.000
292.678;  -36.875; -325.000; -300.000
292.816; -161.075;-1136.000; -965.000
292.955; -102.550; -844.000; -684.000
293.094;  -26.650; -173.000; -337.000
293.233;  -48.100; -556.000; -400.000
293.371;  -48.825; -225.000;  -84.000
293.510; -121.675; -866.000; -780.000
293.649; -131.425; -959.000; -924.000
293.787;  -85.275;-1083.000;-1012.000
293.926;   -2.675; -113.000;  -32.000
294.065;  -58.775; -379.000; -290.000
294.203;   41.600;  298.000;  406.000
294.342;    8.725;   74.000;  156.000
294.481; 6183.575;51180.000; -836.000
294.619;  -50.300; -425.000; -582.000
294.758; -146.250;-1230.000;-1137.000
294.896;   44.775; -125.000;    5.000
295.035; -128.325;-1040.000;-1006.000
295.174; -137.250;-1082.000; -954.000
295.312;  -44.200; -323.000; -203.000
295.451;  -24.825; -307.000; -428.000
295.589;  -62.600; -389.000; -518.000
295.728;   15.375; -292.000; -165.000
295.866;   -1.950;  -36.000;  -51.000
296.005;  -65.925; -584.000; -341.000
296.143;  -80.225; -558.000; -596.000
296.282; -124.025; -957.000; -881.000
296.420;  -98.875; -657.000; -557.000
296.559;  -86.925; -892.000; -633.000
296.697;   -7.475; -847.000; -665.000
296.835;   28.700;-1141.000;-1002.000
296.974;   34.000;  -23.000;   39.000
297.112;  -17.750; -443.000; -504.000
297.251;  -93.075; -815.000; -755.000
297.389;   63.900; -576.000; -438.000
297.527;   22.100; -145.000;  -83.000
297.666;  -57.300; -486.000; -438.000
297.804;  -64.475; -404.000; -264.000
297.942;  -16.150; -136.000; -161.000
298.081;  -26.525; -183.000;   63.000
298.219;   44.900;  -17.000;  -19.000
298.357;   31.175; -144.000;  -71.000
298.495;   12.900; -810.000; -812.000
298.634;   60.600;  245.000;  219.000
298.772;   26.225; -220.000; -338.000
298.910;  -52.975; -309.000; -182.000
299.048;  -18.625; -130.000; -153.000
299.187;  -29.950; -350.000; -250.000
299.325;   11.175;   52.000;  122.000
299.463;   26.900; -389.000; -299.000
299.601;   78.500; -327.000; -271.000
299.739; -113.450; -908.000; -883.000
299.877;  -96.275; -791.000; -703.000
300.016;  -62.825;-1095.000; -935.000
300.154;  120.025;  -19.000; -161.000
300.292;   35.425; -428.000; -348.000
300.430;    7.000; -408.000; -291.000
300.568; -105.250; -940.000; -874.000
300.706;  -73.075; -366.000; -469.000
300.844; -104.475;-1108.000; -979.000
300.982;  111.800;  246.000;  282.000
301.120; -113.625; -965.000; -866.000
301.258;  -83.175; -812.000; -705.000
301.396;   30.825;  104.000;  -41.000
301.534;   50.825; -218.000; -293.000
301.672;  -46.650; -664.000; -521.000
301.810;    7.650; -613.000; -545.000
301.948;   95.075;   53.000;  149.000
302.086;  543.225; -250.000;  -32.000
302.224;  796.825; -610.000; -585.000
302.362;    4.500; -558.000; -622.000
302.500;  -49.925; -923.000; -893.000
302.638;   84.950;  128.000;  245.000
302.776;  -13.575; -352.000; -408.000
302.913;   42.625;  447.000;  236.000
303.051;   -9.775;  -86.000;  -23.000
303.189;   32.675;   90.000;  118.000
303.327;  -25.450; -341.000; -256.000
303.465;  -88.275; -832.000; -588.000
303.603; -108.475; -805.000; -604.000
303.740;   77.750;  417.000;  241.000
303.878;  -24.775; -800.000; -759.000
304.016;  -99.150; -915.000; -790.000
304.154; -129.100;-1123.000;-1152.000
304.291;  -56.950; -505.000; -554.000
304.429;    6.725;  102.000;   74.000
304.567; -134.350; -908.000; -893.000
304.705;  -61.225; -408.000; -515.000
304.842;   43.425; -616.000; -540.000
304.980;   51.900;  215.000;   35.000
305.118;   25.925; -367.000; -365.000
305.255;  -90.875; -945.000; -927.000
305.393;   48.875;  178.000;  239.000
305.531; -119.900;-1173.000; -956.000
305.668;  -69.325; -663.000; -582.000
305.806;   71.375; -358.000; -439.000
305.943;   67.850; -629.000; -637.000
306.081;   38.075; -378.000; -267.000
306.219; -100.750; -863.000; -748.000
306.356;   -5.125;  158.000;   27.000
306.494;  108.300;  981.000;  761.000
306.631;  -14.100;  -11.000;  -55.000
306.769;  -17.450; -613.000; -485.000
306.906;  -34.000; -284.000; -258.000
307.044;  -69.925; -473.000; -488.000
307.181;  -66.350; -410.000; -332.000
307.319;    2.325;  112.000;   87.000
307.456; -189.375;-1191.000;-1153.000
307.594; -112.600; -980.000; -727.000
307.731;  -19.875; -371.000; -164.000
307.868;   -9.650;  -15.000;   20.000
308.006; -140.900; -961.000; -847.000
308.143;  -89.700; -618.000; -330.000
308.281;  100.350;  -37.000; -254.000
308.418;  -54.625; -748.000; -640.000
308.555;  -71.025; -400.000; -250.000
308.693;  -76.150; -577.000; -573.000
308.830; -109.700; -712.000; -657.000
308.967;  -14.900; -215.000;  -95.000
309.105;  -52.150; -507.000; -396.000
309.242;   -4.675; -468.000; -367.000
309.379;  202.775; -577.000; -655.000
309.517;  -97.775; -936.000; -948.000
309.654; -122.650; -910.000; -734.000
309.791;  -91.975; -662.000; -580.000
309.928; -123.400; -977.000; -914.000
310.065;  178.425;  819.000;  697.000
310.203;  -28.250; -825.000; -850.000
310.340;  -30.675; -465.000; -321.000
310.477;  -86.850; -412.000; -516.000
310.614;  -76.850; -383.000; -473.000
310.751;  -83.050; -427.000; -518.000
310.889;  -30.275;    1.000;   11.000
311.026; -164.600;-1161.000; -939.000
311.163;  -59.575; -386.000; -380.000
311.300;  -81.100; -512.000; -479.000
311.437;  -75.325; -658.000; -619.000
311.574; -182.025;-1226.000; -985.000
311.711;  -78.550; -595.000; -433.000
311.848;  -50.725; -380.000; -388.000
311.985;   -0.825;  270.000;   93.000
312.122; -139.400; -932.000; -762.000
312.259; -134.375; -941.000; -994.000
312.396;  -94.425; -508.000; -551.000
312.533;  -89.475; -812.000; -790.000
312.670; -142.325;-1070.000; -898.000
312.807;  -46.300; -352.000; -367.000
312.944;  -87.775; -513.000; -611.000
313.081;  -38.025; -150.000; -415.000
313.218; -110.075;-1111.000; -867.000
313.355;   -1.775; -531.000; -449.000
313.492;  -12.375; -455.000; -292.000
313.629;  133.250;  815.000;  735.000
313.766; -161.925;-1176.000;-1008.000
313.902;  -32.975; -186.000;   21.000
314.039;  -54.300; -372.000; -289.000
314.176;   17.625;  286.000;  192.000
314.313;  -81.525; -569.000; -473.000
314.450;  -89.475; -788.000; -684.000
314.587;  -72.600; -468.000; -480.000
314.723;   -4.850;  -78.000;  130.000
314.860;   17.100;  318.000;  332.000
314.997;   24.200;  223.000;  142.000
315.134;  -52.250; -385.000; -368.000
315.270;  -56.400; -480.000; -496.000
315.407; -142.600;-1094.000; -967.000
315.544;  -71.075; -657.000; -538.000
315.681;  -64.750; -681.000; -565.000
315.817;    3.975; -133.000; -176.000
315.954;   10.500; -613.000; -392.000
316.091; -131.550;-1045.000;-1023.000
316.227;  -31.675;  -71.000; -179.000
316.364;   -2.400;   23.000;    6.000
316.500;  -35.800; -113.000; -300.000
316.637;  -64.775; -181.000; -302.000
316.774;  -91.050; -625.000; -358.000
316.910;  -88.550; -598.000; -629.000
317.047;  -70.100; -487.000; -351.000
317.183;  -66.300; -435.000; -566.000
317.320;  -14.750; -367.000; -321.000
317.456;  -83.825; -733.000; -805.000
317.593; -105.975; -598.000; -641.000
317.729;  -11.375;  168.000;  -67.000
317.866; -208.225;-1434.000;-1285.000
318.002;  -86.650; -708.000; -948.000
318.139; -111.100; -883.000; -867.000
318.275; -117.050;-1003.000; -738.000
318.412;  -80.600; -517.000; -336.000
318.548;  -56.225; -751.000; -720.000
318.685; -115.850; -985.000; -888.000
318.821; -108.375; -762.000; -735.000
318.957;  -41.275;   34.000;  -23.000
319.094;   37.550;  297.000;  154.000
319.230;  -78.000; -756.000; -742.000
319.367;   90.700; -471.000; -520.000
319.503;   43.050; -538.000; -436.000
319.639; -105.600; -877.000; -793.000
319.775;  -77.550; -750.000; -685.000
319.912;  -59.600; -424.000; -519.000
320.048; -104.425;-1184.000;-1184.000
320.184;   77.000;   59.000;   70.000
320.321;  -59.300; -497.000; -467.000
320.457;   50.325;  475.000;  662.000
320.593;  -80.725; -375.000; -382.000
320.729; -117.775; -732.000; -734.000
320.866;  -84.200; -577.000; -635.000
321.002;  -90.775; -759.000; -809.000
321.138;  -17.225; -135.000; -211.000
321.274;   63.325; -148.000; -115.000
321.410;  -45.100; -585.000; -353.000
321.546;  -55.875;-1011.000; -911.000
321.683;   49.100;  400.000;  185.000
321.819;   -6.425;  -48.000; -117.000
321.955; -114.900; -743.000; -722.000
322.091;  -58.400; -585.000; -540.000
322.227;  -16.175; -382.000; -202.000
322.363;  -23.625; -320.000; -215.000
322.499;  -55.400; -343.000; -331.000
322.635;  135.950;  636.000;  443.000
322.771;   17.350; -139.000;   12.000
322.907;   73.650;  129.000;  327.000
323.043;  -30.825; -115.000; -206.000
323.179;  -59.300; -394.000; -363.000
323.315;   -2.850; -401.000; -371.000
323.451;   56.200; -328.000; -236.000
323.587;   49.675;  -60.000;  -77.000
323.723;  -10.825; -682.000; -601.000
323.859;  -20.925; -258.000;  -76.000
323.995;  -46.350; -467.000; -409.000
324.131; -134.000; -967.000; -892.000
324.267;  -51.425; -254.000; -276.000
324.402; -137.425; -960.000; -983.000
324.538;  -27.150; -279.000; -104.000
324.674;   14.425;  164.000;   77.000
324.810;   87.525;  226.000;  308.000
324.946;  -15.225; -810.000; -658.000
325.082;  -70.800; -568.000; -475.000
325.217;  -19.550;  -62.000;   16.000
325.353; -105.325; -764.000; -659.000
325.489;  -88.850; -540.000; -506.000
325.625;  -83.125; -579.000; -525.000
325.760;   45.725;  517.000;  376.000
325.896;  -36.800; -515.000; -702.000
326.032;  -62.225; -403.000; -352.000
326.168;  -70.150; -462.000; -369.000
326.303;  -50.850; -352.000; -461.000
326.439;  -31.875; -336.000; -276.000
326.575;    2.625; -190.000;  -29.000
326.710;  -21.275; -156.000;  -30.000
326.846;  -18.925;  146.000;  103.000
326.982;  -92.625; -530.000; -548.000
327.117;  -76.225; -481.000; -442.000
327.253; -100.800; -745.000; -742.000
327.388; -149.425;-1137.000;-1153.000
327.524;  -74.850; -811.000; -578.000
327.659;  -29.250;  -58.000;  -22.000
327.795;  -28.300;   69.000;   45.000
327.931;  -80.675; -723.000; -499.000
328.066;  -35.275; -417.000; -276.000
328.202;  -40.375;   12.000; -129.000
328.337;   98.300;  957.000;  713.000
328.473;   26.750;  -12.000;  -74.000
328.608;  -28.325; -256.000; -267.000
328.743;  -98.050; -799.000; -664.000
328.879;    8.450;  214.000;  114.000
329.014;  -48.350; -102.000; -122.000
329.150;  -92.825; -358.000; -483.000
329.285;  -86.550; -465.000; -466.000
329.421;  -62.950; -548.000; -246.000
329.556;  -18.575;  -36.000;   85.000
329.691; -104.075; -633.000; -615.000
329.827;  -96.250; -626.000; -480.000
329.962;  -58.100;  131.000; -301.000
330.097;  -99.500; -673.000; -585.000
330.233;  -64.925; -410.000; -223.000
330.368; -130.050; -839.000; -628.000
330.503;  -13.925;    3.000;   98.000
330.638;   -7.700;  -93.000; -125.000
330.774;  -78.025; -609.000; -530.000
330.909;  -46.975; -434.000; -244.000
331.044; -105.175; -714.000; -708.000
331.179; -176.125;-1217.000;-1109.000
331.315;    2.325;   77.000;   20.000
331.450;    1.375;  157.000;  285.000
331.585;  -98.650; -805.000; -706.000
331.720; -103.650; -510.000; -460.000
331.855;  -18.350;  -35.000; -102.000
331.990;  252.875;   62.000;  138.000
332.126;  127.075; -110.000;   71.000
332.261;  -14.050; -379.000; -265.000
332.396;  -11.700; -135.000; -242.000
332.531; -101.800;-1074.000;-1031.000
332.666;   39.075; -519.000; -363.000
332.801; -116.200; -726.000; -807.000
332.936;  -26.725; -192.000; -122.000
333.071; -148.925; -870.000; -817.000
333.206;    4.075;  307.000;  379.000
333.341;   33.450;  344.000;  418.000
333.476;  -96.575; -627.000; -623.000
333.611;  -48.475; -251.000; -173.000
333.746;  -56.325; -381.000; -464.000
333.881; -140.450; -973.000; -935.000
334.016; -137.875; -936.000; -917.000
334.151; -132.050; -746.000; -702.000
334.286;    9.250;  152.000;  186.000
334.421;  -38.950; -125.000; -178.000
334.556;  -82.375; -611.000; -567.000
334.690;  -99.325; -631.000; -577.000
334.825;   38.925;  381.000;   83.000
334.960;  -58.325; -285.000; -413.000
335.095;   -6.275;  135.000;  -91.000
335.230; -113.450; -722.000; -738.000
335.365; -138.475;-1084.000; -990.000
335.499; -143.975;-1108.000;-1037.000
335.634;    7.325;    9.000;  534.000
335.769; -104.550; -755.000; -720.000
335.904;  -78.575; -603.000; -561.000
336.038;  -77.950; -735.000; -657.000
336.173; -124.375;-1206.000;-1194.000
336.308;  -19.075; -116.000; -189.000
336.443;  -16.200; -544.000; -634.000
336.577;  -82.400; -936.000; -787.000
336.712;   42.675;   -4.000;  -12.000
336.847;  -48.425; -724.000; -607.000
336.981;   38.750; -272.000; -208.000
337.116;  256.675;  615.000;  501.000
337.250;  109.900; -434.000; -421.000
337.385;  270.225; -297.000; -208.000
337.520;  102.975; -632.000; -603.000
337.654;  -39.025; -215.000; -126.000
337.789; -134.775; -989.000; -933.000
337.923;  -39.600; -104.000; -205.000
338.058;  -99.450; -673.000; -738.000
338.192;  -48.125; -611.000; -488.000
338.327;  -20.900;  -18.000; -155.000
338.461;  -70.450; -299.000; -469.000
338.596;  -96.225; -780.000; -638.000
338.730; -103.975; -767.000; -803.000
338.865;   89.100;  -46.000; -140.000
338.999;  -62.425; -846.000; -702.000
339.134;  -14.725; -634.000; -536.000
339.268;   -5.150; -741.000; -603.000
339.403;  373.400; -740.000; -775.000
339.537;   98.975; -894.000; -820.000
339.671; -115.650; -829.000; -813.000
339.806;  -63.825; -556.000; -512.000
339.940;   11.200; -261.000; -235.000
340.074; -120.900; -685.000; -510.000
340.209;  -51.225; -351.000; -230.000
340.343;  -89.425; -517.000; -573.000
340.477;  138.900;  998.000; 1036.000
340.612;  -56.775;-1033.000; -900.000
340.746;  130.000; -199.000; -243.000
340.880;  -84.775; -924.000; -785.000
341.014;  -29.275;  -45.000; -154.000
341.149; -121.850; -756.000; -718.000
341.283; -127.050; -839.000; -754.000
341.417; -127.000;-1124.000; -938.000
341.551;   96.150; -768.000; -708.000
341.685;  -47.475; -633.000; -611.000
341.820;  -62.150; -562.000; -493.000
341.954;  -58.750; -218.000; -349.000
342.088; -162.300;-1102.000;-1019.000
342.222;   48.700;  565.000;  618.000
342.356;  -71.325; -395.000; -335.000
342.490; -110.750; -880.000; -841.000
342.624;  -59.450; -339.000; -242.000
342.758;  -10.975; -364.000; -312.000
342.892;  -79.425; -710.000; -585.000
343.026;  -43.450;  -58.000; -116.000
343.160;  -56.400; -426.000; -376.000
343.294;  -85.925; -474.000; -337.000
343.428;  -32.900; -488.000; -448.000
343.562;  -15.750; -172.000;  -23.000
343.696;  -35.975; -385.000; -314.000
343.830;  -30.975; -362.000; -356.000
343.964;   -3.150; -231.000; -168.000
344.098;  806.200;  199.000;   70.000
344.232;  655.925; -266.000; -127.000
344.366;   66.475; -567.000; -453.000
344.500;   13.700; -665.000; -744.000
344.634;   -7.825; -324.000; -164.000
344.768;  -31.450; -531.000; -341.000
344.902;    6.800;  278.000;  256.000
345.035;  -78.925; -556.000; -496.000
345.169; -153.700; -933.000; -656.000
345.303;  -53.675; -308.000; -482.000
345.437;  -82.950; -826.000; -717.000
345.571;  -92.250; -675.000; -594.000
345.704;  -71.600; -309.000; -532.000
345.838;  -14.325; -331.000; -284.000
345.972;  -56.700; -543.000; -495.000
346.106;  159.525; -179.000; -190.000
346.239;  400.750; -312.000; -243.000
346.373;  -13.850; -343.000; -302.000
346.507; -136.300; -950.000; -962.000
346.640;  112.450;  -30.000;   13.000
346.774;  -59.575; -650.000; -797.000
346.908;  -27.150; -138.000;  -11.000
347.041;  -93.725; -646.000; -593.000
347.175;  -18.850;  259.000;   27.000
347.309;  -74.125; -698.000; -628.000
347.442; -122.750; -883.000; -732.000
347.576;  245.200;  670.000;  668.000
347.709;  153.675; -123.000;  -52.000
347.843;  -99.600; -933.000; -825.000
347.976;   34.650;  235.000;  294.000
348.110; -194.250;-1268.000;-1186.000
348.243; -105.025; -679.000; -772.000
348.377;    1.275;  -26.000;   60.000
348.510;   53.000;  403.000;  540.000
348.644;  -32.875;  -37.000; -159.000
348.777;  -15.175;  180.000;  191.000
348.911;  -54.800; -142.000; -112.000
349.044;  145.525;  471.000;  448.000
349.178;  108.975;-1069.000;-1006.000
349.311;   92.850;  141.000;  255.000
349.444;   -6.725; -927.000; -813.000
349.578;  -29.400; -347.000; -200.000
349.711; -116.275; -959.000; -862.000
349.845;  -20.300; -661.000; -591.000
349.978; -156.025;-1224.000;-1137.000
350.111;  -97.075; -546.000; -612.000
350.244;  -90.375; -596.000; -700.000
350.378;  -16.225; -392.000; -393.000
350.511;  -67.200; -393.000; -426.000
350.644; -115.350; -808.000; -806.000
350.778;    9.000;  168.000;  104.000
350.911;   -3.700;  134.000;  140.000
351.044; -100.475; -685.000; -615.000
351.177;  -49.225; -321.000; -281.000
351.310;  -33.975;    3.000; -131.000
351.444;  -95.550; -888.000; -788.000
351.577;   94.300;  140.000;   90.000
351.710;   93.950;  593.000;  417.000
351.843;  -33.800; -165.000;  -77.000
351.976;   -4.700;  149.000;  -79.000
352.109;  -95.750; -621.000; -612.000
352.242;  -45.300; -464.000; -419.000
352.376;  -74.850; -580.000; -636.000
352.509;  115.875; -437.000; -356.000
352.642;  -21.825; -654.000; -604.000
352.775;   43.625; -141.000;  -98.000
352.908; -136.725; -933.000; -904.000
353.041; -117.500; -814.000; -824.000
353.174;  -65.525; -551.000; -424.000
353.307;  -95.650; -753.000; -764.000
353.440;   55.625;  541.000;  453.000
353.573; -129.775; -957.000;-1008.000
353.706;  -79.575; -384.000; -558.000
353.839;  -23.050; -264.000; -220.000
353.971;  -98.625; -657.000; -512.000
354.104;  -83.825; -896.000; -835.000
354.237;  -56.225; -627.000; -662.000
354.370;  -94.025; -846.000; -879.000
354.503; -185.425;-1231.000;-1308.000
354.636;  -40.675; -529.000; -348.000
354.769; -137.350; -937.000; -860.000
354.902;  -31.600; -230.000; -139.000
355.034;  -15.800; -164.000; -220.000
355.167;  -30.550; -262.000; -162.000
355.300; -102.350;-1061.000; -880.000
355.433;  960.375;  -71.000;  -14.000
355.565; 1529.825; -402.000; -384.000
355.698;  370.675; -356.000; -296.000
355.831;  -15.250; -882.000; -801.000
355.964;   47.925; -285.000; -170.000
356.096;  -93.400; -856.000; -843.000
356.229;  -33.925; -523.000; -530.000
356.362;  330.125; -373.000; -266.000
356.494;  608.850; -229.000; -162.000
356.627;  411.025;  269.000;  377.000
356.760;  662.425;  120.000;   53.000
356.892;  974.550; -286.000; -601.000
357.025;  570.350;  403.000;  389.000
357.157;  518.125; -167.000; -179.000
357.290;  716.350; -856.000; -713.000
357.423;  194.800; -667.000; -556.000
357.555;   91.400; -217.000; -228.000
357.688;  111.475; -483.000; -364.000
357.820;  414.925; -870.000; -877.000
357.953; 3345.475; -563.000; -589.000
358.085;  678.100; -632.000; -612.000
358.218;  870.250;-1131.000; -932.000
358.350;  161.975;  -58.000;  312.000
358.483; -138.325;-1300.000;-1187.000
358.615;  -59.325;-1182.000;-1078.000
358.747;  -84.425;-1187.000;-1058.000
358.880;   -4.350; -810.000; -744.000
359.012;  -23.525; -376.000; -202.000
359.145;  -39.125; -480.000; -511.000
359.277;   36.650; -962.000; -913.000
359.409; 2769.000;  536.000;  231.000
359.542;  711.900; -738.000; -688.000
359.674;   52.500;   46.000;   13.000
359.806;  -75.350; -565.000; -438.000
359.939;  -43.825; -617.000; -516.000
360.071;   -3.100; -583.000; -579.000
360.203;  -16.500; -411.000; -364.000
360.335;   33.850;  164.000;  -16.000
360.468;  154.575; -249.000; -307.000
360.600; 2272.825; -547.000; -454.000
360.732; 2952.425; -546.000; -423.000
360.864;  393.775;-1216.000;-1044.000
360.996;  205.275; -516.000; -554.000
361.129;   18.875; -389.000; -598.000
361.261;    6.100;  110.000; -113.000
361.393;  -38.425; -252.000; -214.000
361.525;   15.075;   94.000;  244.000
361.657;  -50.200; -821.000; -703.000
361.789;   -2.075; -139.000; -155.000
361.921;  163.150; -642.000; -593.000
362.053;  221.900;  524.000;  541.000
362.185;   28.150;  288.000;   72.000
362.318;  -93.225; -709.000; -705.000
362.450;  104.425;  294.000;  444.000
362.582;   41.600; -913.000; -870.000
362.714;  -48.150; -353.000; -332.000
362.846;  -93.725; -606.000; -490.000
362.978; -150.350; -941.000; -811.000
363.109;   24.850; -161.000; -260.000
363.241;  344.025; -739.000; -749.000
363.373;  415.125; -649.000; -564.000
363.505;  706.275; -186.000;  -91.000
363.637;  146.025; -787.000; -601.000
363.769; -139.450;-1067.000;-1080.000
363.901;  -81.350; -596.000; -654.000
364.033; -134.750;-1103.000;-1062.000
364.165;  -16.975; -283.000; -283.000
364.296;   61.300; -316.000; -177.000
364.428;   66.250;-1344.000;-1220.000
364.560;  -78.850; -679.000; -661.000
364.692;  -89.250; -738.000; -835.000
364.824;  190.025; -588.000; -456.000
364.955;  429.250; -402.000; -564.000
365.087;  976.925;-1097.000; -852.000
365.219;   23.175; -686.000; -816.000
365.351;  -60.875; -526.000; -572.000
365.482;   49.500;  300.000;  240.000
365.614;  -57.025; -402.000; -314.000
365.746; -112.600; -729.000; -752.000
365.877;  -95.150; -706.000; -672.000
366.009;  264.800;  -35.000;  -62.000
366.141;  -94.450;-1249.000;-1134.000
366.272; -105.275; -803.000; -719.000
366.404; -127.025;-1005.000; -874.000
366.535;  -22.800; -139.000;  -12.000
366.667; -107.525; -644.000; -649.000
366.799;   20.425;  353.000;  203.000
366.930; -119.975; -862.000; -996.000
367.062;  117.775; -639.000; -613.000
367.193;  175.750; -872.000; -842.000
367.325;  -65.400; -580.000; -684.000
367.456;   24.925; -246.000;   31.000
367.588;  160.300; -371.000; -318.000
367.719;   30.525;  -44.000;  -45.000
367.851;  -23.000; -222.000; -241.000
367.982;  -79.425; -875.000; -732.000
368.113;   68.000; -475.000; -358.000
368.245; -143.525; -960.000; -841.000
368.376;  -49.775; -254.000; -302.000
368.508;  -56.350; -188.000; -263.000
368.639; -142.775;-1166.000;-1034.000
368.770;  -38.900; -670.000; -589.000
368.902;  -72.375; -836.000; -926.000
369.033; -118.050; -906.000; -855.000
369.164;  -71.275; -720.000; -653.000
369.296; -113.925; -452.000; -601.000
369.427;  -30.750; -209.000; -144.000
369.558;  -69.350; -593.000; -377.000
369.689;  -94.600; -721.000; -569.000
369.821; -145.375; -951.000; -845.000
369.952;   -9.550;   42.000; -108.000
370.083;  -53.675; -229.000; -108.000
370.214;  -94.175; -735.000; -650.000
370.345;  -15.700;   65.000;   81.000
370.477;  -96.500; -810.000; -790.000
370.608;  192.975; -328.000; -264.000
370.739;  -67.725;-1233.000;-1292.000
370.870;  -71.525;-1102.000; -923.000
371.001;   45.475; -378.000; -467.000
371.132;  -91.625; -754.000; -735.000
371.263;  -23.550;  -42.000; -148.000
371.394; -142.150; -841.000; -748.000
371.525;   17.950;  345.000;  225.000
371.657;  -93.225; -808.000; -670.000
371.788;   58.825;  103.000;  199.000
371.919;  133.325; -384.000; -304.000
372.050; 3197.925;  -91.000; -156.000
372.181;  945.150; -188.000; -294.000
372.311;  313.750;   42.000; -127.000
372.442;   12.775; -457.000; -451.000
372.573;  -50.825; -444.000; -340.000
372.704; -128.775;-1008.000; -980.000
372.835;   51.850; -228.000; -289.000
372.966;  -72.375; -646.000; -554.000
373.097;  -85.950; -575.000; -711.000
373.228;  -60.300; -717.000; -542.000
373.359;   83.025; -824.000; -536.000
373.490;  765.100; -881.000; -727.000
373.620;  954.475;-1001.000; -803.000
373.751; 1498.325; -332.000; -396.000
373.882;  647.950; -663.000; -733.000
374.013;   42.250; -449.000; -262.000
374.143;  -66.875; -581.000; -659.000
374.274; -125.575; -987.000; -908.000
374.405;  137.375; -388.000; -276.000
374.536;  352.425; -526.000; -387.000
374.666;  915.425; -759.000; -807.000
374.797;  166.275; -817.000; -868.000
374.928;  707.850; -710.000; -560.000
375.058;  730.125; -535.000; -500.000
375.189;   50.575;  -59.000;  -93.000
375.320; -112.500; -928.000;-1034.000
375.450;  -61.425; -625.000; -616.000
375.581;  -71.375; -526.000; -436.000
375.712;  -36.225; -574.000; -250.000
375.842;  223.300; -438.000; -415.000
375.973;  150.175; -554.000; -513.000
376.103;  -76.150; -665.000; -648.000
376.234;  -80.300; -531.000; -552.000
376.364;  -66.050; -944.000; -867.000
376.495;  263.075;  925.000;  529.000
376.625;  -33.250; -472.000; -485.000
376.756;   22.300; -709.000; -678.000
376.886;  -94.625;-1178.000;-1026.000
377.017;   53.800;-1048.000;-1061.000
377.147;  373.525; -786.000; -782.000
377.278;   47.725;  174.000;  228.000
377.408; -133.300; -801.000; -815.000
377.538; -118.400; -707.000; -693.000
377.669;  -85.400; -537.000; -613.000
377.799; -107.525; -645.000; -635.000
377.929;  -82.150; -610.000; -428.000
378.060; -129.650; -781.000; -847.000
378.190;  -63.450; -726.000; -531.000
378.320;  -59.900; -401.000; -406.000
378.451;  -15.950; -131.000;  -22.000
378.581;  -15.125;  -67.000; -110.000
378.711;  148.025; 1035.000;  866.000
378.841;  -35.800; -533.000; -675.000
378.972;  -86.625; -871.000; -751.000
379.102;  -34.650; -652.000; -579.000
379.232;  -37.825; -126.000;  -73.000
379.362; -121.375;-1001.000; -885.000
379.492;  -20.350; -373.000; -424.000
379.623;   89.200;    0.000;  111.000
379.753; -111.650;-1107.000; -974.000
379.883;  147.300;   59.000;  156.000
380.013;  -28.775;-1081.000;-1017.000
380.143; -123.100;-1097.000;-1056.000
380.273; -121.700; -985.000; -861.000
380.403;   -2.225; -344.000; -257.000
380.533;  -53.375; -651.000; -664.000
380.663;   53.925;  173.000;  128.000
380.793; -111.900;-1027.000;-1074.000
380.923;  -39.050; -103.000;  -34.000
381.053;  -98.225; -613.000; -623.000
381.183;  -38.500; -106.000; -248.000
381.313;    7.650; -656.000; -470.000
381.443;  -10.175; -692.000; -473.000
381.573;  130.625; -402.000; -409.000
381.703;  184.500;-1249.000;-1095.000
381.833; -152.750;-1454.000;-1336.000
381.963;   85.725; -134.000;  -87.000
382.093; 1252.975; -925.000; -909.000
382.223;  345.600; -713.000; -602.000
382.353;  -30.200; -801.000; -608.000
382.482;  300.275;-1091.000; -964.000
382.612;  659.125; -872.000; -644.000
382.742;  350.750; -695.000; -622.000
382.872;  188.525; -565.000; -551.000
383.002;   47.350;  347.000; -132.000
383.131;  -33.900; -226.000; -160.000
383.261;  -51.150; -706.000; -768.000
383.391;  258.125; -552.000; -377.000
383.521; 3363.075;  451.000;  263.000
383.650;  800.275; -947.000; -904.000
383.780;  -23.525; -783.000; -656.000
383.910;  102.300;  880.000;  802.000
384.039;  -14.500; -794.000; -656.000
384.169;  115.600;-1205.000;-1017.000
384.299;  -47.100; -650.000; -662.000
384.428; -106.875; -764.000; -680.000
384.558;  -55.000; -308.000; -275.000
384.687;  -64.975; -414.000; -334.000
384.817;  -13.450;   75.000;   -2.000
384.947;    0.925; -234.000; -141.000
385.076;  255.650;  982.000;  912.000
385.206;   76.475;  369.000;  480.000
385.335;  -61.350; -549.000; -417.000
385.465;  -90.225; -655.000; -663.000
385.594;   98.900;  -53.000;  -44.000
385.724;  332.100; -868.000; -838.000
385.853;   90.625; -296.000; -270.000
385.982; 1151.250; -743.000; -787.000
386.112; 1812.275;-1052.000; -871.000
386.241;  107.175; -307.000; -312.000
386.371;   -9.425; -174.000;  -87.000
386.500;  -39.075; -825.000; -789.000
386.629;    1.600; -874.000; -817.000
386.759;   64.625;  -43.000;   68.000
386.888;  -22.675; -170.000; -250.000
387.017;  -91.675; -648.000; -620.000
387.147; -105.750; -771.000; -798.000
387.276;  -21.025; -410.000; -397.000
387.405;  -14.650; -398.000; -342.000
387.535;  -58.125; -452.000; -361.000
387.664;  -79.325; -692.000; -620.000
387.793;   23.575; -198.000; -113.000
387.922;  427.125;  255.000;  200.000
388.052;  -22.725; -576.000; -423.000
388.181;  -25.325; -342.000; -472.000
388.310;  -57.975; -889.000; -710.000
388.439;  -72.925; -749.000; -742.000
388.568;  153.250;  365.000;  244.000
388.697;  882.050; -756.000; -653.000
388.826;  150.150; -768.000; -666.000
388.956;   18.625; -285.000; -307.000
389.085;  -37.050; -347.000; -287.000
389.214; -124.975; -842.000; -872.000
389.343;  -71.400; -645.000; -413.000
389.472;  399.575;  126.000;  149.000
389.601;  486.550;   91.000;    0.000
389.730;   -7.300; -568.000; -687.000
389.859;   45.725;  226.000;   46.000
389.988;  141.675; -423.000; -408.000
390.117;  111.000; -168.000; -146.000
390.246;  -27.225; -331.000; -320.000
390.375;   47.575; -673.000; -626.000
390.504;  -81.700; -703.000; -621.000
390.633; -104.625; -672.000; -726.000
390.761; -104.550; -732.000; -645.000
390.890;    5.400;   -4.000; -130.000
391.019;  -41.900; -421.000; -441.000
391.148; -141.250; -826.000; -855.000
391.277;  -82.850; -576.000; -493.000
391.406; -107.525; -821.000; -805.000
391.534;   -1.375;  574.000; -301.000
391.663;  -81.625; -583.000; -645.000
391.792;  -98.325; -673.000; -701.000
391.921;   52.550;   -3.000;   15.000
392.050;  122.625; -287.000; -228.000
392.178;  -78.475;-1206.000;-1061.000
392.307;   96.675; -758.000; -712.000
392.436;   33.425; -427.000; -641.000
392.564;  -14.700;  166.000;   -6.000
392.693; -106.600; -860.000; -682.000
392.822;  146.375; -529.000; -534.000
392.950;   43.700; -880.000; -714.000
393.079;  243.850; -188.000; -328.000
393.208;  -12.350; -488.000; -511.000
393.336;  -24.150; -170.000; -145.000
393.465;  -54.700; -317.000; -199.000
393.593;  -13.575;   62.000;   79.000
393.722; -147.050;-1121.000; -916.000
393.850;  -44.475; -188.000;  -61.000
393.979; -164.700; -926.000; -805.000
394.107;  -78.400; -517.000; -537.000
394.236;  -46.975; -570.000; -507.000
394.364;  158.625;  383.000;  206.000
394.493;  225.425; -911.000; -767.000
394.621;  -44.200; -955.000; -916.000
394.750;  749.075; -873.000; -923.000
394.878; 3063.750; -247.000; -149.000
395.007; 4089.500; -721.000; -807.000
395.135;  278.325; -790.000; -721.000
395.263;  -92.500;-1038.000;-1040.000
395.392;   -7.725;  -25.000; -107.000
395.520; -149.125; -818.000; -679.000
395.648; -102.400; -865.000; -915.000
395.777;  -46.250; -366.000; -405.000
395.905;  -58.350; -449.000; -564.000
396.033;   -8.325;  217.000;  172.000
396.162;  363.400; -399.000; -453.000
396.290;  320.000;  -17.000;   -2.000
396.418;   54.675; -555.000; -514.000
396.546;  -89.400; -571.000; -466.000
396.674; -121.875; -850.000; -878.000
396.803;   -2.375;  -72.000;  -23.000
396.931;   59.700; -179.000; -199.000
397.059;  -16.650;-1026.000; -989.000
397.187; -117.025;-1026.000; -975.000
397.315; -140.425; -884.000; -649.000
397.443; -108.925; -592.000; -443.000
397.572;  -95.450; -578.000; -424.000
397.700;  -44.275; -607.000; -614.000
397.828;   -7.050;  120.000;  -90.000
397.956;  -67.400; -508.000; -478.000
398.084;  -72.400; -767.000; -626.000
398.212;   27.475;  137.000;  124.000
398.340;    5.500;  -56.000;  159.000
398.468;    6.500; -390.000; -169.000
398.596; -153.475; -993.000; -953.000
398.724; -134.625; -762.000; -767.000
398.852; -177.125;-1024.000; -976.000
398.980;  -78.750; -560.000; -560.000
399.108;  -83.900; -982.000; -735.000
399.236;    6.350;   13.000;    8.000
399.363;   -7.100;  222.000;  196.000
399.491;  -77.275; -404.000; -398.000
399.619; -139.250; -829.000; -800.000
399.747; -117.300; -859.000; -771.000
399.875;   46.775;  220.000;  234.000
400.003;  -70.650; -359.000; -284.000
400.130;  -89.725; -421.000; -341.000
400.258;  -43.475;  -83.000;   38.000
400.386;  -76.875; -352.000; -168.000
400.514;  -69.250; -526.000; -587.000
400.641; -115.275; -928.000; -802.000
400.769; -160.100; -979.000; -888.000
400.897; -133.175; -838.000; -793.000
401.025;  -23.025; -166.000; -152.000
401.152;  -15.900;  220.000;   38.000
401.280;  -96.400; -430.000; -429.000
401.408; -134.500; -712.000; -576.000
401.535; -119.025; -735.000; -758.000
401.663; -200.175;-1134.000;-1054.000
401.790; -102.625; -514.000; -525.000
401.918;   46.875;  436.000;  405.000
402.046;  -24.775;  134.000;  122.000
402.173;  -40.450;  -18.000;    7.000
402.301;  -86.925; -519.000; -397.000
402.428;   22.950;  528.000;  383.000
402.556; -159.500;-1188.000; -913.000
402.683;  -41.700;  -20.000;   -1.000
402.811;  -37.400;  -37.000; -206.000
402.938;  -18.575;   20.000;   27.000
403.066;  148.200; -574.000; -558.000
403.193;  294.025;  299.000;  239.000
403.321;  204.975; -396.000; -574.000
403.448;  267.700;   83.000;   27.000
403.575;  115.025;  -90.000;  -46.000
403.703; -109.175; -732.000; -557.000
403.830;  -70.850; -531.000; -496.000
403.957; -134.100;-1117.000;-1023.000
404.085;    3.925;  -61.000; -172.000
404.212;   84.125;  -50.000;   63.000
404.339;  263.125; -566.000; -306.000
404.467; 6028.875; -612.000; -524.000
404.594; 3746.425; -287.000; -227.000
404.721;  802.500; -869.000; -764.000
404.848;   58.100; -113.000; -202.000
404.976; -119.225; -856.000; -783.000
405.103;  -20.800;  -14.000;  -82.000
405.230;  -16.425;  190.000;  226.000
405.357;    0.350;  117.000;   44.000
405.484;  248.475;  -49.000;    5.000
405.612;   43.500; -548.000; -563.000
405.739;  -70.725; -488.000; -243.000
405.866;   73.700;  669.000;  385.000
405.993;  -52.225; -398.000; -102.000
406.120; -153.400; -801.000; -887.000
406.247;  -59.900; -323.000; -342.000
406.374;  345.600;  540.000;  629.000
406.501;   53.100; -632.000; -702.000
406.628; -103.300; -621.000; -589.000
406.755;  -93.925; -803.000; -620.000
406.882;  -53.050; -228.000; -277.000
407.009; -118.725; -719.000; -628.000
407.136;    8.225; -480.000; -401.000
407.263;   64.450; -939.000; -829.000
407.390;  -90.200; -692.000; -614.000
407.517; -185.175;-1139.000;-1187.000
407.644;  -68.425; -332.000; -256.000
407.771;  -90.550; -249.000; -287.000
407.898;   -2.200;  168.000;  328.000
408.025;  -80.975; -421.000; -313.000
408.151;  -28.625;   82.000;  153.000
408.278;  -76.575; -267.000; -216.000
408.405; -130.775; -931.000; -899.000
408.532;  -80.475; -549.000; -542.000
408.659; -143.525; -677.000; -648.000
408.785; -200.225;-1298.000;-1170.000
408.912;  -83.025; -412.000; -296.000
409.039; -112.800; -610.000; -686.000
409.166; -124.975; -591.000; -555.000
409.292; -116.300; -571.000; -534.000
409.419; -133.450; -665.000; -649.000
409.546;  -91.025; -431.000; -192.000
409.672; -121.400; -713.000; -545.000
409.799;  -31.175;  -36.000;   34.000
409.926;  -45.000; -180.000; -179.000
410.052; -187.100;-1127.000;-1091.000
410.179;  -86.225; -368.000; -392.000
410.305;  -99.700; -375.000; -493.000
410.432;  -56.675; -220.000; -333.000
410.558;  -88.400; -305.000; -380.000
410.685; -116.675; -688.000; -431.000
410.812; -100.600; -409.000; -588.000
410.938; -132.825; -964.000; -808.000
411.065; -101.525; -671.000; -645.000
411.191;  -26.900; -189.000; -174.000
411.317; -121.700; -823.000; -742.000
411.444;  -74.300; -317.000; -246.000
411.570;  -74.600; -339.000; -294.000
411.697; -137.150; -758.000; -752.000
411.823; -197.375; -989.000; -999.000
411.949;  -50.500;  -56.000;   17.000
412.076; -126.675; -539.000; -519.000
412.202; -134.500; -758.000; -757.000
412.329; -142.200; -798.000; -752.000
412.455; -125.100; -821.000; -657.000
412.581;  -17.575;  -15.000;  172.000
412.707;  -85.875; -540.000; -457.000
412.834;   18.300;  156.000;  219.000
412.960;  -91.050; -785.000; -784.000
413.086; -122.050; -743.000; -701.000
413.212;  125.075;  604.000;  578.000
413.339;  -86.825; -685.000; -701.000
413.465;  -41.425; -364.000; -310.000
413.591; -100.125; -757.000; -474.000
413.717;  -64.625; -358.000; -366.000
413.843; -155.550; -839.000; -861.000
413.969;  -76.900;  -47.000; -292.000
414.096;  -89.725; -679.000; -679.000
414.222;  -14.625;  -33.000;   85.000
414.348;  -52.700; -652.000; -385.000
414.474;   74.100;   38.000;  -52.000
414.600;  -31.075; -126.000; -144.000
414.726;  -22.750;  -96.000;  -55.000
414.852;  -72.425; -365.000; -342.000
414.978;   16.525;  104.000;  -18.000
415.104;   44.900;   38.000;   80.000
415.230;   -6.325; -329.000; -330.000
415.356;   29.125; -409.000; -514.000
415.482;  184.375;   13.000;  -35.000
415.608;  259.300; -247.000; -323.000
415.734;  982.275;   67.000;   38.000
415.860;20616.075; -875.000; -767.000
415.986;14572.775; -685.000; -607.000
416.111; 1246.925; -798.000; -652.000
416.237;  249.325; -424.000; -571.000
416.363; 1213.050; -765.000; -733.000
416.489; 4347.350; -324.000; -251.000
416.615;  445.325; -707.000; -742.000
416.741;  -26.125; -677.000; -784.000
416.866;  -87.800; -673.000; -736.000
416.992; -128.175; -801.000; -818.000
417.118;  -33.000;  -41.000;  -80.000
417.244;  -82.975; -798.000; -531.000
417.369;  -99.950; -801.000; -612.000
417.495;  -26.200; -325.000; -254.000
417.621; -107.375;-1015.000; -803.000
417.746;   -5.600; -579.000; -572.000
417.872;   42.300; -254.000; -144.000
417.998;   40.350; -515.000; -530.000
418.123; 1114.250;-1073.000; -845.000
418.249; 5607.425; -512.000; -601.000
418.374;  762.325; -916.000; -824.000
418.500;  108.450; -383.000; -482.000
418.626;  114.450;   70.000;  -59.000
418.751;  106.775; -549.000; -448.000
418.877;  201.550; -637.000; -643.000
419.002; 1890.200; -688.000; -560.000
419.128;13050.525; -930.000; -721.000
419.253; 3131.625; -967.000; -837.000
419.379;  412.200; -391.000; -338.000
419.504;  400.575;  325.000;  415.000
419.629;  546.450; -393.000; -212.000
419.755; 3839.700; -317.000; -254.000
419.880;22314.475;  -98.000;   67.000
420.006;11915.575; -280.000; -221.000
420.131;30374.075; -662.000; -775.000
420.256; 4246.200; -315.000; -316.000
420.382;  543.750; -665.000; -687.000
420.507;   47.650; -649.000; -778.000
420.632;  108.050; -337.000; -339.000
420.758;  179.525; -251.000; -425.000
420.883; -104.700; -876.000; -672.000
421.008; -122.975; -775.000; -619.000
421.133; -100.125; -509.000; -467.000
421.259;  -54.250; -325.000; -259.000
421.384; -138.225; -834.000; -693.000
421.509;  -82.900;-1052.000; -862.000
421.634;  907.800; -936.000; -820.000
421.759;  357.850; -359.000; -327.000
421.885;  -79.900; -717.000; -656.000
422.010;  -92.125; -673.000; -542.000
422.135; -167.050; -695.000; -727.000
422.260;   19.200;  340.000;  280.000
422.385;  -47.775;   12.000;  -98.000
422.510;    2.400;  151.000;  -26.000
422.635;   -2.250;  -87.000;  -43.000
422.760;   70.775; -766.000; -791.000
422.885;   47.175;  -57.000;  -80.000
423.010;  -32.175; -112.000; -169.000
423.135; -104.875; -481.000; -561.000
423.260;  -19.225; -150.000; -245.000
423.385;   50.050;  476.000;  222.000
423.510;   16.075;   71.000;  -22.000
423.635;   60.800;  133.000;   45.000
423.760;   47.675;  383.000;  328.000
423.885;   37.800;  336.000;  391.000
424.010;  -11.200;  -68.000;  -13.000
424.135;  -27.450;    5.000;  -33.000
424.259;  -98.625; -654.000; -457.000
424.384;  -60.300; -279.000; -272.000
424.509;  -50.625; -260.000; -186.000
424.634; -116.400; -761.000; -623.000
424.759;  -33.475; -688.000; -544.000
424.883;  -17.150; -506.000; -527.000
425.008;  144.050; -502.000; -410.000
425.133; 2080.350; -679.000; -653.000
425.258;  950.200; -517.000; -381.000
425.382;  922.200; -867.000; -774.000
425.507; 2300.000; -487.000; -543.000
425.632;  395.375; -802.000; -663.000
425.756;  464.675; -256.000; -146.000
425.881; 7152.500; -831.000; -857.000
426.006;18927.300; -604.000; -355.000
426.130; 2822.475; -696.000; -508.000
426.255;  361.650; -611.000; -491.000
426.379;  153.925; -189.000; -577.000
426.504;  363.375;  660.000;  544.000
426.629; 4153.925; -519.000; -466.000
426.753; 2781.550;   64.000;  -46.000
426.878;  311.875; -252.000; -288.000
427.002;  135.175; -651.000; -668.000
427.127; 1657.600;  -35.000; -158.000
427.251;11852.725;  372.000;  401.000
427.375; 3311.525; -191.000; -173.000
427.500; 2065.675; -616.000; -610.000
427.624;  694.875; -234.000; -400.000
427.749;   62.350; -216.000; -225.000
427.873;  -37.375; -499.000; -412.000
427.997;  -49.250; -222.000; -230.000
428.122;   75.600;  795.000;  703.000
428.246;   63.750;  433.000;  434.000
428.371; -151.225; -869.000; -773.000
428.495; -123.125; -624.000; -646.000
428.619;  -46.200; -186.000; -117.000
428.743;   14.425;   65.000;  132.000
428.868;  -10.550; -732.000; -643.000
428.992; 1232.150; -219.000; -326.000
429.116;  453.225; -329.000; -357.000
429.240;  221.150;  419.000;  426.000
429.365;  -38.675; -454.000; -574.000
429.489;  -66.675; -638.000; -647.000
429.613;   12.100; -236.000; -177.000
429.737;   21.550; -563.000; -432.000
429.861;  258.150; -247.000; -133.000
429.985; 5792.450; -425.000; -305.000
430.109; 6265.800; -770.000; -908.000
430.234;  673.175;   76.000;  -50.000
430.358;   48.350; -250.000; -160.000
430.482;  -83.975; -672.000; -564.000
430.606;  -82.950; -655.000; -375.000
430.730;  -23.975; -437.000; -388.000
430.854;   53.250; -909.000; -835.000
430.978; -100.875; -795.000; -764.000
431.102; -101.625; -499.000; -422.000
431.226; -139.025; -874.000; -815.000
431.350;   17.850;  345.000;  422.000
431.474;  -97.000; -661.000; -373.000
431.597; -158.375;-1060.000; -848.000
431.721;  -91.300; -276.000; -267.000
431.845; -142.200; -704.000; -472.000
431.969; -100.350; -304.000; -349.000
432.093;  -99.725; -395.000; -317.000
432.217;  -27.400;   32.000;   82.000
432.341; -108.650; -523.000; -518.000
432.464;  -19.925;   96.000;   40.000
432.588;  125.875; -401.000; -329.000
432.712;   64.900;  -52.000;  -52.000
432.836;   47.700;  213.000;  263.000
432.959;  -22.475; -372.000; -311.000
433.083;   66.600;   11.000;    2.000
433.207;  372.625;  285.000;  930.000
433.330; 5392.175; -391.000; -200.000
433.454; 6477.125; -654.000; -638.000
433.578; 3700.575;  583.000;  278.000
433.701;  639.975; -623.000; -675.000
433.825;  110.350; -292.000; -299.000
433.949;  122.775;   28.000;  -72.000
434.072;   12.325; -410.000; -323.000
434.196;  -29.925; -309.000; -117.000
434.319; 3737.100;25482.000;25124.000
434.443;  715.250; -656.000; -603.000
434.566; 2749.600;  281.000;   62.000
434.690;  443.675; -637.000; -383.000
434.813;   34.375; -251.000; -173.000
434.937;  -85.750; -569.000; -696.000
435.060;  -55.500; -423.000; -332.000
435.184;  194.450; -492.000; -217.000
435.307;  107.075;  159.000;  102.000
435.431;  -26.900;  -40.000;   24.000
435.554;  -87.125; -399.000; -240.000
435.677;  -91.900; -350.000; -258.000
435.801;  -54.300;  -25.000;   49.000
435.924;  -37.475;    1.000;  -67.000
436.048; -139.950;-1019.000; -732.000
436.171;  -76.275; -240.000;  -66.000
436.294;  -26.850; -248.000; -229.000
436.417;   73.400; -963.000; -849.000
436.541;  -89.925; -814.000; -840.000
436.664;  -62.600; -242.000; -316.000
436.787;  -40.000;   13.000;  113.000
436.910; -125.225; -792.000; -422.000
437.034;  -18.975;  142.000;  143.000
437.157;   15.875;  -11.000;    0.000
437.280;  -77.975; -392.000; -292.000
437.403; -124.475; -982.000; -869.000
437.526;  440.725; -903.000; -865.000
437.649; 1732.750; -505.000; -332.000
437.772;  212.975; -692.000; -540.000
437.896;   88.175;  700.000;  544.000
438.019; -106.275; -758.000; -503.000
438.142; -100.250; -596.000; -506.000
438.265;  -46.875; -639.000; -670.000
438.388;  442.075; -520.000; -410.000
438.511;   42.600; -597.000; -394.000
438.634;  -71.800; -247.000; -125.000
438.757; -145.150; -693.000; -619.000
438.880;  -42.025;  -34.000;  -57.000
439.003;  -86.225; -417.000; -437.000
439.126;  -75.800; -287.000; -167.000
439.248;  -70.100;  -98.000; -139.000
439.371;  -43.900;    9.000;  -53.000
439.494;   26.400;  510.000;  439.000
439.617;  -73.350;   65.000;  -88.000
439.740; -187.275; -968.000; -816.000
439.863; -164.675; -755.000; -595.000
439.986; -120.650; -476.000; -431.000
440.108;  -66.450; -161.000; -112.000
440.231; -175.950; -950.000; -836.000
440.354;  -54.275;  -64.000; -150.000
440.477;    1.050; -566.000; -542.000
440.599;  -30.700; -200.000; -225.000
440.722; -146.775; -709.000; -586.000
440.845;   44.625;  751.000;  928.000
440.968; -114.000; -415.000; -311.000
441.090;  -75.200; -199.000;  -33.000
441.213; -174.150;-1021.000; -825.000
441.336;  -49.475; -159.000;   -5.000
441.458;  -91.475; -549.000; -396.000
441.581; -101.575; -628.000; -629.000
441.703;  -86.875; -152.000;   13.000
441.826; -116.200; -557.000; -400.000
441.948;  -58.625;   56.000;   51.000
442.071;   10.875;  555.000;  424.000
442.193; -112.100; -531.000; -485.000
442.316;   -3.700;  152.000;   97.000
442.438;   15.425; -233.000;  -10.000
442.561;   45.175;  272.000;  262.000
442.683;  391.300; -809.000; -522.000
442.806;  891.075;   -8.000;   74.000
442.928;  -42.825; -859.000; -604.000
443.051;  -98.025; -577.000; -373.000
443.173; -100.300; -341.000; -339.000
443.295;  -90.600; -263.000; -371.000
443.418;  -79.550; -321.000;  -29.000
443.540;  -24.525; -106.000;   -4.000
443.662; -143.800; -563.000; -465.000
443.785;  -32.725;  335.000;  199.000
443.907; -102.025; -362.000; -208.000
444.029; -146.975; -767.000; -494.000
444.152; -141.825; -644.000; -554.000
444.274;  -39.175;  -18.000;  -24.000
444.396; -123.000; -461.000; -221.000
444.518; -147.725; -691.000; -454.000
444.640; -107.950; -268.000; -111.000
444.763;  -21.900;  388.000;  249.000
444.885; -120.850; -432.000; -392.000
445.007;  -54.175;   35.000;   86.000
445.129; -127.100; -610.000; -515.000
445.251; -120.025; -372.000; -439.000
445.373; -144.300; -537.000; -386.000
445.495;   -4.950;  242.000;  350.000
445.617;   42.050;  853.000;  753.000
445.739;  -85.975; -215.000;  -97.000
445.861;  -43.825; -245.000; -112.000
445.984;  -45.725; -267.000; -101.000
446.105;  136.775; -418.000; -251.000
446.227;  476.175; -176.000;  -19.000
446.349;  -35.500; -358.000; -249.000
446.471; -118.425; -615.000; -448.000
446.593;  -86.500; -316.000;   19.000
446.715;  -14.825;  -67.000;   41.000
446.837;   52.900;  697.000;  832.000
446.959; -106.800; -457.000; -478.000
447.081; -145.125; -628.000; -518.000
447.203;   33.700;  862.000;  834.000
447.325;  -97.125; -270.000;   42.000
447.446;  -17.050;  286.000;  530.000
447.568; -172.875; -921.000; -803.000
447.690; -100.225; -236.000; -245.000
447.812; -150.950; -798.000; -519.000
447.933;  -28.925;  155.000;  127.000
448.055;  -68.575; -306.000; -261.000
448.177;  101.600;   31.000;   79.000
448.299;   20.625; -935.000; -727.000
448.420;    8.675;  -25.000;  159.000
448.542;  -57.025;   -3.000;   33.000
448.664;  -37.975;  109.000;  322.000
448.785;  -50.550;  265.000;   83.000
448.907;  -80.950; -614.000; -353.000
449.028;  -60.525; -771.000; -471.000
449.150;   50.800;  492.000;  589.000
449.272; -179.725;-1044.000; -913.000
449.393;   22.575;  612.000;  694.000
449.515; -151.725; -634.000; -581.000
449.636;  -62.350; -264.000; -155.000
449.758;   61.100;  763.000;  622.000
449.879;  -95.250; -498.000; -396.000
450.001;  -86.525; -149.000;  -49.000
450.122;  -49.375;  -95.000;  162.000
450.244;  -28.125;   37.000;  364.000
450.365;  -89.250; -495.000; -301.000
450.486;  -35.350;   80.000;  268.000
450.608;    7.050;  393.000;  326.000
450.729;   70.850;  578.000;  645.000
450.850;    2.900; -574.000; -466.000
450.972;  814.600; -552.000; -389.000
451.093; 5249.650;  190.000;  588.000
451.214; 2176.375; -516.000; -337.000
451.336;  388.500;  773.000;  579.000
451.457;   51.025;  264.000;  393.000
451.578;  -35.575; -118.000;  -74.000
451.699; -127.100; -546.000; -540.000
451.821;  -73.750; -284.000;  -50.000
451.942;   -5.075;  278.000;  285.000
452.063;   39.900;  228.000;  419.000
452.184;  576.575;  -54.000;  -49.000
452.305; 1133.625;  103.000;  170.000
452.427;  110.375; -549.000; -301.000
452.548;  -21.325;   23.000;   79.000
452.669;  -63.075; -257.000;  -89.000
452.790;  -74.875;    3.000;  -18.000
452.911;  -19.325;  195.000;  259.000
453.032;  -81.475; -289.000;  -60.000
453.153;  -45.525;  -29.000;   81.000
453.274;   53.975;  737.000;  868.000
453.395;  -68.300;  -51.000;  175.000
453.516;  125.150; 1317.000; 1388.000
453.637;  -86.500; -205.000; -150.000
453.758;  -68.850;   15.000;   69.000
453.879; -143.525; -462.000; -250.000
454.000;   60.000; 1086.000;  948.000
454.121; -133.525; -554.000; -326.000
454.242; -125.800; -599.000; -383.000
454.362;  -58.450;  -99.000;  114.000
454.483;  -74.225; -309.000; -229.000
454.604;   50.400;  512.000;  580.000
454.725; -151.400; -627.000; -555.000
454.846; -125.375; -474.000; -406.000
454.967;  -26.700;  230.000;  539.000
455.087;  -38.725;  179.000;  153.000
455.208;    4.350;  554.000;  856.000
455.329;  -58.250;  -22.000;   82.000
455.450;   36.850;  473.000;  633.000
455.570;  -86.600; -234.000; -211.000
455.691;  -60.250;  201.000;  407.000
455.812; -105.750; -270.000;  -92.000
455.932;  -79.450;  107.000;  -97.000
456.053;  -99.625;   36.000;   24.000
456.173; -121.975; -433.000; -355.000
456.294; -137.575; -476.000; -303.000
456.415;  -69.500;  -73.000;   70.000
456.535;  -41.775;  297.000;  273.000
456.656;  -48.050;  132.000;  240.000
456.776;  -84.325;    3.000;  298.000
456.897;  -11.625;  308.000;  513.000
457.017;  -86.100; -153.000;   -3.000
457.138; -116.500; -402.000; -249.000
457.258;  -34.250;  263.000;  224.000
457.379;  -24.950;  509.000;  521.000
457.499;  -35.300;  443.000;  432.000
457.620; -128.950; -407.000; -231.000
457.740; -108.525; -132.000;  -11.000
457.860;  -69.625;   87.000;   44.000
457.981;  -51.250;  132.000;  124.000
458.101;  -84.325;  -89.000;   40.000
458.221;  -21.450;  336.000;  402.000
458.342;  -72.700;   -4.000;  -37.000
458.462;   16.500;  617.000;  352.000
458.582;  -51.550; -302.000; -294.000
458.703;    7.125;  303.000;  154.000
458.823;  -24.975;   22.000;  163.000
458.943;   19.725;  341.000;  467.000
459.063;  -33.475; 1124.000;  192.000
459.183;  -31.850;  328.000;  313.000
459.304;   -6.325;  315.000;  517.000
459.424;  -77.025; -246.000;  -89.000
459.544;  336.300;  388.000;  764.000
459.664;  884.200;  499.000;  506.000
459.784;  291.725; 1004.000; 1175.000
459.904;   59.075;  867.000;  744.000
460.024;   49.500;  867.000;  684.000
460.144;    4.800;  449.000;  554.000
460.264;  -21.750;  515.000;  327.000
460.385; -110.375; -145.000; -119.000
460.505;   32.025;  905.000;  858.000
460.625; -101.700;  -17.000;  -68.000
460.745;  -38.800;  396.000;  541.000
460.864;  -57.075;  153.000;  469.000
460.984;   -1.150;  499.000;  573.000
461.104;  127.175; 1656.000; 1775.000
461.224;   13.350;  657.000;  650.000
461.344;  -23.075;  431.000;  360.000
461.464;  -44.325;  258.000;  513.000
461.584;  -34.025;  283.000;  466.000
461.704;  -67.100;   58.000;  108.000
461.824;  -65.775;  238.000;  259.000
461.943;  -64.400;  191.000;  130.000
462.063;  -85.750;    2.000;  324.000
462.183;   18.700;  639.000;  717.000
462.303;   87.575; 1678.000; 1230.000
462.422;   34.000;  781.000;  840.000
462.542;  -45.625;  271.000;  391.000
462.662;   30.300;  353.000;  380.000
462.782;  251.225;  833.000;  572.000
462.901;  479.675;  545.000;  717.000
463.021;  275.375; 1702.000; 1638.000
463.141;  -11.175;  337.000;  770.000
463.260;  -19.450;  614.000;  474.000
463.380;   21.525;  902.000;  884.000
463.499;  -52.500;  342.000;  332.000
463.619;  -44.100;  581.000;  559.000
463.738;  113.675; 1644.000;  903.000
463.858;   16.275;  657.000;  811.000
463.978;  -56.425;  542.000;  396.000
464.097;   35.600;  921.000; 1114.000
464.217;  110.925; 1196.000; 1143.000
464.336;  110.525; 1068.000; 1130.000
464.455;  -42.150;  328.000;  659.000
464.575;   39.025;  597.000;  602.000
464.694;  140.750; 1204.000; 1179.000
464.814;  113.175; 1190.000; 1138.000
464.933;   67.825; 1095.000; 1027.000
465.052;   85.850; 1412.000; 1054.000
465.172;   67.275;  922.000;  799.000
465.291;  136.075; 1376.000; 1320.000
465.410;    7.375;  462.000;  735.000
465.530;   71.750; 1355.000; 1310.000
465.649;   53.825; 1209.000; 1273.000
465.768;   97.600; 1673.000; 1508.000
465.888;   45.725;  941.000; 1174.000
466.007;   94.700; 1335.000; 1440.000
466.126;  -17.475;  721.000;  641.000
466.245;   33.400; 1176.000; 1187.000
466.364;    5.200;  950.000; 1060.000
466.484;   56.075; 1024.000; 1213.000
466.603;   37.125; 1101.000; 1222.000
466.722;  103.875; 1490.000; 1769.000
466.841;   66.150; 1151.000; 1401.000
466.960;   34.200; 1069.000;  972.000
467.079;  127.650; 1971.000; 1786.000
467.198;   40.500; 1238.000; 1181.000
467.317;   91.775; 1768.000; 1162.000
467.436;   70.325; 1709.000; 1261.000
467.555;  108.300; 1796.000; 1746.000
467.674;   51.900; 1227.000; 1329.000
467.793;   48.550; 1376.000; 1374.000
467.912;   71.300; 1658.000; 1539.000
468.031;  138.025; 2038.000; 1930.000
468.150;  128.525; 1842.000; 1837.000
468.269;  188.350; 2313.000; 2090.000
468.388;  192.975; 2168.000; 2339.000
468.507;  249.475; 2884.000; 2903.000
468.626;  225.825; 2555.000; 2541.000
468.744;  129.925; 2018.000; 2174.000
468.863;  190.125; 2312.000; 2523.000
468.982;   91.050; 1503.000; 1555.000
469.101;  233.500; 2788.000; 2692.000
469.220;  149.775; 2333.000; 2176.000
469.338;  237.875; 2935.000; 3051.000
469.457;  182.775; 2719.000; 2545.000
469.576;  351.025; 3953.000; 3784.000
469.695;  242.675; 2877.000; 3066.000
469.813;  401.450; 4148.000; 4192.000
469.932;  404.875; 4255.000; 4485.000
470.051;  408.425; 4075.000; 4161.000
470.169;  898.350; 4470.000; 4338.000
470.288; 1498.075; 4700.000; 4809.000
470.406;  884.425; 5059.000; 5194.000
470.525;  616.250; 6101.000; 5787.000
470.644;  665.275; 6847.000; 6794.000
470.762;  824.275; 8397.000; 7873.000
470.881;  893.750; 8651.000; 8464.000
470.999; 1048.200; 9685.000; 9151.000
471.118; 1103.850;11174.000;10711.000

