
Integration time [ms]: 100.000
Averaging Nr. [scans]: 40
Smoothing Nr. [pixels]: 0
Data measured with spectrometer [name]: 2101012U2
Wave   ;Sample   ;Dark     ;Reference
[nm]   ;[counts] ;[counts] ;[counts] 

197.733;   53.075;  516.000;  404.000
197.879;  -79.250; -610.000; -634.000
198.025;  -38.975; -475.000; -420.000
198.171;  -72.250; -602.000; -612.000
198.317;  -28.550; -401.000; -316.000
198.463;  -55.450; -655.000; -404.000
198.609;   26.225;  181.000; -137.000
198.755;  -56.975; -644.000; -410.000
198.901;  -54.050; -505.000; -424.000
199.047;  -58.475; -615.000; -488.000
199.193;  -42.675; -230.000; -468.000
199.339;  -34.125; -222.000; -369.000
199.485;   52.275;  330.000;  271.000
199.631;    3.325;  227.000;  310.000
199.777;  -49.500; -466.000; -398.000
199.923;  -54.150; -610.000; -424.000
200.069;    7.625; -141.000;  -58.000
200.215;   57.225;  128.000;  453.000
200.361;   48.025;  243.000;  477.000
200.507;  -69.900; -600.000; -373.000
200.653;  -11.800; -371.000; -194.000
200.798;  -44.775; -215.000; -125.000
200.944;    3.325; -146.000;  -41.000
201.090;   38.275;   61.000;  222.000
201.236;    1.900; -116.000; -158.000
201.382;  124.950;  874.000;  903.000
201.528;   13.675;  -58.000;  -48.000
201.674;  -25.500; -386.000; -293.000
201.819;  -68.000; -540.000; -439.000
201.965;  -73.700; -699.000; -447.000
202.111;  -28.975; -273.000; -226.000
202.257;  -40.725; -250.000; -238.000
202.402;    8.375;   13.000;  -36.000
202.548;  -24.400; -169.000; -116.000
202.694;   90.025;  410.000; -183.000
202.840;  -63.275; -603.000; -531.000
202.985;  -73.700; -681.000; -639.000
203.131; -106.350; -832.000; -666.000
203.277;   -4.675; -199.000; -262.000
203.423;  -55.300; -434.000; -520.000
203.568;  -38.550; -462.000; -237.000
203.714;  -58.950; -535.000; -542.000
203.860;  -78.200; -682.000; -641.000
204.005;    5.225;  112.000;  167.000
204.151;   70.000;  561.000;  556.000
204.296;  -61.700; -354.000; -221.000
204.442;  -64.050; -600.000; -547.000
204.588;  -77.400; -592.000; -579.000
204.733;   25.975;  178.000;  168.000
204.879; -123.875;-1018.000; -822.000
205.025;   22.375;  -99.000;  126.000
205.170;    6.700;  -17.000;   94.000
205.316;   75.550;  438.000;  661.000
205.461;  -83.050; -698.000; -554.000
205.607;   78.200;  609.000;  665.000
205.752;  -69.600; -626.000; -551.000
205.898;  -54.525; -501.000; -391.000
206.043;  -67.175; -578.000; -506.000
206.189;  -37.775; -243.000; -285.000
206.334;   72.250;  554.000;  606.000
206.480;   89.025;  409.000;  239.000
206.625;  -87.325; -529.000; -552.000
206.771;  -32.975; -451.000; -373.000
206.916;  -17.500; -210.000; -537.000
207.062;  -60.075; -545.000; -591.000
207.207;  -56.550; -546.000; -443.000
207.353;   68.625;  185.000;  460.000
207.498;   13.125;  196.000;   85.000
207.643;  -51.250; -501.000; -370.000
207.789; -119.075;-1069.000; -910.000
207.934;  -85.300; -665.000; -713.000
208.080;  -25.050; -154.000;   66.000
208.225;    0.250;  -22.000;  -57.000
208.370;  -68.200; -727.000; -619.000
208.516;  -64.700; -741.000; -487.000
208.661;  -22.900; -127.000;  -69.000
208.806;  -29.425; -165.000; -171.000
208.952; -109.625;-1044.000; -731.000
209.097;   76.150;  378.000;  349.000
209.242;  -48.150; -307.000; -382.000
209.387;   55.000;  392.000;  350.000
209.533;  -40.350; -321.000; -350.000
209.678;   78.975;  472.000;  543.000
209.823;  -41.675; -408.000; -310.000
209.969; -102.950; -860.000; -757.000
210.114; -103.800; -907.000; -719.000
210.259; -103.575; -939.000; -889.000
210.404;   -8.350; -171.000;  103.000
210.549;   12.650;  108.000;    3.000
210.695;   -6.075;   -3.000;  -95.000
210.840;   32.725;   94.000;   67.000
210.985;  -61.925; -484.000; -303.000
211.130;   63.750;  268.000;  406.000
211.275;   19.225;  207.000;  199.000
211.420;  -48.300; -300.000; -289.000
211.566;  -76.425; -536.000; -489.000
211.711;   24.025;  218.000;  157.000
211.856;  -60.825; -545.000; -519.000
212.001;   12.250;  151.000;   44.000
212.146;   19.000;  153.000;   49.000
212.291;  -32.925; -210.000; -186.000
212.436;  -29.500; -280.000;   -6.000
212.581;  -80.150; -685.000; -653.000
212.726;  -78.425; -487.000; -538.000
212.871;  -41.650; -552.000; -217.000
213.016; -130.550;-1172.000;-1029.000
213.161;   49.825;  406.000;  291.000
213.306;  -74.100; -435.000; -577.000
213.451;  -89.825; -778.000; -689.000
213.596;  -42.475; -455.000; -347.000
213.741;  -47.425; -448.000; -538.000
213.886;  -82.975; -498.000; -517.000
214.031;  -15.850; -294.000; -124.000
214.176;  -51.600; -408.000; -341.000
214.321;  -23.550; -296.000; -157.000
214.466;  -33.175; -163.000;  -43.000
214.611;   -5.400;  -61.000;  -10.000
214.756; -115.050; -948.000; -858.000
214.901;  -22.925; -388.000; -226.000
215.046; -119.450; -797.000; -825.000
215.191;   10.550;  128.000;   35.000
215.336;   -8.250; -157.000;  -19.000
215.480;  -66.025; -684.000; -505.000
215.625;  -21.375; -175.000;  -19.000
215.770;  -78.675; -757.000; -662.000
215.915;    1.425;   -5.000;  -97.000
216.060;  -12.525; -113.000;  -21.000
216.205; -108.675; -731.000; -779.000
216.349;  -60.175; -470.000; -533.000
216.494; -144.075; -939.000; -867.000
216.639; -119.400; -823.000; -888.000
216.784;  -74.475; -577.000; -525.000
216.929;   59.400;  392.000;  281.000
217.073;   -3.475; -244.000;  -31.000
217.218;    3.700;   78.000;  -47.000
217.363;  -80.000; -656.000; -618.000
217.507;  -83.400; -623.000; -588.000
217.652; -118.550; -845.000; -874.000
217.797;  -90.525; -708.000; -659.000
217.942; -107.925; -856.000; -720.000
218.086;   61.875;  608.000;  539.000
218.231;  -21.075; -174.000;  -26.000
218.376;  -29.325; -337.000; -229.000
218.520;    1.750;  -41.000;   96.000
218.665;  -21.350; -338.000; -204.000
218.810;  -41.400; -275.000; -233.000
218.954;   17.500;  201.000;   35.000
219.099; -105.325; -713.000; -963.000
219.243;  -59.125; -589.000; -554.000
219.388;  -28.675; -264.000; -136.000
219.532;  -11.425; -116.000; -116.000
219.677;  -73.575; -564.000; -521.000
219.822;    0.300;   33.000;   89.000
219.966;    0.025;   17.000;  -99.000
220.111;  -33.200; -328.000;  -40.000
220.255;  -85.650; -797.000; -750.000
220.400;  -19.900; -180.000; -146.000
220.544;  -68.475; -516.000; -450.000
220.689;  -57.600; -422.000; -451.000
220.833;  -28.025; -123.000;  -58.000
220.978;  -44.500; -393.000; -563.000
221.122;   32.350;  319.000;  307.000
221.267;  -96.250; -906.000; -837.000
221.411;  -71.625; -478.000; -394.000
221.555;   -4.325; -104.000;  -23.000
221.700;  -53.300; -329.000; -222.000
221.844;   27.600;  255.000;  272.000
221.989;  -51.250; -328.000; -311.000
222.133;  -27.375; -289.000; -307.000
222.277;    0.500;    5.000;   78.000
222.422;    2.750;  227.000;  113.000
222.566;  -39.100; -381.000; -214.000
222.711;  -44.575; -414.000; -479.000
222.855;  -78.725; -643.000; -586.000
222.999;  -91.150; -642.000; -717.000
223.144;  -37.125; -195.000; -194.000
223.288;   49.000;  423.000;  251.000
223.432;   28.325;  184.000;  230.000
223.576;   22.750;  152.000;  -21.000
223.721;   37.850;  364.000;  273.000
223.865;  -54.275; -472.000; -475.000
224.009;  240.550; 1673.000; 1631.000
224.153;  -77.100; -660.000; -671.000
224.298;  -72.225; -531.000; -489.000
224.442;   -9.200;  -74.000;  -33.000
224.586;  -11.300; -169.000; -106.000
224.730;  -97.850; -858.000; -670.000
224.875;  -96.225; -739.000; -688.000
225.019;   10.150;  102.000;  188.000
225.163;   68.100;  208.000;  341.000
225.307;   24.500;   97.000;  -91.000
225.451;   38.775;  360.000;  481.000
225.595;   27.575;  264.000;  176.000
225.739;  -15.900; -170.000;  -94.000
225.884;  -13.850;   86.000;    5.000
226.028;  -96.750; -760.000; -626.000
226.172;  -40.675; -260.000; -273.000
226.316; -109.975; -941.000; -902.000
226.460;  -57.100; -645.000; -493.000
226.604;  -51.500; -406.000; -400.000
226.748;  -97.400; -836.000; -733.000
226.892;  -43.475; -227.000; -181.000
227.036;  -40.475; -537.000; -447.000
227.180;  -67.825; -551.000; -375.000
227.324;  -69.975; -561.000; -580.000
227.468; -100.075; -819.000; -717.000
227.612;    2.325;  242.000;  -28.000
227.756;  -89.625; -845.000; -698.000
227.900;   55.100;  342.000;  441.000
228.044;  -58.150; -509.000; -290.000
228.188;   57.825;  448.000;  568.000
228.332;  -74.675; -546.000; -472.000
228.476;  -31.750; -223.000; -149.000
228.620;  -30.300; -210.000; -150.000
228.764;   62.700;  431.000;  349.000
228.908;  -17.425; -155.000;   30.000
229.052;  -65.200; -615.000; -528.000
229.195;  -17.500; -172.000;   13.000
229.339;  -29.000; -235.000; -305.000
229.483;  -21.200;    5.000; -162.000
229.627;    0.525; -156.000;  139.000
229.771;  -52.050; -218.000; -294.000
229.915;   17.200;  230.000;   79.000
230.059; -100.150; -648.000; -663.000
230.202;  -55.450; -370.000; -317.000
230.346;  -15.650; -107.000;  107.000
230.490;  -57.275; -489.000; -521.000
230.634;  -96.525; -736.000; -553.000
230.777;   78.175;  478.000;  509.000
230.921;  -66.425; -450.000; -359.000
231.065;  -21.300; -246.000; -286.000
231.209;   21.500;  261.000;  265.000
231.352;   24.675;   54.000;   40.000
231.496;   14.700;  568.000;  188.000
231.640;  -72.975; -693.000; -621.000
231.783;   60.700;  546.000;  525.000
231.927;  -33.750; -294.000; -365.000
232.071; -103.900; -962.000; -736.000
232.214; -104.675; -980.000; -764.000
232.358; -106.125; -683.000; -599.000
232.502;    4.150;  -19.000;    7.000
232.645; -142.525;-1090.000; -927.000
232.789;  -21.450; -257.000; -218.000
232.933;  -36.075; -407.000; -224.000
233.076; -122.575;-1038.000; -897.000
233.220;  -93.850; -752.000; -777.000
233.363;  -80.125; -669.000; -477.000
233.507;   44.275;  371.000;  129.000
233.650;  -92.400; -764.000; -834.000
233.794;   47.800;  438.000;  461.000
233.938;  -60.550; -530.000; -362.000
234.081;    4.125;  -93.000;   31.000
234.225;  -58.500; -631.000; -539.000
234.368; -110.250; -773.000; -723.000
234.512;  -44.025; -385.000; -299.000
234.655;  -73.325; -582.000; -555.000
234.798;  -61.700; -493.000; -466.000
234.942; -129.800; -884.000;-1002.000
235.085;  -64.175; -651.000; -443.000
235.229;  -65.800; -405.000; -410.000
235.372;  -39.650; -247.000; -191.000
235.516;  -61.700; -397.000; -321.000
235.659;   13.925;   92.000;  121.000
235.802;   -1.075;  -38.000;  -22.000
235.946;   19.550;  335.000;  215.000
236.089;   27.000;  126.000;  250.000
236.233;   43.575;  275.000;  298.000
236.376;  -48.125; -235.000; -378.000
236.519;  -38.475; -297.000; -319.000
236.663;  -21.175; -215.000; -117.000
236.806; -134.925;-1029.000; -999.000
236.949;   41.600;  543.000;  431.000
237.092;   48.900;  412.000;  391.000
237.236;  -80.100; -589.000; -502.000
237.379;   68.325;  352.000;  428.000
237.522; -125.675; -879.000; -768.000
237.666;   -7.125; -271.000;   18.000
237.809; -133.250; -851.000; -823.000
237.952;   34.475;  469.000;  271.000
238.095;  -51.850; -447.000; -442.000
238.238;   82.825;  688.000;  700.000
238.382;  -11.025;  166.000;  103.000
238.525;  -68.775; -598.000; -511.000
238.668; -128.400;-1060.000; -985.000
238.811;  -89.700; -638.000; -643.000
238.954;  -61.450; -483.000; -334.000
239.097;   90.375;  617.000;  664.000
239.241;   29.800;  394.000;  326.000
239.384;  -28.825; -254.000; -214.000
239.527;  -61.100; -424.000; -224.000
239.670; -140.250; -994.000;-1091.000
239.813; -124.625; -696.000; -658.000
239.956;   70.275;  579.000;  473.000
240.099; -110.100; -778.000; -725.000
240.242;   66.750;  428.000;  432.000
240.385;   37.900;  466.000;  450.000
240.528;  -75.200; -706.000; -473.000
240.671;   17.750;  189.000;  134.000
240.814;  -42.850; -441.000; -158.000
240.957; -105.200; -767.000; -578.000
241.100;  -89.425; -779.000; -755.000
241.243; -137.900;-1234.000; -893.000
241.386;  -72.050; -508.000; -379.000
241.529;  -83.775; -735.000; -547.000
241.672;  -58.800; -566.000; -495.000
241.815; -107.600; -832.000; -808.000
241.958;  -19.750; -125.000; -182.000
242.101;  -86.500; -545.000; -390.000
242.244;  -46.700; -270.000; -325.000
242.387;  -29.075; -304.000; -246.000
242.530;   62.750;  470.000;  134.000
242.673;  -31.250; -381.000; -309.000
242.815; -114.575; -925.000; -899.000
242.958;  -72.525; -482.000; -381.000
243.101;   30.450;  132.000;  187.000
243.244;  -88.025; -564.000; -521.000
243.387;  -47.150; -313.000; -316.000
243.530; -100.250; -657.000; -674.000
243.672;    9.325;   43.000;  -92.000
243.815;  -42.075; -355.000; -283.000
243.958;   -7.875;   98.000;  -26.000
244.101;   -2.625;   59.000;  -16.000
244.243;  -14.450;  -47.000;  101.000
244.386; -106.225; -761.000; -630.000
244.529;  -18.875; -132.000; -139.000
244.672; -156.925;-1154.000; -951.000
244.814; -103.925; -621.000; -794.000
244.957;  -48.675; -380.000; -304.000
245.100;  -83.400; -489.000; -489.000
245.242;  -75.675; -387.000; -374.000
245.385;   -0.725;  -59.000;  -39.000
245.528; -123.550; -871.000; -705.000
245.670;   75.175;  612.000;  634.000
245.813;  -98.325; -599.000; -547.000
245.956;  -30.275; -324.000; -275.000
246.098;  -71.650; -508.000; -650.000
246.241;   10.625;  194.000;   48.000
246.383;  -13.875; -119.000;  -73.000
246.526;  -75.550; -454.000; -525.000
246.669; -107.925; -889.000; -780.000
246.811;    8.525;  172.000;   -1.000
246.954;  -55.200; -512.000; -426.000
247.096;  -21.600;  -84.000;   -6.000
247.239;  -71.375; -482.000; -445.000
247.381;  -68.600; -647.000; -488.000
247.524;   83.375;  645.000;  679.000
247.666;   -1.775;   58.000;   11.000
247.809; -116.400; -887.000; -691.000
247.951;   -4.375;  -75.000;  138.000
248.094;   23.925;  432.000;  308.000
248.236; -150.850;-1262.000;-1238.000
248.378;   18.575; -356.000;  -81.000
248.521;  -26.625; -334.000; -337.000
248.663;  -34.175; -236.000; -267.000
248.806;  -21.875; -300.000; -266.000
248.948;  -93.775; -886.000; -763.000
249.090;  -44.450; -428.000; -398.000
249.233;  -54.300; -344.000; -381.000
249.375;  -73.375; -474.000; -451.000
249.518;  -21.125;  -83.000; -133.000
249.660;    3.025; -103.000;    3.000
249.802; -153.975;-1303.000;-1189.000
249.945;  -80.375; -612.000; -540.000
250.087; -110.675; -834.000; -768.000
250.229;  -56.250; -362.000; -480.000
250.371;  -55.975; -494.000; -439.000
250.514;  -52.575; -310.000; -244.000
250.656;  -73.950;   69.000;  102.000
250.798; -120.475; -849.000; -800.000
250.940;  -73.075; -322.000; -322.000
251.083;  -24.275; -335.000; -111.000
251.225;   50.875;  338.000;  310.000
251.367;  -43.575; -274.000; -373.000
251.509;  -38.075; -265.000; -210.000
251.651;  -99.275; -731.000; -671.000
251.794;   43.900;  538.000;  632.000
251.936;  -96.975; -821.000; -747.000
252.078;  -80.425; -540.000; -461.000
252.220;  -63.450; -645.000; -477.000
252.362;   90.950;  344.000;  462.000
252.504;  -64.125; -677.000; -584.000
252.646; -105.650; -875.000; -722.000
252.788;   -5.750;   14.000; -128.000
252.931;  -50.025; -257.000; -253.000
253.073;  -49.825; -376.000; -317.000
253.215;    3.075;  141.000;  122.000
253.357;   -2.050;   82.000; -153.000
253.499;  -62.125; -374.000; -234.000
253.641;  -72.275; -749.000; -594.000
253.783;  -86.325; -609.000; -527.000
253.925;  -76.875; -586.000; -591.000
254.067; -105.925; -744.000; -667.000
254.209;  -39.450; -391.000; -259.000
254.351; -126.225; -865.000; -883.000
254.493;  -47.075; -441.000; -417.000
254.635; -116.825; -936.000; -818.000
254.777;  -95.975; -752.000; -687.000
254.918;  -65.800; -512.000; -430.000
255.060;  -63.075; -551.000; -395.000
255.202;  -54.225; -473.000; -261.000
255.344;  -55.375; -658.000; -455.000
255.486;  -78.450; -471.000; -406.000
255.628; -110.325; -780.000; -781.000
255.770;  -85.675; -676.000; -536.000
255.912;  -60.675; -559.000; -468.000
256.053;  -87.775; -730.000; -508.000
256.195;  158.350; 1008.000;  903.000
256.337;  -98.000; -861.000; -595.000
256.479;   60.250;  532.000;  416.000
256.621;  -40.825; -394.000; -212.000
256.762;  -92.275; -789.000; -742.000
256.904;   50.100;  485.000;  487.000
257.046;  -49.825; -381.000; -271.000
257.188;  -53.125; -351.000; -264.000
257.329;  -64.800; -525.000; -464.000
257.471; -110.125; -939.000; -807.000
257.613;  -51.975; -584.000; -498.000
257.755; -138.700;-1073.000; -982.000
257.896;   30.925;  286.000;  392.000
258.038;  -74.850; -403.000; -352.000
258.180;  -47.825; -354.000; -279.000
258.321;  -99.175; -581.000; -457.000
258.463;    7.200;  -71.000;  133.000
258.605;  -84.500; -562.000; -570.000
258.746; -100.925; -886.000; -772.000
258.888; -148.425;-1026.000;-1020.000
259.029;   21.900;  121.000;   -8.000
259.171;  -93.625; -614.000; -550.000
259.313;   -9.300;  -49.000;  -47.000
259.454;  -72.200; -536.000; -414.000
259.596;  -66.650; -483.000; -390.000
259.737;  -80.650; -590.000; -474.000
259.879;   31.350;  217.000;  311.000
260.020;   75.675;  901.000;  636.000
260.162;  -27.475; -146.000; -253.000
260.303; -116.375; -768.000; -687.000
260.445;  -79.975; -609.000; -613.000
260.586;   28.275;  392.000;  157.000
260.728;  -44.275; -360.000; -248.000
260.869; -107.825; -350.000; -343.000
261.011;   56.675;  706.000;  537.000
261.152;  -54.100; -479.000; -319.000
261.293;  -94.150; -576.000; -595.000
261.435;  -35.375; -219.000; -184.000
261.576;  -54.075; -455.000; -325.000
261.718;   36.200;  420.000;  470.000
261.859; -128.625; -940.000; -949.000
262.000; -138.150; -951.000;-1016.000
262.142;  -18.875;  -52.000;  -60.000
262.283; -107.725; -808.000; -691.000
262.424;  -87.050; -666.000; -625.000
262.566; -147.825;-1161.000; -983.000
262.707; -110.600; -840.000; -830.000
262.848; -116.125; -769.000; -726.000
262.990;  -47.525; -362.000; -345.000
263.131;   69.650;  650.000;  681.000
263.272;   -8.600;  -61.000;  -41.000
263.413;  -89.650; -589.000; -561.000
263.555;  -61.425; -669.000; -143.000
263.696;  -88.625; -550.000; -641.000
263.837;  -52.775; -449.000; -551.000
263.978;   -2.575;   -5.000;  -77.000
264.119;  -52.175; -283.000; -264.000
264.261; -100.050; -847.000; -630.000
264.402;    3.750;   33.000;   40.000
264.543;  -76.575; -509.000; -524.000
264.684;   -4.100;   61.000;  -50.000
264.825;  -69.275; -816.000; -538.000
264.966;   -9.825;  -84.000;  -67.000
265.107; -107.700; -646.000; -670.000
265.248; -121.600; -825.000; -812.000
265.390;  -17.025;  152.000;   -9.000
265.531;  -19.375; -238.000; -107.000
265.672;  -86.075; -557.000; -630.000
265.813;   58.050;  563.000;  439.000
265.954; -134.900; -959.000; -940.000
266.095;   -5.825; -372.000; -322.000
266.236;  -98.525; -686.000; -548.000
266.377;  -51.050; -243.000; -297.000
266.518;  -65.850; -619.000; -547.000
266.659;   23.900;  170.000;  268.000
266.800;    0.600;   83.000;   85.000
266.941;  -74.700; -487.000; -478.000
267.082;   10.675;  354.000;   99.000
267.223;  -58.025; -344.000; -273.000
267.364; -113.900; -892.000; -686.000
267.504;   -3.250;    3.000;  135.000
267.645;   -0.575;  160.000;   67.000
267.786;  -27.125; -147.000;  -86.000
267.927;  -67.600; -473.000; -379.000
268.068;   -9.875; -186.000;  -61.000
268.209;  -46.025; -175.000; -413.000
268.350;  -55.500; -388.000; -532.000
268.490; -100.275; -648.000; -521.000
268.631;   25.800;  127.000;  225.000
268.772; -106.550; -874.000; -647.000
268.913;  -47.100; -328.000; -476.000
269.054;  -11.050; -117.000;   12.000
269.194;  -52.725; -418.000; -402.000
269.335; -150.350;-1137.000;-1074.000
269.476;   -3.875;   33.000;  -35.000
269.617;  -36.000; -347.000; -392.000
269.757;  -87.100; -713.000; -646.000
269.898;  -94.725; -856.000; -613.000
270.039;  -65.725; -415.000; -405.000
270.180; -136.900; -952.000; -816.000
270.320;  -28.350; -190.000; -250.000
270.461;  -44.175; -277.000; -249.000
270.602;   -7.500; -186.000; -156.000
270.742; -126.425; -868.000; -943.000
270.883;  -61.300; -442.000; -390.000
271.023;  -56.825; -358.000; -357.000
271.164;  -68.625; -607.000; -528.000
271.305; -101.625; -666.000; -654.000
271.445;  -91.225; -722.000; -683.000
271.586;  -57.875; -462.000; -283.000
271.726;  -38.850; -397.000; -322.000
271.867;  -59.175; -594.000; -534.000
272.008;  159.450; -473.000; -285.000
272.148;  120.325;  462.000;  468.000
272.289;    9.300; -113.000; -181.000
272.429;   12.975;   19.000;  185.000
272.570; -102.900; -633.000; -737.000
272.710;  -97.950; -825.000; -775.000
272.851;  -25.875;  113.000; -130.000
272.991; -174.525;-1173.000;-1077.000
273.131;  -61.000; -419.000; -459.000
273.272; -110.425; -683.000; -723.000
273.412;    2.600; -143.000;  -31.000
273.553;  -51.425; -488.000; -507.000
273.693;  132.025;  913.000;  858.000
273.834;  -94.750; -894.000; -692.000
273.974;  -62.100; -664.000; -615.000
274.114; -100.300; -772.000; -560.000
274.255;   68.175;  414.000;  373.000
274.395;    0.750; -180.000; -125.000
274.535;   36.975;  199.000;  350.000
274.676;   14.225;  225.000;   94.000
274.816;    8.400;  110.000;   34.000
274.956;  -73.625; -624.000; -690.000
275.097;  -59.650;-1014.000; -922.000
275.237; -101.700; -913.000; -803.000
275.377;  -99.500; -778.000; -689.000
275.517; -147.900; -878.000; -937.000
275.658;  -53.950; -590.000; -555.000
275.798;  -68.825; -606.000; -413.000
275.938;   20.075;  215.000;  323.000
276.078; -112.100; -626.000; -395.000
276.218;   11.325;   99.000;  104.000
276.359; -132.825;-1026.000;-1024.000
276.499;  -72.250; -605.000; -446.000
276.639;  -37.650; -305.000; -151.000
276.779;  -54.025; -475.000; -357.000
276.919; -110.775; -783.000; -624.000
277.059;  -29.250; -261.000; -212.000
277.199;  -47.500; -357.000; -259.000
277.340;   60.050;  287.000;  175.000
277.480; -107.325; -840.000; -693.000
277.620;   13.550;  192.000;   16.000
277.760; -185.525;-1533.000;-1294.000
277.900;    6.375;  113.000;   33.000
278.040;   13.775;  137.000;  159.000
278.180;   27.800;  270.000;  170.000
278.320;   -9.925;   21.000;   56.000
278.460;  -62.450; -443.000; -469.000
278.600;  -84.975; -708.000; -598.000
278.740;   40.875;  448.000;  224.000
278.880;  -66.850; -768.000; -791.000
279.020;  -21.550; -194.000; -144.000
279.160;  -98.075; -672.000; -595.000
279.300; -116.025; -926.000; -873.000
279.440;  -85.475; -709.000; -622.000
279.579;  -16.875;-1014.000; -929.000
279.719;  -49.450; -410.000; -394.000
279.859;   65.625;   -4.000;   41.000
279.999;   27.900; -208.000;  101.000
280.139;  -13.575; -435.000; -387.000
280.279;  -77.950; -708.000; -745.000
280.419;   -3.400; -229.000; -147.000
280.559;  -24.050; -259.000; -180.000
280.698;  -84.175; -790.000; -639.000
280.838;  -94.900; -778.000; -800.000
280.978;  -91.075; -846.000; -790.000
281.118;  -97.850; -811.000; -704.000
281.257;   -2.650;   24.000;    6.000
281.397; -115.925;-1094.000; -960.000
281.537; -100.150; -599.000; -712.000
281.677;  -23.650; -150.000; -101.000
281.816;  -89.375; -700.000; -630.000
281.956;  -43.625; -193.000; -257.000
282.096;  -67.100; -539.000; -396.000
282.235; -104.025; -672.000; -638.000
282.375;  -21.100; -243.000;  -98.000
282.515; -105.050; -715.000; -707.000
282.654;   28.425;   29.000;  106.000
282.794;   24.700;  388.000;  244.000
282.934;  -51.175; -530.000; -491.000
283.073; -128.400;-1030.000; -857.000
283.213;  -46.000; -460.000; -467.000
283.353;  -42.750; -408.000; -349.000
283.492;  -28.925; -264.000; -296.000
283.632;  -34.050; -254.000; -168.000
283.771;  -97.950; -859.000; -730.000
283.911;  -44.525; -369.000; -260.000
284.050; -102.250; -794.000; -748.000
284.190; -176.300;-1229.000;-1096.000
284.329; -128.025;-1055.000; -964.000
284.469;  -69.825; -516.000; -591.000
284.608;  -59.075; -559.000; -598.000
284.748;  -82.925; -614.000; -570.000
284.887;    6.575;  -87.000;  -20.000
285.027; -121.150; -844.000; -892.000
285.166;  -42.475; -192.000; -249.000
285.306;    1.775; -116.000;  -33.000
285.445;  -41.200; -229.000; -343.000
285.584;  -75.775; -630.000; -494.000
285.724;  -36.075; -282.000; -322.000
285.863; -110.525; -857.000; -507.000
286.002;  -64.650; -366.000; -276.000
286.142;  -92.900; -715.000; -622.000
286.281;  -65.325; -525.000; -493.000
286.420;  -91.850; -554.000; -417.000
286.560;   82.200;  653.000;  623.000
286.699; -136.525; -958.000; -912.000
286.838;  -82.075; -590.000; -591.000
286.978; -104.125; -533.000; -537.000
287.117; -133.975;-1085.000; -950.000
287.256;  -37.575; -228.000; -211.000
287.395;  -48.425; -197.000; -378.000
287.535;  -47.800; -370.000; -298.000
287.674;  -88.550; -509.000; -484.000
287.813;   36.425;  661.000;  533.000
287.952; -126.325;-1010.000; -871.000
288.091; -134.550;-1049.000; -915.000
288.231;    9.425;   13.000;   15.000
288.370; -172.075;-1217.000;-1200.000
288.509;  -78.725; -728.000; -645.000
288.648;  -89.275; -770.000; -548.000
288.787;  -39.425; -243.000;  -87.000
288.926;  -65.050; -454.000; -475.000
289.065;  117.900;  859.000;  672.000
289.204;  -37.250; -377.000; -217.000
289.344;  -94.875; -791.000; -690.000
289.483;   17.775;  416.000;  304.000
289.622;  -27.225; -291.000; -149.000
289.761;  -12.725; -309.000; -166.000
289.900; -108.750; -785.000; -626.000
290.039;  -21.750;  -12.000;  -95.000
290.178;  -33.725; -274.000; -180.000
290.317;  -82.225; -618.000; -479.000
290.456;  -66.975; -463.000; -451.000
290.595; -118.100; -961.000; -833.000
290.734; -137.600; -904.000; -891.000
290.873;  -59.475; -456.000; -420.000
291.011; -102.200; -833.000; -843.000
291.150; -110.025; -770.000; -682.000
291.289;  -31.625; -343.000; -110.000
291.428;  -93.625; -599.000; -480.000
291.567;  -60.450; -370.000; -442.000
291.706;   -8.525;  109.000;  154.000
291.845;  -85.125; -597.000; -505.000
291.984; -159.300;-1234.000;-1061.000
292.122;   54.000;  602.000;  582.000
292.261;   50.500;  620.000;  463.000
292.400;    5.950; -144.000;  211.000
292.539; -120.100; -959.000; -813.000
292.678;  -34.800; -325.000; -300.000
292.816; -165.575;-1136.000; -965.000
292.955;  -80.700; -844.000; -684.000
293.094;  -33.750; -173.000; -337.000
293.233;  -58.675; -556.000; -400.000
293.371;  -38.150; -225.000;  -84.000
293.510; -105.950; -866.000; -780.000
293.649; -126.600; -959.000; -924.000
293.787;  -71.150;-1083.000;-1012.000
293.926;   -1.525; -113.000;  -32.000
294.065;  -56.825; -379.000; -290.000
294.203;   43.050;  298.000;  406.000
294.342;   22.025;   74.000;  156.000
294.481; 5244.750;51180.000; -836.000
294.619;  -32.250; -425.000; -582.000
294.758; -144.975;-1230.000;-1137.000
294.896;   59.575; -125.000;    5.000
295.035; -126.875;-1040.000;-1006.000
295.174; -107.250;-1082.000; -954.000
295.312;  -46.100; -323.000; -203.000
295.451;  -11.675; -307.000; -428.000
295.589;  -58.575; -389.000; -518.000
295.728;   20.475; -292.000; -165.000
295.866;  -12.200;  -36.000;  -51.000
296.005;  -53.825; -584.000; -341.000
296.143;  -65.275; -558.000; -596.000
296.282; -109.775; -957.000; -881.000
296.420;  -87.675; -657.000; -557.000
296.559;  -84.275; -892.000; -633.000
296.697;    7.950; -847.000; -665.000
296.835;   52.025;-1141.000;-1002.000
296.974;   40.050;  -23.000;   39.000
297.112;   16.450; -443.000; -504.000
297.251;  -68.225; -815.000; -755.000
297.389;   94.525; -576.000; -438.000
297.527;   34.850; -145.000;  -83.000
297.666;  -56.925; -486.000; -438.000
297.804;  -44.375; -404.000; -264.000
297.942;   -5.050; -136.000; -161.000
298.081;  -20.350; -183.000;   63.000
298.219;   61.150;  -17.000;  -19.000
298.357;   55.400; -144.000;  -71.000
298.495;   32.575; -810.000; -812.000
298.634;   69.200;  245.000;  219.000
298.772;   47.350; -220.000; -338.000
298.910;  -40.550; -309.000; -182.000
299.048;  -25.875; -130.000; -153.000
299.187;  -21.425; -350.000; -250.000
299.325;   10.050;   52.000;  122.000
299.463;   42.025; -389.000; -299.000
299.601;  106.075; -327.000; -271.000
299.739; -116.650; -908.000; -883.000
299.877;  -78.325; -791.000; -703.000
300.016;  -47.650;-1095.000; -935.000
300.154;  138.975;  -19.000; -161.000
300.292;   41.275; -428.000; -348.000
300.430;   30.650; -408.000; -291.000
300.568; -104.625; -940.000; -874.000
300.706;  -34.725; -366.000; -469.000
300.844;  -72.575;-1108.000; -979.000
300.982;  100.375;  246.000;  282.000
301.120; -111.400; -965.000; -866.000
301.258;  -60.350; -812.000; -705.000
301.396;   32.475;  104.000;  -41.000
301.534;   79.050; -218.000; -293.000
301.672;  -11.525; -664.000; -521.000
301.810;   19.525; -613.000; -545.000
301.948;  101.750;   53.000;  149.000
302.086;  616.250; -250.000;  -32.000
302.224;  872.400; -610.000; -585.000
302.362;   24.625; -558.000; -622.000
302.500;  -30.525; -923.000; -893.000
302.638;  103.525;  128.000;  245.000
302.776;    2.125; -352.000; -408.000
302.913;   45.325;  447.000;  236.000
303.051;  -14.350;  -86.000;  -23.000
303.189;   45.350;   90.000;  118.000
303.327;  -45.675; -341.000; -256.000
303.465;  -81.225; -832.000; -588.000
303.603;  -88.625; -805.000; -604.000
303.740;   97.225;  417.000;  241.000
303.878;   26.450; -800.000; -759.000
304.016;  -83.425; -915.000; -790.000
304.154; -122.100;-1123.000;-1152.000
304.291;  -40.750; -505.000; -554.000
304.429;    4.575;  102.000;   74.000
304.567; -123.775; -908.000; -893.000
304.705;  -59.300; -408.000; -515.000
304.842;   92.275; -616.000; -540.000
304.980;   48.675;  215.000;   35.000
305.118;   53.550; -367.000; -365.000
305.255;  -80.850; -945.000; -927.000
305.393;   43.400;  178.000;  239.000
305.531; -104.600;-1173.000; -956.000
305.668;  -59.950; -663.000; -582.000
305.806;  101.275; -358.000; -439.000
305.943;  108.625; -629.000; -637.000
306.081;   44.150; -378.000; -267.000
306.219;  -90.350; -863.000; -748.000
306.356;    6.975;  158.000;   27.000
306.494;  105.350;  981.000;  761.000
306.631;   -1.750;  -11.000;  -55.000
306.769;    9.475; -613.000; -485.000
306.906;  -21.450; -284.000; -258.000
307.044;  -73.025; -473.000; -488.000
307.181;  -67.200; -410.000; -332.000
307.319;   12.575;  112.000;   87.000
307.456; -171.425;-1191.000;-1153.000
307.594; -103.250; -980.000; -727.000
307.731;   -6.525; -371.000; -164.000
307.868;   -7.125;  -15.000;   20.000
308.006; -127.025; -961.000; -847.000
308.143;  -55.225; -618.000; -330.000
308.281;  166.200;  -37.000; -254.000
308.418;   -6.450; -748.000; -640.000
308.555;  -87.075; -400.000; -250.000
308.693;  -76.675; -577.000; -573.000
308.830; -106.950; -712.000; -657.000
308.967;  -24.000; -215.000;  -95.000
309.105;  -44.425; -507.000; -396.000
309.242;   46.450; -468.000; -367.000
309.379;  322.325; -577.000; -655.000
309.517;  -60.925; -936.000; -948.000
309.654; -106.475; -910.000; -734.000
309.791;  -75.525; -662.000; -580.000
309.928; -114.175; -977.000; -914.000
310.065;  169.600;  819.000;  697.000
310.203;   -4.250; -825.000; -850.000
310.340;  -14.350; -465.000; -321.000
310.477;  -82.175; -412.000; -516.000
310.614;  -62.025; -383.000; -473.000
310.751;  -83.925; -427.000; -518.000
310.889;  -22.225;    1.000;   11.000
311.026; -133.850;-1161.000; -939.000
311.163;  -54.275; -386.000; -380.000
311.300;  -80.000; -512.000; -479.000
311.437;  -70.000; -658.000; -619.000
311.574; -159.375;-1226.000; -985.000
311.711;  -57.950; -595.000; -433.000
311.848;  -50.625; -380.000; -388.000
311.985;   14.950;  270.000;   93.000
312.122; -122.125; -932.000; -762.000
312.259; -115.675; -941.000; -994.000
312.396;  -81.450; -508.000; -551.000
312.533;  -84.375; -812.000; -790.000
312.670; -132.800;-1070.000; -898.000
312.807;  -46.125; -352.000; -367.000
312.944;  -78.925; -513.000; -611.000
313.081;  -37.600; -150.000; -415.000
313.218; -102.800;-1111.000; -867.000
313.355;   -3.500; -531.000; -449.000
313.492;    2.250; -455.000; -292.000
313.629;  125.000;  815.000;  735.000
313.766; -157.700;-1176.000;-1008.000
313.902;  -22.475; -186.000;   21.000
314.039;  -54.000; -372.000; -289.000
314.176;   20.875;  286.000;  192.000
314.313;  -65.150; -569.000; -473.000
314.450;  -72.375; -788.000; -684.000
314.587;  -64.225; -468.000; -480.000
314.723;   -5.675;  -78.000;  130.000
314.860;   24.950;  318.000;  332.000
314.997;   20.200;  223.000;  142.000
315.134;  -34.400; -385.000; -368.000
315.270;  -27.825; -480.000; -496.000
315.407; -120.475;-1094.000; -967.000
315.544;  -54.475; -657.000; -538.000
315.681;  -64.400; -681.000; -565.000
315.817;   18.350; -133.000; -176.000
315.954;    4.325; -613.000; -392.000
316.091; -121.525;-1045.000;-1023.000
316.227;  -27.050;  -71.000; -179.000
316.364;    5.550;   23.000;    6.000
316.500;  -43.925; -113.000; -300.000
316.637;  -40.725; -181.000; -302.000
316.774;  -87.375; -625.000; -358.000
316.910;  -88.900; -598.000; -629.000
317.047;  -63.475; -487.000; -351.000
317.183;  -59.550; -435.000; -566.000
317.320;   -9.350; -367.000; -321.000
317.456;  -61.450; -733.000; -805.000
317.593;  -93.525; -598.000; -641.000
317.729;   10.450;  168.000;  -67.000
317.866; -193.250;-1434.000;-1285.000
318.002;  -87.250; -708.000; -948.000
318.139;  -93.450; -883.000; -867.000
318.275; -103.600;-1003.000; -738.000
318.412;  -73.050; -517.000; -336.000
318.548;  -44.550; -751.000; -720.000
318.685;  -96.850; -985.000; -888.000
318.821;  -79.100; -762.000; -735.000
318.957;  -20.775;   34.000;  -23.000
319.094;   26.500;  297.000;  154.000
319.230;  -60.375; -756.000; -742.000
319.367;  112.700; -471.000; -520.000
319.503;   46.775; -538.000; -436.000
319.639;  -95.000; -877.000; -793.000
319.775;  -59.250; -750.000; -685.000
319.912;  -58.700; -424.000; -519.000
320.048;  -87.175;-1184.000;-1184.000
320.184;   74.550;   59.000;   70.000
320.321;  -63.125; -497.000; -467.000
320.457;   57.900;  475.000;  662.000
320.593;  -66.050; -375.000; -382.000
320.729; -110.425; -732.000; -734.000
320.866;  -68.425; -577.000; -635.000
321.002;  -87.700; -759.000; -809.000
321.138;  -19.075; -135.000; -211.000
321.274;   60.325; -148.000; -115.000
321.410;  -13.975; -585.000; -353.000
321.546;  -31.675;-1011.000; -911.000
321.683;   63.625;  400.000;  185.000
321.819;   -9.275;  -48.000; -117.000
321.955; -100.600; -743.000; -722.000
322.091;  -42.825; -585.000; -540.000
322.227;  -19.500; -382.000; -202.000
322.363;  -20.900; -320.000; -215.000
322.499;  -44.550; -343.000; -331.000
322.635;  161.600;  636.000;  443.000
322.771;   20.425; -139.000;   12.000
322.907;   84.600;  129.000;  327.000
323.043;  -29.900; -115.000; -206.000
323.179;  -38.125; -394.000; -363.000
323.315;   15.100; -401.000; -371.000
323.451;   82.150; -328.000; -236.000
323.587;   57.025;  -60.000;  -77.000
323.723;    5.825; -682.000; -601.000
323.859;  -33.200; -258.000;  -76.000
323.995;  -38.725; -467.000; -409.000
324.131; -126.525; -967.000; -892.000
324.267;  -28.625; -254.000; -276.000
324.402; -121.750; -960.000; -983.000
324.538;  -22.875; -279.000; -104.000
324.674;   19.025;  164.000;   77.000
324.810;  118.075;  226.000;  308.000
324.946;   -1.100; -810.000; -658.000
325.082;  -70.425; -568.000; -475.000
325.217;  -21.450;  -62.000;   16.000
325.353;  -98.525; -764.000; -659.000
325.489;  -90.900; -540.000; -506.000
325.625;  -68.975; -579.000; -525.000
325.760;   65.550;  517.000;  376.000
325.896;  -37.175; -515.000; -702.000
326.032;  -49.525; -403.000; -352.000
326.168;  -56.975; -462.000; -369.000
326.303;  -65.125; -352.000; -461.000
326.439;  -27.975; -336.000; -276.000
326.575;  -10.075; -190.000;  -29.000
326.710;   -8.000; -156.000;  -30.000
326.846;  -10.625;  146.000;  103.000
326.982;  -85.375; -530.000; -548.000
327.117;  -68.775; -481.000; -442.000
327.253;  -90.150; -745.000; -742.000
327.388; -152.050;-1137.000;-1153.000
327.524;  -47.975; -811.000; -578.000
327.659;  -29.825;  -58.000;  -22.000
327.795;  -10.050;   69.000;   45.000
327.931;  -87.050; -723.000; -499.000
328.066;  -36.025; -417.000; -276.000
328.202;   -6.950;   12.000; -129.000
328.337;  103.050;  957.000;  713.000
328.473;   39.050;  -12.000;  -74.000
328.608;  -26.750; -256.000; -267.000
328.743;  -78.400; -799.000; -664.000
328.879;   17.900;  214.000;  114.000
329.014;  -40.825; -102.000; -122.000
329.150;  -79.300; -358.000; -483.000
329.285;  -85.825; -465.000; -466.000
329.421;  -35.425; -548.000; -246.000
329.556;  -38.625;  -36.000;   85.000
329.691;  -99.350; -633.000; -615.000
329.827;  -79.775; -626.000; -480.000
329.962;  -35.225;  131.000; -301.000
330.097;  -90.200; -673.000; -585.000
330.233;  -40.150; -410.000; -223.000
330.368; -121.950; -839.000; -628.000
330.503;   -6.325;    3.000;   98.000
330.638;   10.200;  -93.000; -125.000
330.774;  -63.775; -609.000; -530.000
330.909;  -52.600; -434.000; -244.000
331.044;  -92.775; -714.000; -708.000
331.179; -175.475;-1217.000;-1109.000
331.315;    3.125;   77.000;   20.000
331.450;    8.450;  157.000;  285.000
331.585;  -80.525; -805.000; -706.000
331.720;  -84.475; -510.000; -460.000
331.855;   -9.225;  -35.000; -102.000
331.990;  260.450;   62.000;  138.000
332.126;  143.975; -110.000;   71.000
332.261;  -22.600; -379.000; -265.000
332.396;    1.875; -135.000; -242.000
332.531;  -82.650;-1074.000;-1031.000
332.666;   29.600; -519.000; -363.000
332.801;  -93.575; -726.000; -807.000
332.936;  -21.725; -192.000; -122.000
333.071; -136.425; -870.000; -817.000
333.206;    7.400;  307.000;  379.000
333.341;   18.450;  344.000;  418.000
333.476;  -76.350; -627.000; -623.000
333.611;  -47.675; -251.000; -173.000
333.746;  -47.150; -381.000; -464.000
333.881; -121.100; -973.000; -935.000
334.016; -126.400; -936.000; -917.000
334.151; -126.725; -746.000; -702.000
334.286;   33.500;  152.000;  186.000
334.421;  -22.150; -125.000; -178.000
334.556;  -86.825; -611.000; -567.000
334.690;  -93.925; -631.000; -577.000
334.825;   42.150;  381.000;   83.000
334.960;  -63.450; -285.000; -413.000
335.095;    4.725;  135.000;  -91.000
335.230;  -98.050; -722.000; -738.000
335.365; -136.900;-1084.000; -990.000
335.499; -135.950;-1108.000;-1037.000
335.634;   16.525;    9.000;  534.000
335.769; -111.175; -755.000; -720.000
335.904;  -58.700; -603.000; -561.000
336.038;  -53.250; -735.000; -657.000
336.173; -126.350;-1206.000;-1194.000
336.308;  -10.750; -116.000; -189.000
336.443;   13.950; -544.000; -634.000
336.577;  -80.250; -936.000; -787.000
336.712;   47.175;   -4.000;  -12.000
336.847;  -44.075; -724.000; -607.000
336.981;   49.600; -272.000; -208.000
337.116;  258.550;  615.000;  501.000
337.250;  138.975; -434.000; -421.000
337.385;  269.425; -297.000; -208.000
337.520;  105.775; -632.000; -603.000
337.654;  -28.650; -215.000; -126.000
337.789; -124.025; -989.000; -933.000
337.923;  -28.700; -104.000; -205.000
338.058;  -79.825; -673.000; -738.000
338.192;  -37.575; -611.000; -488.000
338.327;   -4.675;  -18.000; -155.000
338.461;  -54.500; -299.000; -469.000
338.596;  -99.850; -780.000; -638.000
338.730; -103.550; -767.000; -803.000
338.865;   95.075;  -46.000; -140.000
338.999;  -41.600; -846.000; -702.000
339.134;  -19.050; -634.000; -536.000
339.268;   16.025; -741.000; -603.000
339.403;  388.925; -740.000; -775.000
339.537;  126.125; -894.000; -820.000
339.671; -110.100; -829.000; -813.000
339.806;  -61.600; -556.000; -512.000
339.940;    2.675; -261.000; -235.000
340.074; -100.900; -685.000; -510.000
340.209;  -39.925; -351.000; -230.000
340.343;  -96.000; -517.000; -573.000
340.477;  127.200;  998.000; 1036.000
340.612;  -48.450;-1033.000; -900.000
340.746;  132.625; -199.000; -243.000
340.880;  -72.900; -924.000; -785.000
341.014;  -19.950;  -45.000; -154.000
341.149; -114.725; -756.000; -718.000
341.283;  -98.850; -839.000; -754.000
341.417;  -96.000;-1124.000; -938.000
341.551;  116.950; -768.000; -708.000
341.685;  -18.650; -633.000; -611.000
341.820;  -68.150; -562.000; -493.000
341.954;  -47.975; -218.000; -349.000
342.088; -148.575;-1102.000;-1019.000
342.222;   53.375;  565.000;  618.000
342.356;  -62.250; -395.000; -335.000
342.490; -102.750; -880.000; -841.000
342.624;  -51.650; -339.000; -242.000
342.758;   -1.500; -364.000; -312.000
342.892;  -74.875; -710.000; -585.000
343.026;  -36.575;  -58.000; -116.000
343.160;  -51.900; -426.000; -376.000
343.294;  -78.100; -474.000; -337.000
343.428;  -27.925; -488.000; -448.000
343.562;  -31.150; -172.000;  -23.000
343.696;  -30.750; -385.000; -314.000
343.830;  -34.275; -362.000; -356.000
343.964;   10.825; -231.000; -168.000
344.098;  847.075;  199.000;   70.000
344.232;  711.825; -266.000; -127.000
344.366;   87.825; -567.000; -453.000
344.500;   56.800; -665.000; -744.000
344.634;   28.775; -324.000; -164.000
344.768;  -11.025; -531.000; -341.000
344.902;   24.900;  278.000;  256.000
345.035;  -73.100; -556.000; -496.000
345.169; -128.600; -933.000; -656.000
345.303;  -33.550; -308.000; -482.000
345.437;  -71.850; -826.000; -717.000
345.571;  -72.300; -675.000; -594.000
345.704;  -47.925; -309.000; -532.000
345.838;  -14.050; -331.000; -284.000
345.972;  -49.450; -543.000; -495.000
346.106;  155.975; -179.000; -190.000
346.239;  396.400; -312.000; -243.000
346.373;    2.125; -343.000; -302.000
346.507; -133.025; -950.000; -962.000
346.640;  131.575;  -30.000;   13.000
346.774;  -54.975; -650.000; -797.000
346.908;  -24.750; -138.000;  -11.000
347.041;  -80.500; -646.000; -593.000
347.175;   13.575;  259.000;   27.000
347.309;  -80.075; -698.000; -628.000
347.442; -106.300; -883.000; -732.000
347.576;  257.075;  670.000;  668.000
347.709;  183.025; -123.000;  -52.000
347.843;  -88.775; -933.000; -825.000
347.976;   29.050;  235.000;  294.000
348.110; -185.800;-1268.000;-1186.000
348.243;  -93.775; -679.000; -772.000
348.377;   10.175;  -26.000;   60.000
348.510;   44.625;  403.000;  540.000
348.644;  -33.700;  -37.000; -159.000
348.777;  -12.925;  180.000;  191.000
348.911;  -65.425; -142.000; -112.000
349.044;  163.425;  471.000;  448.000
349.178;  132.125;-1069.000;-1006.000
349.311;  112.200;  141.000;  255.000
349.444;   -1.225; -927.000; -813.000
349.578;  -13.950; -347.000; -200.000
349.711; -111.525; -959.000; -862.000
349.845;    0.850; -661.000; -591.000
349.978; -145.350;-1224.000;-1137.000
350.111;  -90.975; -546.000; -612.000
350.244;  -84.150; -596.000; -700.000
350.378;    6.025; -392.000; -393.000
350.511;  -67.425; -393.000; -426.000
350.644; -100.075; -808.000; -806.000
350.778;    6.650;  168.000;  104.000
350.911;    1.000;  134.000;  140.000
351.044;  -90.800; -685.000; -615.000
351.177;  -40.125; -321.000; -281.000
351.310;  -18.250;    3.000; -131.000
351.444;  -73.000; -888.000; -788.000
351.577;   95.950;  140.000;   90.000
351.710;   73.025;  593.000;  417.000
351.843;  -49.075; -165.000;  -77.000
351.976;   -0.350;  149.000;  -79.000
352.109;  -88.425; -621.000; -612.000
352.242;  -41.350; -464.000; -419.000
352.376;  -68.075; -580.000; -636.000
352.509;  145.350; -437.000; -356.000
352.642;   12.200; -654.000; -604.000
352.775;   53.100; -141.000;  -98.000
352.908; -113.575; -933.000; -904.000
353.041; -103.475; -814.000; -824.000
353.174;  -68.075; -551.000; -424.000
353.307;  -77.650; -753.000; -764.000
353.440;   70.525;  541.000;  453.000
353.573; -117.400; -957.000;-1008.000
353.706;  -41.700; -384.000; -558.000
353.839;  -17.400; -264.000; -220.000
353.971;  -94.900; -657.000; -512.000
354.104;  -75.750; -896.000; -835.000
354.237;  -29.175; -627.000; -662.000
354.370;  -82.125; -846.000; -879.000
354.503; -178.150;-1231.000;-1308.000
354.636;  -35.300; -529.000; -348.000
354.769; -118.950; -937.000; -860.000
354.902;  -11.225; -230.000; -139.000
355.034;  -22.075; -164.000; -220.000
355.167;  -13.450; -262.000; -162.000
355.300;  -87.300;-1061.000; -880.000
355.433;  993.100;  -71.000;  -14.000
355.565; 1594.675; -402.000; -384.000
355.698;  390.350; -356.000; -296.000
355.831;   14.650; -882.000; -801.000
355.964;   60.450; -285.000; -170.000
356.096;  -92.850; -856.000; -843.000
356.229;  -14.050; -523.000; -530.000
356.362;  346.975; -373.000; -266.000
356.494;  610.900; -229.000; -162.000
356.627;  458.525;  269.000;  377.000
356.760;  684.400;  120.000;   53.000
356.892; 1007.975; -286.000; -601.000
357.025;  612.425;  403.000;  389.000
357.157;  570.650; -167.000; -179.000
357.290;  726.900; -856.000; -713.000
357.423;  203.075; -667.000; -556.000
357.555;  107.350; -217.000; -228.000
357.688;  111.450; -483.000; -364.000
357.820;  431.850; -870.000; -877.000
357.953; 3508.350; -563.000; -589.000
358.085;  789.575; -632.000; -612.000
358.218;  996.650;-1131.000; -932.000
358.350;  193.800;  -58.000;  312.000
358.483; -120.700;-1300.000;-1187.000
358.615;  -19.525;-1182.000;-1078.000
358.747;  -63.925;-1187.000;-1058.000
358.880;   12.650; -810.000; -744.000
359.012;  -22.725; -376.000; -202.000
359.145;  -34.975; -480.000; -511.000
359.277;   66.550; -962.000; -913.000
359.409; 2870.925;  536.000;  231.000
359.542;  786.550; -738.000; -688.000
359.674;   72.100;   46.000;   13.000
359.806;  -56.550; -565.000; -438.000
359.939;  -38.925; -617.000; -516.000
360.071;  -12.875; -583.000; -579.000
360.203;  -19.200; -411.000; -364.000
360.335;   49.475;  164.000;  -16.000
360.468;  168.675; -249.000; -307.000
360.600; 2355.275; -547.000; -454.000
360.732; 2959.250; -546.000; -423.000
360.864;  448.825;-1216.000;-1044.000
360.996;  248.150; -516.000; -554.000
361.129;   39.325; -389.000; -598.000
361.261;   29.725;  110.000; -113.000
361.393;  -24.100; -252.000; -214.000
361.525;   16.350;   94.000;  244.000
361.657;  -46.400; -821.000; -703.000
361.789;   -4.775; -139.000; -155.000
361.921;  188.825; -642.000; -593.000
362.053;  243.675;  524.000;  541.000
362.185;   37.275;  288.000;   72.000
362.318;  -74.625; -709.000; -705.000
362.450;  109.000;  294.000;  444.000
362.582;   76.075; -913.000; -870.000
362.714;  -36.100; -353.000; -332.000
362.846;  -79.900; -606.000; -490.000
362.978; -150.100; -941.000; -811.000
363.109;   48.075; -161.000; -260.000
363.241;  403.825; -739.000; -749.000
363.373;  458.425; -649.000; -564.000
363.505;  701.800; -186.000;  -91.000
363.637;  181.800; -787.000; -601.000
363.769; -118.925;-1067.000;-1080.000
363.901;  -76.900; -596.000; -654.000
364.033; -116.150;-1103.000;-1062.000
364.165;   -9.575; -283.000; -283.000
364.296;   71.225; -316.000; -177.000
364.428;   74.350;-1344.000;-1220.000
364.560;  -72.600; -679.000; -661.000
364.692;  -68.750; -738.000; -835.000
364.824;  225.900; -588.000; -456.000
364.955;  449.550; -402.000; -564.000
365.087;  998.075;-1097.000; -852.000
365.219;   32.125; -686.000; -816.000
365.351;  -74.100; -526.000; -572.000
365.482;   54.075;  300.000;  240.000
365.614;  -55.650; -402.000; -314.000
365.746;  -98.775; -729.000; -752.000
365.877; -108.700; -706.000; -672.000
366.009;  261.850;  -35.000;  -62.000
366.141;  -88.800;-1249.000;-1134.000
366.272;  -95.650; -803.000; -719.000
366.404; -105.300;-1005.000; -874.000
366.535;  -10.250; -139.000;  -12.000
366.667;  -97.075; -644.000; -649.000
366.799;   36.325;  353.000;  203.000
366.930; -126.275; -862.000; -996.000
367.062;  134.275; -639.000; -613.000
367.193;  159.300; -872.000; -842.000
367.325;  -70.625; -580.000; -684.000
367.456;   14.950; -246.000;   31.000
367.588;  170.000; -371.000; -318.000
367.719;   17.825;  -44.000;  -45.000
367.851;  -13.475; -222.000; -241.000
367.982;  -46.750; -875.000; -732.000
368.113;   77.350; -475.000; -358.000
368.245; -111.475; -960.000; -841.000
368.376;   -8.775; -254.000; -302.000
368.508;  -45.900; -188.000; -263.000
368.639; -129.250;-1166.000;-1034.000
368.770;  -23.850; -670.000; -589.000
368.902;  -56.225; -836.000; -926.000
369.033; -112.100; -906.000; -855.000
369.164;  -47.575; -720.000; -653.000
369.296; -111.975; -452.000; -601.000
369.427;  -14.925; -209.000; -144.000
369.558;  -43.850; -593.000; -377.000
369.689;  -99.000; -721.000; -569.000
369.821; -141.800; -951.000; -845.000
369.952;  -26.725;   42.000; -108.000
370.083;  -59.600; -229.000; -108.000
370.214;  -82.075; -735.000; -650.000
370.345;   -3.350;   65.000;   81.000
370.477;  -86.125; -810.000; -790.000
370.608;  194.875; -328.000; -264.000
370.739;  -49.600;-1233.000;-1292.000
370.870;  -53.925;-1102.000; -923.000
371.001;   88.200; -378.000; -467.000
371.132;  -74.175; -754.000; -735.000
371.263;  -16.400;  -42.000; -148.000
371.394; -135.525; -841.000; -748.000
371.525;   22.250;  345.000;  225.000
371.657;  -93.200; -808.000; -670.000
371.788;   58.000;  103.000;  199.000
371.919;  160.225; -384.000; -304.000
372.050; 3376.100;  -91.000; -156.000
372.181; 1045.975; -188.000; -294.000
372.311;  334.750;   42.000; -127.000
372.442;   27.900; -457.000; -451.000
372.573;   -1.550; -444.000; -340.000
372.704; -122.650;-1008.000; -980.000
372.835;   63.350; -228.000; -289.000
372.966;  -63.325; -646.000; -554.000
373.097;  -67.800; -575.000; -711.000
373.228;  -56.100; -717.000; -542.000
373.359;  112.600; -824.000; -536.000
373.490;  844.275; -881.000; -727.000
373.620; 1086.725;-1001.000; -803.000
373.751; 1623.725; -332.000; -396.000
373.882;  753.850; -663.000; -733.000
374.013;   80.500; -449.000; -262.000
374.143;  -35.800; -581.000; -659.000
374.274; -105.450; -987.000; -908.000
374.405;  175.150; -388.000; -276.000
374.536;  390.125; -526.000; -387.000
374.666; 1010.150; -759.000; -807.000
374.797;  190.750; -817.000; -868.000
374.928;  758.675; -710.000; -560.000
375.058;  831.300; -535.000; -500.000
375.189;   85.950;  -59.000;  -93.000
375.320; -107.425; -928.000;-1034.000
375.450;  -45.550; -625.000; -616.000
375.581;  -36.675; -526.000; -436.000
375.712;  -33.075; -574.000; -250.000
375.842;  286.000; -438.000; -415.000
375.973;  205.525; -554.000; -513.000
376.103;  -55.475; -665.000; -648.000
376.234;  -74.450; -531.000; -552.000
376.364;  -48.150; -944.000; -867.000
376.495;  298.650;  925.000;  529.000
376.625;  -25.200; -472.000; -485.000
376.756;   59.650; -709.000; -678.000
376.886;  -80.450;-1178.000;-1026.000
377.017;   55.100;-1048.000;-1061.000
377.147;  387.975; -786.000; -782.000
377.278;   59.225;  174.000;  228.000
377.408; -110.750; -801.000; -815.000
377.538; -101.325; -707.000; -693.000
377.669;  -87.125; -537.000; -613.000
377.799;  -96.325; -645.000; -635.000
377.929;  -67.875; -610.000; -428.000
378.060; -120.625; -781.000; -847.000
378.190;  -59.225; -726.000; -531.000
378.320;  -50.425; -401.000; -406.000
378.451;  -20.750; -131.000;  -22.000
378.581;  -23.225;  -67.000; -110.000
378.711;  140.475; 1035.000;  866.000
378.841;  -16.575; -533.000; -675.000
378.972;  -60.325; -871.000; -751.000
379.102;  -19.025; -652.000; -579.000
379.232;  -31.500; -126.000;  -73.000
379.362; -101.700;-1001.000; -885.000
379.492;    5.425; -373.000; -424.000
379.623;   98.175;    0.000;  111.000
379.753; -106.725;-1107.000; -974.000
379.883;  170.475;   59.000;  156.000
380.013;   -1.800;-1081.000;-1017.000
380.143; -104.050;-1097.000;-1056.000
380.273; -102.675; -985.000; -861.000
380.403;   -1.225; -344.000; -257.000
380.533;  -28.775; -651.000; -664.000
380.663;   65.750;  173.000;  128.000
380.793; -113.775;-1027.000;-1074.000
380.923;  -30.125; -103.000;  -34.000
381.053;  -91.025; -613.000; -623.000
381.183;  -28.025; -106.000; -248.000
381.313;    7.800; -656.000; -470.000
381.443;   35.775; -692.000; -473.000
381.573;  168.225; -402.000; -409.000
381.703;  261.500;-1249.000;-1095.000
381.833; -145.375;-1454.000;-1336.000
381.963;  101.975; -134.000;  -87.000
382.093; 1321.550; -925.000; -909.000
382.223;  412.250; -713.000; -602.000
382.353;  -22.825; -801.000; -608.000
382.482;  335.550;-1091.000; -964.000
382.612;  700.300; -872.000; -644.000
382.742;  418.825; -695.000; -622.000
382.872;  230.800; -565.000; -551.000
383.002;   56.950;  347.000; -132.000
383.131;  -11.375; -226.000; -160.000
383.261;  -49.500; -706.000; -768.000
383.391;  279.150; -552.000; -377.000
383.521; 3301.400;  451.000;  263.000
383.650;  881.375; -947.000; -904.000
383.780;    1.125; -783.000; -656.000
383.910;  102.050;  880.000;  802.000
384.039;    7.225; -794.000; -656.000
384.169;  179.650;-1205.000;-1017.000
384.299;  -27.575; -650.000; -662.000
384.428;  -93.925; -764.000; -680.000
384.558;  -57.275; -308.000; -275.000
384.687;  -36.875; -414.000; -334.000
384.817;   15.025;   75.000;   -2.000
384.947;    4.375; -234.000; -141.000
385.076;  273.400;  982.000;  912.000
385.206;   80.225;  369.000;  480.000
385.335;  -42.675; -549.000; -417.000
385.465;  -77.925; -655.000; -663.000
385.594;  106.575;  -53.000;  -44.000
385.724;  384.925; -868.000; -838.000
385.853;  114.375; -296.000; -270.000
385.982; 1211.725; -743.000; -787.000
386.112; 2036.425;-1052.000; -871.000
386.241;  150.375; -307.000; -312.000
386.371;   28.950; -174.000;  -87.000
386.500;  -15.550; -825.000; -789.000
386.629;   27.750; -874.000; -817.000
386.759;   62.475;  -43.000;   68.000
386.888;  -12.475; -170.000; -250.000
387.017;  -74.000; -648.000; -620.000
387.147;  -90.700; -771.000; -798.000
387.276;   -9.975; -410.000; -397.000
387.405;    8.900; -398.000; -342.000
387.535;  -51.575; -452.000; -361.000
387.664;  -64.725; -692.000; -620.000
387.793;   47.675; -198.000; -113.000
387.922;  479.000;  255.000;  200.000
388.052;    4.725; -576.000; -423.000
388.181;   -7.275; -342.000; -472.000
388.310;  -18.000; -889.000; -710.000
388.439;  -56.425; -749.000; -742.000
388.568;  157.225;  365.000;  244.000
388.697;  944.675; -756.000; -653.000
388.826;  197.175; -768.000; -666.000
388.956;   23.725; -285.000; -307.000
389.085;  -51.675; -347.000; -287.000
389.214; -108.700; -842.000; -872.000
389.343;  -85.250; -645.000; -413.000
389.472;  393.500;  126.000;  149.000
389.601;  515.700;   91.000;    0.000
389.730;   15.650; -568.000; -687.000
389.859;   53.175;  226.000;   46.000
389.988;  135.200; -423.000; -408.000
390.117;  138.725; -168.000; -146.000
390.246;  -22.075; -331.000; -320.000
390.375;   82.500; -673.000; -626.000
390.504;  -61.525; -703.000; -621.000
390.633;  -99.800; -672.000; -726.000
390.761;  -65.000; -732.000; -645.000
390.890;   13.575;   -4.000; -130.000
391.019;  -35.675; -421.000; -441.000
391.148; -129.775; -826.000; -855.000
391.277;  -70.275; -576.000; -493.000
391.406;  -98.175; -821.000; -805.000
391.534;   21.250;  574.000; -301.000
391.663;  -80.175; -583.000; -645.000
391.792;  -77.975; -673.000; -701.000
391.921;   68.975;   -3.000;   15.000
392.050;  150.350; -287.000; -228.000
392.178;  -64.050;-1206.000;-1061.000
392.307;  110.700; -758.000; -712.000
392.436;   62.325; -427.000; -641.000
392.564;    3.925;  166.000;   -6.000
392.693;  -94.900; -860.000; -682.000
392.822;  167.925; -529.000; -534.000
392.950;   83.250; -880.000; -714.000
393.079;  293.275; -188.000; -328.000
393.208;   16.625; -488.000; -511.000
393.336;  -21.275; -170.000; -145.000
393.465;  -53.700; -317.000; -199.000
393.593;   -8.575;   62.000;   79.000
393.722; -134.725;-1121.000; -916.000
393.850;  -38.500; -188.000;  -61.000
393.979; -148.600; -926.000; -805.000
394.107;  -72.675; -517.000; -537.000
394.236;  -24.825; -570.000; -507.000
394.364;  202.500;  383.000;  206.000
394.493;  357.125; -911.000; -767.000
394.621;  -15.075; -955.000; -916.000
394.750;  730.200; -873.000; -923.000
394.878; 3054.350; -247.000; -149.000
395.007; 4326.850; -721.000; -807.000
395.135;  349.550; -790.000; -721.000
395.263;  -82.550;-1038.000;-1040.000
395.392;    2.800;  -25.000; -107.000
395.520; -131.475; -818.000; -679.000
395.648; -103.425; -865.000; -915.000
395.777;  -23.550; -366.000; -405.000
395.905;  -51.000; -449.000; -564.000
396.033;   18.575;  217.000;  172.000
396.162;  554.300; -399.000; -453.000
396.290;  523.650;  -17.000;   -2.000
396.418;   96.275; -555.000; -514.000
396.546;  -71.475; -571.000; -466.000
396.674;  -98.725; -850.000; -878.000
396.803;    9.550;  -72.000;  -23.000
396.931;   77.775; -179.000; -199.000
397.059;   45.550;-1026.000; -989.000
397.187; -111.225;-1026.000; -975.000
397.315; -121.325; -884.000; -649.000
397.443;  -93.625; -592.000; -443.000
397.572; -102.525; -578.000; -424.000
397.700;  -18.650; -607.000; -614.000
397.828;   17.250;  120.000;  -90.000
397.956;  -46.725; -508.000; -478.000
398.084;  -53.625; -767.000; -626.000
398.212;   32.775;  137.000;  124.000
398.340;   -4.150;  -56.000;  159.000
398.468;   18.000; -390.000; -169.000
398.596; -141.225; -993.000; -953.000
398.724; -117.350; -762.000; -767.000
398.852; -166.675;-1024.000; -976.000
398.980;  -66.125; -560.000; -560.000
399.108;  -47.325; -982.000; -735.000
399.236;   17.525;   13.000;    8.000
399.363;   -4.900;  222.000;  196.000
399.491;  -72.150; -404.000; -398.000
399.619; -125.800; -829.000; -800.000
399.747; -107.975; -859.000; -771.000
399.875;   69.800;  220.000;  234.000
400.003;  -47.950; -359.000; -284.000
400.130;  -92.725; -421.000; -341.000
400.258;  -34.600;  -83.000;   38.000
400.386;  -72.425; -352.000; -168.000
400.514;  -58.750; -526.000; -587.000
400.641; -103.400; -928.000; -802.000
400.769; -137.525; -979.000; -888.000
400.897; -112.750; -838.000; -793.000
401.025;  -20.300; -166.000; -152.000
401.152;  -12.500;  220.000;   38.000
401.280;  -82.950; -430.000; -429.000
401.408; -130.775; -712.000; -576.000
401.535; -111.225; -735.000; -758.000
401.663; -191.200;-1134.000;-1054.000
401.790;  -82.775; -514.000; -525.000
401.918;   41.450;  436.000;  405.000
402.046;   -5.725;  134.000;  122.000
402.173;  -30.600;  -18.000;    7.000
402.301;  -77.250; -519.000; -397.000
402.428;   28.200;  528.000;  383.000
402.556; -138.600;-1188.000; -913.000
402.683;  -44.025;  -20.000;   -1.000
402.811;  -32.125;  -37.000; -206.000
402.938;  -11.275;   20.000;   27.000
403.066;  168.875; -574.000; -558.000
403.193;  312.250;  299.000;  239.000
403.321;  223.750; -396.000; -574.000
403.448;  298.075;   83.000;   27.000
403.575;  147.075;  -90.000;  -46.000
403.703;  -90.325; -732.000; -557.000
403.830;  -62.025; -531.000; -496.000
403.957; -142.400;-1117.000;-1023.000
404.085;   13.375;  -61.000; -172.000
404.212;   99.550;  -50.000;   63.000
404.339;  266.850; -566.000; -306.000
404.467; 5965.825; -612.000; -524.000
404.594; 4102.125; -287.000; -227.000
404.721;  937.100; -869.000; -764.000
404.848;   95.000; -113.000; -202.000
404.976;  -93.550; -856.000; -783.000
405.103;  -14.875;  -14.000;  -82.000
405.230;   -6.550;  190.000;  226.000
405.357;   22.225;  117.000;   44.000
405.484;  280.500;  -49.000;    5.000
405.612;   55.700; -548.000; -563.000
405.739;  -66.900; -488.000; -243.000
405.866;   79.725;  669.000;  385.000
405.993;  -37.800; -398.000; -102.000
406.120; -139.500; -801.000; -887.000
406.247;  -62.025; -323.000; -342.000
406.374;  389.550;  540.000;  629.000
406.501;   87.800; -632.000; -702.000
406.628;  -70.725; -621.000; -589.000
406.755; -103.700; -803.000; -620.000
406.882;  -35.825; -228.000; -277.000
407.009; -111.600; -719.000; -628.000
407.136;   18.425; -480.000; -401.000
407.263;  105.425; -939.000; -829.000
407.390;  -74.450; -692.000; -614.000
407.517; -160.975;-1139.000;-1187.000
407.644;  -70.100; -332.000; -256.000
407.771;  -78.300; -249.000; -287.000
407.898;    7.050;  168.000;  328.000
408.025;  -58.325; -421.000; -313.000
408.151;  -35.700;   82.000;  153.000
408.278;  -66.300; -267.000; -216.000
408.405; -115.775; -931.000; -899.000
408.532;  -73.450; -549.000; -542.000
408.659; -113.250; -677.000; -648.000
408.785; -202.525;-1298.000;-1170.000
408.912;  -67.825; -412.000; -296.000
409.039; -109.725; -610.000; -686.000
409.166;  -96.275; -591.000; -555.000
409.292; -105.775; -571.000; -534.000
409.419; -120.175; -665.000; -649.000
409.546;  -88.825; -431.000; -192.000
409.672; -104.650; -713.000; -545.000
409.799;  -29.650;  -36.000;   34.000
409.926;  -33.450; -180.000; -179.000
410.052; -176.025;-1127.000;-1091.000
410.179;  -60.325; -368.000; -392.000
410.305;  -97.525; -375.000; -493.000
410.432;  -60.200; -220.000; -333.000
410.558;  -90.825; -305.000; -380.000
410.685; -112.700; -688.000; -431.000
410.812;  -95.100; -409.000; -588.000
410.938; -131.975; -964.000; -808.000
411.065; -113.525; -671.000; -645.000
411.191;  -30.875; -189.000; -174.000
411.317; -115.575; -823.000; -742.000
411.444;  -63.775; -317.000; -246.000
411.570;  -72.125; -339.000; -294.000
411.697; -129.350; -758.000; -752.000
411.823; -156.000; -989.000; -999.000
411.949;  -29.575;  -56.000;   17.000
412.076; -122.325; -539.000; -519.000
412.202; -118.875; -758.000; -757.000
412.329; -133.475; -798.000; -752.000
412.455; -122.300; -821.000; -657.000
412.581;  -38.850;  -15.000;  172.000
412.707;  -86.450; -540.000; -457.000
412.834;   -1.250;  156.000;  219.000
412.960;  -86.450; -785.000; -784.000
413.086; -100.500; -743.000; -701.000
413.212;  138.000;  604.000;  578.000
413.339;  -70.525; -685.000; -701.000
413.465;   -8.500; -364.000; -310.000
413.591;  -93.825; -757.000; -474.000
413.717;  -58.825; -358.000; -366.000
413.843; -138.050; -839.000; -861.000
413.969;  -68.000;  -47.000; -292.000
414.096; -113.525; -679.000; -679.000
414.222;  -18.625;  -33.000;   85.000
414.348;  -35.625; -652.000; -385.000
414.474;   84.900;   38.000;  -52.000
414.600;  -18.550; -126.000; -144.000
414.726;  -23.625;  -96.000;  -55.000
414.852;  -52.150; -365.000; -342.000
414.978;   15.400;  104.000;  -18.000
415.104;   51.175;   38.000;   80.000
415.230;   21.800; -329.000; -330.000
415.356;   35.900; -409.000; -514.000
415.482;  190.700;   13.000;  -35.000
415.608;  279.375; -247.000; -323.000
415.734;  981.575;   67.000;   38.000
415.860;20331.275; -875.000; -767.000
415.986;16018.975; -685.000; -607.000
416.111; 1423.200; -798.000; -652.000
416.237;  291.925; -424.000; -571.000
416.363; 1118.050; -765.000; -733.000
416.489; 4501.225; -324.000; -251.000
416.615;  550.675; -707.000; -742.000
416.741;  -15.400; -677.000; -784.000
416.866;  -84.025; -673.000; -736.000
416.992; -109.800; -801.000; -818.000
417.118;  -23.300;  -41.000;  -80.000
417.244;  -68.200; -798.000; -531.000
417.369;  -79.650; -801.000; -612.000
417.495;   -4.275; -325.000; -254.000
417.621;  -85.975;-1015.000; -803.000
417.746;    9.975; -579.000; -572.000
417.872;   53.375; -254.000; -144.000
417.998;   56.725; -515.000; -530.000
418.123; 1042.875;-1073.000; -845.000
418.249; 5778.350; -512.000; -601.000
418.374;  902.550; -916.000; -824.000
418.500;  134.900; -383.000; -482.000
418.626;  117.700;   70.000;  -59.000
418.751;  126.725; -549.000; -448.000
418.877;  218.050; -637.000; -643.000
419.002; 1783.075; -688.000; -560.000
419.128;13290.450; -930.000; -721.000
419.253; 3542.150; -967.000; -837.000
419.379;  455.025; -391.000; -338.000
419.504;  419.175;  325.000;  415.000
419.629;  547.575; -393.000; -212.000
419.755; 3585.850; -317.000; -254.000
419.880;22436.875;  -98.000;   67.000
420.006;11979.700; -280.000; -221.000
420.131;31476.525; -662.000; -775.000
420.256; 4911.500; -315.000; -316.000
420.382;  657.000; -665.000; -687.000
420.507;  109.850; -649.000; -778.000
420.632;   94.325; -337.000; -339.000
420.758;  224.325; -251.000; -425.000
420.883;  -80.375; -876.000; -672.000
421.008;  -97.300; -775.000; -619.000
421.133;  -70.450; -509.000; -467.000
421.259;  -49.500; -325.000; -259.000
421.384; -120.525; -834.000; -693.000
421.509;  -60.950;-1052.000; -862.000
421.634;  943.025; -936.000; -820.000
421.759;  455.100; -359.000; -327.000
421.885;  -56.650; -717.000; -656.000
422.010;  -78.075; -673.000; -542.000
422.135; -149.825; -695.000; -727.000
422.260;   26.250;  340.000;  280.000
422.385;  -44.050;   12.000;  -98.000
422.510;   -9.250;  151.000;  -26.000
422.635;    7.475;  -87.000;  -43.000
422.760;  113.550; -766.000; -791.000
422.885;   64.600;  -57.000;  -80.000
423.010;  -35.950; -112.000; -169.000
423.135;  -87.575; -481.000; -561.000
423.260;  -32.600; -150.000; -245.000
423.385;   60.700;  476.000;  222.000
423.510;   23.300;   71.000;  -22.000
423.635;   75.150;  133.000;   45.000
423.760;   48.900;  383.000;  328.000
423.885;   59.300;  336.000;  391.000
424.010;   11.800;  -68.000;  -13.000
424.135;  -25.400;    5.000;  -33.000
424.259;  -78.675; -654.000; -457.000
424.384;  -60.550; -279.000; -272.000
424.509;  -33.850; -260.000; -186.000
424.634;  -91.725; -761.000; -623.000
424.759;  -26.825; -688.000; -544.000
424.883;  -18.100; -506.000; -527.000
425.008;  159.025; -502.000; -410.000
425.133; 2072.250; -679.000; -653.000
425.258; 1063.950; -517.000; -381.000
425.382;  915.350; -867.000; -774.000
425.507; 2510.225; -487.000; -543.000
425.632;  450.975; -802.000; -663.000
425.756;  483.200; -256.000; -146.000
425.881; 6552.900; -831.000; -857.000
426.006;19409.175; -604.000; -355.000
426.130; 3287.675; -696.000; -508.000
426.255;  433.500; -611.000; -491.000
426.379;  171.475; -189.000; -577.000
426.504;  365.825;  660.000;  544.000
426.629; 4102.575; -519.000; -466.000
426.753; 3083.725;   64.000;  -46.000
426.878;  372.475; -252.000; -288.000
427.002;  148.300; -651.000; -668.000
427.127; 1553.175;  -35.000; -158.000
427.251;11903.325;  372.000;  401.000
427.375; 3753.275; -191.000; -173.000
427.500; 2185.400; -616.000; -610.000
427.624;  796.775; -234.000; -400.000
427.749;  101.675; -216.000; -225.000
427.873;  -42.850; -499.000; -412.000
427.997;  -38.675; -222.000; -230.000
428.122;   64.700;  795.000;  703.000
428.246;   66.350;  433.000;  434.000
428.371; -137.000; -869.000; -773.000
428.495; -101.375; -624.000; -646.000
428.619;  -39.600; -186.000; -117.000
428.743;   24.325;   65.000;  132.000
428.868;   -7.550; -732.000; -643.000
428.992; 1254.025; -219.000; -326.000
429.116;  541.125; -329.000; -357.000
429.240;  244.025;  419.000;  426.000
429.365;  -31.350; -454.000; -574.000
429.489;  -36.925; -638.000; -647.000
429.613;   14.125; -236.000; -177.000
429.737;   38.000; -563.000; -432.000
429.861;  245.925; -247.000; -133.000
429.985; 5559.975; -425.000; -305.000
430.109; 6780.500; -770.000; -908.000
430.234;  816.600;   76.000;  -50.000
430.358;   89.925; -250.000; -160.000
430.482;  -62.375; -672.000; -564.000
430.606;  -55.275; -655.000; -375.000
430.730;   -3.625; -437.000; -388.000
430.854;  107.250; -909.000; -835.000
430.978;  -77.475; -795.000; -764.000
431.102;  -87.600; -499.000; -422.000
431.226; -115.550; -874.000; -815.000
431.350;   16.575;  345.000;  422.000
431.474;  -80.650; -661.000; -373.000
431.597; -141.300;-1060.000; -848.000
431.721;  -80.600; -276.000; -267.000
431.845; -131.025; -704.000; -472.000
431.969;  -75.300; -304.000; -349.000
432.093;  -96.850; -395.000; -317.000
432.217;   -9.125;   32.000;   82.000
432.341;  -97.875; -523.000; -518.000
432.464;    3.775;   96.000;   40.000
432.588;  159.275; -401.000; -329.000
432.712;   94.225;  -52.000;  -52.000
432.836;   41.025;  213.000;  263.000
432.959;   -4.900; -372.000; -311.000
433.083;   83.775;   11.000;    2.000
433.207;  366.300;  285.000;  930.000
433.330; 5133.350; -391.000; -200.000
433.454; 6849.875; -654.000; -638.000
433.578; 3880.750;  583.000;  278.000
433.701;  763.325; -623.000; -675.000
433.825;  134.200; -292.000; -299.000
433.949;  131.525;   28.000;  -72.000
434.072;   47.875; -410.000; -323.000
434.196;  -29.825; -309.000; -117.000
434.319; 3566.475;25482.000;25124.000
434.443;  692.850; -656.000; -603.000
434.566; 2814.550;  281.000;   62.000
434.690;  550.375; -637.000; -383.000
434.813;   60.075; -251.000; -173.000
434.937;  -65.175; -569.000; -696.000
435.060;  -62.350; -423.000; -332.000
435.184;  224.300; -492.000; -217.000
435.307;  144.225;  159.000;  102.000
435.431;  -24.125;  -40.000;   24.000
435.554;  -75.875; -399.000; -240.000
435.677;  -84.050; -350.000; -258.000
435.801;  -42.675;  -25.000;   49.000
435.924;  -36.400;    1.000;  -67.000
436.048; -118.575;-1019.000; -732.000
436.171;  -65.925; -240.000;  -66.000
436.294;  -16.175; -248.000; -229.000
436.417;  122.550; -963.000; -849.000
436.541;  -65.900; -814.000; -840.000
436.664;  -57.600; -242.000; -316.000
436.787;  -26.875;   13.000;  113.000
436.910; -116.300; -792.000; -422.000
437.034;   -9.775;  142.000;  143.000
437.157;   32.100;  -11.000;    0.000
437.280;  -63.350; -392.000; -292.000
437.403;  -98.175; -982.000; -869.000
437.526;  471.650; -903.000; -865.000
437.649; 1890.550; -505.000; -332.000
437.772;  303.200; -692.000; -540.000
437.896;  115.550;  700.000;  544.000
438.019; -112.325; -758.000; -503.000
438.142;  -92.650; -596.000; -506.000
438.265;  -49.450; -639.000; -670.000
438.388;  472.050; -520.000; -410.000
438.511;   81.175; -597.000; -394.000
438.634;  -49.350; -247.000; -125.000
438.757; -136.650; -693.000; -619.000
438.880;  -27.475;  -34.000;  -57.000
439.003;  -80.750; -417.000; -437.000
439.126;  -65.500; -287.000; -167.000
439.248;  -65.950;  -98.000; -139.000
439.371;  -43.950;    9.000;  -53.000
439.494;   26.100;  510.000;  439.000
439.617;  -62.525;   65.000;  -88.000
439.740; -171.650; -968.000; -816.000
439.863; -137.500; -755.000; -595.000
439.986; -120.375; -476.000; -431.000
440.108;  -52.375; -161.000; -112.000
440.231; -147.225; -950.000; -836.000
440.354;  -42.675;  -64.000; -150.000
440.477;    2.150; -566.000; -542.000
440.599;   -5.325; -200.000; -225.000
440.722; -119.400; -709.000; -586.000
440.845;   57.125;  751.000;  928.000
440.968; -116.575; -415.000; -311.000
441.090;  -64.300; -199.000;  -33.000
441.213; -173.950;-1021.000; -825.000
441.336;  -45.425; -159.000;   -5.000
441.458;  -88.975; -549.000; -396.000
441.581;  -92.525; -628.000; -629.000
441.703;  -63.825; -152.000;   13.000
441.826; -120.925; -557.000; -400.000
441.948;  -50.450;   56.000;   51.000
442.071;   14.975;  555.000;  424.000
442.193; -121.325; -531.000; -485.000
442.316;   17.150;  152.000;   97.000
442.438;   44.375; -233.000;  -10.000
442.561;   71.175;  272.000;  262.000
442.683;  395.575; -809.000; -522.000
442.806;  982.050;   -8.000;   74.000
442.928;   16.150; -859.000; -604.000
443.051;  -64.575; -577.000; -373.000
443.173;  -93.100; -341.000; -339.000
443.295;  -84.225; -263.000; -371.000
443.418;  -78.600; -321.000;  -29.000
443.540;  -17.850; -106.000;   -4.000
443.662; -128.175; -563.000; -465.000
443.785;   -6.775;  335.000;  199.000
443.907; -107.500; -362.000; -208.000
444.029; -130.475; -767.000; -494.000
444.152; -147.550; -644.000; -554.000
444.274;  -41.800;  -18.000;  -24.000
444.396; -109.475; -461.000; -221.000
444.518; -125.425; -691.000; -454.000
444.640; -118.300; -268.000; -111.000
444.763;  -31.475;  388.000;  249.000
444.885; -124.575; -432.000; -392.000
445.007;  -45.275;   35.000;   86.000
445.129; -124.725; -610.000; -515.000
445.251; -112.025; -372.000; -439.000
445.373; -130.900; -537.000; -386.000
445.495;    1.800;  242.000;  350.000
445.617;   47.100;  853.000;  753.000
445.739;  -63.775; -215.000;  -97.000
445.861;  -42.575; -245.000; -112.000
445.984;  -37.750; -267.000; -101.000
446.105;  141.800; -418.000; -251.000
446.227;  530.125; -176.000;  -19.000
446.349;   -1.975; -358.000; -249.000
446.471;  -94.600; -615.000; -448.000
446.593;  -59.325; -316.000;   19.000
446.715;   -7.775;  -67.000;   41.000
446.837;   53.900;  697.000;  832.000
446.959; -101.375; -457.000; -478.000
447.081; -135.725; -628.000; -518.000
447.203;   44.650;  862.000;  834.000
447.325;  -83.825; -270.000;   42.000
447.446;  -13.375;  286.000;  530.000
447.568; -146.275; -921.000; -803.000
447.690;  -80.300; -236.000; -245.000
447.812; -151.275; -798.000; -519.000
447.933;  -38.775;  155.000;  127.000
448.055;  -55.500; -306.000; -261.000
448.177;  120.400;   31.000;   79.000
448.299;   58.350; -935.000; -727.000
448.420;   14.250;  -25.000;  159.000
448.542;  -53.500;   -3.000;   33.000
448.664;  -17.125;  109.000;  322.000
448.785;  -42.550;  265.000;   83.000
448.907;  -84.825; -614.000; -353.000
449.028;  -49.100; -771.000; -471.000
449.150;   60.125;  492.000;  589.000
449.272; -177.225;-1044.000; -913.000
449.393;   24.775;  612.000;  694.000
449.515; -135.325; -634.000; -581.000
449.636;  -68.975; -264.000; -155.000
449.758;   64.225;  763.000;  622.000
449.879;  -96.475; -498.000; -396.000
450.001;  -71.775; -149.000;  -49.000
450.122;  -37.025;  -95.000;  162.000
450.244;  -28.400;   37.000;  364.000
450.365;  -93.400; -495.000; -301.000
450.486;  -29.575;   80.000;  268.000
450.608;   29.575;  393.000;  326.000
450.729;   70.775;  578.000;  645.000
450.850;    7.350; -574.000; -466.000
450.972;  759.350; -552.000; -389.000
451.093; 5139.775;  190.000;  588.000
451.214; 2480.575; -516.000; -337.000
451.336;  446.150;  773.000;  579.000
451.457;   63.975;  264.000;  393.000
451.578;  -29.200; -118.000;  -74.000
451.699; -113.550; -546.000; -540.000
451.821;  -54.400; -284.000;  -50.000
451.942;   -6.275;  278.000;  285.000
452.063;   36.500;  228.000;  419.000
452.184;  561.225;  -54.000;  -49.000
452.305; 1181.525;  103.000;  170.000
452.427;  184.475; -549.000; -301.000
452.548;  -18.025;   23.000;   79.000
452.669;  -46.725; -257.000;  -89.000
452.790;  -62.725;    3.000;  -18.000
452.911;  -12.750;  195.000;  259.000
453.032;  -74.950; -289.000;  -60.000
453.153;  -38.725;  -29.000;   81.000
453.274;   66.650;  737.000;  868.000
453.395;  -46.800;  -51.000;  175.000
453.516;  120.950; 1317.000; 1388.000
453.637;  -74.100; -205.000; -150.000
453.758;  -62.975;   15.000;   69.000
453.879; -123.050; -462.000; -250.000
454.000;   83.725; 1086.000;  948.000
454.121; -114.475; -554.000; -326.000
454.242; -111.200; -599.000; -383.000
454.362;  -55.225;  -99.000;  114.000
454.483;  -32.750; -309.000; -229.000
454.604;   52.100;  512.000;  580.000
454.725; -125.125; -627.000; -555.000
454.846; -117.150; -474.000; -406.000
454.967;  -30.875;  230.000;  539.000
455.087;  -43.150;  179.000;  153.000
455.208;    8.225;  554.000;  856.000
455.329;  -65.125;  -22.000;   82.000
455.450;   31.875;  473.000;  633.000
455.570;  -74.700; -234.000; -211.000
455.691;  -43.600;  201.000;  407.000
455.812; -121.175; -270.000;  -92.000
455.932;  -59.725;  107.000;  -97.000
456.053;  -77.925;   36.000;   24.000
456.173; -104.700; -433.000; -355.000
456.294; -123.075; -476.000; -303.000
456.415;  -49.700;  -73.000;   70.000
456.535;  -37.275;  297.000;  273.000
456.656;  -38.350;  132.000;  240.000
456.776;  -80.375;    3.000;  298.000
456.897;   -0.425;  308.000;  513.000
457.017;  -83.675; -153.000;   -3.000
457.138; -101.650; -402.000; -249.000
457.258;  -29.775;  263.000;  224.000
457.379;  -24.875;  509.000;  521.000
457.499;  -38.275;  443.000;  432.000
457.620; -131.000; -407.000; -231.000
457.740;  -92.950; -132.000;  -11.000
457.860;  -59.100;   87.000;   44.000
457.981;  -49.725;  132.000;  124.000
458.101;  -80.150;  -89.000;   40.000
458.221;  -21.250;  336.000;  402.000
458.342;  -50.150;   -4.000;  -37.000
458.462;   11.425;  617.000;  352.000
458.582;  -28.450; -302.000; -294.000
458.703;   19.500;  303.000;  154.000
458.823;  -17.600;   22.000;  163.000
458.943;   26.275;  341.000;  467.000
459.063;  -15.350; 1124.000;  192.000
459.183;  -34.800;  328.000;  313.000
459.304;   12.400;  315.000;  517.000
459.424;  -54.350; -246.000;  -89.000
459.544;  322.825;  388.000;  764.000
459.664;  877.800;  499.000;  506.000
459.784;  354.300; 1004.000; 1175.000
459.904;   50.275;  867.000;  744.000
460.024;   71.275;  867.000;  684.000
460.144;   15.500;  449.000;  554.000
460.264;    1.600;  515.000;  327.000
460.385;  -86.600; -145.000; -119.000
460.505;   24.900;  905.000;  858.000
460.625;  -87.150;  -17.000;  -68.000
460.745;  -23.175;  396.000;  541.000
460.864;  -56.375;  153.000;  469.000
460.984;   -3.050;  499.000;  573.000
461.104;  147.200; 1656.000; 1775.000
461.224;   26.175;  657.000;  650.000
461.344;  -27.975;  431.000;  360.000
461.464;  -35.550;  258.000;  513.000
461.584;  -30.200;  283.000;  466.000
461.704;  -58.075;   58.000;  108.000
461.824;  -55.025;  238.000;  259.000
461.943;  -50.550;  191.000;  130.000
462.063;  -77.925;    2.000;  324.000
462.183;   31.350;  639.000;  717.000
462.303;  102.425; 1678.000; 1230.000
462.422;   31.775;  781.000;  840.000
462.542;  -45.925;  271.000;  391.000
462.662;   28.900;  353.000;  380.000
462.782;  246.725;  833.000;  572.000
462.901;  498.150;  545.000;  717.000
463.021;  302.050; 1702.000; 1638.000
463.141;   -1.125;  337.000;  770.000
463.260;  -24.625;  614.000;  474.000
463.380;   15.550;  902.000;  884.000
463.499;  -36.350;  342.000;  332.000
463.619;  -41.075;  581.000;  559.000
463.738;   97.550; 1644.000;  903.000
463.858;   16.625;  657.000;  811.000
463.978;  -44.350;  542.000;  396.000
464.097;   51.325;  921.000; 1114.000
464.217;  108.000; 1196.000; 1143.000
464.336;  121.225; 1068.000; 1130.000
464.455;  -36.750;  328.000;  659.000
464.575;   32.925;  597.000;  602.000
464.694;  149.275; 1204.000; 1179.000
464.814;  133.500; 1190.000; 1138.000
464.933;   89.250; 1095.000; 1027.000
465.052;   94.625; 1412.000; 1054.000
465.172;   75.700;  922.000;  799.000
465.291;  139.600; 1376.000; 1320.000
465.410;   14.975;  462.000;  735.000
465.530;   80.600; 1355.000; 1310.000
465.649;   56.525; 1209.000; 1273.000
465.768;  134.875; 1673.000; 1508.000
465.888;   52.550;  941.000; 1174.000
466.007;   91.625; 1335.000; 1440.000
466.126;  -20.200;  721.000;  641.000
466.245;   32.275; 1176.000; 1187.000
466.364;   11.475;  950.000; 1060.000
466.484;   70.850; 1024.000; 1213.000
466.603;   39.000; 1101.000; 1222.000
466.722;  104.300; 1490.000; 1769.000
466.841;   68.200; 1151.000; 1401.000
466.960;   42.800; 1069.000;  972.000
467.079;  124.150; 1971.000; 1786.000
467.198;   47.300; 1238.000; 1181.000
467.317;   77.325; 1768.000; 1162.000
467.436;   67.175; 1709.000; 1261.000
467.555;  105.800; 1796.000; 1746.000
467.674;   76.275; 1227.000; 1329.000
467.793;   42.875; 1376.000; 1374.000
467.912;   77.825; 1658.000; 1539.000
468.031;  136.525; 2038.000; 1930.000
468.150;  133.225; 1842.000; 1837.000
468.269;  191.350; 2313.000; 2090.000
468.388;  191.725; 2168.000; 2339.000
468.507;  239.175; 2884.000; 2903.000
468.626;  259.275; 2555.000; 2541.000
468.744;  140.000; 2018.000; 2174.000
468.863;  209.000; 2312.000; 2523.000
468.982;   91.675; 1503.000; 1555.000
469.101;  212.375; 2788.000; 2692.000
469.220;  145.150; 2333.000; 2176.000
469.338;  240.950; 2935.000; 3051.000
469.457;  197.425; 2719.000; 2545.000
469.576;  338.825; 3953.000; 3784.000
469.695;  246.175; 2877.000; 3066.000
469.813;  413.625; 4148.000; 4192.000
469.932;  415.650; 4255.000; 4485.000
470.051;  406.500; 4075.000; 4161.000
470.169;  845.025; 4470.000; 4338.000
470.288; 1546.825; 4700.000; 4809.000
470.406;  932.075; 5059.000; 5194.000
470.525;  648.600; 6101.000; 5787.000
470.644;  646.175; 6847.000; 6794.000
470.762;  803.425; 8397.000; 7873.000
470.881;  910.600; 8651.000; 8464.000
470.999; 1043.425; 9685.000; 9151.000
471.118; 1122.775;11174.000;10711.000

