
Integration time [ms]: 100.000
Averaging Nr. [scans]: 40
Smoothing Nr. [pixels]: 0
Data measured with spectrometer [name]: 2101012U2
Wave   ;Sample   ;Dark     ;Reference
[nm]   ;[counts] ;[counts] ;[counts] 

197.733;   51.825;  516.000;  404.000
197.879;  -75.350; -610.000; -634.000
198.025;  -46.650; -475.000; -420.000
198.171;  -60.350; -602.000; -612.000
198.317;  -21.875; -401.000; -316.000
198.463;  -62.575; -655.000; -404.000
198.609;   27.050;  181.000; -137.000
198.755;  -83.575; -644.000; -410.000
198.901;  -69.050; -505.000; -424.000
199.047;  -57.100; -615.000; -488.000
199.193;  -42.025; -230.000; -468.000
199.339;  -39.650; -222.000; -369.000
199.485;   23.025;  330.000;  271.000
199.631;   20.375;  227.000;  310.000
199.777;  -54.200; -466.000; -398.000
199.923;  -69.775; -610.000; -424.000
200.069;    3.750; -141.000;  -58.000
200.215;   77.000;  128.000;  453.000
200.361;   33.450;  243.000;  477.000
200.507;  -60.275; -600.000; -373.000
200.653;  -18.025; -371.000; -194.000
200.798;  -41.800; -215.000; -125.000
200.944;    3.800; -146.000;  -41.000
201.090;   44.225;   61.000;  222.000
201.236;    4.625; -116.000; -158.000
201.382;  148.925;  874.000;  903.000
201.528;   25.750;  -58.000;  -48.000
201.674;  -29.575; -386.000; -293.000
201.819;  -68.625; -540.000; -439.000
201.965;  -80.650; -699.000; -447.000
202.111;  -16.850; -273.000; -226.000
202.257;  -44.550; -250.000; -238.000
202.402;    4.425;   13.000;  -36.000
202.548;  -18.000; -169.000; -116.000
202.694;   75.800;  410.000; -183.000
202.840;  -68.400; -603.000; -531.000
202.985;  -79.225; -681.000; -639.000
203.131; -110.300; -832.000; -666.000
203.277;  -26.950; -199.000; -262.000
203.423;  -37.550; -434.000; -520.000
203.568;  -33.550; -462.000; -237.000
203.714;  -52.925; -535.000; -542.000
203.860;  -90.000; -682.000; -641.000
204.005;   26.100;  112.000;  167.000
204.151;   73.150;  561.000;  556.000
204.296;  -34.000; -354.000; -221.000
204.442;  -68.200; -600.000; -547.000
204.588;  -75.875; -592.000; -579.000
204.733;   11.550;  178.000;  168.000
204.879; -132.000;-1018.000; -822.000
205.025;   -4.425;  -99.000;  126.000
205.170;    2.500;  -17.000;   94.000
205.316;   74.200;  438.000;  661.000
205.461;  -74.775; -698.000; -554.000
205.607;   86.250;  609.000;  665.000
205.752;  -65.600; -626.000; -551.000
205.898;  -65.275; -501.000; -391.000
206.043;  -59.975; -578.000; -506.000
206.189;  -36.950; -243.000; -285.000
206.334;   86.750;  554.000;  606.000
206.480;   83.375;  409.000;  239.000
206.625;  -85.475; -529.000; -552.000
206.771;  -44.925; -451.000; -373.000
206.916;  -25.775; -210.000; -537.000
207.062;  -56.475; -545.000; -591.000
207.207;  -64.950; -546.000; -443.000
207.353;   49.150;  185.000;  460.000
207.498;   24.850;  196.000;   85.000
207.643;  -44.575; -501.000; -370.000
207.789; -130.325;-1069.000; -910.000
207.934; -105.225; -665.000; -713.000
208.080;  -35.200; -154.000;   66.000
208.225;  -10.975;  -22.000;  -57.000
208.370;  -74.400; -727.000; -619.000
208.516;  -78.575; -741.000; -487.000
208.661;  -28.100; -127.000;  -69.000
208.806;  -14.075; -165.000; -171.000
208.952; -117.350;-1044.000; -731.000
209.097;   74.425;  378.000;  349.000
209.242;  -42.725; -307.000; -382.000
209.387;   54.725;  392.000;  350.000
209.533;  -44.975; -321.000; -350.000
209.678;   73.875;  472.000;  543.000
209.823;  -53.025; -408.000; -310.000
209.969;  -97.300; -860.000; -757.000
210.114; -105.450; -907.000; -719.000
210.259; -117.725; -939.000; -889.000
210.404;   10.625; -171.000;  103.000
210.549;    1.300;  108.000;    3.000
210.695;  -18.375;   -3.000;  -95.000
210.840;   36.450;   94.000;   67.000
210.985;  -54.625; -484.000; -303.000
211.130;   69.500;  268.000;  406.000
211.275;   21.975;  207.000;  199.000
211.420;  -47.475; -300.000; -289.000
211.566;  -71.775; -536.000; -489.000
211.711;   24.400;  218.000;  157.000
211.856;  -63.425; -545.000; -519.000
212.001;    9.350;  151.000;   44.000
212.146;   28.325;  153.000;   49.000
212.291;  -23.200; -210.000; -186.000
212.436;   -6.500; -280.000;   -6.000
212.581;  -87.850; -685.000; -653.000
212.726;  -75.650; -487.000; -538.000
212.871;  -43.525; -552.000; -217.000
213.016; -154.750;-1172.000;-1029.000
213.161;   71.400;  406.000;  291.000
213.306;  -74.625; -435.000; -577.000
213.451; -100.275; -778.000; -689.000
213.596;  -33.425; -455.000; -347.000
213.741;  -73.125; -448.000; -538.000
213.886;  -60.750; -498.000; -517.000
214.031;  -17.300; -294.000; -124.000
214.176;  -49.925; -408.000; -341.000
214.321;  -18.150; -296.000; -157.000
214.466;  -21.075; -163.000;  -43.000
214.611;    4.725;  -61.000;  -10.000
214.756; -119.625; -948.000; -858.000
214.901;  -31.400; -388.000; -226.000
215.046; -123.400; -797.000; -825.000
215.191;   26.300;  128.000;   35.000
215.336;   -3.575; -157.000;  -19.000
215.480;  -62.400; -684.000; -505.000
215.625;    2.550; -175.000;  -19.000
215.770;  -89.800; -757.000; -662.000
215.915;   -7.000;   -5.000;  -97.000
216.060;   -1.150; -113.000;  -21.000
216.205; -106.900; -731.000; -779.000
216.349;  -74.525; -470.000; -533.000
216.494; -124.100; -939.000; -867.000
216.639; -117.200; -823.000; -888.000
216.784;  -80.575; -577.000; -525.000
216.929;   49.825;  392.000;  281.000
217.073;   -3.225; -244.000;  -31.000
217.218;    7.150;   78.000;  -47.000
217.363;  -96.300; -656.000; -618.000
217.507;  -76.275; -623.000; -588.000
217.652; -123.425; -845.000; -874.000
217.797; -100.525; -708.000; -659.000
217.942;  -98.675; -856.000; -720.000
218.086;   67.500;  608.000;  539.000
218.231;   -3.525; -174.000;  -26.000
218.376;  -28.650; -337.000; -229.000
218.520;   19.175;  -41.000;   96.000
218.665;  -29.825; -338.000; -204.000
218.810;  -42.250; -275.000; -233.000
218.954;   17.450;  201.000;   35.000
219.099; -102.950; -713.000; -963.000
219.243;  -73.525; -589.000; -554.000
219.388;  -32.150; -264.000; -136.000
219.532;   -5.500; -116.000; -116.000
219.677;  -84.950; -564.000; -521.000
219.822;    8.375;   33.000;   89.000
219.966;   -4.200;   17.000;  -99.000
220.111;  -39.600; -328.000;  -40.000
220.255;  -92.325; -797.000; -750.000
220.400;  -14.500; -180.000; -146.000
220.544;  -73.875; -516.000; -450.000
220.689;  -49.125; -422.000; -451.000
220.833;   -4.425; -123.000;  -58.000
220.978;  -56.900; -393.000; -563.000
221.122;   32.350;  319.000;  307.000
221.267; -110.550; -906.000; -837.000
221.411;  -55.500; -478.000; -394.000
221.555;   -5.450; -104.000;  -23.000
221.700;  -49.225; -329.000; -222.000
221.844;   30.175;  255.000;  272.000
221.989;  -45.700; -328.000; -311.000
222.133;  -40.150; -289.000; -307.000
222.277;   -6.525;    5.000;   78.000
222.422;   11.800;  227.000;  113.000
222.566;  -26.150; -381.000; -214.000
222.711;  -51.075; -414.000; -479.000
222.855;  -81.825; -643.000; -586.000
222.999;  -82.000; -642.000; -717.000
223.144;  -18.350; -195.000; -194.000
223.288;   46.975;  423.000;  251.000
223.432;   39.250;  184.000;  230.000
223.576;   13.325;  152.000;  -21.000
223.721;   55.675;  364.000;  273.000
223.865;  -42.725; -472.000; -475.000
224.009;  265.975; 1673.000; 1631.000
224.153;  -79.200; -660.000; -671.000
224.298;  -66.775; -531.000; -489.000
224.442;  -18.800;  -74.000;  -33.000
224.586;   -5.250; -169.000; -106.000
224.730;  -90.225; -858.000; -670.000
224.875; -108.575; -739.000; -688.000
225.019;   14.650;  102.000;  188.000
225.163;   71.200;  208.000;  341.000
225.307;   14.400;   97.000;  -91.000
225.451;   47.150;  360.000;  481.000
225.595;   33.575;  264.000;  176.000
225.739;  -16.000; -170.000;  -94.000
225.884;   -1.325;   86.000;    5.000
226.028;  -90.225; -760.000; -626.000
226.172;  -32.125; -260.000; -273.000
226.316; -118.975; -941.000; -902.000
226.460;  -67.825; -645.000; -493.000
226.604;  -43.850; -406.000; -400.000
226.748; -103.150; -836.000; -733.000
226.892;  -39.600; -227.000; -181.000
227.036;  -44.500; -537.000; -447.000
227.180;  -42.200; -551.000; -375.000
227.324;  -69.750; -561.000; -580.000
227.468; -111.150; -819.000; -717.000
227.612;   18.100;  242.000;  -28.000
227.756;  -96.250; -845.000; -698.000
227.900;   57.625;  342.000;  441.000
228.044;  -43.375; -509.000; -290.000
228.188;   65.875;  448.000;  568.000
228.332;  -80.375; -546.000; -472.000
228.476;  -36.200; -223.000; -149.000
228.620;  -27.150; -210.000; -150.000
228.764;   67.800;  431.000;  349.000
228.908;  -12.400; -155.000;   30.000
229.052;  -71.600; -615.000; -528.000
229.195;  -16.100; -172.000;   13.000
229.339;  -32.750; -235.000; -305.000
229.483;  -16.550;    5.000; -162.000
229.627;  -12.525; -156.000;  139.000
229.771;  -43.225; -218.000; -294.000
229.915;    9.000;  230.000;   79.000
230.059;  -86.575; -648.000; -663.000
230.202;  -29.475; -370.000; -317.000
230.346;  -10.250; -107.000;  107.000
230.490;  -62.225; -489.000; -521.000
230.634;  -98.700; -736.000; -553.000
230.777;   74.975;  478.000;  509.000
230.921;  -55.300; -450.000; -359.000
231.065;  -51.200; -246.000; -286.000
231.209;   34.325;  261.000;  265.000
231.352;   14.800;   54.000;   40.000
231.496;   15.600;  568.000;  188.000
231.640;  -89.550; -693.000; -621.000
231.783;   55.475;  546.000;  525.000
231.927;  -44.100; -294.000; -365.000
232.071; -124.100; -962.000; -736.000
232.214; -114.075; -980.000; -764.000
232.358;  -91.750; -683.000; -599.000
232.502;   -4.475;  -19.000;    7.000
232.645; -129.700;-1090.000; -927.000
232.789;  -18.900; -257.000; -218.000
232.933;  -53.425; -407.000; -224.000
233.076; -131.525;-1038.000; -897.000
233.220; -104.850; -752.000; -777.000
233.363;  -78.775; -669.000; -477.000
233.507;   61.450;  371.000;  129.000
233.650;  -93.375; -764.000; -834.000
233.794;   40.075;  438.000;  461.000
233.938;  -50.650; -530.000; -362.000
234.081;  -15.825;  -93.000;   31.000
234.225;  -64.675; -631.000; -539.000
234.368; -103.200; -773.000; -723.000
234.512;  -41.625; -385.000; -299.000
234.655;  -83.200; -582.000; -555.000
234.798;  -65.600; -493.000; -466.000
234.942; -126.025; -884.000;-1002.000
235.085;  -70.425; -651.000; -443.000
235.229;  -71.600; -405.000; -410.000
235.372;  -48.175; -247.000; -191.000
235.516;  -68.150; -397.000; -321.000
235.659;   30.400;   92.000;  121.000
235.802;  -13.225;  -38.000;  -22.000
235.946;   37.475;  335.000;  215.000
236.089;   18.500;  126.000;  250.000
236.233;   49.300;  275.000;  298.000
236.376;  -45.750; -235.000; -378.000
236.519;  -45.475; -297.000; -319.000
236.663;  -11.925; -215.000; -117.000
236.806; -127.200;-1029.000; -999.000
236.949;   58.550;  543.000;  431.000
237.092;   62.625;  412.000;  391.000
237.236;  -85.000; -589.000; -502.000
237.379;   70.875;  352.000;  428.000
237.522; -115.850; -879.000; -768.000
237.666;  -19.575; -271.000;   18.000
237.809; -122.725; -851.000; -823.000
237.952;   28.825;  469.000;  271.000
238.095;  -66.100; -447.000; -442.000
238.238;   93.350;  688.000;  700.000
238.382;    5.100;  166.000;  103.000
238.525;  -78.125; -598.000; -511.000
238.668; -149.325;-1060.000; -985.000
238.811;  -73.175; -638.000; -643.000
238.954;  -61.700; -483.000; -334.000
239.097;   93.350;  617.000;  664.000
239.241;   28.550;  394.000;  326.000
239.384;  -31.150; -254.000; -214.000
239.527;  -59.575; -424.000; -224.000
239.670; -142.200; -994.000;-1091.000
239.813; -106.975; -696.000; -658.000
239.956;   76.275;  579.000;  473.000
240.099; -113.975; -778.000; -725.000
240.242;   71.625;  428.000;  432.000
240.385;   52.250;  466.000;  450.000
240.528;  -66.800; -706.000; -473.000
240.671;   21.625;  189.000;  134.000
240.814;  -54.550; -441.000; -158.000
240.957;  -90.350; -767.000; -578.000
241.100;  -92.250; -779.000; -755.000
241.243; -152.675;-1234.000; -893.000
241.386;  -72.450; -508.000; -379.000
241.529;  -88.575; -735.000; -547.000
241.672;  -55.400; -566.000; -495.000
241.815; -114.425; -832.000; -808.000
241.958;  -41.100; -125.000; -182.000
242.101;  -77.475; -545.000; -390.000
242.244;  -45.400; -270.000; -325.000
242.387;  -25.775; -304.000; -246.000
242.530;   43.725;  470.000;  134.000
242.673;  -42.825; -381.000; -309.000
242.815; -124.325; -925.000; -899.000
242.958;  -71.375; -482.000; -381.000
243.101;   22.425;  132.000;  187.000
243.244;  -78.925; -564.000; -521.000
243.387;  -56.975; -313.000; -316.000
243.530;  -88.425; -657.000; -674.000
243.672;    5.050;   43.000;  -92.000
243.815;  -54.600; -355.000; -283.000
243.958;   -5.125;   98.000;  -26.000
244.101;   -8.950;   59.000;  -16.000
244.243;  -12.100;  -47.000;  101.000
244.386; -115.425; -761.000; -630.000
244.529;  -29.125; -132.000; -139.000
244.672; -148.425;-1154.000; -951.000
244.814;  -94.900; -621.000; -794.000
244.957;  -59.875; -380.000; -304.000
245.100;  -84.000; -489.000; -489.000
245.242;  -66.125; -387.000; -374.000
245.385;   -8.500;  -59.000;  -39.000
245.528; -116.275; -871.000; -705.000
245.670;   71.875;  612.000;  634.000
245.813;  -86.775; -599.000; -547.000
245.956;  -34.075; -324.000; -275.000
246.098;  -74.150; -508.000; -650.000
246.241;    0.025;  194.000;   48.000
246.383;  -18.250; -119.000;  -73.000
246.526;  -65.425; -454.000; -525.000
246.669; -114.200; -889.000; -780.000
246.811;   18.250;  172.000;   -1.000
246.954;  -68.225; -512.000; -426.000
247.096;  -14.725;  -84.000;   -6.000
247.239;  -75.350; -482.000; -445.000
247.381;  -70.575; -647.000; -488.000
247.524;   80.350;  645.000;  679.000
247.666;  -15.950;   58.000;   11.000
247.809; -104.925; -887.000; -691.000
247.951;  -11.300;  -75.000;  138.000
248.094;   38.150;  432.000;  308.000
248.236; -157.050;-1262.000;-1238.000
248.378;    0.225; -356.000;  -81.000
248.521;  -34.050; -334.000; -337.000
248.663;  -37.475; -236.000; -267.000
248.806;  -25.475; -300.000; -266.000
248.948;  -89.475; -886.000; -763.000
249.090;  -52.925; -428.000; -398.000
249.233;  -43.575; -344.000; -381.000
249.375;  -69.175; -474.000; -451.000
249.518;  -17.375;  -83.000; -133.000
249.660;   -3.000; -103.000;    3.000
249.802; -166.175;-1303.000;-1189.000
249.945;  -79.625; -612.000; -540.000
250.087; -115.200; -834.000; -768.000
250.229;  -61.350; -362.000; -480.000
250.371;  -69.800; -494.000; -439.000
250.514;  -47.575; -310.000; -244.000
250.656;  -63.775;   69.000;  102.000
250.798; -121.675; -849.000; -800.000
250.940;  -70.100; -322.000; -322.000
251.083;  -28.025; -335.000; -111.000
251.225;   62.800;  338.000;  310.000
251.367;  -36.700; -274.000; -373.000
251.509;  -39.775; -265.000; -210.000
251.651; -103.025; -731.000; -671.000
251.794;   58.025;  538.000;  632.000
251.936;  -98.925; -821.000; -747.000
252.078;  -85.525; -540.000; -461.000
252.220;  -73.675; -645.000; -477.000
252.362;   82.000;  344.000;  462.000
252.504;  -76.475; -677.000; -584.000
252.646; -109.500; -875.000; -722.000
252.788;   -1.550;   14.000; -128.000
252.931;  -47.250; -257.000; -253.000
253.073;  -43.875; -376.000; -317.000
253.215;   -8.250;  141.000;  122.000
253.357;  -15.750;   82.000; -153.000
253.499;  -53.475; -374.000; -234.000
253.641;  -93.800; -749.000; -594.000
253.783;  -90.125; -609.000; -527.000
253.925;  -80.350; -586.000; -591.000
254.067; -114.525; -744.000; -667.000
254.209;  -23.825; -391.000; -259.000
254.351; -130.025; -865.000; -883.000
254.493;  -59.675; -441.000; -417.000
254.635; -134.000; -936.000; -818.000
254.777;  -89.050; -752.000; -687.000
254.918;  -61.975; -512.000; -430.000
255.060;  -51.725; -551.000; -395.000
255.202;  -68.950; -473.000; -261.000
255.344;  -79.775; -658.000; -455.000
255.486;  -65.275; -471.000; -406.000
255.628; -107.475; -780.000; -781.000
255.770;  -92.475; -676.000; -536.000
255.912;  -64.425; -559.000; -468.000
256.053; -101.425; -730.000; -508.000
256.195;  149.800; 1008.000;  903.000
256.337;  -90.550; -861.000; -595.000
256.479;   50.875;  532.000;  416.000
256.621;  -46.200; -394.000; -212.000
256.762; -101.075; -789.000; -742.000
256.904;   66.825;  485.000;  487.000
257.046;  -43.900; -381.000; -271.000
257.188;  -42.875; -351.000; -264.000
257.329;  -76.425; -525.000; -464.000
257.471; -115.075; -939.000; -807.000
257.613;  -62.275; -584.000; -498.000
257.755; -149.225;-1073.000; -982.000
257.896;   28.200;  286.000;  392.000
258.038;  -60.050; -403.000; -352.000
258.180;  -44.800; -354.000; -279.000
258.321;  -88.650; -581.000; -457.000
258.463;    5.175;  -71.000;  133.000
258.605;  -93.350; -562.000; -570.000
258.746; -120.500; -886.000; -772.000
258.888; -144.700;-1026.000;-1020.000
259.029;   21.075;  121.000;   -8.000
259.171;  -86.050; -614.000; -550.000
259.313;    5.050;  -49.000;  -47.000
259.454;  -74.925; -536.000; -414.000
259.596;  -63.275; -483.000; -390.000
259.737;  -72.900; -590.000; -474.000
259.879;   36.300;  217.000;  311.000
260.020;  102.100;  901.000;  636.000
260.162;  -40.375; -146.000; -253.000
260.303; -111.950; -768.000; -687.000
260.445;  -79.675; -609.000; -613.000
260.586;   39.825;  392.000;  157.000
260.728;  -38.675; -360.000; -248.000
260.869; -106.150; -350.000; -343.000
261.011;   76.550;  706.000;  537.000
261.152;  -65.025; -479.000; -319.000
261.293;  -71.100; -576.000; -595.000
261.435;  -28.550; -219.000; -184.000
261.576;  -66.850; -455.000; -325.000
261.718;   49.950;  420.000;  470.000
261.859; -131.925; -940.000; -949.000
262.000; -140.375; -951.000;-1016.000
262.142;  -19.050;  -52.000;  -60.000
262.283; -119.300; -808.000; -691.000
262.424; -108.625; -666.000; -625.000
262.566; -149.800;-1161.000; -983.000
262.707; -107.100; -840.000; -830.000
262.848; -130.300; -769.000; -726.000
262.990;  -51.350; -362.000; -345.000
263.131;   85.625;  650.000;  681.000
263.272;  -11.900;  -61.000;  -41.000
263.413; -108.000; -589.000; -561.000
263.555;  -64.300; -669.000; -143.000
263.696;  -76.000; -550.000; -641.000
263.837;  -51.900; -449.000; -551.000
263.978;    7.675;   -5.000;  -77.000
264.119;  -54.750; -283.000; -264.000
264.261; -107.550; -847.000; -630.000
264.402;   10.175;   33.000;   40.000
264.543;  -63.250; -509.000; -524.000
264.684;  -10.650;   61.000;  -50.000
264.825;  -63.600; -816.000; -538.000
264.966;   -7.350;  -84.000;  -67.000
265.107; -117.425; -646.000; -670.000
265.248; -135.425; -825.000; -812.000
265.390;  -14.025;  152.000;   -9.000
265.531;  -32.925; -238.000; -107.000
265.672;  -87.500; -557.000; -630.000
265.813;   68.825;  563.000;  439.000
265.954; -136.625; -959.000; -940.000
266.095;  -34.575; -372.000; -322.000
266.236; -104.325; -686.000; -548.000
266.377;  -31.975; -243.000; -297.000
266.518;  -77.400; -619.000; -547.000
266.659;   27.500;  170.000;  268.000
266.800;    7.200;   83.000;   85.000
266.941;  -89.175; -487.000; -478.000
267.082;   23.825;  354.000;   99.000
267.223;  -49.625; -344.000; -273.000
267.364; -125.200; -892.000; -686.000
267.504;  -13.875;    3.000;  135.000
267.645;  -13.750;  160.000;   67.000
267.786;  -50.425; -147.000;  -86.000
267.927;  -82.125; -473.000; -379.000
268.068;  -14.875; -186.000;  -61.000
268.209;  -48.975; -175.000; -413.000
268.350;  -66.150; -388.000; -532.000
268.490;  -92.625; -648.000; -521.000
268.631;   29.025;  127.000;  225.000
268.772; -104.125; -874.000; -647.000
268.913;  -61.075; -328.000; -476.000
269.054;  -20.650; -117.000;   12.000
269.194;  -46.900; -418.000; -402.000
269.335; -155.450;-1137.000;-1074.000
269.476;  -25.225;   33.000;  -35.000
269.617;  -44.825; -347.000; -392.000
269.757;  -82.000; -713.000; -646.000
269.898; -111.625; -856.000; -613.000
270.039;  -64.400; -415.000; -405.000
270.180; -134.875; -952.000; -816.000
270.320;  -23.150; -190.000; -250.000
270.461;  -41.325; -277.000; -249.000
270.602;  -15.425; -186.000; -156.000
270.742; -128.025; -868.000; -943.000
270.883;  -62.550; -442.000; -390.000
271.023;  -63.050; -358.000; -357.000
271.164;  -77.450; -607.000; -528.000
271.305;  -95.450; -666.000; -654.000
271.445;  -86.750; -722.000; -683.000
271.586;  -58.200; -462.000; -283.000
271.726;  -52.975; -397.000; -322.000
271.867;  -61.225; -594.000; -534.000
272.008;  170.925; -473.000; -285.000
272.148;  123.675;  462.000;  468.000
272.289;   12.800; -113.000; -181.000
272.429;   25.425;   19.000;  185.000
272.570; -109.750; -633.000; -737.000
272.710; -106.025; -825.000; -775.000
272.851;  -19.225;  113.000; -130.000
272.991; -160.600;-1173.000;-1077.000
273.131;  -73.500; -419.000; -459.000
273.272;  -90.475; -683.000; -723.000
273.412;    3.850; -143.000;  -31.000
273.553;  -54.825; -488.000; -507.000
273.693;  120.925;  913.000;  858.000
273.834;  -92.225; -894.000; -692.000
273.974;  -78.300; -664.000; -615.000
274.114;  -89.925; -772.000; -560.000
274.255;   85.500;  414.000;  373.000
274.395;   13.100; -180.000; -125.000
274.535;   43.475;  199.000;  350.000
274.676;   23.650;  225.000;   94.000
274.816;    2.650;  110.000;   34.000
274.956;  -92.725; -624.000; -690.000
275.097;  -68.400;-1014.000; -922.000
275.237; -111.400; -913.000; -803.000
275.377; -112.700; -778.000; -689.000
275.517; -165.950; -878.000; -937.000
275.658;  -48.400; -590.000; -555.000
275.798;  -56.425; -606.000; -413.000
275.938;   19.375;  215.000;  323.000
276.078;  -90.550; -626.000; -395.000
276.218;   12.500;   99.000;  104.000
276.359; -127.200;-1026.000;-1024.000
276.499;  -75.825; -605.000; -446.000
276.639;  -34.375; -305.000; -151.000
276.779;  -54.175; -475.000; -357.000
276.919; -100.075; -783.000; -624.000
277.059;  -10.400; -261.000; -212.000
277.199;  -43.100; -357.000; -259.000
277.340;   36.550;  287.000;  175.000
277.480; -121.950; -840.000; -693.000
277.620;   33.425;  192.000;   16.000
277.760; -197.800;-1533.000;-1294.000
277.900;   -2.475;  113.000;   33.000
278.040;    4.500;  137.000;  159.000
278.180;   23.125;  270.000;  170.000
278.320;   -1.250;   21.000;   56.000
278.460;  -75.050; -443.000; -469.000
278.600;  -87.900; -708.000; -598.000
278.740;   50.125;  448.000;  224.000
278.880;  -49.875; -768.000; -791.000
279.020;   -6.400; -194.000; -144.000
279.160;  -79.150; -672.000; -595.000
279.300; -117.950; -926.000; -873.000
279.440;  -88.275; -709.000; -622.000
279.579;  -28.950;-1014.000; -929.000
279.719;  -61.175; -410.000; -394.000
279.859;   63.150;   -4.000;   41.000
279.999;   44.950; -208.000;  101.000
280.139;  -19.600; -435.000; -387.000
280.279;  -70.475; -708.000; -745.000
280.419;  -16.200; -229.000; -147.000
280.559;  -29.450; -259.000; -180.000
280.698;  -85.300; -790.000; -639.000
280.838;  -88.000; -778.000; -800.000
280.978; -110.800; -846.000; -790.000
281.118; -111.525; -811.000; -704.000
281.257;   21.750;   24.000;    6.000
281.397; -128.175;-1094.000; -960.000
281.537;  -97.175; -599.000; -712.000
281.677;  -32.625; -150.000; -101.000
281.816;  -98.500; -700.000; -630.000
281.956;  -34.025; -193.000; -257.000
282.096;  -70.575; -539.000; -396.000
282.235; -116.075; -672.000; -638.000
282.375;  -30.600; -243.000;  -98.000
282.515; -104.125; -715.000; -707.000
282.654;   20.375;   29.000;  106.000
282.794;   38.425;  388.000;  244.000
282.934;  -53.050; -530.000; -491.000
283.073; -135.250;-1030.000; -857.000
283.213;  -53.600; -460.000; -467.000
283.353;  -32.125; -408.000; -349.000
283.492;  -14.525; -264.000; -296.000
283.632;  -36.150; -254.000; -168.000
283.771;  -96.750; -859.000; -730.000
283.911;  -49.250; -369.000; -260.000
284.050; -112.625; -794.000; -748.000
284.190; -149.625;-1229.000;-1096.000
284.329; -151.325;-1055.000; -964.000
284.469;  -73.575; -516.000; -591.000
284.608;  -70.075; -559.000; -598.000
284.748;  -97.175; -614.000; -570.000
284.887;  -22.900;  -87.000;  -20.000
285.027; -133.950; -844.000; -892.000
285.166;  -30.075; -192.000; -249.000
285.306;   -0.675; -116.000;  -33.000
285.445;  -51.450; -229.000; -343.000
285.584;  -97.300; -630.000; -494.000
285.724;  -48.175; -282.000; -322.000
285.863;  -97.925; -857.000; -507.000
286.002;  -57.550; -366.000; -276.000
286.142; -104.125; -715.000; -622.000
286.281;  -78.550; -525.000; -493.000
286.420;  -77.725; -554.000; -417.000
286.560;   94.700;  653.000;  623.000
286.699; -131.050; -958.000; -912.000
286.838;  -98.700; -590.000; -591.000
286.978;  -97.925; -533.000; -537.000
287.117; -140.600;-1085.000; -950.000
287.256;  -36.125; -228.000; -211.000
287.395;  -59.050; -197.000; -378.000
287.535;  -42.250; -370.000; -298.000
287.674;  -90.875; -509.000; -484.000
287.813;   58.050;  661.000;  533.000
287.952; -138.500;-1010.000; -871.000
288.091; -157.625;-1049.000; -915.000
288.231;   11.275;   13.000;   15.000
288.370; -168.725;-1217.000;-1200.000
288.509;  -96.025; -728.000; -645.000
288.648;  -71.975; -770.000; -548.000
288.787;  -38.725; -243.000;  -87.000
288.926;  -51.675; -454.000; -475.000
289.065;  106.525;  859.000;  672.000
289.204;  -51.900; -377.000; -217.000
289.344;  -83.000; -791.000; -690.000
289.483;   11.225;  416.000;  304.000
289.622;  -32.700; -291.000; -149.000
289.761;  -14.300; -309.000; -166.000
289.900; -108.950; -785.000; -626.000
290.039;   -3.325;  -12.000;  -95.000
290.178;  -26.875; -274.000; -180.000
290.317;  -66.525; -618.000; -479.000
290.456;  -50.750; -463.000; -451.000
290.595; -136.250; -961.000; -833.000
290.734; -140.225; -904.000; -891.000
290.873;  -60.250; -456.000; -420.000
291.011; -108.875; -833.000; -843.000
291.150;  -96.450; -770.000; -682.000
291.289;  -34.050; -343.000; -110.000
291.428;  -95.175; -599.000; -480.000
291.567;  -54.475; -370.000; -442.000
291.706;  -10.250;  109.000;  154.000
291.845;  -89.675; -597.000; -505.000
291.984; -171.550;-1234.000;-1061.000
292.122;   79.475;  602.000;  582.000
292.261;   47.125;  620.000;  463.000
292.400;    4.400; -144.000;  211.000
292.539; -120.800; -959.000; -813.000
292.678;  -43.475; -325.000; -300.000
292.816; -152.550;-1136.000; -965.000
292.955;  -93.300; -844.000; -684.000
293.094;  -21.975; -173.000; -337.000
293.233;  -64.600; -556.000; -400.000
293.371;  -21.175; -225.000;  -84.000
293.510; -107.900; -866.000; -780.000
293.649; -132.975; -959.000; -924.000
293.787;  -69.075;-1083.000;-1012.000
293.926;    0.000; -113.000;  -32.000
294.065;  -48.000; -379.000; -290.000
294.203;   58.525;  298.000;  406.000
294.342;   22.075;   74.000;  156.000
294.481; 7196.150;51180.000; -836.000
294.619;  -23.450; -425.000; -582.000
294.758; -133.550;-1230.000;-1137.000
294.896;   64.475; -125.000;    5.000
295.035; -117.975;-1040.000;-1006.000
295.174; -120.100;-1082.000; -954.000
295.312;  -41.100; -323.000; -203.000
295.451;  -15.475; -307.000; -428.000
295.589;  -57.825; -389.000; -518.000
295.728;   18.825; -292.000; -165.000
295.866;    7.850;  -36.000;  -51.000
296.005;  -68.175; -584.000; -341.000
296.143;  -74.550; -558.000; -596.000
296.282; -106.175; -957.000; -881.000
296.420;  -75.975; -657.000; -557.000
296.559;  -91.750; -892.000; -633.000
296.697;   29.425; -847.000; -665.000
296.835;   46.275;-1141.000;-1002.000
296.974;   47.000;  -23.000;   39.000
297.112;  -12.300; -443.000; -504.000
297.251;  -68.200; -815.000; -755.000
297.389;   86.500; -576.000; -438.000
297.527;   38.500; -145.000;  -83.000
297.666;  -62.800; -486.000; -438.000
297.804;  -54.975; -404.000; -264.000
297.942;  -13.300; -136.000; -161.000
298.081;   -0.825; -183.000;   63.000
298.219;   64.575;  -17.000;  -19.000
298.357;   46.025; -144.000;  -71.000
298.495;   18.675; -810.000; -812.000
298.634;   85.825;  245.000;  219.000
298.772;   59.200; -220.000; -338.000
298.910;  -42.875; -309.000; -182.000
299.048;    2.375; -130.000; -153.000
299.187;  -20.875; -350.000; -250.000
299.325;   17.150;   52.000;  122.000
299.463;   46.250; -389.000; -299.000
299.601;  104.425; -327.000; -271.000
299.739; -112.250; -908.000; -883.000
299.877;  -87.075; -791.000; -703.000
300.016;  -50.900;-1095.000; -935.000
300.154;  157.250;  -19.000; -161.000
300.292;   54.575; -428.000; -348.000
300.430;   23.075; -408.000; -291.000
300.568; -104.550; -940.000; -874.000
300.706;  -55.925; -366.000; -469.000
300.844;  -87.425;-1108.000; -979.000
300.982;  117.775;  246.000;  282.000
301.120; -105.025; -965.000; -866.000
301.258;  -60.725; -812.000; -705.000
301.396;   31.025;  104.000;  -41.000
301.534;   64.175; -218.000; -293.000
301.672;  -13.150; -664.000; -521.000
301.810;   29.650; -613.000; -545.000
301.948;  119.500;   53.000;  149.000
302.086;  585.475; -250.000;  -32.000
302.224;  893.375; -610.000; -585.000
302.362;   12.150; -558.000; -622.000
302.500;  -34.275; -923.000; -893.000
302.638;   97.725;  128.000;  245.000
302.776;   -0.100; -352.000; -408.000
302.913;   53.000;  447.000;  236.000
303.051;   -4.275;  -86.000;  -23.000
303.189;   52.625;   90.000;  118.000
303.327;  -39.300; -341.000; -256.000
303.465;  -89.850; -832.000; -588.000
303.603;  -84.200; -805.000; -604.000
303.740;  104.075;  417.000;  241.000
303.878;   12.200; -800.000; -759.000
304.016;  -91.850; -915.000; -790.000
304.154; -124.150;-1123.000;-1152.000
304.291;  -43.325; -505.000; -554.000
304.429;    3.000;  102.000;   74.000
304.567; -141.275; -908.000; -893.000
304.705;  -59.475; -408.000; -515.000
304.842;   79.800; -616.000; -540.000
304.980;   58.575;  215.000;   35.000
305.118;   32.500; -367.000; -365.000
305.255;  -82.025; -945.000; -927.000
305.393;   56.325;  178.000;  239.000
305.531;  -97.850;-1173.000; -956.000
305.668;  -69.025; -663.000; -582.000
305.806;   99.550; -358.000; -439.000
305.943;  102.700; -629.000; -637.000
306.081;   42.600; -378.000; -267.000
306.219;  -89.250; -863.000; -748.000
306.356;    4.500;  158.000;   27.000
306.494;  104.550;  981.000;  761.000
306.631;  -11.225;  -11.000;  -55.000
306.769;  -16.100; -613.000; -485.000
306.906;  -22.350; -284.000; -258.000
307.044;  -65.525; -473.000; -488.000
307.181;  -65.675; -410.000; -332.000
307.319;   10.600;  112.000;   87.000
307.456; -169.700;-1191.000;-1153.000
307.594;  -98.500; -980.000; -727.000
307.731;  -11.550; -371.000; -164.000
307.868;  -13.925;  -15.000;   20.000
308.006; -139.950; -961.000; -847.000
308.143;  -55.250; -618.000; -330.000
308.281;  124.375;  -37.000; -254.000
308.418;  -32.975; -748.000; -640.000
308.555;  -64.450; -400.000; -250.000
308.693;  -75.675; -577.000; -573.000
308.830; -117.975; -712.000; -657.000
308.967;  -18.175; -215.000;  -95.000
309.105;  -35.625; -507.000; -396.000
309.242;    7.225; -468.000; -367.000
309.379;  225.700; -577.000; -655.000
309.517;  -71.075; -936.000; -948.000
309.654; -111.575; -910.000; -734.000
309.791;  -79.375; -662.000; -580.000
309.928; -109.700; -977.000; -914.000
310.065;  175.375;  819.000;  697.000
310.203;  -11.925; -825.000; -850.000
310.340;  -14.875; -465.000; -321.000
310.477;  -78.275; -412.000; -516.000
310.614;  -67.150; -383.000; -473.000
310.751;  -88.250; -427.000; -518.000
310.889;  -28.350;    1.000;   11.000
311.026; -157.000;-1161.000; -939.000
311.163;  -44.075; -386.000; -380.000
311.300;  -76.200; -512.000; -479.000
311.437;  -74.850; -658.000; -619.000
311.574; -155.450;-1226.000; -985.000
311.711;  -68.225; -595.000; -433.000
311.848;  -50.550; -380.000; -388.000
311.985;   10.700;  270.000;   93.000
312.122; -118.700; -932.000; -762.000
312.259; -129.375; -941.000; -994.000
312.396;  -71.325; -508.000; -551.000
312.533;  -85.525; -812.000; -790.000
312.670; -128.750;-1070.000; -898.000
312.807;  -40.250; -352.000; -367.000
312.944;  -75.975; -513.000; -611.000
313.081;  -44.775; -150.000; -415.000
313.218; -105.150;-1111.000; -867.000
313.355;   -5.300; -531.000; -449.000
313.492;   10.250; -455.000; -292.000
313.629;  132.350;  815.000;  735.000
313.766; -162.575;-1176.000;-1008.000
313.902;  -15.800; -186.000;   21.000
314.039;  -46.300; -372.000; -289.000
314.176;   33.300;  286.000;  192.000
314.313;  -69.800; -569.000; -473.000
314.450;  -72.475; -788.000; -684.000
314.587;  -49.075; -468.000; -480.000
314.723;    5.200;  -78.000;  130.000
314.860;   33.600;  318.000;  332.000
314.997;   21.175;  223.000;  142.000
315.134;  -36.825; -385.000; -368.000
315.270;  -43.100; -480.000; -496.000
315.407; -125.775;-1094.000; -967.000
315.544;  -46.600; -657.000; -538.000
315.681;  -70.525; -681.000; -565.000
315.817;   30.750; -133.000; -176.000
315.954;   25.750; -613.000; -392.000
316.091; -126.950;-1045.000;-1023.000
316.227;  -18.050;  -71.000; -179.000
316.364;   -2.900;   23.000;    6.000
316.500;  -45.725; -113.000; -300.000
316.637;  -56.625; -181.000; -302.000
316.774;  -79.425; -625.000; -358.000
316.910; -100.225; -598.000; -629.000
317.047;  -66.000; -487.000; -351.000
317.183;  -56.100; -435.000; -566.000
317.320;   -6.750; -367.000; -321.000
317.456;  -75.400; -733.000; -805.000
317.593;  -85.725; -598.000; -641.000
317.729;    2.075;  168.000;  -67.000
317.866; -197.275;-1434.000;-1285.000
318.002; -102.775; -708.000; -948.000
318.139; -111.575; -883.000; -867.000
318.275; -110.325;-1003.000; -738.000
318.412;  -51.200; -517.000; -336.000
318.548;  -42.250; -751.000; -720.000
318.685;  -92.825; -985.000; -888.000
318.821;  -87.650; -762.000; -735.000
318.957;  -16.350;   34.000;  -23.000
319.094;   34.000;  297.000;  154.000
319.230;  -58.000; -756.000; -742.000
319.367;  121.275; -471.000; -520.000
319.503;   53.625; -538.000; -436.000
319.639; -105.300; -877.000; -793.000
319.775;  -70.325; -750.000; -685.000
319.912;  -61.175; -424.000; -519.000
320.048; -104.975;-1184.000;-1184.000
320.184;   62.300;   59.000;   70.000
320.321;  -59.375; -497.000; -467.000
320.457;   63.925;  475.000;  662.000
320.593;  -72.075; -375.000; -382.000
320.729; -104.900; -732.000; -734.000
320.866;  -74.975; -577.000; -635.000
321.002;  -89.125; -759.000; -809.000
321.138;   -9.450; -135.000; -211.000
321.274;   61.375; -148.000; -115.000
321.410;  -26.425; -585.000; -353.000
321.546;  -39.700;-1011.000; -911.000
321.683;   77.100;  400.000;  185.000
321.819;  -12.875;  -48.000; -117.000
321.955; -111.050; -743.000; -722.000
322.091;  -48.200; -585.000; -540.000
322.227;   -8.950; -382.000; -202.000
322.363;   -9.550; -320.000; -215.000
322.499;  -51.675; -343.000; -331.000
322.635;  159.275;  636.000;  443.000
322.771;   23.800; -139.000;   12.000
322.907;   86.525;  129.000;  327.000
323.043;  -17.575; -115.000; -206.000
323.179;  -22.200; -394.000; -363.000
323.315;    8.350; -401.000; -371.000
323.451;   91.275; -328.000; -236.000
323.587;   57.925;  -60.000;  -77.000
323.723;   12.750; -682.000; -601.000
323.859;  -16.600; -258.000;  -76.000
323.995;  -32.925; -467.000; -409.000
324.131; -121.750; -967.000; -892.000
324.267;  -47.125; -254.000; -276.000
324.402; -138.350; -960.000; -983.000
324.538;  -26.075; -279.000; -104.000
324.674;   15.675;  164.000;   77.000
324.810;  112.875;  226.000;  308.000
324.946;    4.350; -810.000; -658.000
325.082;  -66.675; -568.000; -475.000
325.217;   -1.025;  -62.000;   16.000
325.353;  -99.475; -764.000; -659.000
325.489;  -84.375; -540.000; -506.000
325.625;  -81.350; -579.000; -525.000
325.760;   62.300;  517.000;  376.000
325.896;  -33.075; -515.000; -702.000
326.032;  -46.900; -403.000; -352.000
326.168;  -61.375; -462.000; -369.000
326.303;  -46.025; -352.000; -461.000
326.439;  -28.225; -336.000; -276.000
326.575;    2.175; -190.000;  -29.000
326.710;  -11.025; -156.000;  -30.000
326.846;   -4.075;  146.000;  103.000
326.982;  -97.275; -530.000; -548.000
327.117;  -73.300; -481.000; -442.000
327.253;  -96.500; -745.000; -742.000
327.388; -173.875;-1137.000;-1153.000
327.524;  -66.350; -811.000; -578.000
327.659;  -14.100;  -58.000;  -22.000
327.795;  -25.800;   69.000;   45.000
327.931;  -89.475; -723.000; -499.000
328.066;  -41.825; -417.000; -276.000
328.202;  -16.450;   12.000; -129.000
328.337;  110.750;  957.000;  713.000
328.473;   50.650;  -12.000;  -74.000
328.608;  -24.100; -256.000; -267.000
328.743;  -87.975; -799.000; -664.000
328.879;   14.325;  214.000;  114.000
329.014;  -31.750; -102.000; -122.000
329.150;  -87.700; -358.000; -483.000
329.285;  -80.200; -465.000; -466.000
329.421;  -45.750; -548.000; -246.000
329.556;  -26.150;  -36.000;   85.000
329.691; -107.475; -633.000; -615.000
329.827;  -74.000; -626.000; -480.000
329.962;  -57.125;  131.000; -301.000
330.097;  -97.275; -673.000; -585.000
330.233;  -54.400; -410.000; -223.000
330.368; -132.100; -839.000; -628.000
330.503;  -18.025;    3.000;   98.000
330.638;   19.000;  -93.000; -125.000
330.774;  -57.150; -609.000; -530.000
330.909;  -35.075; -434.000; -244.000
331.044;  -90.500; -714.000; -708.000
331.179; -175.850;-1217.000;-1109.000
331.315;    4.350;   77.000;   20.000
331.450;   21.975;  157.000;  285.000
331.585;  -87.575; -805.000; -706.000
331.720;  -80.775; -510.000; -460.000
331.855;  -15.600;  -35.000; -102.000
331.990;  234.950;   62.000;  138.000
332.126;  133.300; -110.000;   71.000
332.261;  -25.625; -379.000; -265.000
332.396;    2.975; -135.000; -242.000
332.531;  -85.150;-1074.000;-1031.000
332.666;   25.050; -519.000; -363.000
332.801; -113.700; -726.000; -807.000
332.936;  -40.700; -192.000; -122.000
333.071; -124.750; -870.000; -817.000
333.206;    7.375;  307.000;  379.000
333.341;   21.875;  344.000;  418.000
333.476;  -88.775; -627.000; -623.000
333.611;  -41.800; -251.000; -173.000
333.746;  -59.125; -381.000; -464.000
333.881; -115.300; -973.000; -935.000
334.016; -137.125; -936.000; -917.000
334.151; -130.550; -746.000; -702.000
334.286;   14.650;  152.000;  186.000
334.421;  -23.075; -125.000; -178.000
334.556;  -73.050; -611.000; -567.000
334.690;  -70.275; -631.000; -577.000
334.825;   51.000;  381.000;   83.000
334.960;  -65.525; -285.000; -413.000
335.095;    8.350;  135.000;  -91.000
335.230; -108.425; -722.000; -738.000
335.365; -133.200;-1084.000; -990.000
335.499; -131.750;-1108.000;-1037.000
335.634;   14.800;    9.000;  534.000
335.769; -103.025; -755.000; -720.000
335.904;  -65.875; -603.000; -561.000
336.038;  -60.550; -735.000; -657.000
336.173; -120.300;-1206.000;-1194.000
336.308;    9.875; -116.000; -189.000
336.443;   23.150; -544.000; -634.000
336.577;  -65.575; -936.000; -787.000
336.712;   54.575;   -4.000;  -12.000
336.847;  -26.825; -724.000; -607.000
336.981;   49.600; -272.000; -208.000
337.116;  290.725;  615.000;  501.000
337.250;  138.275; -434.000; -421.000
337.385;  241.400; -297.000; -208.000
337.520;   99.325; -632.000; -603.000
337.654;  -41.475; -215.000; -126.000
337.789; -132.900; -989.000; -933.000
337.923;  -26.275; -104.000; -205.000
338.058;  -90.000; -673.000; -738.000
338.192;  -33.825; -611.000; -488.000
338.327;  -16.550;  -18.000; -155.000
338.461;  -56.000; -299.000; -469.000
338.596;  -90.650; -780.000; -638.000
338.730; -108.375; -767.000; -803.000
338.865;   85.600;  -46.000; -140.000
338.999;  -57.900; -846.000; -702.000
339.134;  -33.100; -634.000; -536.000
339.268;   17.950; -741.000; -603.000
339.403;  350.325; -740.000; -775.000
339.537;   98.775; -894.000; -820.000
339.671; -114.625; -829.000; -813.000
339.806;  -63.325; -556.000; -512.000
339.940;   11.600; -261.000; -235.000
340.074;  -96.250; -685.000; -510.000
340.209;  -53.525; -351.000; -230.000
340.343;  -88.250; -517.000; -573.000
340.477;  146.175;  998.000; 1036.000
340.612;  -56.450;-1033.000; -900.000
340.746;  138.875; -199.000; -243.000
340.880;  -67.450; -924.000; -785.000
341.014;  -23.550;  -45.000; -154.000
341.149; -119.325; -756.000; -718.000
341.283; -113.450; -839.000; -754.000
341.417; -103.400;-1124.000; -938.000
341.551;  118.050; -768.000; -708.000
341.685;  -36.675; -633.000; -611.000
341.820;  -62.075; -562.000; -493.000
341.954;  -49.100; -218.000; -349.000
342.088; -160.050;-1102.000;-1019.000
342.222;   59.950;  565.000;  618.000
342.356;  -69.650; -395.000; -335.000
342.490;  -96.375; -880.000; -841.000
342.624;  -58.800; -339.000; -242.000
342.758;   -6.500; -364.000; -312.000
342.892;  -67.700; -710.000; -585.000
343.026;  -33.125;  -58.000; -116.000
343.160;  -62.175; -426.000; -376.000
343.294;  -72.650; -474.000; -337.000
343.428;  -42.100; -488.000; -448.000
343.562;   -9.825; -172.000;  -23.000
343.696;  -34.300; -385.000; -314.000
343.830;  -31.675; -362.000; -356.000
343.964;   -1.575; -231.000; -168.000
344.098;  870.150;  199.000;   70.000
344.232;  723.025; -266.000; -127.000
344.366;   79.250; -567.000; -453.000
344.500;   48.550; -665.000; -744.000
344.634;   14.775; -324.000; -164.000
344.768;   -8.650; -531.000; -341.000
344.902;   32.300;  278.000;  256.000
345.035;  -77.250; -556.000; -496.000
345.169; -134.175; -933.000; -656.000
345.303;  -51.325; -308.000; -482.000
345.437;  -76.025; -826.000; -717.000
345.571;  -84.025; -675.000; -594.000
345.704;  -52.550; -309.000; -532.000
345.838;  -15.150; -331.000; -284.000
345.972;  -43.475; -543.000; -495.000
346.106;  162.400; -179.000; -190.000
346.239;  425.800; -312.000; -243.000
346.373;    5.450; -343.000; -302.000
346.507; -135.650; -950.000; -962.000
346.640;  137.375;  -30.000;   13.000
346.774;  -40.275; -650.000; -797.000
346.908;  -36.125; -138.000;  -11.000
347.041; -111.550; -646.000; -593.000
347.175;    6.925;  259.000;   27.000
347.309;  -67.975; -698.000; -628.000
347.442; -102.925; -883.000; -732.000
347.576;  266.800;  670.000;  668.000
347.709;  179.225; -123.000;  -52.000
347.843;  -87.000; -933.000; -825.000
347.976;   39.750;  235.000;  294.000
348.110; -169.775;-1268.000;-1186.000
348.243; -109.500; -679.000; -772.000
348.377;   -2.725;  -26.000;   60.000
348.510;   49.975;  403.000;  540.000
348.644;  -43.725;  -37.000; -159.000
348.777;    0.850;  180.000;  191.000
348.911;  -39.750; -142.000; -112.000
349.044;  156.975;  471.000;  448.000
349.178;  135.150;-1069.000;-1006.000
349.311;  119.050;  141.000;  255.000
349.444;   -4.250; -927.000; -813.000
349.578;  -12.150; -347.000; -200.000
349.711; -106.225; -959.000; -862.000
349.845;   -2.450; -661.000; -591.000
349.978; -145.525;-1224.000;-1137.000
350.111;  -89.775; -546.000; -612.000
350.244;  -81.300; -596.000; -700.000
350.378;   -7.400; -392.000; -393.000
350.511;  -69.875; -393.000; -426.000
350.644; -101.575; -808.000; -806.000
350.778;   10.275;  168.000;  104.000
350.911;  -12.375;  134.000;  140.000
351.044;  -80.700; -685.000; -615.000
351.177;  -36.025; -321.000; -281.000
351.310;   -6.925;    3.000; -131.000
351.444;  -90.575; -888.000; -788.000
351.577;  113.125;  140.000;   90.000
351.710;   91.100;  593.000;  417.000
351.843;  -28.325; -165.000;  -77.000
351.976;   -3.975;  149.000;  -79.000
352.109;  -90.800; -621.000; -612.000
352.242;  -38.025; -464.000; -419.000
352.376;  -53.275; -580.000; -636.000
352.509;  164.475; -437.000; -356.000
352.642;   -5.125; -654.000; -604.000
352.775;   49.525; -141.000;  -98.000
352.908; -119.825; -933.000; -904.000
353.041; -105.575; -814.000; -824.000
353.174;  -62.450; -551.000; -424.000
353.307;  -95.350; -753.000; -764.000
353.440;   70.200;  541.000;  453.000
353.573; -119.650; -957.000;-1008.000
353.706;  -43.475; -384.000; -558.000
353.839;  -24.625; -264.000; -220.000
353.971;  -84.575; -657.000; -512.000
354.104;  -86.975; -896.000; -835.000
354.237;  -37.650; -627.000; -662.000
354.370;  -81.500; -846.000; -879.000
354.503; -184.100;-1231.000;-1308.000
354.636;  -41.100; -529.000; -348.000
354.769; -126.550; -937.000; -860.000
354.902;  -20.575; -230.000; -139.000
355.034;  -16.050; -164.000; -220.000
355.167;  -12.925; -262.000; -162.000
355.300;  -91.200;-1061.000; -880.000
355.433;  961.100;  -71.000;  -14.000
355.565; 1529.250; -402.000; -384.000
355.698;  382.825; -356.000; -296.000
355.831;   -8.200; -882.000; -801.000
355.964;   67.325; -285.000; -170.000
356.096;  -78.425; -856.000; -843.000
356.229;  -10.700; -523.000; -530.000
356.362;  317.075; -373.000; -266.000
356.494;  582.775; -229.000; -162.000
356.627;  459.275;  269.000;  377.000
356.760;  657.900;  120.000;   53.000
356.892;  937.325; -286.000; -601.000
357.025;  614.875;  403.000;  389.000
357.157;  570.375; -167.000; -179.000
357.290;  705.650; -856.000; -713.000
357.423;  192.775; -667.000; -556.000
357.555;  107.175; -217.000; -228.000
357.688;  127.900; -483.000; -364.000
357.820;  427.200; -870.000; -877.000
357.953; 3582.600; -563.000; -589.000
358.085;  744.050; -632.000; -612.000
358.218; 1076.325;-1131.000; -932.000
358.350;  183.875;  -58.000;  312.000
358.483; -128.775;-1300.000;-1187.000
358.615;  -32.500;-1182.000;-1078.000
358.747;  -57.600;-1187.000;-1058.000
358.880;   -1.250; -810.000; -744.000
359.012;   -3.600; -376.000; -202.000
359.145;  -52.475; -480.000; -511.000
359.277;   47.200; -962.000; -913.000
359.409; 2947.875;  536.000;  231.000
359.542;  759.575; -738.000; -688.000
359.674;   64.050;   46.000;   13.000
359.806;  -63.000; -565.000; -438.000
359.939;  -51.875; -617.000; -516.000
360.071;  -12.325; -583.000; -579.000
360.203;  -26.000; -411.000; -364.000
360.335;   45.550;  164.000;  -16.000
360.468;  176.825; -249.000; -307.000
360.600; 2381.350; -547.000; -454.000
360.732; 2850.350; -546.000; -423.000
360.864;  382.575;-1216.000;-1044.000
360.996;  237.725; -516.000; -554.000
361.129;   31.175; -389.000; -598.000
361.261;   21.550;  110.000; -113.000
361.393;  -44.525; -252.000; -214.000
361.525;   24.200;   94.000;  244.000
361.657;  -48.375; -821.000; -703.000
361.789;    4.150; -139.000; -155.000
361.921;  224.650; -642.000; -593.000
362.053;  242.000;  524.000;  541.000
362.185;   52.750;  288.000;   72.000
362.318;  -83.300; -709.000; -705.000
362.450;  111.300;  294.000;  444.000
362.582;   83.775; -913.000; -870.000
362.714;  -35.025; -353.000; -332.000
362.846;  -94.725; -606.000; -490.000
362.978; -139.825; -941.000; -811.000
363.109;   29.975; -161.000; -260.000
363.241;  399.075; -739.000; -749.000
363.373;  413.075; -649.000; -564.000
363.505;  665.500; -186.000;  -91.000
363.637;  152.725; -787.000; -601.000
363.769; -131.900;-1067.000;-1080.000
363.901;  -62.050; -596.000; -654.000
364.033; -128.425;-1103.000;-1062.000
364.165;  -13.950; -283.000; -283.000
364.296;   70.200; -316.000; -177.000
364.428;   53.500;-1344.000;-1220.000
364.560;  -63.325; -679.000; -661.000
364.692;  -78.200; -738.000; -835.000
364.824;  241.500; -588.000; -456.000
364.955;  435.000; -402.000; -564.000
365.087;  948.050;-1097.000; -852.000
365.219;   14.525; -686.000; -816.000
365.351;  -76.850; -526.000; -572.000
365.482;   44.600;  300.000;  240.000
365.614;  -36.275; -402.000; -314.000
365.746; -111.050; -729.000; -752.000
365.877;  -92.950; -706.000; -672.000
366.009;  264.975;  -35.000;  -62.000
366.141;  -82.950;-1249.000;-1134.000
366.272; -102.525; -803.000; -719.000
366.404; -120.275;-1005.000; -874.000
366.535;  -18.325; -139.000;  -12.000
366.667;  -93.025; -644.000; -649.000
366.799;   50.725;  353.000;  203.000
366.930; -112.650; -862.000; -996.000
367.062;  110.575; -639.000; -613.000
367.193;  140.650; -872.000; -842.000
367.325;  -73.750; -580.000; -684.000
367.456;   48.125; -246.000;   31.000
367.588;  172.175; -371.000; -318.000
367.719;   16.050;  -44.000;  -45.000
367.851;  -36.150; -222.000; -241.000
367.982;  -47.900; -875.000; -732.000
368.113;   93.250; -475.000; -358.000
368.245; -125.000; -960.000; -841.000
368.376;  -24.775; -254.000; -302.000
368.508;  -51.650; -188.000; -263.000
368.639; -134.875;-1166.000;-1034.000
368.770;  -19.600; -670.000; -589.000
368.902;  -69.275; -836.000; -926.000
369.033; -113.600; -906.000; -855.000
369.164;  -62.050; -720.000; -653.000
369.296; -110.800; -452.000; -601.000
369.427;  -10.500; -209.000; -144.000
369.558;  -57.200; -593.000; -377.000
369.689;  -86.375; -721.000; -569.000
369.821; -128.225; -951.000; -845.000
369.952;  -21.625;   42.000; -108.000
370.083;  -58.875; -229.000; -108.000
370.214;  -95.475; -735.000; -650.000
370.345;   -8.150;   65.000;   81.000
370.477; -103.800; -810.000; -790.000
370.608;  219.400; -328.000; -264.000
370.739;  -54.200;-1233.000;-1292.000
370.870;  -44.225;-1102.000; -923.000
371.001;   80.375; -378.000; -467.000
371.132;  -74.200; -754.000; -735.000
371.263;  -25.050;  -42.000; -148.000
371.394; -126.750; -841.000; -748.000
371.525;   19.500;  345.000;  225.000
371.657;  -99.925; -808.000; -670.000
371.788;   74.500;  103.000;  199.000
371.919;  149.125; -384.000; -304.000
372.050; 3475.225;  -91.000; -156.000
372.181; 1031.875; -188.000; -294.000
372.311;  358.775;   42.000; -127.000
372.442;   28.250; -457.000; -451.000
372.573;  -20.100; -444.000; -340.000
372.704; -115.925;-1008.000; -980.000
372.835;   84.750; -228.000; -289.000
372.966;  -48.000; -646.000; -554.000
373.097;  -60.875; -575.000; -711.000
373.228;  -49.675; -717.000; -542.000
373.359;  104.200; -824.000; -536.000
373.490;  870.375; -881.000; -727.000
373.620; 1084.625;-1001.000; -803.000
373.751; 1693.525; -332.000; -396.000
373.882;  743.250; -663.000; -733.000
374.013;   56.150; -449.000; -262.000
374.143;  -48.900; -581.000; -659.000
374.274; -111.975; -987.000; -908.000
374.405;  166.475; -388.000; -276.000
374.536;  428.625; -526.000; -387.000
374.666; 1056.025; -759.000; -807.000
374.797;  208.325; -817.000; -868.000
374.928;  807.275; -710.000; -560.000
375.058;  843.875; -535.000; -500.000
375.189;   75.375;  -59.000;  -93.000
375.320; -107.725; -928.000;-1034.000
375.450;  -50.900; -625.000; -616.000
375.581;  -45.750; -526.000; -436.000
375.712;  -30.875; -574.000; -250.000
375.842;  301.450; -438.000; -415.000
375.973;  196.675; -554.000; -513.000
376.103;  -57.025; -665.000; -648.000
376.234;  -75.975; -531.000; -552.000
376.364;  -50.450; -944.000; -867.000
376.495;  325.075;  925.000;  529.000
376.625;   -2.225; -472.000; -485.000
376.756;   45.750; -709.000; -678.000
376.886;  -89.075;-1178.000;-1026.000
377.017;   39.700;-1048.000;-1061.000
377.147;  352.175; -786.000; -782.000
377.278;   68.900;  174.000;  228.000
377.408; -137.825; -801.000; -815.000
377.538; -109.725; -707.000; -693.000
377.669;  -84.250; -537.000; -613.000
377.799;  -83.275; -645.000; -635.000
377.929;  -55.250; -610.000; -428.000
378.060; -127.475; -781.000; -847.000
378.190;  -53.650; -726.000; -531.000
378.320;  -57.850; -401.000; -406.000
378.451;  -10.225; -131.000;  -22.000
378.581;  -16.275;  -67.000; -110.000
378.711;  157.200; 1035.000;  866.000
378.841;  -31.750; -533.000; -675.000
378.972;  -71.350; -871.000; -751.000
379.102;   -0.950; -652.000; -579.000
379.232;  -22.475; -126.000;  -73.000
379.362; -120.025;-1001.000; -885.000
379.492;    2.250; -373.000; -424.000
379.623;  103.225;    0.000;  111.000
379.753; -100.000;-1107.000; -974.000
379.883;  183.300;   59.000;  156.000
380.013;    8.725;-1081.000;-1017.000
380.143;  -97.250;-1097.000;-1056.000
380.273; -106.525; -985.000; -861.000
380.403;  -16.775; -344.000; -257.000
380.533;  -37.250; -651.000; -664.000
380.663;   58.125;  173.000;  128.000
380.793; -100.825;-1027.000;-1074.000
380.923;  -31.200; -103.000;  -34.000
381.053; -105.825; -613.000; -623.000
381.183;  -30.925; -106.000; -248.000
381.313;   40.650; -656.000; -470.000
381.443;   27.500; -692.000; -473.000
381.573;  181.500; -402.000; -409.000
381.703;  261.050;-1249.000;-1095.000
381.833; -131.025;-1454.000;-1336.000
381.963;  103.525; -134.000;  -87.000
382.093; 1344.425; -925.000; -909.000
382.223;  385.700; -713.000; -602.000
382.353;  -14.800; -801.000; -608.000
382.482;  338.175;-1091.000; -964.000
382.612;  730.575; -872.000; -644.000
382.742;  418.025; -695.000; -622.000
382.872;  232.100; -565.000; -551.000
383.002;   61.925;  347.000; -132.000
383.131;  -15.175; -226.000; -160.000
383.261;  -55.075; -706.000; -768.000
383.391;  297.350; -552.000; -377.000
383.521; 3237.675;  451.000;  263.000
383.650;  764.700; -947.000; -904.000
383.780;  -16.175; -783.000; -656.000
383.910;  103.350;  880.000;  802.000
384.039;    5.425; -794.000; -656.000
384.169;  188.900;-1205.000;-1017.000
384.299;  -36.850; -650.000; -662.000
384.428;  -90.725; -764.000; -680.000
384.558;  -54.475; -308.000; -275.000
384.687;  -35.425; -414.000; -334.000
384.817;    5.050;   75.000;   -2.000
384.947;   13.925; -234.000; -141.000
385.076;  275.500;  982.000;  912.000
385.206;   95.325;  369.000;  480.000
385.335;  -36.525; -549.000; -417.000
385.465;  -88.075; -655.000; -663.000
385.594;  126.150;  -53.000;  -44.000
385.724;  413.325; -868.000; -838.000
385.853;   98.375; -296.000; -270.000
385.982; 1280.150; -743.000; -787.000
386.112; 2040.400;-1052.000; -871.000
386.241;  137.425; -307.000; -312.000
386.371;    5.175; -174.000;  -87.000
386.500;    3.375; -825.000; -789.000
386.629;   17.700; -874.000; -817.000
386.759;   53.025;  -43.000;   68.000
386.888;  -13.650; -170.000; -250.000
387.017;  -74.125; -648.000; -620.000
387.147;  -88.975; -771.000; -798.000
387.276;  -11.200; -410.000; -397.000
387.405;    8.500; -398.000; -342.000
387.535;  -49.325; -452.000; -361.000
387.664;  -63.650; -692.000; -620.000
387.793;   46.000; -198.000; -113.000
387.922;  477.250;  255.000;  200.000
388.052;   13.725; -576.000; -423.000
388.181;   15.325; -342.000; -472.000
388.310;   -8.825; -889.000; -710.000
388.439;  -51.350; -749.000; -742.000
388.568;  172.400;  365.000;  244.000
388.697;  995.025; -756.000; -653.000
388.826;  194.550; -768.000; -666.000
388.956;   62.100; -285.000; -307.000
389.085;  -22.250; -347.000; -287.000
389.214; -124.400; -842.000; -872.000
389.343;  -77.875; -645.000; -413.000
389.472;  399.650;  126.000;  149.000
389.601;  507.550;   91.000;    0.000
389.730;    5.900; -568.000; -687.000
389.859;   54.275;  226.000;   46.000
389.988;  178.625; -423.000; -408.000
390.117;  131.100; -168.000; -146.000
390.246;   -4.800; -331.000; -320.000
390.375;   94.700; -673.000; -626.000
390.504;  -64.625; -703.000; -621.000
390.633;  -97.850; -672.000; -726.000
390.761;  -65.150; -732.000; -645.000
390.890;   16.975;   -4.000; -130.000
391.019;  -52.050; -421.000; -441.000
391.148; -120.375; -826.000; -855.000
391.277;  -67.900; -576.000; -493.000
391.406;  -89.275; -821.000; -805.000
391.534;   14.975;  574.000; -301.000
391.663;  -62.750; -583.000; -645.000
391.792;  -85.625; -673.000; -701.000
391.921;   86.175;   -3.000;   15.000
392.050;  161.925; -287.000; -228.000
392.178;  -57.225;-1206.000;-1061.000
392.307;  134.475; -758.000; -712.000
392.436;   64.800; -427.000; -641.000
392.564;   24.300;  166.000;   -6.000
392.693;  -97.675; -860.000; -682.000
392.822;  186.250; -529.000; -534.000
392.950;   68.950; -880.000; -714.000
393.079;  304.700; -188.000; -328.000
393.208;   23.125; -488.000; -511.000
393.336;  -11.200; -170.000; -145.000
393.465;  -46.100; -317.000; -199.000
393.593;   -5.975;   62.000;   79.000
393.722; -155.450;-1121.000; -916.000
393.850;  -26.075; -188.000;  -61.000
393.979; -163.875; -926.000; -805.000
394.107;  -66.950; -517.000; -537.000
394.236;  -31.375; -570.000; -507.000
394.364;  183.825;  383.000;  206.000
394.493;  243.750; -911.000; -767.000
394.621;  -27.175; -955.000; -916.000
394.750;  718.300; -873.000; -923.000
394.878; 2973.100; -247.000; -149.000
395.007; 3996.050; -721.000; -807.000
395.135;  299.275; -790.000; -721.000
395.263;  -92.375;-1038.000;-1040.000
395.392;    9.200;  -25.000; -107.000
395.520; -138.500; -818.000; -679.000
395.648;  -96.775; -865.000; -915.000
395.777;  -21.000; -366.000; -405.000
395.905;  -53.500; -449.000; -564.000
396.033;   10.625;  217.000;  172.000
396.162;  440.825; -399.000; -453.000
396.290;  377.350;  -17.000;   -2.000
396.418;   71.325; -555.000; -514.000
396.546;  -68.550; -571.000; -466.000
396.674; -102.950; -850.000; -878.000
396.803;    0.900;  -72.000;  -23.000
396.931;   72.175; -179.000; -199.000
397.059;   15.200;-1026.000; -989.000
397.187; -130.325;-1026.000; -975.000
397.315; -138.550; -884.000; -649.000
397.443;  -91.225; -592.000; -443.000
397.572;  -95.525; -578.000; -424.000
397.700;  -24.525; -607.000; -614.000
397.828;    3.075;  120.000;  -90.000
397.956;  -57.650; -508.000; -478.000
398.084;  -55.575; -767.000; -626.000
398.212;   20.075;  137.000;  124.000
398.340;   14.125;  -56.000;  159.000
398.468;   24.075; -390.000; -169.000
398.596; -143.800; -993.000; -953.000
398.724; -126.725; -762.000; -767.000
398.852; -161.000;-1024.000; -976.000
398.980;  -72.200; -560.000; -560.000
399.108;  -62.500; -982.000; -735.000
399.236;   24.425;   13.000;    8.000
399.363;   12.475;  222.000;  196.000
399.491;  -69.625; -404.000; -398.000
399.619; -126.125; -829.000; -800.000
399.747; -112.300; -859.000; -771.000
399.875;   74.850;  220.000;  234.000
400.003;  -59.750; -359.000; -284.000
400.130;  -86.275; -421.000; -341.000
400.258;  -43.850;  -83.000;   38.000
400.386;  -64.100; -352.000; -168.000
400.514;  -48.900; -526.000; -587.000
400.641; -102.350; -928.000; -802.000
400.769; -129.350; -979.000; -888.000
400.897; -117.400; -838.000; -793.000
401.025;  -25.875; -166.000; -152.000
401.152;  -14.925;  220.000;   38.000
401.280;  -90.125; -430.000; -429.000
401.408; -129.125; -712.000; -576.000
401.535; -111.825; -735.000; -758.000
401.663; -202.425;-1134.000;-1054.000
401.790;  -91.675; -514.000; -525.000
401.918;   26.575;  436.000;  405.000
402.046;  -25.050;  134.000;  122.000
402.173;  -49.575;  -18.000;    7.000
402.301;  -78.050; -519.000; -397.000
402.428;   48.600;  528.000;  383.000
402.556; -142.900;-1188.000; -913.000
402.683;  -22.125;  -20.000;   -1.000
402.811;  -33.800;  -37.000; -206.000
402.938;  -19.275;   20.000;   27.000
403.066;  190.125; -574.000; -558.000
403.193;  325.450;  299.000;  239.000
403.321;  245.050; -396.000; -574.000
403.448;  322.350;   83.000;   27.000
403.575;  145.875;  -90.000;  -46.000
403.703; -108.000; -732.000; -557.000
403.830;  -67.650; -531.000; -496.000
403.957; -147.875;-1117.000;-1023.000
404.085;    8.350;  -61.000; -172.000
404.212;  104.500;  -50.000;   63.000
404.339;  279.075; -566.000; -306.000
404.467; 5889.500; -612.000; -524.000
404.594; 3750.275; -287.000; -227.000
404.721;  859.900; -869.000; -764.000
404.848;   76.350; -113.000; -202.000
404.976; -106.350; -856.000; -783.000
405.103;  -18.050;  -14.000;  -82.000
405.230;   -8.000;  190.000;  226.000
405.357;   20.550;  117.000;   44.000
405.484;  263.375;  -49.000;    5.000
405.612;   24.675; -548.000; -563.000
405.739;  -65.375; -488.000; -243.000
405.866;   76.925;  669.000;  385.000
405.993;  -54.850; -398.000; -102.000
406.120; -140.600; -801.000; -887.000
406.247;  -62.725; -323.000; -342.000
406.374;  420.150;  540.000;  629.000
406.501;  105.950; -632.000; -702.000
406.628;  -82.875; -621.000; -589.000
406.755;  -94.750; -803.000; -620.000
406.882;  -45.475; -228.000; -277.000
407.009; -113.750; -719.000; -628.000
407.136;   38.925; -480.000; -401.000
407.263;  104.600; -939.000; -829.000
407.390;  -93.650; -692.000; -614.000
407.517; -179.225;-1139.000;-1187.000
407.644;  -57.075; -332.000; -256.000
407.771;  -63.125; -249.000; -287.000
407.898;    7.425;  168.000;  328.000
408.025;  -72.550; -421.000; -313.000
408.151;   -0.825;   82.000;  153.000
408.278;  -63.675; -267.000; -216.000
408.405; -115.700; -931.000; -899.000
408.532;  -53.775; -549.000; -542.000
408.659; -132.475; -677.000; -648.000
408.785; -210.775;-1298.000;-1170.000
408.912;  -70.050; -412.000; -296.000
409.039;  -98.350; -610.000; -686.000
409.166; -110.675; -591.000; -555.000
409.292; -112.550; -571.000; -534.000
409.419; -122.125; -665.000; -649.000
409.546;  -86.000; -431.000; -192.000
409.672; -116.650; -713.000; -545.000
409.799;  -19.275;  -36.000;   34.000
409.926;  -48.350; -180.000; -179.000
410.052; -166.075;-1127.000;-1091.000
410.179;  -65.825; -368.000; -392.000
410.305;  -82.350; -375.000; -493.000
410.432;  -51.450; -220.000; -333.000
410.558;  -87.025; -305.000; -380.000
410.685; -116.675; -688.000; -431.000
410.812;  -95.225; -409.000; -588.000
410.938; -155.175; -964.000; -808.000
411.065; -104.400; -671.000; -645.000
411.191;  -36.275; -189.000; -174.000
411.317; -118.250; -823.000; -742.000
411.444;  -60.775; -317.000; -246.000
411.570;  -72.675; -339.000; -294.000
411.697; -129.150; -758.000; -752.000
411.823; -168.225; -989.000; -999.000
411.949;  -45.325;  -56.000;   17.000
412.076; -111.050; -539.000; -519.000
412.202; -126.500; -758.000; -757.000
412.329; -117.925; -798.000; -752.000
412.455; -123.725; -821.000; -657.000
412.581;  -27.450;  -15.000;  172.000
412.707;  -78.575; -540.000; -457.000
412.834;   17.275;  156.000;  219.000
412.960;  -92.325; -785.000; -784.000
413.086;  -90.700; -743.000; -701.000
413.212;  146.250;  604.000;  578.000
413.339;  -61.700; -685.000; -701.000
413.465;   -2.500; -364.000; -310.000
413.591;  -91.475; -757.000; -474.000
413.717;  -49.625; -358.000; -366.000
413.843; -133.125; -839.000; -861.000
413.969;  -58.575;  -47.000; -292.000
414.096; -103.525; -679.000; -679.000
414.222;  -11.200;  -33.000;   85.000
414.348;  -29.850; -652.000; -385.000
414.474;   78.725;   38.000;  -52.000
414.600;   -0.700; -126.000; -144.000
414.726;  -18.575;  -96.000;  -55.000
414.852;  -54.900; -365.000; -342.000
414.978;   44.400;  104.000;  -18.000
415.104;   40.800;   38.000;   80.000
415.230;   20.600; -329.000; -330.000
415.356;   47.500; -409.000; -514.000
415.482;  191.575;   13.000;  -35.000
415.608;  277.900; -247.000; -323.000
415.734;  963.600;   67.000;   38.000
415.860;20249.325; -875.000; -767.000
415.986;14394.850; -685.000; -607.000
416.111; 1238.775; -798.000; -652.000
416.237;  241.175; -424.000; -571.000
416.363; 1133.175; -765.000; -733.000
416.489; 4280.050; -324.000; -251.000
416.615;  438.275; -707.000; -742.000
416.741;  -18.825; -677.000; -784.000
416.866;  -96.300; -673.000; -736.000
416.992; -115.850; -801.000; -818.000
417.118;  -29.775;  -41.000;  -80.000
417.244;  -76.775; -798.000; -531.000
417.369;  -94.600; -801.000; -612.000
417.495;   -8.500; -325.000; -254.000
417.621;  -87.875;-1015.000; -803.000
417.746;  -12.875; -579.000; -572.000
417.872;   46.575; -254.000; -144.000
417.998;   58.725; -515.000; -530.000
418.123; 1067.000;-1073.000; -845.000
418.249; 5454.450; -512.000; -601.000
418.374;  731.150; -916.000; -824.000
418.500;  119.225; -383.000; -482.000
418.626;  121.500;   70.000;  -59.000
418.751;  109.225; -549.000; -448.000
418.877;  189.325; -637.000; -643.000
419.002; 1847.025; -688.000; -560.000
419.128;12768.475; -930.000; -721.000
419.253; 3024.400; -967.000; -837.000
419.379;  411.300; -391.000; -338.000
419.504;  380.475;  325.000;  415.000
419.629;  503.450; -393.000; -212.000
419.755; 3669.600; -317.000; -254.000
419.880;21528.600;  -98.000;   67.000
420.006;11587.950; -280.000; -221.000
420.131;29592.950; -662.000; -775.000
420.256; 4172.500; -315.000; -316.000
420.382;  555.850; -665.000; -687.000
420.507;   56.900; -649.000; -778.000
420.632;  107.725; -337.000; -339.000
420.758;  221.475; -251.000; -425.000
420.883;  -78.675; -876.000; -672.000
421.008;  -97.200; -775.000; -619.000
421.133;  -80.575; -509.000; -467.000
421.259;  -46.550; -325.000; -259.000
421.384; -118.450; -834.000; -693.000
421.509;  -65.900;-1052.000; -862.000
421.634; 1080.750; -936.000; -820.000
421.759;  475.400; -359.000; -327.000
421.885;  -60.800; -717.000; -656.000
422.010;  -85.400; -673.000; -542.000
422.135; -138.875; -695.000; -727.000
422.260;   41.525;  340.000;  280.000
422.385;  -35.300;   12.000;  -98.000
422.510;   -2.475;  151.000;  -26.000
422.635;    3.825;  -87.000;  -43.000
422.760;   95.925; -766.000; -791.000
422.885;   62.500;  -57.000;  -80.000
423.010;  -41.225; -112.000; -169.000
423.135;  -96.250; -481.000; -561.000
423.260;  -22.925; -150.000; -245.000
423.385;   63.875;  476.000;  222.000
423.510;   35.100;   71.000;  -22.000
423.635;   79.975;  133.000;   45.000
423.760;   57.250;  383.000;  328.000
423.885;   53.800;  336.000;  391.000
424.010;    0.100;  -68.000;  -13.000
424.135;  -18.950;    5.000;  -33.000
424.259; -103.450; -654.000; -457.000
424.384;  -62.200; -279.000; -272.000
424.509;  -23.275; -260.000; -186.000
424.634; -104.400; -761.000; -623.000
424.759;  -22.825; -688.000; -544.000
424.883;   -6.925; -506.000; -527.000
425.008;  155.750; -502.000; -410.000
425.133; 2031.750; -679.000; -653.000
425.258;  931.725; -517.000; -381.000
425.382; 1016.250; -867.000; -774.000
425.507; 2502.550; -487.000; -543.000
425.632;  422.125; -802.000; -663.000
425.756;  462.375; -256.000; -146.000
425.881; 6812.675; -831.000; -857.000
426.006;18017.200; -604.000; -355.000
426.130; 2784.000; -696.000; -508.000
426.255;  366.175; -611.000; -491.000
426.379;  142.500; -189.000; -577.000
426.504;  381.250;  660.000;  544.000
426.629; 4068.950; -519.000; -466.000
426.753; 2747.650;   64.000;  -46.000
426.878;  320.250; -252.000; -288.000
427.002;  139.725; -651.000; -668.000
427.127; 1619.050;  -35.000; -158.000
427.251;11602.750;  372.000;  401.000
427.375; 3235.300; -191.000; -173.000
427.500; 2221.300; -616.000; -610.000
427.624;  732.850; -234.000; -400.000
427.749;   82.575; -216.000; -225.000
427.873;  -43.425; -499.000; -412.000
427.997;  -41.825; -222.000; -230.000
428.122;   83.000;  795.000;  703.000
428.246;   66.725;  433.000;  434.000
428.371; -137.450; -869.000; -773.000
428.495; -110.300; -624.000; -646.000
428.619;  -17.525; -186.000; -117.000
428.743;   27.950;   65.000;  132.000
428.868;    6.675; -732.000; -643.000
428.992; 1331.125; -219.000; -326.000
429.116;  539.150; -329.000; -357.000
429.240;  237.175;  419.000;  426.000
429.365;  -24.225; -454.000; -574.000
429.489;  -64.125; -638.000; -647.000
429.613;    9.100; -236.000; -177.000
429.737;   33.400; -563.000; -432.000
429.861;  262.350; -247.000; -133.000
429.985; 5638.625; -425.000; -305.000
430.109; 6107.675; -770.000; -908.000
430.234;  671.075;   76.000;  -50.000
430.358;   52.850; -250.000; -160.000
430.482;  -61.550; -672.000; -564.000
430.606;  -65.775; -655.000; -375.000
430.730;   13.350; -437.000; -388.000
430.854;  103.925; -909.000; -835.000
430.978;  -87.475; -795.000; -764.000
431.102;  -79.975; -499.000; -422.000
431.226; -131.725; -874.000; -815.000
431.350;   38.850;  345.000;  422.000
431.474;  -82.825; -661.000; -373.000
431.597; -155.975;-1060.000; -848.000
431.721;  -82.625; -276.000; -267.000
431.845; -124.700; -704.000; -472.000
431.969;  -91.425; -304.000; -349.000
432.093; -100.600; -395.000; -317.000
432.217;  -25.400;   32.000;   82.000
432.341;  -89.525; -523.000; -518.000
432.464;   -1.700;   96.000;   40.000
432.588;  168.375; -401.000; -329.000
432.712;   93.500;  -52.000;  -52.000
432.836;   51.175;  213.000;  263.000
432.959;  -28.500; -372.000; -311.000
433.083;   91.125;   11.000;    2.000
433.207;  367.750;  285.000;  930.000
433.330; 5198.850; -391.000; -200.000
433.454; 6308.275; -654.000; -638.000
433.578; 3636.125;  583.000;  278.000
433.701;  638.425; -623.000; -675.000
433.825;  135.375; -292.000; -299.000
433.949;  167.575;   28.000;  -72.000
434.072;   43.675; -410.000; -323.000
434.196;  -20.075; -309.000; -117.000
434.319; 3790.600;25482.000;25124.000
434.443;  739.550; -656.000; -603.000
434.566; 2689.075;  281.000;   62.000
434.690;  440.875; -637.000; -383.000
434.813;   35.875; -251.000; -173.000
434.937;  -83.175; -569.000; -696.000
435.060;  -44.900; -423.000; -332.000
435.184;  259.425; -492.000; -217.000
435.307;  147.375;  159.000;  102.000
435.431;   -6.250;  -40.000;   24.000
435.554;  -75.525; -399.000; -240.000
435.677;  -77.800; -350.000; -258.000
435.801;  -41.075;  -25.000;   49.000
435.924;  -23.950;    1.000;  -67.000
436.048; -114.600;-1019.000; -732.000
436.171;  -78.275; -240.000;  -66.000
436.294;  -22.025; -248.000; -229.000
436.417;   89.150; -963.000; -849.000
436.541;  -80.700; -814.000; -840.000
436.664;  -59.925; -242.000; -316.000
436.787;  -38.050;   13.000;  113.000
436.910; -120.075; -792.000; -422.000
437.034;    8.575;  142.000;  143.000
437.157;   42.400;  -11.000;    0.000
437.280;  -57.000; -392.000; -292.000
437.403;  -91.400; -982.000; -869.000
437.526;  555.775; -903.000; -865.000
437.649; 2080.775; -505.000; -332.000
437.772;  292.225; -692.000; -540.000
437.896;  112.275;  700.000;  544.000
438.019; -109.950; -758.000; -503.000
438.142;  -89.675; -596.000; -506.000
438.265;  -29.350; -639.000; -670.000
438.388;  490.350; -520.000; -410.000
438.511;   78.225; -597.000; -394.000
438.634;  -65.900; -247.000; -125.000
438.757; -134.600; -693.000; -619.000
438.880;  -32.225;  -34.000;  -57.000
439.003;  -90.175; -417.000; -437.000
439.126;  -74.975; -287.000; -167.000
439.248;  -63.675;  -98.000; -139.000
439.371;  -45.025;    9.000;  -53.000
439.494;    8.750;  510.000;  439.000
439.617;  -58.250;   65.000;  -88.000
439.740; -180.150; -968.000; -816.000
439.863; -152.375; -755.000; -595.000
439.986; -123.475; -476.000; -431.000
440.108;  -58.750; -161.000; -112.000
440.231; -162.975; -950.000; -836.000
440.354;  -48.050;  -64.000; -150.000
440.477;   21.525; -566.000; -542.000
440.599;  -10.325; -200.000; -225.000
440.722; -116.175; -709.000; -586.000
440.845;   56.125;  751.000;  928.000
440.968; -121.525; -415.000; -311.000
441.090;  -73.925; -199.000;  -33.000
441.213; -168.050;-1021.000; -825.000
441.336;  -61.675; -159.000;   -5.000
441.458;  -85.150; -549.000; -396.000
441.581;  -98.225; -628.000; -629.000
441.703;  -62.375; -152.000;   13.000
441.826; -116.450; -557.000; -400.000
441.948;  -36.350;   56.000;   51.000
442.071;   17.325;  555.000;  424.000
442.193; -116.475; -531.000; -485.000
442.316;   11.550;  152.000;   97.000
442.438;   38.425; -233.000;  -10.000
442.561;   67.600;  272.000;  262.000
442.683;  512.925; -809.000; -522.000
442.806; 1062.425;   -8.000;   74.000
442.928;   -2.900; -859.000; -604.000
443.051;  -80.000; -577.000; -373.000
443.173;  -98.775; -341.000; -339.000
443.295;  -97.275; -263.000; -371.000
443.418;  -63.075; -321.000;  -29.000
443.540;  -15.725; -106.000;   -4.000
443.662; -117.100; -563.000; -465.000
443.785;   -8.125;  335.000;  199.000
443.907; -101.175; -362.000; -208.000
444.029; -141.125; -767.000; -494.000
444.152; -152.425; -644.000; -554.000
444.274;  -48.000;  -18.000;  -24.000
444.396; -110.300; -461.000; -221.000
444.518; -131.725; -691.000; -454.000
444.640;  -96.225; -268.000; -111.000
444.763;  -18.225;  388.000;  249.000
444.885; -112.175; -432.000; -392.000
445.007;  -49.625;   35.000;   86.000
445.129; -125.850; -610.000; -515.000
445.251; -108.800; -372.000; -439.000
445.373; -140.625; -537.000; -386.000
445.495;  -10.475;  242.000;  350.000
445.617;   56.100;  853.000;  753.000
445.739;  -59.500; -215.000;  -97.000
445.861;  -38.250; -245.000; -112.000
445.984;  -52.350; -267.000; -101.000
446.105;  188.325; -418.000; -251.000
446.227;  578.025; -176.000;  -19.000
446.349;  -19.525; -358.000; -249.000
446.471; -114.175; -615.000; -448.000
446.593;  -74.400; -316.000;   19.000
446.715;  -16.100;  -67.000;   41.000
446.837;   68.650;  697.000;  832.000
446.959;  -97.750; -457.000; -478.000
447.081; -132.875; -628.000; -518.000
447.203;   55.625;  862.000;  834.000
447.325;  -87.925; -270.000;   42.000
447.446;   -5.000;  286.000;  530.000
447.568; -155.450; -921.000; -803.000
447.690;  -84.175; -236.000; -245.000
447.812; -127.875; -798.000; -519.000
447.933;  -36.500;  155.000;  127.000
448.055;  -78.400; -306.000; -261.000
448.177;  126.300;   31.000;   79.000
448.299;   53.200; -935.000; -727.000
448.420;   17.500;  -25.000;  159.000
448.542;  -56.975;   -3.000;   33.000
448.664;  -29.375;  109.000;  322.000
448.785;  -38.275;  265.000;   83.000
448.907;  -81.650; -614.000; -353.000
449.028;  -33.475; -771.000; -471.000
449.150;   48.525;  492.000;  589.000
449.272; -176.775;-1044.000; -913.000
449.393;   27.450;  612.000;  694.000
449.515; -144.025; -634.000; -581.000
449.636;  -59.025; -264.000; -155.000
449.758;   67.675;  763.000;  622.000
449.879;  -97.200; -498.000; -396.000
450.001;  -83.775; -149.000;  -49.000
450.122;  -23.050;  -95.000;  162.000
450.244;  -10.925;   37.000;  364.000
450.365;  -85.475; -495.000; -301.000
450.486;  -17.125;   80.000;  268.000
450.608;   20.125;  393.000;  326.000
450.729;   80.525;  578.000;  645.000
450.850;    2.900; -574.000; -466.000
450.972;  792.450; -552.000; -389.000
451.093; 5032.775;  190.000;  588.000
451.214; 2128.875; -516.000; -337.000
451.336;  384.800;  773.000;  579.000
451.457;   67.125;  264.000;  393.000
451.578;  -39.350; -118.000;  -74.000
451.699; -117.450; -546.000; -540.000
451.821;  -74.275; -284.000;  -50.000
451.942;   -4.325;  278.000;  285.000
452.063;   25.650;  228.000;  419.000
452.184;  564.650;  -54.000;  -49.000
452.305; 1092.375;  103.000;  170.000
452.427;  114.425; -549.000; -301.000
452.548;  -36.150;   23.000;   79.000
452.669;  -44.850; -257.000;  -89.000
452.790;  -45.200;    3.000;  -18.000
452.911;   -6.825;  195.000;  259.000
453.032;  -78.375; -289.000;  -60.000
453.153;  -48.875;  -29.000;   81.000
453.274;   63.175;  737.000;  868.000
453.395;  -40.400;  -51.000;  175.000
453.516;  111.750; 1317.000; 1388.000
453.637;  -71.925; -205.000; -150.000
453.758;  -52.925;   15.000;   69.000
453.879; -136.775; -462.000; -250.000
454.000;   63.275; 1086.000;  948.000
454.121; -104.100; -554.000; -326.000
454.242; -124.900; -599.000; -383.000
454.362;  -47.100;  -99.000;  114.000
454.483;  -41.525; -309.000; -229.000
454.604;   46.525;  512.000;  580.000
454.725; -134.475; -627.000; -555.000
454.846; -116.725; -474.000; -406.000
454.967;  -14.825;  230.000;  539.000
455.087;  -39.425;  179.000;  153.000
455.208;    0.575;  554.000;  856.000
455.329;  -69.375;  -22.000;   82.000
455.450;   35.350;  473.000;  633.000
455.570;  -82.975; -234.000; -211.000
455.691;  -47.950;  201.000;  407.000
455.812; -115.325; -270.000;  -92.000
455.932;  -69.175;  107.000;  -97.000
456.053;  -82.375;   36.000;   24.000
456.173; -114.750; -433.000; -355.000
456.294; -130.650; -476.000; -303.000
456.415;  -68.900;  -73.000;   70.000
456.535;  -59.225;  297.000;  273.000
456.656;  -41.175;  132.000;  240.000
456.776;  -66.875;    3.000;  298.000
456.897;   -6.550;  308.000;  513.000
457.017;  -66.275; -153.000;   -3.000
457.138; -122.950; -402.000; -249.000
457.258;  -41.775;  263.000;  224.000
457.379;  -21.300;  509.000;  521.000
457.499;  -24.100;  443.000;  432.000
457.620; -130.225; -407.000; -231.000
457.740; -106.550; -132.000;  -11.000
457.860;  -53.825;   87.000;   44.000
457.981;  -51.950;  132.000;  124.000
458.101;  -81.400;  -89.000;   40.000
458.221;  -28.800;  336.000;  402.000
458.342;  -61.900;   -4.000;  -37.000
458.462;   21.425;  617.000;  352.000
458.582;  -42.925; -302.000; -294.000
458.703;    5.075;  303.000;  154.000
458.823;  -33.300;   22.000;  163.000
458.943;   23.675;  341.000;  467.000
459.063;  -32.250; 1124.000;  192.000
459.183;  -25.725;  328.000;  313.000
459.304;   -0.650;  315.000;  517.000
459.424;  -68.975; -246.000;  -89.000
459.544;  329.150;  388.000;  764.000
459.664;  856.600;  499.000;  506.000
459.784;  296.800; 1004.000; 1175.000
459.904;   58.225;  867.000;  744.000
460.024;   67.750;  867.000;  684.000
460.144;   19.150;  449.000;  554.000
460.264;   -7.025;  515.000;  327.000
460.385;  -97.850; -145.000; -119.000
460.505;   31.400;  905.000;  858.000
460.625;  -96.125;  -17.000;  -68.000
460.745;  -29.775;  396.000;  541.000
460.864;  -57.275;  153.000;  469.000
460.984;    4.175;  499.000;  573.000
461.104;  135.725; 1656.000; 1775.000
461.224;   17.100;  657.000;  650.000
461.344;  -35.225;  431.000;  360.000
461.464;  -45.650;  258.000;  513.000
461.584;  -15.550;  283.000;  466.000
461.704;  -50.750;   58.000;  108.000
461.824;  -53.025;  238.000;  259.000
461.943;  -50.650;  191.000;  130.000
462.063;  -72.375;    2.000;  324.000
462.183;   20.400;  639.000;  717.000
462.303;  108.750; 1678.000; 1230.000
462.422;   14.450;  781.000;  840.000
462.542;  -36.625;  271.000;  391.000
462.662;   39.975;  353.000;  380.000
462.782;  263.900;  833.000;  572.000
462.901;  482.375;  545.000;  717.000
463.021;  279.300; 1702.000; 1638.000
463.141;  -25.725;  337.000;  770.000
463.260;  -10.250;  614.000;  474.000
463.380;    8.400;  902.000;  884.000
463.499;  -39.425;  342.000;  332.000
463.619;  -49.575;  581.000;  559.000
463.738;  109.600; 1644.000;  903.000
463.858;   16.800;  657.000;  811.000
463.978;  -28.200;  542.000;  396.000
464.097;   44.950;  921.000; 1114.000
464.217;  139.850; 1196.000; 1143.000
464.336;  108.250; 1068.000; 1130.000
464.455;  -24.975;  328.000;  659.000
464.575;   39.875;  597.000;  602.000
464.694;  166.425; 1204.000; 1179.000
464.814;  126.750; 1190.000; 1138.000
464.933;   90.350; 1095.000; 1027.000
465.052;   91.050; 1412.000; 1054.000
465.172;   84.875;  922.000;  799.000
465.291;  125.850; 1376.000; 1320.000
465.410;   11.100;  462.000;  735.000
465.530;   78.475; 1355.000; 1310.000
465.649;   52.825; 1209.000; 1273.000
465.768;  129.400; 1673.000; 1508.000
465.888;   53.875;  941.000; 1174.000
466.007;   82.525; 1335.000; 1440.000
466.126;   -7.000;  721.000;  641.000
466.245;   39.800; 1176.000; 1187.000
466.364;   13.250;  950.000; 1060.000
466.484;   47.050; 1024.000; 1213.000
466.603;   33.725; 1101.000; 1222.000
466.722;  110.575; 1490.000; 1769.000
466.841;   75.500; 1151.000; 1401.000
466.960;   33.625; 1069.000;  972.000
467.079;  126.825; 1971.000; 1786.000
467.198;   48.300; 1238.000; 1181.000
467.317;   77.625; 1768.000; 1162.000
467.436;   66.550; 1709.000; 1261.000
467.555;  116.375; 1796.000; 1746.000
467.674;   54.250; 1227.000; 1329.000
467.793;   43.375; 1376.000; 1374.000
467.912;   80.125; 1658.000; 1539.000
468.031;  137.050; 2038.000; 1930.000
468.150;  134.325; 1842.000; 1837.000
468.269;  193.025; 2313.000; 2090.000
468.388;  188.225; 2168.000; 2339.000
468.507;  250.300; 2884.000; 2903.000
468.626;  240.025; 2555.000; 2541.000
468.744;  132.300; 2018.000; 2174.000
468.863;  194.900; 2312.000; 2523.000
468.982;   91.875; 1503.000; 1555.000
469.101;  223.025; 2788.000; 2692.000
469.220;  155.475; 2333.000; 2176.000
469.338;  249.100; 2935.000; 3051.000
469.457;  195.000; 2719.000; 2545.000
469.576;  345.475; 3953.000; 3784.000
469.695;  238.400; 2877.000; 3066.000
469.813;  433.625; 4148.000; 4192.000
469.932;  428.550; 4255.000; 4485.000
470.051;  441.650; 4075.000; 4161.000
470.169;  861.275; 4470.000; 4338.000
470.288; 1474.900; 4700.000; 4809.000
470.406;  879.275; 5059.000; 5194.000
470.525;  641.475; 6101.000; 5787.000
470.644;  653.250; 6847.000; 6794.000
470.762;  834.325; 8397.000; 7873.000
470.881;  904.600; 8651.000; 8464.000
470.999; 1056.850; 9685.000; 9151.000
471.118; 1101.975;11174.000;10711.000

