
Integration time [ms]: 100.000
Averaging Nr. [scans]: 40
Smoothing Nr. [pixels]: 0
Data measured with spectrometer [name]: 2101012U2
Wave   ;Sample   ;Dark     ;Reference
[nm]   ;[counts] ;[counts] ;[counts] 

197.733;   54.350;  516.000;  404.000
197.879;  -81.925; -610.000; -634.000
198.025;  -41.425; -475.000; -420.000
198.171;  -74.725; -602.000; -612.000
198.317;  -15.400; -401.000; -316.000
198.463;  -62.575; -655.000; -404.000
198.609;   52.525;  181.000; -137.000
198.755;  -64.325; -644.000; -410.000
198.901;  -63.725; -505.000; -424.000
199.047;  -61.550; -615.000; -488.000
199.193;  -35.250; -230.000; -468.000
199.339;  -36.775; -222.000; -369.000
199.485;   44.125;  330.000;  271.000
199.631;   -1.925;  227.000;  310.000
199.777;  -50.150; -466.000; -398.000
199.923;  -57.525; -610.000; -424.000
200.069;   -9.500; -141.000;  -58.000
200.215;   55.950;  128.000;  453.000
200.361;   33.525;  243.000;  477.000
200.507;  -54.975; -600.000; -373.000
200.653;  -24.725; -371.000; -194.000
200.798;  -38.475; -215.000; -125.000
200.944;   -3.450; -146.000;  -41.000
201.090;   50.450;   61.000;  222.000
201.236;   -7.200; -116.000; -158.000
201.382;  124.300;  874.000;  903.000
201.528;   10.625;  -58.000;  -48.000
201.674;  -51.125; -386.000; -293.000
201.819;  -57.500; -540.000; -439.000
201.965;  -74.850; -699.000; -447.000
202.111;  -15.000; -273.000; -226.000
202.257;  -43.600; -250.000; -238.000
202.402;   17.975;   13.000;  -36.000
202.548;  -25.775; -169.000; -116.000
202.694;   81.525;  410.000; -183.000
202.840;  -71.100; -603.000; -531.000
202.985;  -64.725; -681.000; -639.000
203.131; -107.575; -832.000; -666.000
203.277;  -17.475; -199.000; -262.000
203.423;  -63.525; -434.000; -520.000
203.568;  -30.200; -462.000; -237.000
203.714;  -59.200; -535.000; -542.000
203.860;  -74.425; -682.000; -641.000
204.005;   11.025;  112.000;  167.000
204.151;   76.875;  561.000;  556.000
204.296;  -36.050; -354.000; -221.000
204.442;  -72.675; -600.000; -547.000
204.588;  -83.325; -592.000; -579.000
204.733;    9.125;  178.000;  168.000
204.879; -126.300;-1018.000; -822.000
205.025;    8.550;  -99.000;  126.000
205.170;    2.850;  -17.000;   94.000
205.316;   87.775;  438.000;  661.000
205.461;  -76.475; -698.000; -554.000
205.607;   80.975;  609.000;  665.000
205.752;  -76.650; -626.000; -551.000
205.898;  -43.725; -501.000; -391.000
206.043;  -77.400; -578.000; -506.000
206.189;  -44.800; -243.000; -285.000
206.334;   74.525;  554.000;  606.000
206.480;   62.025;  409.000;  239.000
206.625;  -93.175; -529.000; -552.000
206.771;  -44.275; -451.000; -373.000
206.916;  -27.800; -210.000; -537.000
207.062;  -59.450; -545.000; -591.000
207.207;  -55.200; -546.000; -443.000
207.353;   48.325;  185.000;  460.000
207.498;    8.050;  196.000;   85.000
207.643;  -42.750; -501.000; -370.000
207.789; -104.925;-1069.000; -910.000
207.934;  -92.975; -665.000; -713.000
208.080;  -16.650; -154.000;   66.000
208.225;    7.125;  -22.000;  -57.000
208.370;  -72.650; -727.000; -619.000
208.516;  -74.875; -741.000; -487.000
208.661;  -29.050; -127.000;  -69.000
208.806;  -20.475; -165.000; -171.000
208.952; -119.950;-1044.000; -731.000
209.097;   67.100;  378.000;  349.000
209.242;  -42.850; -307.000; -382.000
209.387;   71.450;  392.000;  350.000
209.533;  -58.875; -321.000; -350.000
209.678;   72.125;  472.000;  543.000
209.823;  -47.000; -408.000; -310.000
209.969;  -91.250; -860.000; -757.000
210.114;  -98.550; -907.000; -719.000
210.259; -105.775; -939.000; -889.000
210.404;   -1.150; -171.000;  103.000
210.549;   14.775;  108.000;    3.000
210.695;  -19.475;   -3.000;  -95.000
210.840;   35.900;   94.000;   67.000
210.985;  -51.625; -484.000; -303.000
211.130;   64.625;  268.000;  406.000
211.275;    6.575;  207.000;  199.000
211.420;  -42.350; -300.000; -289.000
211.566;  -79.500; -536.000; -489.000
211.711;   24.175;  218.000;  157.000
211.856;  -65.550; -545.000; -519.000
212.001;    7.275;  151.000;   44.000
212.146;   21.100;  153.000;   49.000
212.291;  -24.500; -210.000; -186.000
212.436;  -28.500; -280.000;   -6.000
212.581;  -78.450; -685.000; -653.000
212.726;  -75.300; -487.000; -538.000
212.871;  -45.275; -552.000; -217.000
213.016; -145.125;-1172.000;-1029.000
213.161;   61.475;  406.000;  291.000
213.306;  -78.350; -435.000; -577.000
213.451;  -91.275; -778.000; -689.000
213.596;  -41.725; -455.000; -347.000
213.741;  -43.575; -448.000; -538.000
213.886;  -79.075; -498.000; -517.000
214.031;  -26.350; -294.000; -124.000
214.176;  -45.325; -408.000; -341.000
214.321;   -8.500; -296.000; -157.000
214.466;  -28.900; -163.000;  -43.000
214.611;    9.975;  -61.000;  -10.000
214.756; -113.250; -948.000; -858.000
214.901;  -21.200; -388.000; -226.000
215.046; -107.425; -797.000; -825.000
215.191;   23.625;  128.000;   35.000
215.336;  -18.450; -157.000;  -19.000
215.480;  -69.200; -684.000; -505.000
215.625;  -25.950; -175.000;  -19.000
215.770;  -85.500; -757.000; -662.000
215.915;    0.275;   -5.000;  -97.000
216.060;   -5.025; -113.000;  -21.000
216.205; -103.850; -731.000; -779.000
216.349;  -72.625; -470.000; -533.000
216.494; -130.000; -939.000; -867.000
216.639; -108.350; -823.000; -888.000
216.784;  -99.675; -577.000; -525.000
216.929;   53.575;  392.000;  281.000
217.073;  -12.325; -244.000;  -31.000
217.218;   13.275;   78.000;  -47.000
217.363;  -95.075; -656.000; -618.000
217.507;  -82.625; -623.000; -588.000
217.652; -119.475; -845.000; -874.000
217.797;  -81.950; -708.000; -659.000
217.942; -111.775; -856.000; -720.000
218.086;   85.000;  608.000;  539.000
218.231;  -10.725; -174.000;  -26.000
218.376;  -25.225; -337.000; -229.000
218.520;   -3.775;  -41.000;   96.000
218.665;  -34.275; -338.000; -204.000
218.810;  -41.700; -275.000; -233.000
218.954;   20.000;  201.000;   35.000
219.099; -111.950; -713.000; -963.000
219.243;  -72.225; -589.000; -554.000
219.388;  -26.375; -264.000; -136.000
219.532;   -2.150; -116.000; -116.000
219.677;  -65.600; -564.000; -521.000
219.822;    9.450;   33.000;   89.000
219.966;   13.275;   17.000;  -99.000
220.111;  -28.875; -328.000;  -40.000
220.255;  -82.400; -797.000; -750.000
220.400;  -14.000; -180.000; -146.000
220.544;  -71.675; -516.000; -450.000
220.689;  -54.700; -422.000; -451.000
220.833;  -20.725; -123.000;  -58.000
220.978;  -49.975; -393.000; -563.000
221.122;   16.725;  319.000;  307.000
221.267; -104.425; -906.000; -837.000
221.411;  -71.650; -478.000; -394.000
221.555;    8.100; -104.000;  -23.000
221.700;  -47.700; -329.000; -222.000
221.844;   42.000;  255.000;  272.000
221.989;  -53.700; -328.000; -311.000
222.133;  -25.525; -289.000; -307.000
222.277;   -7.700;    5.000;   78.000
222.422;   20.775;  227.000;  113.000
222.566;  -43.650; -381.000; -214.000
222.711;  -51.800; -414.000; -479.000
222.855;  -79.550; -643.000; -586.000
222.999;  -79.425; -642.000; -717.000
223.144;  -20.500; -195.000; -194.000
223.288;   60.575;  423.000;  251.000
223.432;   30.725;  184.000;  230.000
223.576;   21.125;  152.000;  -21.000
223.721;   37.425;  364.000;  273.000
223.865;  -60.600; -472.000; -475.000
224.009;  216.400; 1673.000; 1631.000
224.153;  -77.300; -660.000; -671.000
224.298;  -74.200; -531.000; -489.000
224.442;  -18.300;  -74.000;  -33.000
224.586;  -14.450; -169.000; -106.000
224.730;  -93.275; -858.000; -670.000
224.875; -103.550; -739.000; -688.000
225.019;   14.400;  102.000;  188.000
225.163;   45.975;  208.000;  341.000
225.307;   19.425;   97.000;  -91.000
225.451;   31.825;  360.000;  481.000
225.595;   41.675;  264.000;  176.000
225.739;  -12.850; -170.000;  -94.000
225.884;   -1.950;   86.000;    5.000
226.028; -100.450; -760.000; -626.000
226.172;  -27.225; -260.000; -273.000
226.316; -102.925; -941.000; -902.000
226.460;  -55.475; -645.000; -493.000
226.604;  -40.625; -406.000; -400.000
226.748;  -96.775; -836.000; -733.000
226.892;  -32.075; -227.000; -181.000
227.036;  -36.475; -537.000; -447.000
227.180;  -56.400; -551.000; -375.000
227.324;  -68.525; -561.000; -580.000
227.468; -115.475; -819.000; -717.000
227.612;    7.050;  242.000;  -28.000
227.756; -101.525; -845.000; -698.000
227.900;   62.275;  342.000;  441.000
228.044;  -61.625; -509.000; -290.000
228.188;   57.500;  448.000;  568.000
228.332;  -88.725; -546.000; -472.000
228.476;  -17.375; -223.000; -149.000
228.620;  -35.250; -210.000; -150.000
228.764;   84.700;  431.000;  349.000
228.908;  -26.450; -155.000;   30.000
229.052;  -58.825; -615.000; -528.000
229.195;  -16.250; -172.000;   13.000
229.339;  -21.475; -235.000; -305.000
229.483;  -32.300;    5.000; -162.000
229.627;   -9.175; -156.000;  139.000
229.771;  -47.125; -218.000; -294.000
229.915;   26.250;  230.000;   79.000
230.059;  -89.875; -648.000; -663.000
230.202;  -42.700; -370.000; -317.000
230.346;  -30.150; -107.000;  107.000
230.490;  -59.300; -489.000; -521.000
230.634;  -97.675; -736.000; -553.000
230.777;   77.950;  478.000;  509.000
230.921;  -60.475; -450.000; -359.000
231.065;  -31.850; -246.000; -286.000
231.209;   24.400;  261.000;  265.000
231.352;   13.525;   54.000;   40.000
231.496;   16.675;  568.000;  188.000
231.640;  -85.600; -693.000; -621.000
231.783;   57.825;  546.000;  525.000
231.927;  -29.925; -294.000; -365.000
232.071; -103.350; -962.000; -736.000
232.214; -109.375; -980.000; -764.000
232.358;  -96.125; -683.000; -599.000
232.502;   20.675;  -19.000;    7.000
232.645; -137.300;-1090.000; -927.000
232.789;  -24.025; -257.000; -218.000
232.933;  -46.375; -407.000; -224.000
233.076; -118.400;-1038.000; -897.000
233.220; -112.225; -752.000; -777.000
233.363;  -63.225; -669.000; -477.000
233.507;   54.075;  371.000;  129.000
233.650;  -96.325; -764.000; -834.000
233.794;   37.000;  438.000;  461.000
233.938;  -62.050; -530.000; -362.000
234.081;  -13.900;  -93.000;   31.000
234.225;  -75.225; -631.000; -539.000
234.368; -108.825; -773.000; -723.000
234.512;  -40.600; -385.000; -299.000
234.655;  -78.200; -582.000; -555.000
234.798;  -56.100; -493.000; -466.000
234.942; -120.325; -884.000;-1002.000
235.085;  -71.650; -651.000; -443.000
235.229;  -64.775; -405.000; -410.000
235.372;  -45.050; -247.000; -191.000
235.516;  -51.825; -397.000; -321.000
235.659;    9.875;   92.000;  121.000
235.802;   -7.700;  -38.000;  -22.000
235.946;   41.450;  335.000;  215.000
236.089;   31.275;  126.000;  250.000
236.233;   53.100;  275.000;  298.000
236.376;  -63.275; -235.000; -378.000
236.519;  -36.050; -297.000; -319.000
236.663;  -14.150; -215.000; -117.000
236.806; -134.750;-1029.000; -999.000
236.949;   42.600;  543.000;  431.000
237.092;   56.825;  412.000;  391.000
237.236;  -88.350; -589.000; -502.000
237.379;   56.925;  352.000;  428.000
237.522; -127.200; -879.000; -768.000
237.666;  -14.850; -271.000;   18.000
237.809; -117.650; -851.000; -823.000
237.952;   38.675;  469.000;  271.000
238.095;  -69.100; -447.000; -442.000
238.238;   84.500;  688.000;  700.000
238.382;  -12.350;  166.000;  103.000
238.525;  -84.275; -598.000; -511.000
238.668; -141.900;-1060.000; -985.000
238.811;  -82.500; -638.000; -643.000
238.954;  -56.675; -483.000; -334.000
239.097;   82.475;  617.000;  664.000
239.241;   16.625;  394.000;  326.000
239.384;  -20.100; -254.000; -214.000
239.527;  -62.000; -424.000; -224.000
239.670; -131.075; -994.000;-1091.000
239.813; -100.825; -696.000; -658.000
239.956;   78.175;  579.000;  473.000
240.099; -103.775; -778.000; -725.000
240.242;   55.825;  428.000;  432.000
240.385;   22.275;  466.000;  450.000
240.528;  -50.275; -706.000; -473.000
240.671;   11.900;  189.000;  134.000
240.814;  -47.350; -441.000; -158.000
240.957;  -87.150; -767.000; -578.000
241.100;  -87.425; -779.000; -755.000
241.243; -140.775;-1234.000; -893.000
241.386;  -70.050; -508.000; -379.000
241.529;  -90.100; -735.000; -547.000
241.672;  -52.925; -566.000; -495.000
241.815; -122.375; -832.000; -808.000
241.958;  -34.900; -125.000; -182.000
242.101;  -83.925; -545.000; -390.000
242.244;  -39.225; -270.000; -325.000
242.387;  -32.450; -304.000; -246.000
242.530;   58.375;  470.000;  134.000
242.673;  -38.600; -381.000; -309.000
242.815; -105.350; -925.000; -899.000
242.958;  -63.650; -482.000; -381.000
243.101;   13.525;  132.000;  187.000
243.244;  -78.225; -564.000; -521.000
243.387;  -44.650; -313.000; -316.000
243.530;  -85.925; -657.000; -674.000
243.672;    9.600;   43.000;  -92.000
243.815;  -64.950; -355.000; -283.000
243.958;   -4.925;   98.000;  -26.000
244.101;    8.200;   59.000;  -16.000
244.243;   -6.175;  -47.000;  101.000
244.386; -110.750; -761.000; -630.000
244.529;  -22.050; -132.000; -139.000
244.672; -152.900;-1154.000; -951.000
244.814; -104.800; -621.000; -794.000
244.957;  -33.700; -380.000; -304.000
245.100;  -78.200; -489.000; -489.000
245.242;  -56.875; -387.000; -374.000
245.385;    1.350;  -59.000;  -39.000
245.528; -118.675; -871.000; -705.000
245.670;   83.400;  612.000;  634.000
245.813;  -90.150; -599.000; -547.000
245.956;  -24.050; -324.000; -275.000
246.098;  -74.900; -508.000; -650.000
246.241;   17.775;  194.000;   48.000
246.383;  -12.150; -119.000;  -73.000
246.526;  -70.400; -454.000; -525.000
246.669; -114.225; -889.000; -780.000
246.811;   28.675;  172.000;   -1.000
246.954;  -46.175; -512.000; -426.000
247.096;   -6.900;  -84.000;   -6.000
247.239;  -60.425; -482.000; -445.000
247.381;  -60.475; -647.000; -488.000
247.524;  100.200;  645.000;  679.000
247.666;    1.000;   58.000;   11.000
247.809; -111.200; -887.000; -691.000
247.951;  -23.250;  -75.000;  138.000
248.094;   34.525;  432.000;  308.000
248.236; -154.700;-1262.000;-1238.000
248.378;   16.750; -356.000;  -81.000
248.521;  -10.450; -334.000; -337.000
248.663;  -34.900; -236.000; -267.000
248.806;  -21.275; -300.000; -266.000
248.948;  -95.425; -886.000; -763.000
249.090;  -31.775; -428.000; -398.000
249.233;  -50.025; -344.000; -381.000
249.375;  -72.875; -474.000; -451.000
249.518;  -16.275;  -83.000; -133.000
249.660;    2.850; -103.000;    3.000
249.802; -169.625;-1303.000;-1189.000
249.945;  -75.975; -612.000; -540.000
250.087; -112.350; -834.000; -768.000
250.229;  -42.975; -362.000; -480.000
250.371;  -73.775; -494.000; -439.000
250.514;  -44.250; -310.000; -244.000
250.656;   -2.225;   69.000;  102.000
250.798; -106.875; -849.000; -800.000
250.940;  -62.400; -322.000; -322.000
251.083;  -18.450; -335.000; -111.000
251.225;   49.750;  338.000;  310.000
251.367;  -42.850; -274.000; -373.000
251.509;  -38.025; -265.000; -210.000
251.651;  -82.525; -731.000; -671.000
251.794;   45.525;  538.000;  632.000
251.936; -106.925; -821.000; -747.000
252.078;  -79.100; -540.000; -461.000
252.220;  -53.525; -645.000; -477.000
252.362;   87.325;  344.000;  462.000
252.504;  -57.450; -677.000; -584.000
252.646; -114.525; -875.000; -722.000
252.788;    0.275;   14.000; -128.000
252.931;  -27.075; -257.000; -253.000
253.073;  -36.250; -376.000; -317.000
253.215;   -5.725;  141.000;  122.000
253.357;  -12.000;   82.000; -153.000
253.499;  -52.375; -374.000; -234.000
253.641;  -74.900; -749.000; -594.000
253.783;  -90.975; -609.000; -527.000
253.925;  -81.200; -586.000; -591.000
254.067; -114.125; -744.000; -667.000
254.209;  -28.725; -391.000; -259.000
254.351; -125.250; -865.000; -883.000
254.493;  -51.000; -441.000; -417.000
254.635; -140.550; -936.000; -818.000
254.777;  -86.225; -752.000; -687.000
254.918;  -68.000; -512.000; -430.000
255.060;  -56.950; -551.000; -395.000
255.202;  -62.700; -473.000; -261.000
255.344;  -82.900; -658.000; -455.000
255.486;  -67.325; -471.000; -406.000
255.628; -108.300; -780.000; -781.000
255.770;  -83.175; -676.000; -536.000
255.912;  -60.550; -559.000; -468.000
256.053;  -96.300; -730.000; -508.000
256.195;  142.075; 1008.000;  903.000
256.337; -100.525; -861.000; -595.000
256.479;   48.475;  532.000;  416.000
256.621;  -46.500; -394.000; -212.000
256.762;  -86.275; -789.000; -742.000
256.904;   38.900;  485.000;  487.000
257.046;  -42.675; -381.000; -271.000
257.188;  -55.050; -351.000; -264.000
257.329;  -84.500; -525.000; -464.000
257.471;  -99.475; -939.000; -807.000
257.613;  -55.575; -584.000; -498.000
257.755; -142.200;-1073.000; -982.000
257.896;   39.875;  286.000;  392.000
258.038;  -75.275; -403.000; -352.000
258.180;  -33.850; -354.000; -279.000
258.321;  -89.700; -581.000; -457.000
258.463;   -6.200;  -71.000;  133.000
258.605; -103.500; -562.000; -570.000
258.746;  -94.300; -886.000; -772.000
258.888; -154.950;-1026.000;-1020.000
259.029;   17.325;  121.000;   -8.000
259.171;  -79.475; -614.000; -550.000
259.313;   -3.550;  -49.000;  -47.000
259.454;  -62.950; -536.000; -414.000
259.596;  -52.425; -483.000; -390.000
259.737;  -66.950; -590.000; -474.000
259.879;   43.650;  217.000;  311.000
260.020;   88.450;  901.000;  636.000
260.162;  -26.175; -146.000; -253.000
260.303; -108.150; -768.000; -687.000
260.445;  -73.950; -609.000; -613.000
260.586;   25.575;  392.000;  157.000
260.728;  -41.325; -360.000; -248.000
260.869; -122.275; -350.000; -343.000
261.011;   62.400;  706.000;  537.000
261.152;  -68.775; -479.000; -319.000
261.293;  -78.700; -576.000; -595.000
261.435;  -32.350; -219.000; -184.000
261.576;  -51.875; -455.000; -325.000
261.718;   64.125;  420.000;  470.000
261.859; -117.750; -940.000; -949.000
262.000; -126.425; -951.000;-1016.000
262.142;  -25.025;  -52.000;  -60.000
262.283; -111.150; -808.000; -691.000
262.424;  -86.850; -666.000; -625.000
262.566; -142.700;-1161.000; -983.000
262.707; -103.300; -840.000; -830.000
262.848; -127.075; -769.000; -726.000
262.990;  -41.750; -362.000; -345.000
263.131;   79.750;  650.000;  681.000
263.272;   -2.175;  -61.000;  -41.000
263.413;  -84.675; -589.000; -561.000
263.555;  -65.650; -669.000; -143.000
263.696;  -94.475; -550.000; -641.000
263.837;  -55.325; -449.000; -551.000
263.978;   -5.250;   -5.000;  -77.000
264.119;  -35.125; -283.000; -264.000
264.261; -120.625; -847.000; -630.000
264.402;    8.125;   33.000;   40.000
264.543;  -79.375; -509.000; -524.000
264.684;  -10.500;   61.000;  -50.000
264.825;  -71.850; -816.000; -538.000
264.966;  -16.850;  -84.000;  -67.000
265.107; -124.625; -646.000; -670.000
265.248; -116.250; -825.000; -812.000
265.390;   -6.075;  152.000;   -9.000
265.531;  -11.575; -238.000; -107.000
265.672;  -83.000; -557.000; -630.000
265.813;   57.850;  563.000;  439.000
265.954; -143.550; -959.000; -940.000
266.095;  -19.950; -372.000; -322.000
266.236;  -92.725; -686.000; -548.000
266.377;  -38.850; -243.000; -297.000
266.518;  -67.450; -619.000; -547.000
266.659;   19.850;  170.000;  268.000
266.800;   17.075;   83.000;   85.000
266.941;  -82.950; -487.000; -478.000
267.082;   13.675;  354.000;   99.000
267.223;  -51.550; -344.000; -273.000
267.364; -113.225; -892.000; -686.000
267.504;  -16.625;    3.000;  135.000
267.645;  -16.775;  160.000;   67.000
267.786;  -30.475; -147.000;  -86.000
267.927;  -54.900; -473.000; -379.000
268.068;  -15.625; -186.000;  -61.000
268.209;  -46.650; -175.000; -413.000
268.350;  -64.600; -388.000; -532.000
268.490;  -75.850; -648.000; -521.000
268.631;   41.850;  127.000;  225.000
268.772; -107.875; -874.000; -647.000
268.913;  -55.325; -328.000; -476.000
269.054;   -2.700; -117.000;   12.000
269.194;  -43.200; -418.000; -402.000
269.335; -150.550;-1137.000;-1074.000
269.476;  -14.300;   33.000;  -35.000
269.617;  -45.375; -347.000; -392.000
269.757;  -66.275; -713.000; -646.000
269.898; -110.350; -856.000; -613.000
270.039;  -51.250; -415.000; -405.000
270.180; -118.750; -952.000; -816.000
270.320;   -4.575; -190.000; -250.000
270.461;  -45.200; -277.000; -249.000
270.602;  -10.450; -186.000; -156.000
270.742; -111.600; -868.000; -943.000
270.883;  -42.750; -442.000; -390.000
271.023;  -56.050; -358.000; -357.000
271.164;  -58.500; -607.000; -528.000
271.305;  -89.650; -666.000; -654.000
271.445;  -71.450; -722.000; -683.000
271.586;  -57.000; -462.000; -283.000
271.726;  -48.300; -397.000; -322.000
271.867;  -52.150; -594.000; -534.000
272.008;  212.375; -473.000; -285.000
272.148;  147.725;  462.000;  468.000
272.289;   11.375; -113.000; -181.000
272.429;   25.350;   19.000;  185.000
272.570;  -84.400; -633.000; -737.000
272.710;  -91.800; -825.000; -775.000
272.851;  -12.975;  113.000; -130.000
272.991; -146.875;-1173.000;-1077.000
273.131;  -57.525; -419.000; -459.000
273.272;  -96.050; -683.000; -723.000
273.412;    9.675; -143.000;  -31.000
273.553;  -44.725; -488.000; -507.000
273.693;  153.050;  913.000;  858.000
273.834;  -63.650; -894.000; -692.000
273.974;  -67.450; -664.000; -615.000
274.114;  -81.625; -772.000; -560.000
274.255;   99.550;  414.000;  373.000
274.395;   28.975; -180.000; -125.000
274.535;   47.250;  199.000;  350.000
274.676;   37.475;  225.000;   94.000
274.816;    6.600;  110.000;   34.000
274.956;  -76.475; -624.000; -690.000
275.097;  -38.775;-1014.000; -922.000
275.237;  -96.250; -913.000; -803.000
275.377;  -96.375; -778.000; -689.000
275.517; -136.700; -878.000; -937.000
275.658;  -46.825; -590.000; -555.000
275.798;  -60.900; -606.000; -413.000
275.938;   29.625;  215.000;  323.000
276.078;  -93.200; -626.000; -395.000
276.218;    4.225;   99.000;  104.000
276.359; -127.100;-1026.000;-1024.000
276.499;  -64.900; -605.000; -446.000
276.639;  -42.275; -305.000; -151.000
276.779;  -45.150; -475.000; -357.000
276.919;  -99.000; -783.000; -624.000
277.059;  -12.325; -261.000; -212.000
277.199;  -32.200; -357.000; -259.000
277.340;   42.950;  287.000;  175.000
277.480; -105.900; -840.000; -693.000
277.620;   36.025;  192.000;   16.000
277.760; -186.450;-1533.000;-1294.000
277.900;   35.475;  113.000;   33.000
278.040;   18.800;  137.000;  159.000
278.180;   40.250;  270.000;  170.000
278.320;    7.825;   21.000;   56.000
278.460;  -50.500; -443.000; -469.000
278.600;  -97.500; -708.000; -598.000
278.740;   57.825;  448.000;  224.000
278.880;  -21.950; -768.000; -791.000
279.020;   14.325; -194.000; -144.000
279.160;  -86.100; -672.000; -595.000
279.300; -103.025; -926.000; -873.000
279.440;  -85.950; -709.000; -622.000
279.579;    3.600;-1014.000; -929.000
279.719;  -47.975; -410.000; -394.000
279.859;   73.100;   -4.000;   41.000
279.999;   29.175; -208.000;  101.000
280.139;    3.600; -435.000; -387.000
280.279;  -50.775; -708.000; -745.000
280.419;  -13.100; -229.000; -147.000
280.559;  -28.850; -259.000; -180.000
280.698;  -80.125; -790.000; -639.000
280.838;  -77.425; -778.000; -800.000
280.978;  -96.625; -846.000; -790.000
281.118; -110.750; -811.000; -704.000
281.257;    3.200;   24.000;    6.000
281.397;  -93.075;-1094.000; -960.000
281.537;  -77.000; -599.000; -712.000
281.677;  -28.375; -150.000; -101.000
281.816;  -88.950; -700.000; -630.000
281.956;  -29.025; -193.000; -257.000
282.096;  -64.875; -539.000; -396.000
282.235;  -99.700; -672.000; -638.000
282.375;  -12.675; -243.000;  -98.000
282.515;  -99.550; -715.000; -707.000
282.654;   25.600;   29.000;  106.000
282.794;   28.825;  388.000;  244.000
282.934;  -48.200; -530.000; -491.000
283.073; -123.950;-1030.000; -857.000
283.213;  -39.425; -460.000; -467.000
283.353;  -18.250; -408.000; -349.000
283.492;  -23.225; -264.000; -296.000
283.632;  -44.375; -254.000; -168.000
283.771;  -91.400; -859.000; -730.000
283.911;  -53.850; -369.000; -260.000
284.050; -106.225; -794.000; -748.000
284.190; -159.100;-1229.000;-1096.000
284.329; -131.425;-1055.000; -964.000
284.469;  -49.175; -516.000; -591.000
284.608;  -39.350; -559.000; -598.000
284.748;  -76.750; -614.000; -570.000
284.887;    8.275;  -87.000;  -20.000
285.027; -104.450; -844.000; -892.000
285.166;  -10.350; -192.000; -249.000
285.306;   30.775; -116.000;  -33.000
285.445;  -28.900; -229.000; -343.000
285.584;  -92.000; -630.000; -494.000
285.724;  -44.650; -282.000; -322.000
285.863; -125.825; -857.000; -507.000
286.002;  -48.700; -366.000; -276.000
286.142; -106.825; -715.000; -622.000
286.281;  -61.150; -525.000; -493.000
286.420;  -67.225; -554.000; -417.000
286.560;   99.825;  653.000;  623.000
286.699; -128.675; -958.000; -912.000
286.838;  -80.350; -590.000; -591.000
286.978;  -81.800; -533.000; -537.000
287.117; -140.800;-1085.000; -950.000
287.256;  -38.275; -228.000; -211.000
287.395;  -39.025; -197.000; -378.000
287.535;  -50.125; -370.000; -298.000
287.674;  -63.150; -509.000; -484.000
287.813;   55.500;  661.000;  533.000
287.952; -114.000;-1010.000; -871.000
288.091; -139.675;-1049.000; -915.000
288.231;   16.700;   13.000;   15.000
288.370; -157.775;-1217.000;-1200.000
288.509;  -88.400; -728.000; -645.000
288.648;  -88.325; -770.000; -548.000
288.787;  -24.425; -243.000;  -87.000
288.926;  -46.850; -454.000; -475.000
289.065;  120.600;  859.000;  672.000
289.204;  -45.450; -377.000; -217.000
289.344;  -83.325; -791.000; -690.000
289.483;   34.150;  416.000;  304.000
289.622;   -8.050; -291.000; -149.000
289.761;  -16.650; -309.000; -166.000
289.900;  -89.075; -785.000; -626.000
290.039;  -24.050;  -12.000;  -95.000
290.178;  -27.375; -274.000; -180.000
290.317;  -76.400; -618.000; -479.000
290.456;  -41.375; -463.000; -451.000
290.595; -129.950; -961.000; -833.000
290.734; -127.275; -904.000; -891.000
290.873;  -61.650; -456.000; -420.000
291.011;  -90.675; -833.000; -843.000
291.150;  -92.850; -770.000; -682.000
291.289;  -12.100; -343.000; -110.000
291.428;  -77.800; -599.000; -480.000
291.567;  -39.325; -370.000; -442.000
291.706;   -0.700;  109.000;  154.000
291.845;  -84.950; -597.000; -505.000
291.984; -163.925;-1234.000;-1061.000
292.122;   86.425;  602.000;  582.000
292.261;   32.850;  620.000;  463.000
292.400;   15.475; -144.000;  211.000
292.539; -122.925; -959.000; -813.000
292.678;  -27.850; -325.000; -300.000
292.816; -146.900;-1136.000; -965.000
292.955;  -74.475; -844.000; -684.000
293.094;  -28.375; -173.000; -337.000
293.233;  -50.125; -556.000; -400.000
293.371;  -24.500; -225.000;  -84.000
293.510; -112.375; -866.000; -780.000
293.649; -109.700; -959.000; -924.000
293.787;  -27.525;-1083.000;-1012.000
293.926;   14.650; -113.000;  -32.000
294.065;  -35.975; -379.000; -290.000
294.203;   52.850;  298.000;  406.000
294.342;   27.050;   74.000;  156.000
294.481; 5379.850;51180.000; -836.000
294.619;  -28.175; -425.000; -582.000
294.758; -121.025;-1230.000;-1137.000
294.896;   98.600; -125.000;    5.000
295.035; -104.875;-1040.000;-1006.000
295.174; -100.175;-1082.000; -954.000
295.312;  -25.375; -323.000; -203.000
295.451;    7.250; -307.000; -428.000
295.589;  -54.325; -389.000; -518.000
295.728;   26.900; -292.000; -165.000
295.866;   14.800;  -36.000;  -51.000
296.005;  -51.050; -584.000; -341.000
296.143;  -55.400; -558.000; -596.000
296.282;  -89.175; -957.000; -881.000
296.420;  -69.700; -657.000; -557.000
296.559;  -70.850; -892.000; -633.000
296.697;   81.850; -847.000; -665.000
296.835;  137.575;-1141.000;-1002.000
296.974;   56.450;  -23.000;   39.000
297.112;   48.875; -443.000; -504.000
297.251;  -67.200; -815.000; -755.000
297.389;  151.250; -576.000; -438.000
297.527;   64.850; -145.000;  -83.000
297.666;  -40.975; -486.000; -438.000
297.804;  -46.050; -404.000; -264.000
297.942;    2.900; -136.000; -161.000
298.081;    6.175; -183.000;   63.000
298.219;  101.800;  -17.000;  -19.000
298.357;   81.350; -144.000;  -71.000
298.495;   82.025; -810.000; -812.000
298.634;  119.975;  245.000;  219.000
298.772;  104.175; -220.000; -338.000
298.910;  -15.275; -309.000; -182.000
299.048;   -4.475; -130.000; -153.000
299.187;  -11.525; -350.000; -250.000
299.325;   22.325;   52.000;  122.000
299.463;  111.475; -389.000; -299.000
299.601;  177.000; -327.000; -271.000
299.739;  -78.350; -908.000; -883.000
299.877;  -65.975; -791.000; -703.000
300.016;   -3.325;-1095.000; -935.000
300.154;  212.325;  -19.000; -161.000
300.292;   91.050; -428.000; -348.000
300.430;   49.850; -408.000; -291.000
300.568;  -98.300; -940.000; -874.000
300.706;  -51.975; -366.000; -469.000
300.844;  -50.625;-1108.000; -979.000
300.982;  138.750;  246.000;  282.000
301.120;  -89.625; -965.000; -866.000
301.258;  -45.700; -812.000; -705.000
301.396;   52.275;  104.000;  -41.000
301.534;  140.900; -218.000; -293.000
301.672;   33.400; -664.000; -521.000
301.810;   89.125; -613.000; -545.000
301.948;  156.025;   53.000;  149.000
302.086;  796.650; -250.000;  -32.000
302.224; 1229.025; -610.000; -585.000
302.362;   77.200; -558.000; -622.000
302.500;   16.425; -923.000; -893.000
302.638;  131.625;  128.000;  245.000
302.776;   17.450; -352.000; -408.000
302.913;   37.550;  447.000;  236.000
303.051;   20.450;  -86.000;  -23.000
303.189;   68.375;   90.000;  118.000
303.327;  -25.750; -341.000; -256.000
303.465;  -69.025; -832.000; -588.000
303.603;  -77.000; -805.000; -604.000
303.740;  107.875;  417.000;  241.000
303.878;   59.400; -800.000; -759.000
304.016;  -68.200; -915.000; -790.000
304.154; -117.075;-1123.000;-1152.000
304.291;  -18.925; -505.000; -554.000
304.429;    3.150;  102.000;   74.000
304.567; -116.525; -908.000; -893.000
304.705;  -42.975; -408.000; -515.000
304.842;  145.550; -616.000; -540.000
304.980;   60.200;  215.000;   35.000
305.118;   74.400; -367.000; -365.000
305.255;  -44.375; -945.000; -927.000
305.393;   69.275;  178.000;  239.000
305.531;  -76.350;-1173.000; -956.000
305.668;  -62.600; -663.000; -582.000
305.806;  152.725; -358.000; -439.000
305.943;  166.125; -629.000; -637.000
306.081;   84.250; -378.000; -267.000
306.219;  -98.125; -863.000; -748.000
306.356;   -2.075;  158.000;   27.000
306.494;  108.575;  981.000;  761.000
306.631;    3.400;  -11.000;  -55.000
306.769;   32.125; -613.000; -485.000
306.906;   -3.800; -284.000; -258.000
307.044;  -52.150; -473.000; -488.000
307.181;  -61.475; -410.000; -332.000
307.319;   19.425;  112.000;   87.000
307.456; -167.275;-1191.000;-1153.000
307.594;  -84.200; -980.000; -727.000
307.731;    9.425; -371.000; -164.000
307.868;   13.050;  -15.000;   20.000
308.006; -125.850; -961.000; -847.000
308.143;  -48.575; -618.000; -330.000
308.281;  224.200;  -37.000; -254.000
308.418;   19.025; -748.000; -640.000
308.555;  -59.475; -400.000; -250.000
308.693;  -63.725; -577.000; -573.000
308.830;  -93.825; -712.000; -657.000
308.967;  -13.025; -215.000;  -95.000
309.105;  -45.375; -507.000; -396.000
309.242;   71.600; -468.000; -367.000
309.379;  445.825; -577.000; -655.000
309.517;  -43.825; -936.000; -948.000
309.654;  -99.700; -910.000; -734.000
309.791;  -73.000; -662.000; -580.000
309.928; -111.750; -977.000; -914.000
310.065;  203.350;  819.000;  697.000
310.203;   51.075; -825.000; -850.000
310.340;   29.725; -465.000; -321.000
310.477;  -71.400; -412.000; -516.000
310.614;  -57.625; -383.000; -473.000
310.751;  -70.775; -427.000; -518.000
310.889;  -18.675;    1.000;   11.000
311.026; -137.325;-1161.000; -939.000
311.163;  -46.700; -386.000; -380.000
311.300;  -64.925; -512.000; -479.000
311.437;  -68.475; -658.000; -619.000
311.574; -149.575;-1226.000; -985.000
311.711;  -48.875; -595.000; -433.000
311.848;  -27.225; -380.000; -388.000
311.985;   14.700;  270.000;   93.000
312.122; -102.125; -932.000; -762.000
312.259; -117.725; -941.000; -994.000
312.396;  -76.925; -508.000; -551.000
312.533;  -75.950; -812.000; -790.000
312.670; -116.475;-1070.000; -898.000
312.807;  -22.425; -352.000; -367.000
312.944;  -66.650; -513.000; -611.000
313.081;  -26.300; -150.000; -415.000
313.218;  -92.900;-1111.000; -867.000
313.355;   20.925; -531.000; -449.000
313.492;   27.775; -455.000; -292.000
313.629;  151.750;  815.000;  735.000
313.766; -141.425;-1176.000;-1008.000
313.902;  -10.575; -186.000;   21.000
314.039;  -47.825; -372.000; -289.000
314.176;   37.675;  286.000;  192.000
314.313;  -67.825; -569.000; -473.000
314.450;  -53.700; -788.000; -684.000
314.587;  -61.850; -468.000; -480.000
314.723;   -0.600;  -78.000;  130.000
314.860;   36.175;  318.000;  332.000
314.997;   45.325;  223.000;  142.000
315.134;  -35.575; -385.000; -368.000
315.270;  -13.850; -480.000; -496.000
315.407; -112.050;-1094.000; -967.000
315.544;  -39.375; -657.000; -538.000
315.681;  -49.575; -681.000; -565.000
315.817;   48.850; -133.000; -176.000
315.954;   29.325; -613.000; -392.000
316.091; -112.525;-1045.000;-1023.000
316.227;  -24.150;  -71.000; -179.000
316.364;    6.625;   23.000;    6.000
316.500;  -44.650; -113.000; -300.000
316.637;  -24.050; -181.000; -302.000
316.774;  -85.325; -625.000; -358.000
316.910;  -80.400; -598.000; -629.000
317.047;  -51.500; -487.000; -351.000
317.183;  -30.300; -435.000; -566.000
317.320;  -19.025; -367.000; -321.000
317.456;  -73.975; -733.000; -805.000
317.593;  -85.900; -598.000; -641.000
317.729;   -3.125;  168.000;  -67.000
317.866; -182.800;-1434.000;-1285.000
318.002;  -83.025; -708.000; -948.000
318.139;  -76.650; -883.000; -867.000
318.275;  -98.775;-1003.000; -738.000
318.412;  -63.150; -517.000; -336.000
318.548;    5.150; -751.000; -720.000
318.685;  -87.750; -985.000; -888.000
318.821;  -75.350; -762.000; -735.000
318.957;   -0.425;   34.000;  -23.000
319.094;   45.950;  297.000;  154.000
319.230;  -30.325; -756.000; -742.000
319.367;  196.050; -471.000; -520.000
319.503;  104.950; -538.000; -436.000
319.639;  -78.500; -877.000; -793.000
319.775;  -44.175; -750.000; -685.000
319.912;  -45.600; -424.000; -519.000
320.048;  -74.125;-1184.000;-1184.000
320.184;   79.175;   59.000;   70.000
320.321;  -56.800; -497.000; -467.000
320.457;   62.425;  475.000;  662.000
320.593;  -55.675; -375.000; -382.000
320.729; -105.950; -732.000; -734.000
320.866;  -74.150; -577.000; -635.000
321.002;  -57.275; -759.000; -809.000
321.138;   -8.400; -135.000; -211.000
321.274;   96.175; -148.000; -115.000
321.410;   -5.400; -585.000; -353.000
321.546;   15.550;-1011.000; -911.000
321.683;   68.450;  400.000;  185.000
321.819;   24.300;  -48.000; -117.000
321.955;  -96.750; -743.000; -722.000
322.091;  -27.400; -585.000; -540.000
322.227;   -3.500; -382.000; -202.000
322.363;    0.775; -320.000; -215.000
322.499;  -27.275; -343.000; -331.000
322.635;  194.025;  636.000;  443.000
322.771;   42.500; -139.000;   12.000
322.907;  102.750;  129.000;  327.000
323.043;  -16.100; -115.000; -206.000
323.179;  -18.200; -394.000; -363.000
323.315;   68.525; -401.000; -371.000
323.451;  144.300; -328.000; -236.000
323.587;   85.975;  -60.000;  -77.000
323.723;   60.400; -682.000; -601.000
323.859;   -1.500; -258.000;  -76.000
323.995;  -15.200; -467.000; -409.000
324.131; -120.275; -967.000; -892.000
324.267;  -46.875; -254.000; -276.000
324.402; -126.050; -960.000; -983.000
324.538;  -12.150; -279.000; -104.000
324.674;   30.100;  164.000;   77.000
324.810;  180.950;  226.000;  308.000
324.946;   30.225; -810.000; -658.000
325.082;  -70.150; -568.000; -475.000
325.217;    0.225;  -62.000;   16.000
325.353;  -95.675; -764.000; -659.000
325.489;  -80.800; -540.000; -506.000
325.625;  -66.125; -579.000; -525.000
325.760;   56.150;  517.000;  376.000
325.896;  -40.175; -515.000; -702.000
326.032;  -43.350; -403.000; -352.000
326.168;  -54.850; -462.000; -369.000
326.303;  -59.600; -352.000; -461.000
326.439;  -16.550; -336.000; -276.000
326.575;   20.800; -190.000;  -29.000
326.710;    6.475; -156.000;  -30.000
326.846;  -13.025;  146.000;  103.000
326.982;  -86.475; -530.000; -548.000
327.117;  -65.850; -481.000; -442.000
327.253;  -89.825; -745.000; -742.000
327.388; -122.975;-1137.000;-1153.000
327.524;  -24.525; -811.000; -578.000
327.659;  -15.850;  -58.000;  -22.000
327.795;   -9.500;   69.000;   45.000
327.931;  -75.350; -723.000; -499.000
328.066;   -7.250; -417.000; -276.000
328.202;    4.350;   12.000; -129.000
328.337;   92.300;  957.000;  713.000
328.473;   40.475;  -12.000;  -74.000
328.608;  -18.950; -256.000; -267.000
328.743;  -75.200; -799.000; -664.000
328.879;   40.025;  214.000;  114.000
329.014;  -28.450; -102.000; -122.000
329.150;  -69.350; -358.000; -483.000
329.285;  -66.650; -465.000; -466.000
329.421;  -46.950; -548.000; -246.000
329.556;  -17.625;  -36.000;   85.000
329.691;  -90.425; -633.000; -615.000
329.827;  -80.050; -626.000; -480.000
329.962;  -35.625;  131.000; -301.000
330.097;  -88.150; -673.000; -585.000
330.233;  -45.700; -410.000; -223.000
330.368; -118.825; -839.000; -628.000
330.503;  -13.425;    3.000;   98.000
330.638;   22.350;  -93.000; -125.000
330.774;  -36.425; -609.000; -530.000
330.909;  -36.650; -434.000; -244.000
331.044;  -93.050; -714.000; -708.000
331.179; -159.375;-1217.000;-1109.000
331.315;   24.050;   77.000;   20.000
331.450;    2.150;  157.000;  285.000
331.585;  -68.450; -805.000; -706.000
331.720;  -80.125; -510.000; -460.000
331.855;    6.750;  -35.000; -102.000
331.990;  221.225;   62.000;  138.000
332.126;  121.800; -110.000;   71.000
332.261;  -26.850; -379.000; -265.000
332.396;   -2.200; -135.000; -242.000
332.531;  -84.250;-1074.000;-1031.000
332.666;   25.675; -519.000; -363.000
332.801; -108.875; -726.000; -807.000
332.936;  -18.600; -192.000; -122.000
333.071; -139.500; -870.000; -817.000
333.206;   21.550;  307.000;  379.000
333.341;   40.825;  344.000;  418.000
333.476;  -72.675; -627.000; -623.000
333.611;  -33.125; -251.000; -173.000
333.746;  -37.650; -381.000; -464.000
333.881; -101.900; -973.000; -935.000
334.016; -129.500; -936.000; -917.000
334.151; -116.925; -746.000; -702.000
334.286;   43.550;  152.000;  186.000
334.421;   -8.875; -125.000; -178.000
334.556;  -55.825; -611.000; -567.000
334.690;  -76.800; -631.000; -577.000
334.825;   68.500;  381.000;   83.000
334.960;  -49.800; -285.000; -413.000
335.095;   34.025;  135.000;  -91.000
335.230;  -86.925; -722.000; -738.000
335.365; -115.375;-1084.000; -990.000
335.499; -104.925;-1108.000;-1037.000
335.634;   35.625;    9.000;  534.000
335.769;  -87.700; -755.000; -720.000
335.904;  -37.450; -603.000; -561.000
336.038;  -40.250; -735.000; -657.000
336.173;  -93.775;-1206.000;-1194.000
336.308;   26.950; -116.000; -189.000
336.443;   24.875; -544.000; -634.000
336.577;  -59.600; -936.000; -787.000
336.712;   97.625;   -4.000;  -12.000
336.847;  -15.250; -724.000; -607.000
336.981;  110.775; -272.000; -208.000
337.116;  355.300;  615.000;  501.000
337.250;  214.700; -434.000; -421.000
337.385;  220.650; -297.000; -208.000
337.520;   57.600; -632.000; -603.000
337.654;  -19.675; -215.000; -126.000
337.789; -114.675; -989.000; -933.000
337.923;  -29.750; -104.000; -205.000
338.058;  -69.975; -673.000; -738.000
338.192;  -13.000; -611.000; -488.000
338.327;    8.775;  -18.000; -155.000
338.461;  -60.525; -299.000; -469.000
338.596;  -80.900; -780.000; -638.000
338.730;  -95.650; -767.000; -803.000
338.865;   87.725;  -46.000; -140.000
338.999;  -57.000; -846.000; -702.000
339.134;  -14.375; -634.000; -536.000
339.268;   22.325; -741.000; -603.000
339.403;  346.375; -740.000; -775.000
339.537;   89.150; -894.000; -820.000
339.671; -101.075; -829.000; -813.000
339.806;  -58.100; -556.000; -512.000
339.940;   14.175; -261.000; -235.000
340.074;  -81.050; -685.000; -510.000
340.209;  -32.900; -351.000; -230.000
340.343;  -84.400; -517.000; -573.000
340.477;  153.900;  998.000; 1036.000
340.612;  -57.800;-1033.000; -900.000
340.746;  117.325; -199.000; -243.000
340.880;  -44.225; -924.000; -785.000
341.014;   -5.650;  -45.000; -154.000
341.149; -102.400; -756.000; -718.000
341.283;  -95.925; -839.000; -754.000
341.417;  -68.275;-1124.000; -938.000
341.551;  235.350; -768.000; -708.000
341.685;  -11.950; -633.000; -611.000
341.820;  -40.950; -562.000; -493.000
341.954;  -25.825; -218.000; -349.000
342.088; -146.625;-1102.000;-1019.000
342.222;   58.925;  565.000;  618.000
342.356;  -40.675; -395.000; -335.000
342.490;  -77.850; -880.000; -841.000
342.624;  -26.850; -339.000; -242.000
342.758;   26.200; -364.000; -312.000
342.892;  -44.125; -710.000; -585.000
343.026;  -36.600;  -58.000; -116.000
343.160;  -62.600; -426.000; -376.000
343.294;  -72.250; -474.000; -337.000
343.428;    5.950; -488.000; -448.000
343.562;   -0.625; -172.000;  -23.000
343.696;  -17.775; -385.000; -314.000
343.830;    3.500; -362.000; -356.000
343.964;   48.900; -231.000; -168.000
344.098; 1204.600;  199.000;   70.000
344.232; 1008.650; -266.000; -127.000
344.366;  120.700; -567.000; -453.000
344.500;  112.300; -665.000; -744.000
344.634;   69.700; -324.000; -164.000
344.768;   13.075; -531.000; -341.000
344.902;   30.250;  278.000;  256.000
345.035;  -68.425; -556.000; -496.000
345.169; -127.100; -933.000; -656.000
345.303;  -17.350; -308.000; -482.000
345.437;  -52.750; -826.000; -717.000
345.571;  -72.625; -675.000; -594.000
345.704;  -42.200; -309.000; -532.000
345.838;    3.275; -331.000; -284.000
345.972;  -11.225; -543.000; -495.000
346.106;  152.950; -179.000; -190.000
346.239;  451.350; -312.000; -243.000
346.373;   33.450; -343.000; -302.000
346.507; -134.000; -950.000; -962.000
346.640;  207.425;  -30.000;   13.000
346.774;   -6.375; -650.000; -797.000
346.908;   -8.775; -138.000;  -11.000
347.041;  -86.500; -646.000; -593.000
347.175;    6.050;  259.000;   27.000
347.309;  -61.675; -698.000; -628.000
347.442;  -81.550; -883.000; -732.000
347.576;  348.575;  670.000;  668.000
347.709;  285.825; -123.000;  -52.000
347.843;  -82.525; -933.000; -825.000
347.976;   38.425;  235.000;  294.000
348.110; -165.650;-1268.000;-1186.000
348.243;  -94.300; -679.000; -772.000
348.377;    7.150;  -26.000;   60.000
348.510;   60.425;  403.000;  540.000
348.644;  -29.325;  -37.000; -159.000
348.777;   15.525;  180.000;  191.000
348.911;  -35.175; -142.000; -112.000
349.044;  214.050;  471.000;  448.000
349.178;  248.350;-1069.000;-1006.000
349.311;  132.075;  141.000;  255.000
349.444;  -10.025; -927.000; -813.000
349.578;  -16.425; -347.000; -200.000
349.711;  -79.100; -959.000; -862.000
349.845;   36.375; -661.000; -591.000
349.978; -121.600;-1224.000;-1137.000
350.111;  -77.625; -546.000; -612.000
350.244;  -66.975; -596.000; -700.000
350.378;   33.250; -392.000; -393.000
350.511;  -57.750; -393.000; -426.000
350.644; -107.350; -808.000; -806.000
350.778;   22.850;  168.000;  104.000
350.911;   14.350;  134.000;  140.000
351.044;  -77.200; -685.000; -615.000
351.177;  -13.475; -321.000; -281.000
351.310;  -23.350;    3.000; -131.000
351.444;  -50.875; -888.000; -788.000
351.577;  152.850;  140.000;   90.000
351.710;  100.725;  593.000;  417.000
351.843;  -30.525; -165.000;  -77.000
351.976;   -6.325;  149.000;  -79.000
352.109;  -78.050; -621.000; -612.000
352.242;   -1.650; -464.000; -419.000
352.376;  -30.500; -580.000; -636.000
352.509;  271.175; -437.000; -356.000
352.642;   76.800; -654.000; -604.000
352.775;  100.150; -141.000;  -98.000
352.908;  -88.550; -933.000; -904.000
353.041;  -90.375; -814.000; -824.000
353.174;  -43.925; -551.000; -424.000
353.307;  -70.800; -753.000; -764.000
353.440;   71.350;  541.000;  453.000
353.573; -100.775; -957.000;-1008.000
353.706;  -30.425; -384.000; -558.000
353.839;    2.250; -264.000; -220.000
353.971;  -88.425; -657.000; -512.000
354.104;  -63.175; -896.000; -835.000
354.237;  -20.825; -627.000; -662.000
354.370;  -74.825; -846.000; -879.000
354.503; -161.050;-1231.000;-1308.000
354.636;  -14.525; -529.000; -348.000
354.769; -113.575; -937.000; -860.000
354.902;    1.925; -230.000; -139.000
355.034;  -23.850; -164.000; -220.000
355.167;   -6.425; -262.000; -162.000
355.300;  -93.500;-1061.000; -880.000
355.433;  888.275;  -71.000;  -14.000
355.565; 1377.625; -402.000; -384.000
355.698;  354.500; -356.000; -296.000
355.831;   22.400; -882.000; -801.000
355.964;  142.175; -285.000; -170.000
356.096;  -50.450; -856.000; -843.000
356.229;   29.500; -523.000; -530.000
356.362;  312.600; -373.000; -266.000
356.494;  556.850; -229.000; -162.000
356.627;  583.750;  269.000;  377.000
356.760;  663.250;  120.000;   53.000
356.892;  861.025; -286.000; -601.000
357.025;  839.000;  403.000;  389.000
357.157;  799.400; -167.000; -179.000
357.290;  600.650; -856.000; -713.000
357.423;  197.400; -667.000; -556.000
357.555;  150.200; -217.000; -228.000
357.688;  179.025; -483.000; -364.000
357.820;  589.275; -870.000; -877.000
357.953; 4449.850; -563.000; -589.000
358.085; 1058.400; -632.000; -612.000
358.218; 1716.850;-1131.000; -932.000
358.350;  320.275;  -58.000;  312.000
358.483; -100.125;-1300.000;-1187.000
358.615;   60.800;-1182.000;-1078.000
358.747;   -0.300;-1187.000;-1058.000
358.880;   60.800; -810.000; -744.000
359.012;   12.875; -376.000; -202.000
359.145;  -26.650; -480.000; -511.000
359.277;  112.150; -962.000; -913.000
359.409; 3703.350;  536.000;  231.000
359.542; 1047.875; -738.000; -688.000
359.674;   91.150;   46.000;   13.000
359.806;  -44.050; -565.000; -438.000
359.939;  -43.150; -617.000; -516.000
360.071;  -24.825; -583.000; -579.000
360.203;   -4.875; -411.000; -364.000
360.335;   57.475;  164.000;  -16.000
360.468;  250.300; -249.000; -307.000
360.600; 2878.000; -547.000; -454.000
360.732; 2583.425; -546.000; -423.000
360.864;  396.375;-1216.000;-1044.000
360.996;  425.375; -516.000; -554.000
361.129;   96.200; -389.000; -598.000
361.261;   20.775;  110.000; -113.000
361.393;  -33.850; -252.000; -214.000
361.525;   28.650;   94.000;  244.000
361.657;  -21.700; -821.000; -703.000
361.789;   39.025; -139.000; -155.000
361.921;  347.800; -642.000; -593.000
362.053;  352.600;  524.000;  541.000
362.185;   70.225;  288.000;   72.000
362.318;  -58.375; -709.000; -705.000
362.450;  172.600;  294.000;  444.000
362.582;  263.550; -913.000; -870.000
362.714;   -1.975; -353.000; -332.000
362.846;  -78.225; -606.000; -490.000
362.978; -135.750; -941.000; -811.000
363.109;   90.225; -161.000; -260.000
363.241;  596.700; -739.000; -749.000
363.373;  428.875; -649.000; -564.000
363.505;  557.750; -186.000;  -91.000
363.637;  148.550; -787.000; -601.000
363.769;  -96.450;-1067.000;-1080.000
363.901;  -46.625; -596.000; -654.000
364.033;  -71.750;-1103.000;-1062.000
364.165;   26.550; -283.000; -283.000
364.296;   82.550; -316.000; -177.000
364.428;   63.950;-1344.000;-1220.000
364.560;  -65.100; -679.000; -661.000
364.692;  -52.025; -738.000; -835.000
364.824;  413.675; -588.000; -456.000
364.955;  496.350; -402.000; -564.000
365.087;  764.125;-1097.000; -852.000
365.219;   30.025; -686.000; -816.000
365.351;  -72.475; -526.000; -572.000
365.482;   68.275;  300.000;  240.000
365.614;  -46.575; -402.000; -314.000
365.746;  -88.175; -729.000; -752.000
365.877;  -99.575; -706.000; -672.000
366.009;  231.150;  -35.000;  -62.000
366.141;  -87.700;-1249.000;-1134.000
366.272;  -94.225; -803.000; -719.000
366.404; -106.650;-1005.000; -874.000
366.535;    4.200; -139.000;  -12.000
366.667;  -92.050; -644.000; -649.000
366.799;   42.275;  353.000;  203.000
366.930;  -90.175; -862.000; -996.000
367.062;  131.550; -639.000; -613.000
367.193;  124.800; -872.000; -842.000
367.325;  -63.700; -580.000; -684.000
367.456;  114.175; -246.000;   31.000
367.588;  166.775; -371.000; -318.000
367.719;   15.000;  -44.000;  -45.000
367.851;   13.700; -222.000; -241.000
367.982;   -0.275; -875.000; -732.000
368.113;  156.700; -475.000; -358.000
368.245;  -98.350; -960.000; -841.000
368.376;   -4.500; -254.000; -302.000
368.508;  -15.575; -188.000; -263.000
368.639; -104.950;-1166.000;-1034.000
368.770;   21.425; -670.000; -589.000
368.902;  -21.625; -836.000; -926.000
369.033;  -89.350; -906.000; -855.000
369.164;  -43.800; -720.000; -653.000
369.296; -106.325; -452.000; -601.000
369.427;   22.800; -209.000; -144.000
369.558;  -28.600; -593.000; -377.000
369.689;  -81.225; -721.000; -569.000
369.821; -124.900; -951.000; -845.000
369.952;  -11.850;   42.000; -108.000
370.083;  -42.950; -229.000; -108.000
370.214;  -69.675; -735.000; -650.000
370.345;    4.500;   65.000;   81.000
370.477;  -75.775; -810.000; -790.000
370.608;  348.325; -328.000; -264.000
370.739;    0.425;-1233.000;-1292.000
370.870;   -0.425;-1102.000; -923.000
371.001;  147.700; -378.000; -467.000
371.132;  -51.625; -754.000; -735.000
371.263;  -15.425;  -42.000; -148.000
371.394; -117.500; -841.000; -748.000
371.525;   40.300;  345.000;  225.000
371.657;  -61.750; -808.000; -670.000
371.788;   87.600;  103.000;  199.000
371.919;  255.225; -384.000; -304.000
372.050; 4628.225;  -91.000; -156.000
372.181; 1443.875; -188.000; -294.000
372.311;  522.400;   42.000; -127.000
372.442;   79.025; -457.000; -451.000
372.573;   -8.150; -444.000; -340.000
372.704; -106.775;-1008.000; -980.000
372.835;  136.400; -228.000; -289.000
372.966;  -57.300; -646.000; -554.000
373.097;  -37.925; -575.000; -711.000
373.228;   -7.975; -717.000; -542.000
373.359;  234.975; -824.000; -536.000
373.490; 1272.975; -881.000; -727.000
373.620; 1647.675;-1001.000; -803.000
373.751; 2384.875; -332.000; -396.000
373.882; 1124.525; -663.000; -733.000
374.013;  122.225; -449.000; -262.000
374.143;  -10.700; -581.000; -659.000
374.274;  -77.125; -987.000; -908.000
374.405;  231.575; -388.000; -276.000
374.536;  617.200; -526.000; -387.000
374.666; 1548.700; -759.000; -807.000
374.797;  363.000; -817.000; -868.000
374.928; 1213.325; -710.000; -560.000
375.058; 1254.800; -535.000; -500.000
375.189;  119.075;  -59.000;  -93.000
375.320;  -77.075; -928.000;-1034.000
375.450;  -13.475; -625.000; -616.000
375.581;  -38.100; -526.000; -436.000
375.712;   -7.525; -574.000; -250.000
375.842;  442.325; -438.000; -415.000
375.973;  337.200; -554.000; -513.000
376.103;   -6.850; -665.000; -648.000
376.234;  -67.875; -531.000; -552.000
376.364;    1.025; -944.000; -867.000
376.495;  390.150;  925.000;  529.000
376.625;   29.025; -472.000; -485.000
376.756;  139.700; -709.000; -678.000
376.886;  -48.525;-1178.000;-1026.000
377.017;   37.425;-1048.000;-1061.000
377.147;  298.175; -786.000; -782.000
377.278;   65.700;  174.000;  228.000
377.408; -128.325; -801.000; -815.000
377.538;  -88.375; -707.000; -693.000
377.669;  -75.850; -537.000; -613.000
377.799;  -71.225; -645.000; -635.000
377.929;  -15.625; -610.000; -428.000
378.060; -125.275; -781.000; -847.000
378.190;  -69.875; -726.000; -531.000
378.320;  -34.475; -401.000; -406.000
378.451;    5.850; -131.000;  -22.000
378.581;   12.150;  -67.000; -110.000
378.711;  185.575; 1035.000;  866.000
378.841;   18.400; -533.000; -675.000
378.972;  -47.350; -871.000; -751.000
379.102;   26.150; -652.000; -579.000
379.232;   -8.600; -126.000;  -73.000
379.362;  -80.150;-1001.000; -885.000
379.492;   63.775; -373.000; -424.000
379.623;  151.775;    0.000;  111.000
379.753;  -81.150;-1107.000; -974.000
379.883;  268.150;   59.000;  156.000
380.013;   56.800;-1081.000;-1017.000
380.143;  -56.275;-1097.000;-1056.000
380.273;  -77.575; -985.000; -861.000
380.403;    2.100; -344.000; -257.000
380.533;    7.975; -651.000; -664.000
380.663;  110.750;  173.000;  128.000
380.793;  -60.475;-1027.000;-1074.000
380.923;  -12.575; -103.000;  -34.000
381.053;  -86.375; -613.000; -623.000
381.183;  -33.400; -106.000; -248.000
381.313;   67.500; -656.000; -470.000
381.443;   96.525; -692.000; -473.000
381.573;  316.775; -402.000; -409.000
381.703;  486.750;-1249.000;-1095.000
381.833;  -88.325;-1454.000;-1336.000
381.963;  144.875; -134.000;  -87.000
382.093; 1781.825; -925.000; -909.000
382.223;  612.500; -713.000; -602.000
382.353;   38.200; -801.000; -608.000
382.482;  558.475;-1091.000; -964.000
382.612; 1026.725; -872.000; -644.000
382.742;  617.925; -695.000; -622.000
382.872;  413.350; -565.000; -551.000
383.002;  103.425;  347.000; -132.000
383.131;    9.250; -226.000; -160.000
383.261;  -19.100; -706.000; -768.000
383.391;  310.675; -552.000; -377.000
383.521; 2830.325;  451.000;  263.000
383.650;  653.750; -947.000; -904.000
383.780;   -9.350; -783.000; -656.000
383.910;  117.200;  880.000;  802.000
384.039;   64.475; -794.000; -656.000
384.169;  361.200;-1205.000;-1017.000
384.299;   20.400; -650.000; -662.000
384.428;  -74.950; -764.000; -680.000
384.558;  -23.050; -308.000; -275.000
384.687;  -25.625; -414.000; -334.000
384.817;   48.300;   75.000;   -2.000
384.947;   49.500; -234.000; -141.000
385.076;  352.125;  982.000;  912.000
385.206;  137.250;  369.000;  480.000
385.335;  -12.850; -549.000; -417.000
385.465;  -41.300; -655.000; -663.000
385.594;  187.475;  -53.000;  -44.000
385.724;  634.900; -868.000; -838.000
385.853;  199.400; -296.000; -270.000
385.982; 1811.400; -743.000; -787.000
386.112; 2916.200;-1052.000; -871.000
386.241;  227.775; -307.000; -312.000
386.371;   67.025; -174.000;  -87.000
386.500;   38.075; -825.000; -789.000
386.629;   47.175; -874.000; -817.000
386.759;   75.100;  -43.000;   68.000
386.888;   25.925; -170.000; -250.000
387.017;  -45.975; -648.000; -620.000
387.147;  -65.650; -771.000; -798.000
387.276;   32.150; -410.000; -397.000
387.405;   61.700; -398.000; -342.000
387.535;  -25.900; -452.000; -361.000
387.664;  -42.150; -692.000; -620.000
387.793;  103.275; -198.000; -113.000
387.922;  694.750;  255.000;  200.000
388.052;   75.475; -576.000; -423.000
388.181;   66.150; -342.000; -472.000
388.310;   90.700; -889.000; -710.000
388.439;    3.275; -749.000; -742.000
388.568;  252.325;  365.000;  244.000
388.697; 1461.500; -756.000; -653.000
388.826;  330.300; -768.000; -666.000
388.956;  107.650; -285.000; -307.000
389.085;   -9.200; -347.000; -287.000
389.214; -108.325; -842.000; -872.000
389.343;  -54.800; -645.000; -413.000
389.472;  371.000;  126.000;  149.000
389.601;  543.750;   91.000;    0.000
389.730;   51.850; -568.000; -687.000
389.859;   87.375;  226.000;   46.000
389.988;  280.850; -423.000; -408.000
390.117;  199.900; -168.000; -146.000
390.246;   19.075; -331.000; -320.000
390.375;  196.525; -673.000; -626.000
390.504;  -34.100; -703.000; -621.000
390.633;  -79.900; -672.000; -726.000
390.761;  -34.150; -732.000; -645.000
390.890;   53.700;   -4.000; -130.000
391.019;   10.825; -421.000; -441.000
391.148;  -97.475; -826.000; -855.000
391.277;  -45.750; -576.000; -493.000
391.406;  -39.650; -821.000; -805.000
391.534;   17.550;  574.000; -301.000
391.663;  -41.250; -583.000; -645.000
391.792;  -62.425; -673.000; -701.000
391.921;  158.775;   -3.000;   15.000
392.050;  297.575; -287.000; -228.000
392.178;   25.375;-1206.000;-1061.000
392.307;  244.100; -758.000; -712.000
392.436;  148.050; -427.000; -641.000
392.564;   40.450;  166.000;   -6.000
392.693;  -74.900; -860.000; -682.000
392.822;  307.400; -529.000; -534.000
392.950;  173.525; -880.000; -714.000
393.079;  443.450; -188.000; -328.000
393.208;   72.900; -488.000; -511.000
393.336;    4.550; -170.000; -145.000
393.465;  -44.650; -317.000; -199.000
393.593;    9.525;   62.000;   79.000
393.722; -131.725;-1121.000; -916.000
393.850;  -29.625; -188.000;  -61.000
393.979; -151.050; -926.000; -805.000
394.107;  -60.200; -517.000; -537.000
394.236;  -10.400; -570.000; -507.000
394.364;  256.725;  383.000;  206.000
394.493;  511.575; -911.000; -767.000
394.621;   15.825; -955.000; -916.000
394.750;  641.450; -873.000; -923.000
394.878; 2675.575; -247.000; -149.000
395.007; 3757.575; -721.000; -807.000
395.135;  314.725; -790.000; -721.000
395.263;  -85.600;-1038.000;-1040.000
395.392;    5.125;  -25.000; -107.000
395.520; -126.025; -818.000; -679.000
395.648;  -60.850; -865.000; -915.000
395.777;    8.100; -366.000; -405.000
395.905;  -33.750; -449.000; -564.000
396.033;   27.075;  217.000;  172.000
396.162;  773.675; -399.000; -453.000
396.290;  731.025;  -17.000;   -2.000
396.418;  190.675; -555.000; -514.000
396.546;  -39.000; -571.000; -466.000
396.674;  -75.225; -850.000; -878.000
396.803;   25.350;  -72.000;  -23.000
396.931;  145.025; -179.000; -199.000
397.059;  147.250;-1026.000; -989.000
397.187;  -91.125;-1026.000; -975.000
397.315; -119.250; -884.000; -649.000
397.443;  -96.125; -592.000; -443.000
397.572;  -84.000; -578.000; -424.000
397.700;   36.300; -607.000; -614.000
397.828;   34.875;  120.000;  -90.000
397.956;  -47.575; -508.000; -478.000
398.084;  -62.000; -767.000; -626.000
398.212;   57.950;  137.000;  124.000
398.340;   28.975;  -56.000;  159.000
398.468;   82.050; -390.000; -169.000
398.596; -111.800; -993.000; -953.000
398.724; -104.225; -762.000; -767.000
398.852; -156.200;-1024.000; -976.000
398.980;  -40.925; -560.000; -560.000
399.108;  -34.500; -982.000; -735.000
399.236;   73.900;   13.000;    8.000
399.363;   17.250;  222.000;  196.000
399.491;  -53.050; -404.000; -398.000
399.619; -109.300; -829.000; -800.000
399.747;  -92.925; -859.000; -771.000
399.875;  104.400;  220.000;  234.000
400.003;  -42.575; -359.000; -284.000
400.130;  -95.200; -421.000; -341.000
400.258;  -33.875;  -83.000;   38.000
400.386;  -66.050; -352.000; -168.000
400.514;  -22.550; -526.000; -587.000
400.641;  -53.375; -928.000; -802.000
400.769; -129.475; -979.000; -888.000
400.897;  -90.225; -838.000; -793.000
401.025;   -0.275; -166.000; -152.000
401.152;   -6.975;  220.000;   38.000
401.280;  -83.700; -430.000; -429.000
401.408; -105.525; -712.000; -576.000
401.535;  -96.950; -735.000; -758.000
401.663; -180.125;-1134.000;-1054.000
401.790;  -78.575; -514.000; -525.000
401.918;   45.150;  436.000;  405.000
402.046;  -16.850;  134.000;  122.000
402.173;  -41.750;  -18.000;    7.000
402.301;  -61.750; -519.000; -397.000
402.428;   43.125;  528.000;  383.000
402.556; -143.575;-1188.000; -913.000
402.683;  -20.625;  -20.000;   -1.000
402.811;  -13.225;  -37.000; -206.000
402.938;   -1.100;   20.000;   27.000
403.066;  252.325; -574.000; -558.000
403.193;  456.450;  299.000;  239.000
403.321;  373.250; -396.000; -574.000
403.448;  451.225;   83.000;   27.000
403.575;  201.525;  -90.000;  -46.000
403.703;  -84.350; -732.000; -557.000
403.830;  -65.350; -531.000; -496.000
403.957; -127.225;-1117.000;-1023.000
404.085;   12.025;  -61.000; -172.000
404.212;  114.775;  -50.000;   63.000
404.339;  244.925; -566.000; -306.000
404.467; 5188.950; -612.000; -524.000
404.594; 3966.200; -287.000; -227.000
404.721; 1097.025; -869.000; -764.000
404.848;  101.425; -113.000; -202.000
404.976;  -97.200; -856.000; -783.000
405.103;  -14.650;  -14.000;  -82.000
405.230;    2.200;  190.000;  226.000
405.357;   26.375;  117.000;   44.000
405.484;  234.700;  -49.000;    5.000
405.612;   69.050; -548.000; -563.000
405.739;  -58.100; -488.000; -243.000
405.866;   83.750;  669.000;  385.000
405.993;  -38.150; -398.000; -102.000
406.120; -116.900; -801.000; -887.000
406.247;  -42.475; -323.000; -342.000
406.374;  576.075;  540.000;  629.000
406.501;  225.925; -632.000; -702.000
406.628;  -62.025; -621.000; -589.000
406.755;  -78.675; -803.000; -620.000
406.882;  -28.125; -228.000; -277.000
407.009; -103.950; -719.000; -628.000
407.136;   92.100; -480.000; -401.000
407.263;  261.600; -939.000; -829.000
407.390;  -45.325; -692.000; -614.000
407.517; -159.025;-1139.000;-1187.000
407.644;  -46.975; -332.000; -256.000
407.771;  -59.525; -249.000; -287.000
407.898;    9.775;  168.000;  328.000
408.025;  -58.450; -421.000; -313.000
408.151;    6.525;   82.000;  153.000
408.278;  -71.875; -267.000; -216.000
408.405; -102.900; -931.000; -899.000
408.532;  -62.650; -549.000; -542.000
408.659; -110.050; -677.000; -648.000
408.785; -178.725;-1298.000;-1170.000
408.912;  -62.000; -412.000; -296.000
409.039; -103.150; -610.000; -686.000
409.166; -102.125; -591.000; -555.000
409.292; -111.350; -571.000; -534.000
409.419; -108.400; -665.000; -649.000
409.546;  -87.275; -431.000; -192.000
409.672; -110.200; -713.000; -545.000
409.799;  -24.400;  -36.000;   34.000
409.926;  -33.275; -180.000; -179.000
410.052; -162.850;-1127.000;-1091.000
410.179;  -55.625; -368.000; -392.000
410.305;  -68.650; -375.000; -493.000
410.432;  -45.525; -220.000; -333.000
410.558;  -79.875; -305.000; -380.000
410.685; -104.800; -688.000; -431.000
410.812;  -87.350; -409.000; -588.000
410.938; -134.450; -964.000; -808.000
411.065;  -96.575; -671.000; -645.000
411.191;  -21.050; -189.000; -174.000
411.317; -106.850; -823.000; -742.000
411.444;  -50.825; -317.000; -246.000
411.570;  -71.050; -339.000; -294.000
411.697; -128.050; -758.000; -752.000
411.823; -170.725; -989.000; -999.000
411.949;  -20.850;  -56.000;   17.000
412.076; -107.775; -539.000; -519.000
412.202; -104.400; -758.000; -757.000
412.329; -127.825; -798.000; -752.000
412.455; -109.550; -821.000; -657.000
412.581;   -6.125;  -15.000;  172.000
412.707;  -47.550; -540.000; -457.000
412.834;   16.175;  156.000;  219.000
412.960;  -69.925; -785.000; -784.000
413.086;  -99.300; -743.000; -701.000
413.212;  187.175;  604.000;  578.000
413.339;  -38.575; -685.000; -701.000
413.465;   45.400; -364.000; -310.000
413.591;  -78.450; -757.000; -474.000
413.717;  -44.725; -358.000; -366.000
413.843; -127.250; -839.000; -861.000
413.969;  -60.100;  -47.000; -292.000
414.096;  -95.575; -679.000; -679.000
414.222;    3.700;  -33.000;   85.000
414.348;    3.075; -652.000; -385.000
414.474;  166.750;   38.000;  -52.000
414.600;   -7.275; -126.000; -144.000
414.726;  -17.350;  -96.000;  -55.000
414.852;  -64.800; -365.000; -342.000
414.978;   34.125;  104.000;  -18.000
415.104;   30.750;   38.000;   80.000
415.230;   10.575; -329.000; -330.000
415.356;   53.450; -409.000; -514.000
415.482;  214.275;   13.000;  -35.000
415.608;  258.100; -247.000; -323.000
415.734;  896.300;   67.000;   38.000
415.860;18670.075; -875.000; -767.000
415.986;14546.750; -685.000; -607.000
416.111; 1255.125; -798.000; -652.000
416.237;  264.100; -424.000; -571.000
416.363;  981.800; -765.000; -733.000
416.489; 3868.600; -324.000; -251.000
416.615;  438.125; -707.000; -742.000
416.741;  -17.850; -677.000; -784.000
416.866;  -78.525; -673.000; -736.000
416.992; -127.200; -801.000; -818.000
417.118;  -21.500;  -41.000;  -80.000
417.244;  -48.175; -798.000; -531.000
417.369;  -80.700; -801.000; -612.000
417.495;    3.775; -325.000; -254.000
417.621;  -68.625;-1015.000; -803.000
417.746;   15.400; -579.000; -572.000
417.872;   41.675; -254.000; -144.000
417.998;   44.125; -515.000; -530.000
418.123;  918.450;-1073.000; -845.000
418.249; 5043.775; -512.000; -601.000
418.374;  746.900; -916.000; -824.000
418.500;  121.700; -383.000; -482.000
418.626;  105.925;   70.000;  -59.000
418.751;  126.650; -549.000; -448.000
418.877;  204.900; -637.000; -643.000
419.002; 1584.825; -688.000; -560.000
419.128;11540.075; -930.000; -721.000
419.253; 3032.725; -967.000; -837.000
419.379;  406.400; -391.000; -338.000
419.504;  364.150;  325.000;  415.000
419.629;  474.500; -393.000; -212.000
419.755; 2998.625; -317.000; -254.000
419.880;18704.975;  -98.000;   67.000
420.006;10440.050; -280.000; -221.000
420.131;27943.125; -662.000; -775.000
420.256; 4365.975; -315.000; -316.000
420.382;  570.625; -665.000; -687.000
420.507;   69.550; -649.000; -778.000
420.632;  184.875; -337.000; -339.000
420.758;  388.000; -251.000; -425.000
420.883;  -51.375; -876.000; -672.000
421.008;  -86.750; -775.000; -619.000
421.133;  -73.300; -509.000; -467.000
421.259;  -41.550; -325.000; -259.000
421.384;  -97.825; -834.000; -693.000
421.509;  -11.100;-1052.000; -862.000
421.634; 1656.525; -936.000; -820.000
421.759;  790.250; -359.000; -327.000
421.885;  -28.300; -717.000; -656.000
422.010;  -69.725; -673.000; -542.000
422.135; -142.600; -695.000; -727.000
422.260;   46.725;  340.000;  280.000
422.385;  -40.450;   12.000;  -98.000
422.510;   14.675;  151.000;  -26.000
422.635;   32.000;  -87.000;  -43.000
422.760;  129.400; -766.000; -791.000
422.885;   74.375;  -57.000;  -80.000
423.010;  -22.300; -112.000; -169.000
423.135;  -80.400; -481.000; -561.000
423.260;   -2.575; -150.000; -245.000
423.385;   88.075;  476.000;  222.000
423.510;   50.025;   71.000;  -22.000
423.635;  112.650;  133.000;   45.000
423.760;   80.175;  383.000;  328.000
423.885;   47.025;  336.000;  391.000
424.010;   32.375;  -68.000;  -13.000
424.135;  -11.500;    5.000;  -33.000
424.259;  -89.300; -654.000; -457.000
424.384;  -53.950; -279.000; -272.000
424.509;   -0.025; -260.000; -186.000
424.634;  -87.775; -761.000; -623.000
424.759;  -14.650; -688.000; -544.000
424.883;   -2.925; -506.000; -527.000
425.008;  161.575; -502.000; -410.000
425.133; 1850.700; -679.000; -653.000
425.258;  947.025; -517.000; -381.000
425.382; 1220.600; -867.000; -774.000
425.507; 3356.000; -487.000; -543.000
425.632;  550.525; -802.000; -663.000
425.756;  433.100; -256.000; -146.000
425.881; 5347.725; -831.000; -857.000
426.006;15402.700; -604.000; -355.000
426.130; 2701.450; -696.000; -508.000
426.255;  346.525; -611.000; -491.000
426.379;  151.500; -189.000; -577.000
426.504;  364.450;  660.000;  544.000
426.629; 3803.875; -519.000; -466.000
426.753; 2816.825;   64.000;  -46.000
426.878;  331.050; -252.000; -288.000
427.002;  163.975; -651.000; -668.000
427.127; 1453.500;  -35.000; -158.000
427.251;10454.425;  372.000;  401.000
427.375; 3305.500; -191.000; -173.000
427.500; 2780.800; -616.000; -610.000
427.624; 1041.575; -234.000; -400.000
427.749;  143.150; -216.000; -225.000
427.873;  -21.825; -499.000; -412.000
427.997;  -41.850; -222.000; -230.000
428.122;   85.600;  795.000;  703.000
428.246;   84.000;  433.000;  434.000
428.371; -112.025; -869.000; -773.000
428.495;  -91.400; -624.000; -646.000
428.619;  -17.600; -186.000; -117.000
428.743;   28.325;   65.000;  132.000
428.868;   47.675; -732.000; -643.000
428.992; 1777.500; -219.000; -326.000
429.116;  808.325; -329.000; -357.000
429.240;  383.250;  419.000;  426.000
429.365;   18.725; -454.000; -574.000
429.489;  -16.775; -638.000; -647.000
429.613;   22.725; -236.000; -177.000
429.737;   39.200; -563.000; -432.000
429.861;  259.800; -247.000; -133.000
429.985; 4993.925; -425.000; -305.000
430.109; 5936.200; -770.000; -908.000
430.234;  741.600;   76.000;  -50.000
430.358;   69.625; -250.000; -160.000
430.482;  -71.850; -672.000; -564.000
430.606;  -67.200; -655.000; -375.000
430.730;   50.375; -437.000; -388.000
430.854;  243.225; -909.000; -835.000
430.978;  -40.675; -795.000; -764.000
431.102;  -74.100; -499.000; -422.000
431.226;  -88.250; -874.000; -815.000
431.350;   33.425;  345.000;  422.000
431.474;  -63.900; -661.000; -373.000
431.597; -126.100;-1060.000; -848.000
431.721;  -79.250; -276.000; -267.000
431.845; -139.975; -704.000; -472.000
431.969;  -81.625; -304.000; -349.000
432.093;  -85.350; -395.000; -317.000
432.217;  -23.800;   32.000;   82.000
432.341;  -93.550; -523.000; -518.000
432.464;   17.525;   96.000;   40.000
432.588;  314.950; -401.000; -329.000
432.712;  173.650;  -52.000;  -52.000
432.836;   46.425;  213.000;  263.000
432.959;  -11.000; -372.000; -311.000
433.083;   92.075;   11.000;    2.000
433.207;  357.650;  285.000;  930.000
433.330; 4444.225; -391.000; -200.000
433.454; 5851.550; -654.000; -638.000
433.578; 3373.000;  583.000;  278.000
433.701;  683.875; -623.000; -675.000
433.825;  217.750; -292.000; -299.000
433.949;  290.525;   28.000;  -72.000
434.072;  120.525; -410.000; -323.000
434.196;    6.500; -309.000; -117.000
434.319; 3590.875;25482.000;25124.000
434.443;  716.825; -656.000; -603.000
434.566; 2498.450;  281.000;   62.000
434.690;  460.675; -637.000; -383.000
434.813;   52.475; -251.000; -173.000
434.937;  -62.025; -569.000; -696.000
435.060;  -20.600; -423.000; -332.000
435.184;  504.325; -492.000; -217.000
435.307;  297.475;  159.000;  102.000
435.431;   16.600;  -40.000;   24.000
435.554;  -75.175; -399.000; -240.000
435.677;  -82.200; -350.000; -258.000
435.801;  -39.400;  -25.000;   49.000
435.924;   18.075;    1.000;  -67.000
436.048;  -72.150;-1019.000; -732.000
436.171;  -67.175; -240.000;  -66.000
436.294;  -34.575; -248.000; -229.000
436.417;   93.350; -963.000; -849.000
436.541;  -77.175; -814.000; -840.000
436.664;  -38.425; -242.000; -316.000
436.787;  -25.675;   13.000;  113.000
436.910; -110.300; -792.000; -422.000
437.034;   25.875;  142.000;  143.000
437.157;   92.450;  -11.000;    0.000
437.280;  -22.275; -392.000; -292.000
437.403;  -44.700; -982.000; -869.000
437.526;  923.975; -903.000; -865.000
437.649; 3332.775; -505.000; -332.000
437.772;  612.250; -692.000; -540.000
437.896;  158.900;  700.000;  544.000
438.019;  -68.625; -758.000; -503.000
438.142;  -78.100; -596.000; -506.000
438.265;   14.725; -639.000; -670.000
438.388;  826.025; -520.000; -410.000
438.511;  218.875; -597.000; -394.000
438.634;  -16.750; -247.000; -125.000
438.757; -132.925; -693.000; -619.000
438.880;   -7.675;  -34.000;  -57.000
439.003;  -67.825; -417.000; -437.000
439.126;  -55.500; -287.000; -167.000
439.248;  -63.775;  -98.000; -139.000
439.371;  -47.100;    9.000;  -53.000
439.494;   20.050;  510.000;  439.000
439.617;  -50.875;   65.000;  -88.000
439.740; -171.275; -968.000; -816.000
439.863; -146.325; -755.000; -595.000
439.986; -125.000; -476.000; -431.000
440.108;  -37.425; -161.000; -112.000
440.231; -146.450; -950.000; -836.000
440.354;  -14.900;  -64.000; -150.000
440.477;  103.575; -566.000; -542.000
440.599;   45.875; -200.000; -225.000
440.722; -108.425; -709.000; -586.000
440.845;   80.000;  751.000;  928.000
440.968; -108.300; -415.000; -311.000
441.090;  -62.050; -199.000;  -33.000
441.213; -162.600;-1021.000; -825.000
441.336;  -42.475; -159.000;   -5.000
441.458;  -76.825; -549.000; -396.000
441.581;  -73.650; -628.000; -629.000
441.703;  -64.850; -152.000;   13.000
441.826; -100.325; -557.000; -400.000
441.948;  -52.575;   56.000;   51.000
442.071;   41.025;  555.000;  424.000
442.193; -117.875; -531.000; -485.000
442.316;   25.200;  152.000;   97.000
442.438;   29.950; -233.000;  -10.000
442.561;   83.425;  272.000;  262.000
442.683;  765.100; -809.000; -522.000
442.806; 1693.850;   -8.000;   74.000
442.928;  129.400; -859.000; -604.000
443.051;  -42.600; -577.000; -373.000
443.173;  -87.125; -341.000; -339.000
443.295;  -85.425; -263.000; -371.000
443.418;  -61.450; -321.000;  -29.000
443.540;    5.425; -106.000;   -4.000
443.662; -107.500; -563.000; -465.000
443.785;   -3.225;  335.000;  199.000
443.907; -100.175; -362.000; -208.000
444.029; -137.325; -767.000; -494.000
444.152; -140.300; -644.000; -554.000
444.274;  -34.300;  -18.000;  -24.000
444.396; -106.550; -461.000; -221.000
444.518; -125.700; -691.000; -454.000
444.640;  -95.100; -268.000; -111.000
444.763;  -18.475;  388.000;  249.000
444.885; -127.375; -432.000; -392.000
445.007;  -30.625;   35.000;   86.000
445.129; -120.150; -610.000; -515.000
445.251; -104.500; -372.000; -439.000
445.373; -128.725; -537.000; -386.000
445.495;   16.200;  242.000;  350.000
445.617;   39.400;  853.000;  753.000
445.739;  -70.900; -215.000;  -97.000
445.861;  -22.050; -245.000; -112.000
445.984;  -20.975; -267.000; -101.000
446.105;  281.125; -418.000; -251.000
446.227;  854.650; -176.000;  -19.000
446.349;   51.450; -358.000; -249.000
446.471;  -85.425; -615.000; -448.000
446.593;  -53.525; -316.000;   19.000
446.715;   21.825;  -67.000;   41.000
446.837;   51.900;  697.000;  832.000
446.959;  -97.175; -457.000; -478.000
447.081; -132.450; -628.000; -518.000
447.203;   44.850;  862.000;  834.000
447.325;  -81.875; -270.000;   42.000
447.446;   -8.825;  286.000;  530.000
447.568; -142.350; -921.000; -803.000
447.690;  -69.925; -236.000; -245.000
447.812; -136.200; -798.000; -519.000
447.933;  -28.225;  155.000;  127.000
448.055;  -68.225; -306.000; -261.000
448.177;  201.600;   31.000;   79.000
448.299;  181.075; -935.000; -727.000
448.420;   40.925;  -25.000;  159.000
448.542;  -31.175;   -3.000;   33.000
448.664;  -23.575;  109.000;  322.000
448.785;  -42.900;  265.000;   83.000
448.907;  -82.800; -614.000; -353.000
449.028;    1.600; -771.000; -471.000
449.150;   79.800;  492.000;  589.000
449.272; -181.000;-1044.000; -913.000
449.393;   30.775;  612.000;  694.000
449.515; -133.400; -634.000; -581.000
449.636;  -43.800; -264.000; -155.000
449.758;   83.550;  763.000;  622.000
449.879;  -86.600; -498.000; -396.000
450.001;  -88.625; -149.000;  -49.000
450.122;  -37.225;  -95.000;  162.000
450.244;  -34.575;   37.000;  364.000
450.365;  -82.600; -495.000; -301.000
450.486;  -47.350;   80.000;  268.000
450.608;   24.275;  393.000;  326.000
450.729;   56.725;  578.000;  645.000
450.850;  -13.050; -574.000; -466.000
450.972;  611.375; -552.000; -389.000
451.093; 4225.750;  190.000;  588.000
451.214; 2014.200; -516.000; -337.000
451.336;  388.850;  773.000;  579.000
451.457;   44.050;  264.000;  393.000
451.578;  -35.775; -118.000;  -74.000
451.699; -128.050; -546.000; -540.000
451.821;  -56.150; -284.000;  -50.000
451.942;  -10.775;  278.000;  285.000
452.063;   28.275;  228.000;  419.000
452.184;  480.375;  -54.000;  -49.000
452.305; 1004.350;  103.000;  170.000
452.427;  139.600; -549.000; -301.000
452.548;  -15.700;   23.000;   79.000
452.669;  -36.550; -257.000;  -89.000
452.790;  -27.275;    3.000;  -18.000
452.911;    1.400;  195.000;  259.000
453.032;  -52.525; -289.000;  -60.000
453.153;  -26.450;  -29.000;   81.000
453.274;   62.900;  737.000;  868.000
453.395;  -33.100;  -51.000;  175.000
453.516;  122.250; 1317.000; 1388.000
453.637;  -28.625; -205.000; -150.000
453.758;  -43.925;   15.000;   69.000
453.879; -119.225; -462.000; -250.000
454.000;   76.075; 1086.000;  948.000
454.121; -107.775; -554.000; -326.000
454.242; -116.775; -599.000; -383.000
454.362;  -58.225;  -99.000;  114.000
454.483;  -37.150; -309.000; -229.000
454.604;   74.175;  512.000;  580.000
454.725; -115.625; -627.000; -555.000
454.846; -108.150; -474.000; -406.000
454.967;  -19.675;  230.000;  539.000
455.087;  -35.000;  179.000;  153.000
455.208;    6.225;  554.000;  856.000
455.329;  -68.675;  -22.000;   82.000
455.450;   30.475;  473.000;  633.000
455.570;  -78.775; -234.000; -211.000
455.691;  -38.675;  201.000;  407.000
455.812;  -92.750; -270.000;  -92.000
455.932;  -51.150;  107.000;  -97.000
456.053;  -89.200;   36.000;   24.000
456.173; -111.000; -433.000; -355.000
456.294; -133.300; -476.000; -303.000
456.415;  -70.375;  -73.000;   70.000
456.535;  -19.500;  297.000;  273.000
456.656;  -31.100;  132.000;  240.000
456.776;  -72.575;    3.000;  298.000
456.897;  -18.650;  308.000;  513.000
457.017;  -76.425; -153.000;   -3.000
457.138; -105.675; -402.000; -249.000
457.258;  -26.375;  263.000;  224.000
457.379;  -15.300;  509.000;  521.000
457.499;  -16.075;  443.000;  432.000
457.620; -114.500; -407.000; -231.000
457.740; -103.300; -132.000;  -11.000
457.860;  -52.425;   87.000;   44.000
457.981;  -47.525;  132.000;  124.000
458.101;  -68.675;  -89.000;   40.000
458.221;  -19.325;  336.000;  402.000
458.342;  -52.550;   -4.000;  -37.000
458.462;    9.900;  617.000;  352.000
458.582;  -38.375; -302.000; -294.000
458.703;    2.100;  303.000;  154.000
458.823;  -21.800;   22.000;  163.000
458.943;   28.475;  341.000;  467.000
459.063;  -12.075; 1124.000;  192.000
459.183;  -13.475;  328.000;  313.000
459.304;   13.600;  315.000;  517.000
459.424;  -67.525; -246.000;  -89.000
459.544;  282.550;  388.000;  764.000
459.664;  767.900;  499.000;  506.000
459.784;  328.250; 1004.000; 1175.000
459.904;   48.900;  867.000;  744.000
460.024;   81.625;  867.000;  684.000
460.144;   26.325;  449.000;  554.000
460.264;    8.925;  515.000;  327.000
460.385;  -86.925; -145.000; -119.000
460.505;   32.000;  905.000;  858.000
460.625;  -97.200;  -17.000;  -68.000
460.745;  -12.475;  396.000;  541.000
460.864;  -38.875;  153.000;  469.000
460.984;   14.525;  499.000;  573.000
461.104;  134.700; 1656.000; 1775.000
461.224;    5.950;  657.000;  650.000
461.344;  -31.125;  431.000;  360.000
461.464;  -24.000;  258.000;  513.000
461.584;  -26.825;  283.000;  466.000
461.704;  -32.575;   58.000;  108.000
461.824;  -54.350;  238.000;  259.000
461.943;  -43.325;  191.000;  130.000
462.063;  -75.925;    2.000;  324.000
462.183;   46.125;  639.000;  717.000
462.303;  117.225; 1678.000; 1230.000
462.422;   20.475;  781.000;  840.000
462.542;  -20.475;  271.000;  391.000
462.662;   43.375;  353.000;  380.000
462.782;  236.700;  833.000;  572.000
462.901;  454.675;  545.000;  717.000
463.021;  282.975; 1702.000; 1638.000
463.141;  -18.125;  337.000;  770.000
463.260;  -14.250;  614.000;  474.000
463.380;    9.650;  902.000;  884.000
463.499;  -53.100;  342.000;  332.000
463.619;  -35.775;  581.000;  559.000
463.738;  103.750; 1644.000;  903.000
463.858;   13.125;  657.000;  811.000
463.978;  -18.575;  542.000;  396.000
464.097;   44.150;  921.000; 1114.000
464.217;  113.200; 1196.000; 1143.000
464.336;  124.950; 1068.000; 1130.000
464.455;  -28.375;  328.000;  659.000
464.575;   58.550;  597.000;  602.000
464.694;  192.225; 1204.000; 1179.000
464.814;  129.425; 1190.000; 1138.000
464.933;   76.075; 1095.000; 1027.000
465.052;  101.550; 1412.000; 1054.000
465.172;   92.425;  922.000;  799.000
465.291;  160.300; 1376.000; 1320.000
465.410;   11.400;  462.000;  735.000
465.530;   93.250; 1355.000; 1310.000
465.649;   67.375; 1209.000; 1273.000
465.768;  162.725; 1673.000; 1508.000
465.888;   54.850;  941.000; 1174.000
466.007;  100.375; 1335.000; 1440.000
466.126;    8.650;  721.000;  641.000
466.245;   47.825; 1176.000; 1187.000
466.364;   24.175;  950.000; 1060.000
466.484;   39.275; 1024.000; 1213.000
466.603;   38.425; 1101.000; 1222.000
466.722;  131.950; 1490.000; 1769.000
466.841;   86.700; 1151.000; 1401.000
466.960;   37.375; 1069.000;  972.000
467.079;  117.100; 1971.000; 1786.000
467.198;   55.300; 1238.000; 1181.000
467.317;   87.850; 1768.000; 1162.000
467.436;   73.600; 1709.000; 1261.000
467.555;  128.100; 1796.000; 1746.000
467.674;   72.025; 1227.000; 1329.000
467.793;   59.675; 1376.000; 1374.000
467.912;   88.425; 1658.000; 1539.000
468.031;  126.475; 2038.000; 1930.000
468.150;  137.775; 1842.000; 1837.000
468.269;  199.950; 2313.000; 2090.000
468.388;  186.425; 2168.000; 2339.000
468.507;  242.775; 2884.000; 2903.000
468.626;  250.750; 2555.000; 2541.000
468.744;  136.650; 2018.000; 2174.000
468.863;  200.075; 2312.000; 2523.000
468.982;   90.875; 1503.000; 1555.000
469.101;  230.575; 2788.000; 2692.000
469.220;  141.425; 2333.000; 2176.000
469.338;  239.825; 2935.000; 3051.000
469.457;  197.150; 2719.000; 2545.000
469.576;  340.800; 3953.000; 3784.000
469.695;  221.525; 2877.000; 3066.000
469.813;  423.350; 4148.000; 4192.000
469.932;  413.600; 4255.000; 4485.000
470.051;  421.250; 4075.000; 4161.000
470.169;  802.275; 4470.000; 4338.000
470.288; 1385.625; 4700.000; 4809.000
470.406;  870.650; 5059.000; 5194.000
470.525;  615.925; 6101.000; 5787.000
470.644;  642.775; 6847.000; 6794.000
470.762;  842.650; 8397.000; 7873.000
470.881;  891.750; 8651.000; 8464.000
470.999; 1025.400; 9685.000; 9151.000
471.118; 1103.975;11174.000;10711.000

