
Integration time [ms]: 100.000
Averaging Nr. [scans]: 40
Smoothing Nr. [pixels]: 0
Data measured with spectrometer [name]: 2101012U2
Wave   ;Sample   ;Dark     ;Reference
[nm]   ;[counts] ;[counts] ;[counts] 

197.733;   46.700;  516.000;  404.000
197.879;  -83.700; -610.000; -634.000
198.025;  -43.150; -475.000; -420.000
198.171;  -83.450; -602.000; -612.000
198.317;  -31.600; -401.000; -316.000
198.463;  -69.450; -655.000; -404.000
198.609;   40.425;  181.000; -137.000
198.755;  -83.550; -644.000; -410.000
198.901;  -52.175; -505.000; -424.000
199.047;  -59.425; -615.000; -488.000
199.193;  -47.050; -230.000; -468.000
199.339;  -51.975; -222.000; -369.000
199.485;   39.575;  330.000;  271.000
199.631;    3.400;  227.000;  310.000
199.777;  -58.600; -466.000; -398.000
199.923;  -53.225; -610.000; -424.000
200.069;   -8.550; -141.000;  -58.000
200.215;   34.125;  128.000;  453.000
200.361;   34.500;  243.000;  477.000
200.507;  -61.550; -600.000; -373.000
200.653;  -35.400; -371.000; -194.000
200.798;  -17.125; -215.000; -125.000
200.944;   -4.100; -146.000;  -41.000
201.090;   50.500;   61.000;  222.000
201.236;   -2.575; -116.000; -158.000
201.382;  128.500;  874.000;  903.000
201.528;    3.650;  -58.000;  -48.000
201.674;  -44.000; -386.000; -293.000
201.819;  -62.775; -540.000; -439.000
201.965;  -85.650; -699.000; -447.000
202.111;  -32.825; -273.000; -226.000
202.257;  -39.600; -250.000; -238.000
202.402;   10.700;   13.000;  -36.000
202.548;  -29.950; -169.000; -116.000
202.694;   85.900;  410.000; -183.000
202.840;  -82.500; -603.000; -531.000
202.985;  -78.525; -681.000; -639.000
203.131; -107.650; -832.000; -666.000
203.277;  -21.000; -199.000; -262.000
203.423;  -61.025; -434.000; -520.000
203.568;  -48.975; -462.000; -237.000
203.714;  -72.450; -535.000; -542.000
203.860;  -72.725; -682.000; -641.000
204.005;   11.225;  112.000;  167.000
204.151;   66.100;  561.000;  556.000
204.296;  -56.200; -354.000; -221.000
204.442;  -69.750; -600.000; -547.000
204.588;  -82.100; -592.000; -579.000
204.733;   17.500;  178.000;  168.000
204.879; -136.375;-1018.000; -822.000
205.025;    5.275;  -99.000;  126.000
205.170;   -5.000;  -17.000;   94.000
205.316;   76.725;  438.000;  661.000
205.461;  -90.825; -698.000; -554.000
205.607;   98.050;  609.000;  665.000
205.752;  -89.175; -626.000; -551.000
205.898;  -55.600; -501.000; -391.000
206.043;  -75.550; -578.000; -506.000
206.189;  -35.125; -243.000; -285.000
206.334;   66.600;  554.000;  606.000
206.480;   86.950;  409.000;  239.000
206.625;  -79.150; -529.000; -552.000
206.771;  -50.825; -451.000; -373.000
206.916;  -30.600; -210.000; -537.000
207.062;  -63.800; -545.000; -591.000
207.207;  -59.550; -546.000; -443.000
207.353;   60.200;  185.000;  460.000
207.498;   -0.225;  196.000;   85.000
207.643;  -49.425; -501.000; -370.000
207.789; -135.450;-1069.000; -910.000
207.934; -103.700; -665.000; -713.000
208.080;  -39.825; -154.000;   66.000
208.225;    3.375;  -22.000;  -57.000
208.370;  -86.250; -727.000; -619.000
208.516;  -83.250; -741.000; -487.000
208.661;  -23.750; -127.000;  -69.000
208.806;  -34.400; -165.000; -171.000
208.952; -128.850;-1044.000; -731.000
209.097;   69.225;  378.000;  349.000
209.242;  -57.200; -307.000; -382.000
209.387;   60.400;  392.000;  350.000
209.533;  -60.550; -321.000; -350.000
209.678;   80.450;  472.000;  543.000
209.823;  -54.675; -408.000; -310.000
209.969; -107.925; -860.000; -757.000
210.114; -113.800; -907.000; -719.000
210.259; -123.650; -939.000; -889.000
210.404;  -10.425; -171.000;  103.000
210.549;    9.400;  108.000;    3.000
210.695;  -18.225;   -3.000;  -95.000
210.840;   21.375;   94.000;   67.000
210.985;  -68.400; -484.000; -303.000
211.130;   77.675;  268.000;  406.000
211.275;    8.550;  207.000;  199.000
211.420;  -50.075; -300.000; -289.000
211.566;  -61.950; -536.000; -489.000
211.711;   29.725;  218.000;  157.000
211.856;  -68.175; -545.000; -519.000
212.001;    5.700;  151.000;   44.000
212.146;   23.600;  153.000;   49.000
212.291;  -25.025; -210.000; -186.000
212.436;  -29.950; -280.000;   -6.000
212.581;  -76.400; -685.000; -653.000
212.726;  -72.375; -487.000; -538.000
212.871;  -56.750; -552.000; -217.000
213.016; -157.525;-1172.000;-1029.000
213.161;   55.425;  406.000;  291.000
213.306;  -80.400; -435.000; -577.000
213.451; -103.825; -778.000; -689.000
213.596;  -44.450; -455.000; -347.000
213.741;  -65.550; -448.000; -538.000
213.886;  -71.225; -498.000; -517.000
214.031;  -22.050; -294.000; -124.000
214.176;  -55.200; -408.000; -341.000
214.321;  -13.900; -296.000; -157.000
214.466;  -34.925; -163.000;  -43.000
214.611;   -0.425;  -61.000;  -10.000
214.756; -114.625; -948.000; -858.000
214.901;   -4.125; -388.000; -226.000
215.046; -128.100; -797.000; -825.000
215.191;    8.350;  128.000;   35.000
215.336;   -4.175; -157.000;  -19.000
215.480;  -60.950; -684.000; -505.000
215.625;  -15.050; -175.000;  -19.000
215.770;  -78.350; -757.000; -662.000
215.915;  -28.450;   -5.000;  -97.000
216.060;  -17.900; -113.000;  -21.000
216.205; -108.825; -731.000; -779.000
216.349;  -70.150; -470.000; -533.000
216.494; -145.300; -939.000; -867.000
216.639; -114.700; -823.000; -888.000
216.784;  -95.525; -577.000; -525.000
216.929;   55.850;  392.000;  281.000
217.073;  -17.750; -244.000;  -31.000
217.218;    2.500;   78.000;  -47.000
217.363;  -90.200; -656.000; -618.000
217.507;  -84.725; -623.000; -588.000
217.652; -130.225; -845.000; -874.000
217.797;  -95.175; -708.000; -659.000
217.942; -111.925; -856.000; -720.000
218.086;   77.900;  608.000;  539.000
218.231;  -41.275; -174.000;  -26.000
218.376;  -35.625; -337.000; -229.000
218.520;   -3.300;  -41.000;   96.000
218.665;  -36.200; -338.000; -204.000
218.810;  -47.550; -275.000; -233.000
218.954;   13.325;  201.000;   35.000
219.099; -117.050; -713.000; -963.000
219.243;  -72.950; -589.000; -554.000
219.388;  -24.275; -264.000; -136.000
219.532;  -20.900; -116.000; -116.000
219.677;  -86.700; -564.000; -521.000
219.822;    9.175;   33.000;   89.000
219.966;   11.475;   17.000;  -99.000
220.111;  -36.400; -328.000;  -40.000
220.255; -104.950; -797.000; -750.000
220.400;  -18.725; -180.000; -146.000
220.544;  -82.900; -516.000; -450.000
220.689;  -58.225; -422.000; -451.000
220.833;  -14.025; -123.000;  -58.000
220.978;  -48.225; -393.000; -563.000
221.122;   17.750;  319.000;  307.000
221.267; -118.925; -906.000; -837.000
221.411;  -64.600; -478.000; -394.000
221.555;   -4.000; -104.000;  -23.000
221.700;  -48.500; -329.000; -222.000
221.844;   41.275;  255.000;  272.000
221.989;  -48.225; -328.000; -311.000
222.133;  -44.275; -289.000; -307.000
222.277;  -14.250;    5.000;   78.000
222.422;   21.900;  227.000;  113.000
222.566;  -43.100; -381.000; -214.000
222.711;  -65.400; -414.000; -479.000
222.855;  -94.550; -643.000; -586.000
222.999;  -91.200; -642.000; -717.000
223.144;  -30.075; -195.000; -194.000
223.288;   37.800;  423.000;  251.000
223.432;   24.275;  184.000;  230.000
223.576;   13.250;  152.000;  -21.000
223.721;   46.500;  364.000;  273.000
223.865;  -63.975; -472.000; -475.000
224.009;  267.850; 1673.000; 1631.000
224.153;  -94.575; -660.000; -671.000
224.298;  -59.625; -531.000; -489.000
224.442;  -18.900;  -74.000;  -33.000
224.586;  -23.825; -169.000; -106.000
224.730; -102.850; -858.000; -670.000
224.875; -121.075; -739.000; -688.000
225.019;   17.975;  102.000;  188.000
225.163;   67.125;  208.000;  341.000
225.307;   25.625;   97.000;  -91.000
225.451;   46.675;  360.000;  481.000
225.595;   34.375;  264.000;  176.000
225.739;  -36.925; -170.000;  -94.000
225.884;    0.150;   86.000;    5.000
226.028; -103.750; -760.000; -626.000
226.172;  -44.100; -260.000; -273.000
226.316; -122.925; -941.000; -902.000
226.460;  -65.250; -645.000; -493.000
226.604;  -65.175; -406.000; -400.000
226.748; -105.075; -836.000; -733.000
226.892;  -36.250; -227.000; -181.000
227.036;  -60.700; -537.000; -447.000
227.180;  -59.250; -551.000; -375.000
227.324;  -75.975; -561.000; -580.000
227.468; -125.150; -819.000; -717.000
227.612;   18.550;  242.000;  -28.000
227.756; -109.200; -845.000; -698.000
227.900;   51.625;  342.000;  441.000
228.044;  -57.075; -509.000; -290.000
228.188;   51.100;  448.000;  568.000
228.332;  -94.925; -546.000; -472.000
228.476;  -34.000; -223.000; -149.000
228.620;  -35.000; -210.000; -150.000
228.764;   56.350;  431.000;  349.000
228.908;  -23.550; -155.000;   30.000
229.052;  -51.875; -615.000; -528.000
229.195;  -15.225; -172.000;   13.000
229.339;  -22.125; -235.000; -305.000
229.483;  -22.775;    5.000; -162.000
229.627;    0.850; -156.000;  139.000
229.771;  -60.675; -218.000; -294.000
229.915;    1.850;  230.000;   79.000
230.059;  -89.700; -648.000; -663.000
230.202;  -28.875; -370.000; -317.000
230.346;  -22.975; -107.000;  107.000
230.490;  -57.725; -489.000; -521.000
230.634; -109.450; -736.000; -553.000
230.777;   57.300;  478.000;  509.000
230.921;  -49.875; -450.000; -359.000
231.065;  -48.425; -246.000; -286.000
231.209;   25.475;  261.000;  265.000
231.352;   12.450;   54.000;   40.000
231.496;   20.600;  568.000;  188.000
231.640;  -75.675; -693.000; -621.000
231.783;   60.650;  546.000;  525.000
231.927;  -47.325; -294.000; -365.000
232.071; -118.500; -962.000; -736.000
232.214; -120.675; -980.000; -764.000
232.358; -117.875; -683.000; -599.000
232.502;   -0.025;  -19.000;    7.000
232.645; -141.900;-1090.000; -927.000
232.789;  -41.075; -257.000; -218.000
232.933;  -43.700; -407.000; -224.000
233.076; -139.925;-1038.000; -897.000
233.220; -105.050; -752.000; -777.000
233.363;  -78.800; -669.000; -477.000
233.507;   57.725;  371.000;  129.000
233.650; -111.125; -764.000; -834.000
233.794;   45.525;  438.000;  461.000
233.938;  -69.525; -530.000; -362.000
234.081;  -14.200;  -93.000;   31.000
234.225;  -80.075; -631.000; -539.000
234.368; -122.775; -773.000; -723.000
234.512;  -42.075; -385.000; -299.000
234.655;  -87.825; -582.000; -555.000
234.798;  -62.450; -493.000; -466.000
234.942; -128.700; -884.000;-1002.000
235.085;  -85.975; -651.000; -443.000
235.229;  -61.825; -405.000; -410.000
235.372;  -60.425; -247.000; -191.000
235.516;  -66.550; -397.000; -321.000
235.659;   24.125;   92.000;  121.000
235.802;  -18.925;  -38.000;  -22.000
235.946;   28.500;  335.000;  215.000
236.089;   15.975;  126.000;  250.000
236.233;   45.175;  275.000;  298.000
236.376;  -49.025; -235.000; -378.000
236.519;  -43.450; -297.000; -319.000
236.663;  -17.350; -215.000; -117.000
236.806; -152.725;-1029.000; -999.000
236.949;   52.875;  543.000;  431.000
237.092;   62.400;  412.000;  391.000
237.236;  -85.525; -589.000; -502.000
237.379;   57.800;  352.000;  428.000
237.522; -125.000; -879.000; -768.000
237.666;  -19.375; -271.000;   18.000
237.809; -126.100; -851.000; -823.000
237.952;   43.125;  469.000;  271.000
238.095;  -74.625; -447.000; -442.000
238.238;   79.250;  688.000;  700.000
238.382;   -9.625;  166.000;  103.000
238.525;  -71.925; -598.000; -511.000
238.668; -146.525;-1060.000; -985.000
238.811;  -84.650; -638.000; -643.000
238.954;  -57.850; -483.000; -334.000
239.097;   84.950;  617.000;  664.000
239.241;   13.100;  394.000;  326.000
239.384;  -36.600; -254.000; -214.000
239.527;  -58.875; -424.000; -224.000
239.670; -153.475; -994.000;-1091.000
239.813; -115.475; -696.000; -658.000
239.956;   77.750;  579.000;  473.000
240.099; -114.775; -778.000; -725.000
240.242;   57.600;  428.000;  432.000
240.385;   44.600;  466.000;  450.000
240.528;  -64.825; -706.000; -473.000
240.671;   26.350;  189.000;  134.000
240.814;  -40.700; -441.000; -158.000
240.957; -113.300; -767.000; -578.000
241.100;  -96.775; -779.000; -755.000
241.243; -148.000;-1234.000; -893.000
241.386;  -72.800; -508.000; -379.000
241.529;  -65.600; -735.000; -547.000
241.672;  -72.300; -566.000; -495.000
241.815; -110.625; -832.000; -808.000
241.958;  -23.125; -125.000; -182.000
242.101;  -91.675; -545.000; -390.000
242.244;  -51.425; -270.000; -325.000
242.387;  -47.000; -304.000; -246.000
242.530;   59.700;  470.000;  134.000
242.673;  -47.475; -381.000; -309.000
242.815; -134.825; -925.000; -899.000
242.958;  -67.925; -482.000; -381.000
243.101;    6.725;  132.000;  187.000
243.244;  -99.600; -564.000; -521.000
243.387;  -46.475; -313.000; -316.000
243.530;  -95.100; -657.000; -674.000
243.672;    0.200;   43.000;  -92.000
243.815;  -59.600; -355.000; -283.000
243.958;    1.100;   98.000;  -26.000
244.101;  -11.925;   59.000;  -16.000
244.243;  -18.675;  -47.000;  101.000
244.386; -114.900; -761.000; -630.000
244.529;  -19.800; -132.000; -139.000
244.672; -153.625;-1154.000; -951.000
244.814; -100.050; -621.000; -794.000
244.957;  -51.925; -380.000; -304.000
245.100;  -72.025; -489.000; -489.000
245.242;  -66.725; -387.000; -374.000
245.385;  -11.000;  -59.000;  -39.000
245.528; -131.675; -871.000; -705.000
245.670;   64.625;  612.000;  634.000
245.813;  -99.150; -599.000; -547.000
245.956;  -42.075; -324.000; -275.000
246.098;  -85.275; -508.000; -650.000
246.241;    8.600;  194.000;   48.000
246.383;  -12.725; -119.000;  -73.000
246.526;  -79.050; -454.000; -525.000
246.669; -122.975; -889.000; -780.000
246.811;    2.100;  172.000;   -1.000
246.954;  -73.775; -512.000; -426.000
247.096;  -31.750;  -84.000;   -6.000
247.239;  -68.875; -482.000; -445.000
247.381;  -72.025; -647.000; -488.000
247.524;   97.200;  645.000;  679.000
247.666;  -16.625;   58.000;   11.000
247.809; -122.250; -887.000; -691.000
247.951;  -12.400;  -75.000;  138.000
248.094;   19.375;  432.000;  308.000
248.236; -168.450;-1262.000;-1238.000
248.378;    3.925; -356.000;  -81.000
248.521;  -34.775; -334.000; -337.000
248.663;  -46.400; -236.000; -267.000
248.806;  -36.850; -300.000; -266.000
248.948;  -98.100; -886.000; -763.000
249.090;  -53.450; -428.000; -398.000
249.233;  -60.950; -344.000; -381.000
249.375;  -69.150; -474.000; -451.000
249.518;  -18.250;  -83.000; -133.000
249.660;  -17.525; -103.000;    3.000
249.802; -168.775;-1303.000;-1189.000
249.945;  -82.525; -612.000; -540.000
250.087; -120.725; -834.000; -768.000
250.229;  -44.625; -362.000; -480.000
250.371;  -78.975; -494.000; -439.000
250.514;  -53.200; -310.000; -244.000
250.656;  -71.000;   69.000;  102.000
250.798; -114.800; -849.000; -800.000
250.940;  -71.525; -322.000; -322.000
251.083;  -34.650; -335.000; -111.000
251.225;   53.950;  338.000;  310.000
251.367;  -58.800; -274.000; -373.000
251.509;  -42.775; -265.000; -210.000
251.651; -103.750; -731.000; -671.000
251.794;   48.150;  538.000;  632.000
251.936;  -99.375; -821.000; -747.000
252.078;  -79.025; -540.000; -461.000
252.220;  -72.200; -645.000; -477.000
252.362;   81.750;  344.000;  462.000
252.504;  -79.350; -677.000; -584.000
252.646; -108.100; -875.000; -722.000
252.788;   -1.975;   14.000; -128.000
252.931;  -49.375; -257.000; -253.000
253.073;  -46.275; -376.000; -317.000
253.215;  -13.050;  141.000;  122.000
253.357;   -7.250;   82.000; -153.000
253.499;  -53.250; -374.000; -234.000
253.641;  -88.275; -749.000; -594.000
253.783;  -95.875; -609.000; -527.000
253.925;  -92.125; -586.000; -591.000
254.067; -103.225; -744.000; -667.000
254.209;  -23.250; -391.000; -259.000
254.351; -142.800; -865.000; -883.000
254.493;  -63.425; -441.000; -417.000
254.635; -133.125; -936.000; -818.000
254.777;  -98.850; -752.000; -687.000
254.918;  -64.300; -512.000; -430.000
255.060;  -73.050; -551.000; -395.000
255.202;  -65.225; -473.000; -261.000
255.344;  -75.950; -658.000; -455.000
255.486;  -72.675; -471.000; -406.000
255.628; -123.275; -780.000; -781.000
255.770; -106.800; -676.000; -536.000
255.912;  -78.825; -559.000; -468.000
256.053; -100.775; -730.000; -508.000
256.195;  151.275; 1008.000;  903.000
256.337; -104.525; -861.000; -595.000
256.479;   58.975;  532.000;  416.000
256.621;  -45.675; -394.000; -212.000
256.762; -104.525; -789.000; -742.000
256.904;   52.275;  485.000;  487.000
257.046;  -51.375; -381.000; -271.000
257.188;  -48.400; -351.000; -264.000
257.329;  -71.975; -525.000; -464.000
257.471; -129.875; -939.000; -807.000
257.613;  -65.950; -584.000; -498.000
257.755; -168.475;-1073.000; -982.000
257.896;   30.600;  286.000;  392.000
258.038;  -71.475; -403.000; -352.000
258.180;  -47.775; -354.000; -279.000
258.321;  -84.925; -581.000; -457.000
258.463;   -4.800;  -71.000;  133.000
258.605; -102.725; -562.000; -570.000
258.746; -100.350; -886.000; -772.000
258.888; -163.100;-1026.000;-1020.000
259.029;   22.850;  121.000;   -8.000
259.171; -103.200; -614.000; -550.000
259.313;  -14.925;  -49.000;  -47.000
259.454;  -81.300; -536.000; -414.000
259.596;  -54.050; -483.000; -390.000
259.737;  -78.250; -590.000; -474.000
259.879;   31.150;  217.000;  311.000
260.020;   95.900;  901.000;  636.000
260.162;  -30.050; -146.000; -253.000
260.303; -117.925; -768.000; -687.000
260.445;  -91.650; -609.000; -613.000
260.586;   21.350;  392.000;  157.000
260.728;  -53.900; -360.000; -248.000
260.869; -120.900; -350.000; -343.000
261.011;   70.825;  706.000;  537.000
261.152;  -66.575; -479.000; -319.000
261.293;  -97.400; -576.000; -595.000
261.435;  -47.575; -219.000; -184.000
261.576;  -54.775; -455.000; -325.000
261.718;   34.000;  420.000;  470.000
261.859; -129.025; -940.000; -949.000
262.000; -144.500; -951.000;-1016.000
262.142;  -25.275;  -52.000;  -60.000
262.283; -117.250; -808.000; -691.000
262.424;  -92.825; -666.000; -625.000
262.566; -173.900;-1161.000; -983.000
262.707; -118.450; -840.000; -830.000
262.848; -137.325; -769.000; -726.000
262.990;  -64.350; -362.000; -345.000
263.131;   65.400;  650.000;  681.000
263.272;    2.000;  -61.000;  -41.000
263.413; -107.325; -589.000; -561.000
263.555;  -75.350; -669.000; -143.000
263.696;  -98.100; -550.000; -641.000
263.837;  -57.775; -449.000; -551.000
263.978;   -6.450;   -5.000;  -77.000
264.119;  -52.175; -283.000; -264.000
264.261; -141.375; -847.000; -630.000
264.402;   -0.500;   33.000;   40.000
264.543;  -85.250; -509.000; -524.000
264.684;  -17.050;   61.000;  -50.000
264.825;  -91.500; -816.000; -538.000
264.966;  -25.350;  -84.000;  -67.000
265.107; -117.225; -646.000; -670.000
265.248; -139.225; -825.000; -812.000
265.390;   -8.875;  152.000;   -9.000
265.531;  -23.275; -238.000; -107.000
265.672;  -95.175; -557.000; -630.000
265.813;   69.900;  563.000;  439.000
265.954; -157.300; -959.000; -940.000
266.095;  -20.900; -372.000; -322.000
266.236;  -99.850; -686.000; -548.000
266.377;  -35.325; -243.000; -297.000
266.518;  -91.225; -619.000; -547.000
266.659;   14.500;  170.000;  268.000
266.800;   -6.750;   83.000;   85.000
266.941;  -87.250; -487.000; -478.000
267.082;   15.100;  354.000;   99.000
267.223;  -59.525; -344.000; -273.000
267.364; -121.200; -892.000; -686.000
267.504;  -20.900;    3.000;  135.000
267.645;   -8.875;  160.000;   67.000
267.786;  -41.275; -147.000;  -86.000
267.927;  -59.350; -473.000; -379.000
268.068;  -16.100; -186.000;  -61.000
268.209;  -56.675; -175.000; -413.000
268.350;  -58.825; -388.000; -532.000
268.490;  -92.025; -648.000; -521.000
268.631;   20.150;  127.000;  225.000
268.772; -111.650; -874.000; -647.000
268.913;  -58.225; -328.000; -476.000
269.054;  -17.375; -117.000;   12.000
269.194;  -60.325; -418.000; -402.000
269.335; -167.200;-1137.000;-1074.000
269.476;  -22.525;   33.000;  -35.000
269.617;  -46.525; -347.000; -392.000
269.757; -103.200; -713.000; -646.000
269.898; -107.425; -856.000; -613.000
270.039;  -84.325; -415.000; -405.000
270.180; -145.700; -952.000; -816.000
270.320;  -29.875; -190.000; -250.000
270.461;  -41.500; -277.000; -249.000
270.602;  -26.450; -186.000; -156.000
270.742; -118.200; -868.000; -943.000
270.883;  -68.475; -442.000; -390.000
271.023;  -59.200; -358.000; -357.000
271.164;  -81.175; -607.000; -528.000
271.305; -106.800; -666.000; -654.000
271.445; -101.875; -722.000; -683.000
271.586;  -67.975; -462.000; -283.000
271.726;  -37.875; -397.000; -322.000
271.867;  -78.425; -594.000; -534.000
272.008;  159.900; -473.000; -285.000
272.148;  112.775;  462.000;  468.000
272.289;   21.075; -113.000; -181.000
272.429;   10.775;   19.000;  185.000
272.570;  -93.600; -633.000; -737.000
272.710; -115.600; -825.000; -775.000
272.851;  -37.700;  113.000; -130.000
272.991; -166.550;-1173.000;-1077.000
273.131;  -70.450; -419.000; -459.000
273.272; -117.750; -683.000; -723.000
273.412;    9.600; -143.000;  -31.000
273.553;  -66.225; -488.000; -507.000
273.693;  128.950;  913.000;  858.000
273.834; -110.025; -894.000; -692.000
273.974;  -73.025; -664.000; -615.000
274.114; -105.000; -772.000; -560.000
274.255;   75.725;  414.000;  373.000
274.395;    4.125; -180.000; -125.000
274.535;   24.225;  199.000;  350.000
274.676;   22.150;  225.000;   94.000
274.816;   -9.875;  110.000;   34.000
274.956;  -97.950; -624.000; -690.000
275.097;  -78.275;-1014.000; -922.000
275.237; -110.150; -913.000; -803.000
275.377; -107.550; -778.000; -689.000
275.517; -163.175; -878.000; -937.000
275.658;  -74.175; -590.000; -555.000
275.798;  -83.525; -606.000; -413.000
275.938;   20.325;  215.000;  323.000
276.078; -117.350; -626.000; -395.000
276.218;    7.800;   99.000;  104.000
276.359; -140.600;-1026.000;-1024.000
276.499;  -66.200; -605.000; -446.000
276.639;  -43.275; -305.000; -151.000
276.779;  -67.350; -475.000; -357.000
276.919; -110.775; -783.000; -624.000
277.059;  -32.000; -261.000; -212.000
277.199;  -50.150; -357.000; -259.000
277.340;   42.100;  287.000;  175.000
277.480; -119.650; -840.000; -693.000
277.620;   11.175;  192.000;   16.000
277.760; -191.175;-1533.000;-1294.000
277.900;    9.950;  113.000;   33.000
278.040;   15.325;  137.000;  159.000
278.180;   27.425;  270.000;  170.000
278.320;    1.425;   21.000;   56.000
278.460;  -73.550; -443.000; -469.000
278.600; -103.150; -708.000; -598.000
278.740;   53.575;  448.000;  224.000
278.880;  -79.925; -768.000; -791.000
279.020;  -21.100; -194.000; -144.000
279.160;  -95.525; -672.000; -595.000
279.300; -131.725; -926.000; -873.000
279.440;  -95.675; -709.000; -622.000
279.579;  -36.150;-1014.000; -929.000
279.719;  -58.975; -410.000; -394.000
279.859;   61.950;   -4.000;   41.000
279.999;    7.025; -208.000;  101.000
280.139;  -31.025; -435.000; -387.000
280.279;  -85.650; -708.000; -745.000
280.419;  -18.575; -229.000; -147.000
280.559;  -39.050; -259.000; -180.000
280.698;  -96.675; -790.000; -639.000
280.838; -105.325; -778.000; -800.000
280.978; -108.200; -846.000; -790.000
281.118; -120.500; -811.000; -704.000
281.257;   -6.700;   24.000;    6.000
281.397; -135.175;-1094.000; -960.000
281.537; -102.275; -599.000; -712.000
281.677;  -15.325; -150.000; -101.000
281.816; -107.200; -700.000; -630.000
281.956;  -44.025; -193.000; -257.000
282.096;  -65.950; -539.000; -396.000
282.235; -111.100; -672.000; -638.000
282.375;  -24.000; -243.000;  -98.000
282.515; -107.475; -715.000; -707.000
282.654;   16.625;   29.000;  106.000
282.794;   10.850;  388.000;  244.000
282.934;  -53.275; -530.000; -491.000
283.073; -140.725;-1030.000; -857.000
283.213;  -58.200; -460.000; -467.000
283.353;  -49.250; -408.000; -349.000
283.492;  -38.900; -264.000; -296.000
283.632;  -65.075; -254.000; -168.000
283.771; -121.625; -859.000; -730.000
283.911;  -55.500; -369.000; -260.000
284.050; -116.750; -794.000; -748.000
284.190; -166.225;-1229.000;-1096.000
284.329; -138.325;-1055.000; -964.000
284.469;  -93.475; -516.000; -591.000
284.608;  -72.175; -559.000; -598.000
284.748;  -94.675; -614.000; -570.000
284.887;  -15.075;  -87.000;  -20.000
285.027; -138.150; -844.000; -892.000
285.166;  -50.775; -192.000; -249.000
285.306;   -8.000; -116.000;  -33.000
285.445;  -44.075; -229.000; -343.000
285.584;  -96.475; -630.000; -494.000
285.724;  -43.375; -282.000; -322.000
285.863; -123.950; -857.000; -507.000
286.002;  -56.900; -366.000; -276.000
286.142; -121.450; -715.000; -622.000
286.281;  -79.100; -525.000; -493.000
286.420;  -84.925; -554.000; -417.000
286.560;   82.175;  653.000;  623.000
286.699; -142.325; -958.000; -912.000
286.838;  -93.275; -590.000; -591.000
286.978;  -92.050; -533.000; -537.000
287.117; -146.825;-1085.000; -950.000
287.256;  -37.950; -228.000; -211.000
287.395;  -48.325; -197.000; -378.000
287.535;  -56.425; -370.000; -298.000
287.674;  -74.550; -509.000; -484.000
287.813;   48.700;  661.000;  533.000
287.952; -140.750;-1010.000; -871.000
288.091; -160.675;-1049.000; -915.000
288.231;   -7.150;   13.000;   15.000
288.370; -178.575;-1217.000;-1200.000
288.509;  -85.925; -728.000; -645.000
288.648;  -99.500; -770.000; -548.000
288.787;  -37.775; -243.000;  -87.000
288.926;  -80.025; -454.000; -475.000
289.065;  109.475;  859.000;  672.000
289.204;  -73.025; -377.000; -217.000
289.344;  -94.750; -791.000; -690.000
289.483;   14.675;  416.000;  304.000
289.622;  -33.975; -291.000; -149.000
289.761;  -18.875; -309.000; -166.000
289.900; -114.500; -785.000; -626.000
290.039;  -20.575;  -12.000;  -95.000
290.178;  -49.250; -274.000; -180.000
290.317;  -98.725; -618.000; -479.000
290.456;  -66.725; -463.000; -451.000
290.595; -154.700; -961.000; -833.000
290.734; -151.750; -904.000; -891.000
290.873;  -76.275; -456.000; -420.000
291.011; -114.425; -833.000; -843.000
291.150; -108.625; -770.000; -682.000
291.289;  -45.500; -343.000; -110.000
291.428; -105.275; -599.000; -480.000
291.567;  -68.100; -370.000; -442.000
291.706;   -0.750;  109.000;  154.000
291.845; -102.200; -597.000; -505.000
291.984; -172.950;-1234.000;-1061.000
292.122;   66.925;  602.000;  582.000
292.261;   20.800;  620.000;  463.000
292.400;  -15.075; -144.000;  211.000
292.539; -141.100; -959.000; -813.000
292.678;  -34.850; -325.000; -300.000
292.816; -170.625;-1136.000; -965.000
292.955; -103.475; -844.000; -684.000
293.094;  -29.800; -173.000; -337.000
293.233;  -60.625; -556.000; -400.000
293.371;  -42.825; -225.000;  -84.000
293.510; -108.950; -866.000; -780.000
293.649; -129.850; -959.000; -924.000
293.787;  -78.675;-1083.000;-1012.000
293.926;   -8.400; -113.000;  -32.000
294.065;  -50.125; -379.000; -290.000
294.203;   41.425;  298.000;  406.000
294.342;   21.375;   74.000;  156.000
294.481; 7250.500;51180.000; -836.000
294.619;  -35.125; -425.000; -582.000
294.758; -161.550;-1230.000;-1137.000
294.896;   48.475; -125.000;    5.000
295.035; -134.200;-1040.000;-1006.000
295.174; -134.225;-1082.000; -954.000
295.312;  -58.350; -323.000; -203.000
295.451;  -29.325; -307.000; -428.000
295.589;  -68.075; -389.000; -518.000
295.728;   -6.150; -292.000; -165.000
295.866;  -15.900;  -36.000;  -51.000
296.005;  -78.275; -584.000; -341.000
296.143;  -73.800; -558.000; -596.000
296.282; -110.300; -957.000; -881.000
296.420; -103.500; -657.000; -557.000
296.559;  -97.250; -892.000; -633.000
296.697;  -12.125; -847.000; -665.000
296.835;   21.800;-1141.000;-1002.000
296.974;   26.500;  -23.000;   39.000
297.112;  -11.875; -443.000; -504.000
297.251;  -97.400; -815.000; -755.000
297.389;   43.175; -576.000; -438.000
297.527;   15.025; -145.000;  -83.000
297.666;  -52.900; -486.000; -438.000
297.804;  -64.425; -404.000; -264.000
297.942;  -23.575; -136.000; -161.000
298.081;  -12.325; -183.000;   63.000
298.219;   52.175;  -17.000;  -19.000
298.357;   36.475; -144.000;  -71.000
298.495;   -2.475; -810.000; -812.000
298.634;   52.700;  245.000;  219.000
298.772;   37.500; -220.000; -338.000
298.910;  -47.975; -309.000; -182.000
299.048;  -22.550; -130.000; -153.000
299.187;  -40.950; -350.000; -250.000
299.325;   10.500;   52.000;  122.000
299.463;   24.125; -389.000; -299.000
299.601;   78.200; -327.000; -271.000
299.739; -118.275; -908.000; -883.000
299.877;  -79.500; -791.000; -703.000
300.016;  -74.650;-1095.000; -935.000
300.154;  138.450;  -19.000; -161.000
300.292;   27.950; -428.000; -348.000
300.430;   -5.775; -408.000; -291.000
300.568; -118.950; -940.000; -874.000
300.706;  -54.050; -366.000; -469.000
300.844;  -93.150;-1108.000; -979.000
300.982;   92.800;  246.000;  282.000
301.120; -124.975; -965.000; -866.000
301.258;  -73.700; -812.000; -705.000
301.396;   16.100;  104.000;  -41.000
301.534;   32.850; -218.000; -293.000
301.672;  -29.075; -664.000; -521.000
301.810;   -6.425; -613.000; -545.000
301.948;   77.700;   53.000;  149.000
302.086;  530.250; -250.000;  -32.000
302.224;  801.550; -610.000; -585.000
302.362;    2.925; -558.000; -622.000
302.500;  -51.975; -923.000; -893.000
302.638;   80.550;  128.000;  245.000
302.776;  -16.325; -352.000; -408.000
302.913;   30.625;  447.000;  236.000
303.051;  -17.100;  -86.000;  -23.000
303.189;   30.425;   90.000;  118.000
303.327;  -47.750; -341.000; -256.000
303.465;  -81.375; -832.000; -588.000
303.603; -101.250; -805.000; -604.000
303.740;   88.000;  417.000;  241.000
303.878;  -15.175; -800.000; -759.000
304.016; -103.300; -915.000; -790.000
304.154; -139.475;-1123.000;-1152.000
304.291;  -49.600; -505.000; -554.000
304.429;   12.800;  102.000;   74.000
304.567; -130.575; -908.000; -893.000
304.705;  -73.925; -408.000; -515.000
304.842;   55.375; -616.000; -540.000
304.980;   31.500;  215.000;   35.000
305.118;   14.375; -367.000; -365.000
305.255;  -90.725; -945.000; -927.000
305.393;   43.775;  178.000;  239.000
305.531; -115.525;-1173.000; -956.000
305.668;  -82.700; -663.000; -582.000
305.806;   75.950; -358.000; -439.000
305.943;   89.700; -629.000; -637.000
306.081;   32.950; -378.000; -267.000
306.219; -108.050; -863.000; -748.000
306.356;   -7.825;  158.000;   27.000
306.494;   86.125;  981.000;  761.000
306.631;  -15.575;  -11.000;  -55.000
306.769;  -10.450; -613.000; -485.000
306.906;  -38.700; -284.000; -258.000
307.044;  -58.600; -473.000; -488.000
307.181;  -65.075; -410.000; -332.000
307.319;    7.425;  112.000;   87.000
307.456; -184.900;-1191.000;-1153.000
307.594; -117.800; -980.000; -727.000
307.731;  -17.775; -371.000; -164.000
307.868;  -13.775;  -15.000;   20.000
308.006; -159.125; -961.000; -847.000
308.143;  -80.550; -618.000; -330.000
308.281;  102.750;  -37.000; -254.000
308.418;  -43.725; -748.000; -640.000
308.555;  -70.350; -400.000; -250.000
308.693;  -74.975; -577.000; -573.000
308.830; -115.775; -712.000; -657.000
308.967;  -18.425; -215.000;  -95.000
309.105;  -66.350; -507.000; -396.000
309.242;   -6.250; -468.000; -367.000
309.379;  186.425; -577.000; -655.000
309.517;  -98.425; -936.000; -948.000
309.654; -131.425; -910.000; -734.000
309.791;  -75.725; -662.000; -580.000
309.928; -137.275; -977.000; -914.000
310.065;  162.125;  819.000;  697.000
310.203;  -38.225; -825.000; -850.000
310.340;  -23.425; -465.000; -321.000
310.477; -102.750; -412.000; -516.000
310.614;  -77.175; -383.000; -473.000
310.751;  -89.700; -427.000; -518.000
310.889;  -26.775;    1.000;   11.000
311.026; -160.825;-1161.000; -939.000
311.163;  -48.225; -386.000; -380.000
311.300;  -91.175; -512.000; -479.000
311.437;  -95.800; -658.000; -619.000
311.574; -159.350;-1226.000; -985.000
311.711;  -64.325; -595.000; -433.000
311.848;  -49.900; -380.000; -388.000
311.985;   17.225;  270.000;   93.000
312.122; -134.225; -932.000; -762.000
312.259; -134.275; -941.000; -994.000
312.396;  -82.850; -508.000; -551.000
312.533; -101.475; -812.000; -790.000
312.670; -136.625;-1070.000; -898.000
312.807;  -55.550; -352.000; -367.000
312.944;  -87.200; -513.000; -611.000
313.081;  -43.350; -150.000; -415.000
313.218; -111.650;-1111.000; -867.000
313.355;  -11.000; -531.000; -449.000
313.492;  -19.525; -455.000; -292.000
313.629;  130.150;  815.000;  735.000
313.766; -172.875;-1176.000;-1008.000
313.902;  -22.975; -186.000;   21.000
314.039;  -63.750; -372.000; -289.000
314.176;   15.925;  286.000;  192.000
314.313;  -91.900; -569.000; -473.000
314.450;  -84.725; -788.000; -684.000
314.587;  -70.975; -468.000; -480.000
314.723;   -4.900;  -78.000;  130.000
314.860;   31.150;  318.000;  332.000
314.997;   13.725;  223.000;  142.000
315.134;  -47.500; -385.000; -368.000
315.270;  -49.525; -480.000; -496.000
315.407; -132.075;-1094.000; -967.000
315.544;  -50.600; -657.000; -538.000
315.681;  -68.700; -681.000; -565.000
315.817;   20.300; -133.000; -176.000
315.954;    1.025; -613.000; -392.000
316.091; -135.975;-1045.000;-1023.000
316.227;  -41.200;  -71.000; -179.000
316.364;    1.900;   23.000;    6.000
316.500;  -52.325; -113.000; -300.000
316.637;  -36.450; -181.000; -302.000
316.774;  -91.175; -625.000; -358.000
316.910; -107.250; -598.000; -629.000
317.047;  -78.300; -487.000; -351.000
317.183;  -50.150; -435.000; -566.000
317.320;   -3.475; -367.000; -321.000
317.456;  -67.725; -733.000; -805.000
317.593; -105.950; -598.000; -641.000
317.729;   -8.100;  168.000;  -67.000
317.866; -218.425;-1434.000;-1285.000
318.002; -109.000; -708.000; -948.000
318.139; -113.850; -883.000; -867.000
318.275; -120.325;-1003.000; -738.000
318.412;  -71.700; -517.000; -336.000
318.548;  -53.850; -751.000; -720.000
318.685; -118.975; -985.000; -888.000
318.821; -101.775; -762.000; -735.000
318.957;  -33.825;   34.000;  -23.000
319.094;   25.725;  297.000;  154.000
319.230;  -73.200; -756.000; -742.000
319.367;   89.275; -471.000; -520.000
319.503;   45.200; -538.000; -436.000
319.639; -109.100; -877.000; -793.000
319.775;  -90.175; -750.000; -685.000
319.912;  -69.625; -424.000; -519.000
320.048; -108.600;-1184.000;-1184.000
320.184;   66.175;   59.000;   70.000
320.321;  -64.725; -497.000; -467.000
320.457;   50.525;  475.000;  662.000
320.593;  -69.350; -375.000; -382.000
320.729; -111.775; -732.000; -734.000
320.866;  -86.400; -577.000; -635.000
321.002; -109.900; -759.000; -809.000
321.138;  -17.250; -135.000; -211.000
321.274;   75.550; -148.000; -115.000
321.410;  -38.550; -585.000; -353.000
321.546;  -52.650;-1011.000; -911.000
321.683;   44.700;  400.000;  185.000
321.819;   -5.425;  -48.000; -117.000
321.955; -121.075; -743.000; -722.000
322.091;  -50.450; -585.000; -540.000
322.227;  -11.425; -382.000; -202.000
322.363;  -27.450; -320.000; -215.000
322.499;  -65.875; -343.000; -331.000
322.635;  146.450;  636.000;  443.000
322.771;    5.100; -139.000;   12.000
322.907;   75.875;  129.000;  327.000
323.043;  -33.350; -115.000; -206.000
323.179;  -54.200; -394.000; -363.000
323.315;   -8.700; -401.000; -371.000
323.451;   65.875; -328.000; -236.000
323.587;   49.775;  -60.000;  -77.000
323.723;    5.850; -682.000; -601.000
323.859;   -8.525; -258.000;  -76.000
323.995;  -27.350; -467.000; -409.000
324.131; -129.175; -967.000; -892.000
324.267;  -58.550; -254.000; -276.000
324.402; -143.200; -960.000; -983.000
324.538;  -29.600; -279.000; -104.000
324.674;    5.300;  164.000;   77.000
324.810;   78.375;  226.000;  308.000
324.946;  -29.325; -810.000; -658.000
325.082;  -84.650; -568.000; -475.000
325.217;  -24.700;  -62.000;   16.000
325.353; -123.325; -764.000; -659.000
325.489; -101.975; -540.000; -506.000
325.625;  -81.675; -579.000; -525.000
325.760;   46.300;  517.000;  376.000
325.896;  -24.750; -515.000; -702.000
326.032;  -65.750; -403.000; -352.000
326.168;  -67.600; -462.000; -369.000
326.303;  -73.375; -352.000; -461.000
326.439;  -28.675; -336.000; -276.000
326.575;  -18.175; -190.000;  -29.000
326.710;  -10.350; -156.000;  -30.000
326.846;  -24.350;  146.000;  103.000
326.982; -105.125; -530.000; -548.000
327.117;  -73.325; -481.000; -442.000
327.253; -106.075; -745.000; -742.000
327.388; -178.550;-1137.000;-1153.000
327.524;  -70.675; -811.000; -578.000
327.659;  -40.450;  -58.000;  -22.000
327.795;  -26.775;   69.000;   45.000
327.931;  -97.975; -723.000; -499.000
328.066;  -42.900; -417.000; -276.000
328.202;  -32.725;   12.000; -129.000
328.337;  100.200;  957.000;  713.000
328.473;   31.525;  -12.000;  -74.000
328.608;  -33.625; -256.000; -267.000
328.743;  -94.225; -799.000; -664.000
328.879;    1.425;  214.000;  114.000
329.014;  -50.725; -102.000; -122.000
329.150;  -94.100; -358.000; -483.000
329.285;  -93.125; -465.000; -466.000
329.421;  -53.025; -548.000; -246.000
329.556;  -25.575;  -36.000;   85.000
329.691; -110.775; -633.000; -615.000
329.827;  -89.975; -626.000; -480.000
329.962;  -45.650;  131.000; -301.000
330.097;  -93.375; -673.000; -585.000
330.233;  -52.275; -410.000; -223.000
330.368; -152.075; -839.000; -628.000
330.503;  -29.250;    3.000;   98.000
330.638;  -23.225;  -93.000; -125.000
330.774;  -75.975; -609.000; -530.000
330.909;  -47.350; -434.000; -244.000
331.044; -106.600; -714.000; -708.000
331.179; -176.100;-1217.000;-1109.000
331.315;    8.425;   77.000;   20.000
331.450;   15.775;  157.000;  285.000
331.585;  -98.850; -805.000; -706.000
331.720;  -98.425; -510.000; -460.000
331.855;  -11.950;  -35.000; -102.000
331.990;  251.400;   62.000;  138.000
332.126;  122.625; -110.000;   71.000
332.261;  -30.350; -379.000; -265.000
332.396;  -10.650; -135.000; -242.000
332.531; -111.225;-1074.000;-1031.000
332.666;   22.250; -519.000; -363.000
332.801; -110.050; -726.000; -807.000
332.936;  -43.125; -192.000; -122.000
333.071; -138.850; -870.000; -817.000
333.206;   -8.400;  307.000;  379.000
333.341;   29.325;  344.000;  418.000
333.476;  -95.375; -627.000; -623.000
333.611;  -53.800; -251.000; -173.000
333.746;  -52.850; -381.000; -464.000
333.881; -127.250; -973.000; -935.000
334.016; -123.475; -936.000; -917.000
334.151; -141.025; -746.000; -702.000
334.286;   20.025;  152.000;  186.000
334.421;  -40.375; -125.000; -178.000
334.556;  -82.900; -611.000; -567.000
334.690;  -93.400; -631.000; -577.000
334.825;   44.775;  381.000;   83.000
334.960;  -81.150; -285.000; -413.000
335.095;    6.450;  135.000;  -91.000
335.230; -115.200; -722.000; -738.000
335.365; -149.150;-1084.000; -990.000
335.499; -144.850;-1108.000;-1037.000
335.634;    8.100;    9.000;  534.000
335.769; -101.850; -755.000; -720.000
335.904;  -83.600; -603.000; -561.000
336.038;  -73.450; -735.000; -657.000
336.173; -126.500;-1206.000;-1194.000
336.308;  -14.200; -116.000; -189.000
336.443;   12.675; -544.000; -634.000
336.577;  -74.600; -936.000; -787.000
336.712;   54.775;   -4.000;  -12.000
336.847;  -64.175; -724.000; -607.000
336.981;   37.375; -272.000; -208.000
337.116;  247.375;  615.000;  501.000
337.250;  123.475; -434.000; -421.000
337.385;  247.850; -297.000; -208.000
337.520;   86.975; -632.000; -603.000
337.654;  -43.025; -215.000; -126.000
337.789; -139.600; -989.000; -933.000
337.923;  -34.950; -104.000; -205.000
338.058;  -95.450; -673.000; -738.000
338.192;  -64.175; -611.000; -488.000
338.327;  -16.050;  -18.000; -155.000
338.461;  -80.200; -299.000; -469.000
338.596;  -93.150; -780.000; -638.000
338.730; -116.700; -767.000; -803.000
338.865;   89.700;  -46.000; -140.000
338.999;  -63.550; -846.000; -702.000
339.134;  -40.350; -634.000; -536.000
339.268;    2.200; -741.000; -603.000
339.403;  369.825; -740.000; -775.000
339.537;  113.000; -894.000; -820.000
339.671; -126.975; -829.000; -813.000
339.806;  -74.850; -556.000; -512.000
339.940;  -10.125; -261.000; -235.000
340.074; -110.350; -685.000; -510.000
340.209;  -60.650; -351.000; -230.000
340.343; -102.625; -517.000; -573.000
340.477;  140.450;  998.000; 1036.000
340.612;  -60.000;-1033.000; -900.000
340.746;  142.950; -199.000; -243.000
340.880;  -87.675; -924.000; -785.000
341.014;  -19.125;  -45.000; -154.000
341.149; -126.775; -756.000; -718.000
341.283; -120.050; -839.000; -754.000
341.417; -118.200;-1124.000; -938.000
341.551;   87.325; -768.000; -708.000
341.685;  -49.400; -633.000; -611.000
341.820;  -68.350; -562.000; -493.000
341.954;  -57.450; -218.000; -349.000
342.088; -153.300;-1102.000;-1019.000
342.222;   45.700;  565.000;  618.000
342.356;  -71.725; -395.000; -335.000
342.490; -117.000; -880.000; -841.000
342.624;  -51.325; -339.000; -242.000
342.758;  -17.275; -364.000; -312.000
342.892;  -85.425; -710.000; -585.000
343.026;  -42.575;  -58.000; -116.000
343.160;  -65.800; -426.000; -376.000
343.294;  -95.800; -474.000; -337.000
343.428;  -42.800; -488.000; -448.000
343.562;  -21.100; -172.000;  -23.000
343.696;  -38.625; -385.000; -314.000
343.830;  -37.225; -362.000; -356.000
343.964;   -6.525; -231.000; -168.000
344.098;  762.775;  199.000;   70.000
344.232;  635.575; -266.000; -127.000
344.366;   68.075; -567.000; -453.000
344.500;   10.150; -665.000; -744.000
344.634;   -7.700; -324.000; -164.000
344.768;  -39.100; -531.000; -341.000
344.902;    8.025;  278.000;  256.000
345.035;  -87.100; -556.000; -496.000
345.169; -146.900; -933.000; -656.000
345.303;  -76.375; -308.000; -482.000
345.437;  -85.850; -826.000; -717.000
345.571;  -66.875; -675.000; -594.000
345.704;  -85.800; -309.000; -532.000
345.838;  -29.825; -331.000; -284.000
345.972;  -44.850; -543.000; -495.000
346.106;  148.925; -179.000; -190.000
346.239;  389.975; -312.000; -243.000
346.373;   -5.325; -343.000; -302.000
346.507; -151.800; -950.000; -962.000
346.640;  112.675;  -30.000;   13.000
346.774;  -60.775; -650.000; -797.000
346.908;  -34.875; -138.000;  -11.000
347.041; -106.700; -646.000; -593.000
347.175;   -6.200;  259.000;   27.000
347.309;  -84.150; -698.000; -628.000
347.442; -117.725; -883.000; -732.000
347.576;  241.275;  670.000;  668.000
347.709;  159.775; -123.000;  -52.000
347.843; -111.425; -933.000; -825.000
347.976;   30.000;  235.000;  294.000
348.110; -190.750;-1268.000;-1186.000
348.243; -119.750; -679.000; -772.000
348.377;  -10.800;  -26.000;   60.000
348.510;   46.925;  403.000;  540.000
348.644;  -55.375;  -37.000; -159.000
348.777;   -6.125;  180.000;  191.000
348.911;  -48.175; -142.000; -112.000
349.044;  142.925;  471.000;  448.000
349.178;   90.400;-1069.000;-1006.000
349.311;   84.275;  141.000;  255.000
349.444;  -13.525; -927.000; -813.000
349.578;  -38.050; -347.000; -200.000
349.711; -113.550; -959.000; -862.000
349.845;   -8.625; -661.000; -591.000
349.978; -158.775;-1224.000;-1137.000
350.111; -102.475; -546.000; -612.000
350.244; -101.825; -596.000; -700.000
350.378;  -20.125; -392.000; -393.000
350.511;  -78.975; -393.000; -426.000
350.644; -116.175; -808.000; -806.000
350.778;    1.050;  168.000;  104.000
350.911;    1.475;  134.000;  140.000
351.044; -112.375; -685.000; -615.000
351.177;  -52.775; -321.000; -281.000
351.310;  -16.400;    3.000; -131.000
351.444;  -93.525; -888.000; -788.000
351.577;   74.325;  140.000;   90.000
351.710;   87.525;  593.000;  417.000
351.843;  -38.150; -165.000;  -77.000
351.976;  -19.050;  149.000;  -79.000
352.109; -100.875; -621.000; -612.000
352.242;  -50.500; -464.000; -419.000
352.376;  -81.050; -580.000; -636.000
352.509;  124.550; -437.000; -356.000
352.642;  -21.975; -654.000; -604.000
352.775;   42.450; -141.000;  -98.000
352.908; -125.775; -933.000; -904.000
353.041; -118.625; -814.000; -824.000
353.174;  -73.350; -551.000; -424.000
353.307;  -99.500; -753.000; -764.000
353.440;   60.300;  541.000;  453.000
353.573; -110.450; -957.000;-1008.000
353.706;  -70.475; -384.000; -558.000
353.839;  -38.950; -264.000; -220.000
353.971; -107.600; -657.000; -512.000
354.104; -100.225; -896.000; -835.000
354.237;  -48.575; -627.000; -662.000
354.370; -102.450; -846.000; -879.000
354.503; -200.500;-1231.000;-1308.000
354.636;  -44.375; -529.000; -348.000
354.769; -143.125; -937.000; -860.000
354.902;  -17.425; -230.000; -139.000
355.034;  -25.750; -164.000; -220.000
355.167;  -38.200; -262.000; -162.000
355.300;  -99.100;-1061.000; -880.000
355.433;  995.925;  -71.000;  -14.000
355.565; 1530.975; -402.000; -384.000
355.698;  381.850; -356.000; -296.000
355.831;  -18.575; -882.000; -801.000
355.964;   45.250; -285.000; -170.000
356.096;  -92.000; -856.000; -843.000
356.229;   -6.125; -523.000; -530.000
356.362;  303.425; -373.000; -266.000
356.494;  630.150; -229.000; -162.000
356.627;  411.675;  269.000;  377.000
356.760;  667.650;  120.000;   53.000
356.892;  981.600; -286.000; -601.000
357.025;  553.650;  403.000;  389.000
357.157;  499.475; -167.000; -179.000
357.290;  714.550; -856.000; -713.000
357.423;  197.875; -667.000; -556.000
357.555;   90.050; -217.000; -228.000
357.688;  115.725; -483.000; -364.000
357.820;  368.925; -870.000; -877.000
357.953; 3310.525; -563.000; -589.000
358.085;  685.525; -632.000; -612.000
358.218;  879.775;-1131.000; -932.000
358.350;  153.075;  -58.000;  312.000
358.483; -134.925;-1300.000;-1187.000
358.615;  -49.400;-1182.000;-1078.000
358.747;  -93.500;-1187.000;-1058.000
358.880;  -12.425; -810.000; -744.000
359.012;  -23.300; -376.000; -202.000
359.145;  -52.350; -480.000; -511.000
359.277;   26.625; -962.000; -913.000
359.409; 2722.950;  536.000;  231.000
359.542;  678.050; -738.000; -688.000
359.674;   55.675;   46.000;   13.000
359.806;  -62.050; -565.000; -438.000
359.939;  -50.425; -617.000; -516.000
360.071;   -4.175; -583.000; -579.000
360.203;  -40.500; -411.000; -364.000
360.335;   35.375;  164.000;  -16.000
360.468;  173.925; -249.000; -307.000
360.600; 2211.975; -547.000; -454.000
360.732; 2912.400; -546.000; -423.000
360.864;  370.675;-1216.000;-1044.000
360.996;  204.450; -516.000; -554.000
361.129;   10.350; -389.000; -598.000
361.261;   10.750;  110.000; -113.000
361.393;  -43.700; -252.000; -214.000
361.525;   14.625;   94.000;  244.000
361.657;  -60.725; -821.000; -703.000
361.789;   -5.950; -139.000; -155.000
361.921;  159.250; -642.000; -593.000
362.053;  209.300;  524.000;  541.000
362.185;   31.100;  288.000;   72.000
362.318;  -93.250; -709.000; -705.000
362.450;   93.100;  294.000;  444.000
362.582;   32.500; -913.000; -870.000
362.714;  -66.300; -353.000; -332.000
362.846;  -98.975; -606.000; -490.000
362.978; -155.650; -941.000; -811.000
363.109;   21.050; -161.000; -260.000
363.241;  356.650; -739.000; -749.000
363.373;  421.400; -649.000; -564.000
363.505;  677.375; -186.000;  -91.000
363.637;  130.725; -787.000; -601.000
363.769; -140.350;-1067.000;-1080.000
363.901;  -76.725; -596.000; -654.000
364.033; -147.550;-1103.000;-1062.000
364.165;  -21.075; -283.000; -283.000
364.296;   49.350; -316.000; -177.000
364.428;   71.475;-1344.000;-1220.000
364.560;  -76.225; -679.000; -661.000
364.692;  -72.000; -738.000; -835.000
364.824;  190.225; -588.000; -456.000
364.955;  424.075; -402.000; -564.000
365.087;  994.800;-1097.000; -852.000
365.219;   30.000; -686.000; -816.000
365.351;  -79.100; -526.000; -572.000
365.482;   25.700;  300.000;  240.000
365.614;  -61.450; -402.000; -314.000
365.746; -116.375; -729.000; -752.000
365.877; -103.750; -706.000; -672.000
366.009;  277.350;  -35.000;  -62.000
366.141;  -89.625;-1249.000;-1134.000
366.272; -126.950; -803.000; -719.000
366.404; -123.875;-1005.000; -874.000
366.535;  -23.625; -139.000;  -12.000
366.667; -110.000; -644.000; -649.000
366.799;   41.850;  353.000;  203.000
366.930; -133.675; -862.000; -996.000
367.062;  117.675; -639.000; -613.000
367.193;  137.575; -872.000; -842.000
367.325;  -77.975; -580.000; -684.000
367.456;   14.700; -246.000;   31.000
367.588;  149.600; -371.000; -318.000
367.719;   18.850;  -44.000;  -45.000
367.851;  -38.000; -222.000; -241.000
367.982;  -71.750; -875.000; -732.000
368.113;   59.675; -475.000; -358.000
368.245; -147.475; -960.000; -841.000
368.376;  -28.350; -254.000; -302.000
368.508;  -42.600; -188.000; -263.000
368.639; -148.425;-1166.000;-1034.000
368.770;  -46.950; -670.000; -589.000
368.902;  -90.650; -836.000; -926.000
369.033; -112.050; -906.000; -855.000
369.164;  -58.800; -720.000; -653.000
369.296; -129.725; -452.000; -601.000
369.427;  -22.600; -209.000; -144.000
369.558;  -66.100; -593.000; -377.000
369.689;  -99.925; -721.000; -569.000
369.821; -137.850; -951.000; -845.000
369.952;  -31.875;   42.000; -108.000
370.083;  -60.175; -229.000; -108.000
370.214;  -86.350; -735.000; -650.000
370.345;  -14.975;   65.000;   81.000
370.477;  -95.225; -810.000; -790.000
370.608;  142.275; -328.000; -264.000
370.739;  -75.800;-1233.000;-1292.000
370.870;  -74.400;-1102.000; -923.000
371.001;   52.925; -378.000; -467.000
371.132;  -98.375; -754.000; -735.000
371.263;  -25.150;  -42.000; -148.000
371.394; -134.175; -841.000; -748.000
371.525;    5.000;  345.000;  225.000
371.657; -110.000; -808.000; -670.000
371.788;   59.000;  103.000;  199.000
371.919;  123.925; -384.000; -304.000
372.050; 3180.050;  -91.000; -156.000
372.181;  914.075; -188.000; -294.000
372.311;  303.550;   42.000; -127.000
372.442;   15.550; -457.000; -451.000
372.573;  -32.300; -444.000; -340.000
372.704; -140.050;-1008.000; -980.000
372.835;   59.575; -228.000; -289.000
372.966;  -77.150; -646.000; -554.000
373.097;  -85.150; -575.000; -711.000
373.228;  -72.950; -717.000; -542.000
373.359;   90.150; -824.000; -536.000
373.490;  766.475; -881.000; -727.000
373.620;  962.375;-1001.000; -803.000
373.751; 1534.625; -332.000; -396.000
373.882;  645.700; -663.000; -733.000
374.013;   42.525; -449.000; -262.000
374.143;  -57.400; -581.000; -659.000
374.274; -115.350; -987.000; -908.000
374.405;  131.375; -388.000; -276.000
374.536;  361.850; -526.000; -387.000
374.666;  916.425; -759.000; -807.000
374.797;  156.375; -817.000; -868.000
374.928;  700.600; -710.000; -560.000
375.058;  726.275; -535.000; -500.000
375.189;   49.525;  -59.000;  -93.000
375.320; -131.000; -928.000;-1034.000
375.450;  -53.275; -625.000; -616.000
375.581;  -55.550; -526.000; -436.000
375.712;  -44.575; -574.000; -250.000
375.842;  224.500; -438.000; -415.000
375.973;  148.100; -554.000; -513.000
376.103;  -77.425; -665.000; -648.000
376.234;  -96.350; -531.000; -552.000
376.364;  -71.475; -944.000; -867.000
376.495;  265.325;  925.000;  529.000
376.625;  -36.475; -472.000; -485.000
376.756;   37.825; -709.000; -678.000
376.886; -112.350;-1178.000;-1026.000
377.017;   54.875;-1048.000;-1061.000
377.147;  360.000; -786.000; -782.000
377.278;   56.800;  174.000;  228.000
377.408; -144.050; -801.000; -815.000
377.538; -111.975; -707.000; -693.000
377.669;  -89.650; -537.000; -613.000
377.799; -108.400; -645.000; -635.000
377.929;  -83.450; -610.000; -428.000
378.060; -142.250; -781.000; -847.000
378.190;  -64.200; -726.000; -531.000
378.320;  -54.850; -401.000; -406.000
378.451;  -25.275; -131.000;  -22.000
378.581;  -19.225;  -67.000; -110.000
378.711;  127.025; 1035.000;  866.000
378.841;  -34.500; -533.000; -675.000
378.972;  -82.550; -871.000; -751.000
379.102;  -20.200; -652.000; -579.000
379.232;  -32.725; -126.000;  -73.000
379.362; -121.300;-1001.000; -885.000
379.492;  -26.275; -373.000; -424.000
379.623;   71.600;    0.000;  111.000
379.753; -116.075;-1107.000; -974.000
379.883;  146.600;   59.000;  156.000
380.013;  -41.725;-1081.000;-1017.000
380.143; -122.950;-1097.000;-1056.000
380.273; -126.225; -985.000; -861.000
380.403;  -14.625; -344.000; -257.000
380.533;  -46.700; -651.000; -664.000
380.663;   39.200;  173.000;  128.000
380.793; -125.125;-1027.000;-1074.000
380.923;  -34.750; -103.000;  -34.000
381.053; -116.350; -613.000; -623.000
381.183;  -39.750; -106.000; -248.000
381.313;  -12.525; -656.000; -470.000
381.443;    8.575; -692.000; -473.000
381.573;  125.925; -402.000; -409.000
381.703;  191.325;-1249.000;-1095.000
381.833; -152.525;-1454.000;-1336.000
381.963;   80.225; -134.000;  -87.000
382.093; 1219.075; -925.000; -909.000
382.223;  337.600; -713.000; -602.000
382.353;  -39.225; -801.000; -608.000
382.482;  270.975;-1091.000; -964.000
382.612;  625.575; -872.000; -644.000
382.742;  342.375; -695.000; -622.000
382.872;  198.025; -565.000; -551.000
383.002;   46.175;  347.000; -132.000
383.131;  -34.875; -226.000; -160.000
383.261;  -56.700; -706.000; -768.000
383.391;  265.450; -552.000; -377.000
383.521; 3372.025;  451.000;  263.000
383.650;  786.300; -947.000; -904.000
383.780;  -34.950; -783.000; -656.000
383.910;   98.050;  880.000;  802.000
384.039;   -8.025; -794.000; -656.000
384.169;  133.225;-1205.000;-1017.000
384.299;  -51.925; -650.000; -662.000
384.428; -109.875; -764.000; -680.000
384.558;  -43.550; -308.000; -275.000
384.687;  -54.350; -414.000; -334.000
384.817;   -8.050;   75.000;   -2.000
384.947;   -1.300; -234.000; -141.000
385.076;  244.625;  982.000;  912.000
385.206;   73.400;  369.000;  480.000
385.335;  -65.950; -549.000; -417.000
385.465;  -89.475; -655.000; -663.000
385.594;  113.450;  -53.000;  -44.000
385.724;  319.550; -868.000; -838.000
385.853;   81.350; -296.000; -270.000
385.982; 1151.300; -743.000; -787.000
386.112; 1808.925;-1052.000; -871.000
386.241;   94.175; -307.000; -312.000
386.371;   10.800; -174.000;  -87.000
386.500;  -33.850; -825.000; -789.000
386.629;   13.550; -874.000; -817.000
386.759;   38.425;  -43.000;   68.000
386.888;  -25.375; -170.000; -250.000
387.017;  -98.675; -648.000; -620.000
387.147; -107.125; -771.000; -798.000
387.276;  -25.200; -410.000; -397.000
387.405;  -10.675; -398.000; -342.000
387.535;  -64.025; -452.000; -361.000
387.664;  -68.875; -692.000; -620.000
387.793;   45.950; -198.000; -113.000
387.922;  430.175;  255.000;  200.000
388.052;   -3.000; -576.000; -423.000
388.181;  -24.450; -342.000; -472.000
388.310;  -43.500; -889.000; -710.000
388.439;  -73.350; -749.000; -742.000
388.568;  148.550;  365.000;  244.000
388.697;  866.225; -756.000; -653.000
388.826;  138.500; -768.000; -666.000
388.956;   30.575; -285.000; -307.000
389.085;  -45.875; -347.000; -287.000
389.214; -129.100; -842.000; -872.000
389.343;  -67.475; -645.000; -413.000
389.472;  407.325;  126.000;  149.000
389.601;  501.425;   91.000;    0.000
389.730;  -18.825; -568.000; -687.000
389.859;   46.725;  226.000;   46.000
389.988;  163.450; -423.000; -408.000
390.117;   82.875; -168.000; -146.000
390.246;  -18.400; -331.000; -320.000
390.375;   54.500; -673.000; -626.000
390.504;  -83.375; -703.000; -621.000
390.633; -116.675; -672.000; -726.000
390.761;  -82.950; -732.000; -645.000
390.890;   -1.825;   -4.000; -130.000
391.019;  -46.800; -421.000; -441.000
391.148; -141.125; -826.000; -855.000
391.277;  -77.700; -576.000; -493.000
391.406; -103.950; -821.000; -805.000
391.534;   -0.275;  574.000; -301.000
391.663;  -87.900; -583.000; -645.000
391.792; -108.825; -673.000; -701.000
391.921;   62.550;   -3.000;   15.000
392.050;  127.650; -287.000; -228.000
392.178;  -84.150;-1206.000;-1061.000
392.307;   98.950; -758.000; -712.000
392.436;   22.675; -427.000; -641.000
392.564;    3.300;  166.000;   -6.000
392.693; -109.850; -860.000; -682.000
392.822;  150.925; -529.000; -534.000
392.950;   37.450; -880.000; -714.000
393.079;  253.875; -188.000; -328.000
393.208;  -10.650; -488.000; -511.000
393.336;  -23.200; -170.000; -145.000
393.465;  -56.825; -317.000; -199.000
393.593;   -9.000;   62.000;   79.000
393.722; -159.350;-1121.000; -916.000
393.850;  -43.875; -188.000;  -61.000
393.979; -163.975; -926.000; -805.000
394.107;  -74.025; -517.000; -537.000
394.236;  -37.400; -570.000; -507.000
394.364;  161.950;  383.000;  206.000
394.493;  228.900; -911.000; -767.000
394.621;  -41.925; -955.000; -916.000
394.750;  723.325; -873.000; -923.000
394.878; 3035.100; -247.000; -149.000
395.007; 4062.825; -721.000; -807.000
395.135;  278.850; -790.000; -721.000
395.263;  -97.675;-1038.000;-1040.000
395.392;  -15.500;  -25.000; -107.000
395.520; -146.100; -818.000; -679.000
395.648; -104.600; -865.000; -915.000
395.777;  -49.350; -366.000; -405.000
395.905;  -66.625; -449.000; -564.000
396.033;   -2.075;  217.000;  172.000
396.162;  378.350; -399.000; -453.000
396.290;  331.400;  -17.000;   -2.000
396.418;   43.050; -555.000; -514.000
396.546;  -82.550; -571.000; -466.000
396.674; -121.150; -850.000; -878.000
396.803;   -1.975;  -72.000;  -23.000
396.931;   64.625; -179.000; -199.000
397.059;   -9.575;-1026.000; -989.000
397.187; -132.825;-1026.000; -975.000
397.315; -150.425; -884.000; -649.000
397.443; -115.525; -592.000; -443.000
397.572; -109.725; -578.000; -424.000
397.700;  -33.850; -607.000; -614.000
397.828;   -9.450;  120.000;  -90.000
397.956;  -42.475; -508.000; -478.000
398.084;  -69.675; -767.000; -626.000
398.212;    0.075;  137.000;  124.000
398.340;  -18.550;  -56.000;  159.000
398.468;   -3.125; -390.000; -169.000
398.596; -152.900; -993.000; -953.000
398.724; -134.625; -762.000; -767.000
398.852; -180.375;-1024.000; -976.000
398.980;  -68.700; -560.000; -560.000
399.108;  -77.775; -982.000; -735.000
399.236;   10.125;   13.000;    8.000
399.363;   -6.400;  222.000;  196.000
399.491;  -94.850; -404.000; -398.000
399.619; -142.025; -829.000; -800.000
399.747; -119.375; -859.000; -771.000
399.875;   53.625;  220.000;  234.000
400.003;  -70.900; -359.000; -284.000
400.130;  -99.150; -421.000; -341.000
400.258;  -30.100;  -83.000;   38.000
400.386;  -73.800; -352.000; -168.000
400.514;  -61.275; -526.000; -587.000
400.641; -112.075; -928.000; -802.000
400.769; -158.450; -979.000; -888.000
400.897; -138.475; -838.000; -793.000
401.025;  -41.125; -166.000; -152.000
401.152;  -22.025;  220.000;   38.000
401.280; -101.300; -430.000; -429.000
401.408; -129.975; -712.000; -576.000
401.535; -111.175; -735.000; -758.000
401.663; -200.600;-1134.000;-1054.000
401.790;  -94.550; -514.000; -525.000
401.918;   37.050;  436.000;  405.000
402.046;  -39.150;  134.000;  122.000
402.173;  -33.550;  -18.000;    7.000
402.301;  -80.125; -519.000; -397.000
402.428;   25.350;  528.000;  383.000
402.556; -153.625;-1188.000; -913.000
402.683;  -48.625;  -20.000;   -1.000
402.811;  -38.125;  -37.000; -206.000
402.938;  -25.475;   20.000;   27.000
403.066;  138.775; -574.000; -558.000
403.193;  288.600;  299.000;  239.000
403.321;  204.175; -396.000; -574.000
403.448;  249.975;   83.000;   27.000
403.575;  121.900;  -90.000;  -46.000
403.703; -111.400; -732.000; -557.000
403.830;  -88.150; -531.000; -496.000
403.957; -146.425;-1117.000;-1023.000
404.085;   -3.325;  -61.000; -172.000
404.212;   68.550;  -50.000;   63.000
404.339;  297.900; -566.000; -306.000
404.467; 6072.150; -612.000; -524.000
404.594; 3749.625; -287.000; -227.000
404.721;  800.975; -869.000; -764.000
404.848;   51.900; -113.000; -202.000
404.976; -111.500; -856.000; -783.000
405.103;  -19.875;  -14.000;  -82.000
405.230;  -25.100;  190.000;  226.000
405.357;    5.525;  117.000;   44.000
405.484;  283.400;  -49.000;    5.000
405.612;   29.725; -548.000; -563.000
405.739;  -65.650; -488.000; -243.000
405.866;   66.350;  669.000;  385.000
405.993;  -61.575; -398.000; -102.000
406.120; -142.550; -801.000; -887.000
406.247;  -71.650; -323.000; -342.000
406.374;  357.250;  540.000;  629.000
406.501;   59.625; -632.000; -702.000
406.628;  -99.525; -621.000; -589.000
406.755; -115.025; -803.000; -620.000
406.882;  -50.025; -228.000; -277.000
407.009; -122.150; -719.000; -628.000
407.136;    3.575; -480.000; -401.000
407.263;   58.475; -939.000; -829.000
407.390;  -90.875; -692.000; -614.000
407.517; -192.875;-1139.000;-1187.000
407.644;  -74.800; -332.000; -256.000
407.771;  -81.075; -249.000; -287.000
407.898;  -15.450;  168.000;  328.000
408.025;  -85.100; -421.000; -313.000
408.151;  -15.775;   82.000;  153.000
408.278;  -82.025; -267.000; -216.000
408.405; -140.225; -931.000; -899.000
408.532;  -80.925; -549.000; -542.000
408.659; -128.900; -677.000; -648.000
408.785; -211.950;-1298.000;-1170.000
408.912;  -76.800; -412.000; -296.000
409.039; -130.900; -610.000; -686.000
409.166; -112.575; -591.000; -555.000
409.292; -123.225; -571.000; -534.000
409.419; -130.575; -665.000; -649.000
409.546;  -91.375; -431.000; -192.000
409.672; -117.550; -713.000; -545.000
409.799;  -27.575;  -36.000;   34.000
409.926;  -52.050; -180.000; -179.000
410.052; -186.650;-1127.000;-1091.000
410.179;  -63.475; -368.000; -392.000
410.305;  -91.450; -375.000; -493.000
410.432;  -57.925; -220.000; -333.000
410.558;  -94.850; -305.000; -380.000
410.685; -116.275; -688.000; -431.000
410.812; -116.500; -409.000; -588.000
410.938; -142.300; -964.000; -808.000
411.065; -106.025; -671.000; -645.000
411.191;  -34.575; -189.000; -174.000
411.317; -128.000; -823.000; -742.000
411.444;  -75.025; -317.000; -246.000
411.570;  -85.225; -339.000; -294.000
411.697; -131.075; -758.000; -752.000
411.823; -173.900; -989.000; -999.000
411.949;  -53.325;  -56.000;   17.000
412.076; -122.175; -539.000; -519.000
412.202; -136.525; -758.000; -757.000
412.329; -145.900; -798.000; -752.000
412.455; -124.775; -821.000; -657.000
412.581;  -31.600;  -15.000;  172.000
412.707;  -79.875; -540.000; -457.000
412.834;    1.100;  156.000;  219.000
412.960;  -86.050; -785.000; -784.000
413.086; -112.250; -743.000; -701.000
413.212;  140.725;  604.000;  578.000
413.339;  -90.925; -685.000; -701.000
413.465;  -15.125; -364.000; -310.000
413.591; -103.125; -757.000; -474.000
413.717;  -71.850; -358.000; -366.000
413.843; -151.250; -839.000; -861.000
413.969;  -72.075;  -47.000; -292.000
414.096; -123.450; -679.000; -679.000
414.222;  -15.250;  -33.000;   85.000
414.348;  -49.800; -652.000; -385.000
414.474;   55.325;   38.000;  -52.000
414.600;  -32.475; -126.000; -144.000
414.726;  -22.000;  -96.000;  -55.000
414.852;  -71.250; -365.000; -342.000
414.978;   29.025;  104.000;  -18.000
415.104;   27.675;   38.000;   80.000
415.230;    2.050; -329.000; -330.000
415.356;   21.475; -409.000; -514.000
415.482;  184.175;   13.000;  -35.000
415.608;  273.275; -247.000; -323.000
415.734;  967.600;   67.000;   38.000
415.860;20377.775; -875.000; -767.000
415.986;14529.725; -685.000; -607.000
416.111; 1218.725; -798.000; -652.000
416.237;  234.925; -424.000; -571.000
416.363; 1181.800; -765.000; -733.000
416.489; 4318.875; -324.000; -251.000
416.615;  455.975; -707.000; -742.000
416.741;  -28.550; -677.000; -784.000
416.866; -106.450; -673.000; -736.000
416.992; -124.150; -801.000; -818.000
417.118;  -54.625;  -41.000;  -80.000
417.244;  -82.375; -798.000; -531.000
417.369;  -81.775; -801.000; -612.000
417.495;  -21.300; -325.000; -254.000
417.621; -104.875;-1015.000; -803.000
417.746;    1.850; -579.000; -572.000
417.872;   33.875; -254.000; -144.000
417.998;   42.400; -515.000; -530.000
418.123; 1102.150;-1073.000; -845.000
418.249; 5540.600; -512.000; -601.000
418.374;  772.625; -916.000; -824.000
418.500;   98.525; -383.000; -482.000
418.626;  104.750;   70.000;  -59.000
418.751;   97.100; -549.000; -448.000
418.877;  167.575; -637.000; -643.000
419.002; 1890.550; -688.000; -560.000
419.128;13052.875; -930.000; -721.000
419.253; 3097.100; -967.000; -837.000
419.379;  405.950; -391.000; -338.000
419.504;  399.250;  325.000;  415.000
419.629;  529.925; -393.000; -212.000
419.755; 3795.075; -317.000; -254.000
419.880;22151.425;  -98.000;   67.000
420.006;11865.725; -280.000; -221.000
420.131;30252.675; -662.000; -775.000
420.256; 4266.425; -315.000; -316.000
420.382;  563.000; -665.000; -687.000
420.507;   51.175; -649.000; -778.000
420.632;   87.125; -337.000; -339.000
420.758;  188.825; -251.000; -425.000
420.883;  -95.950; -876.000; -672.000
421.008; -121.075; -775.000; -619.000
421.133;  -87.275; -509.000; -467.000
421.259;  -52.525; -325.000; -259.000
421.384; -130.800; -834.000; -693.000
421.509;  -76.125;-1052.000; -862.000
421.634;  901.150; -936.000; -820.000
421.759;  367.350; -359.000; -327.000
421.885;  -81.425; -717.000; -656.000
422.010;  -89.675; -673.000; -542.000
422.135; -152.000; -695.000; -727.000
422.260;   21.725;  340.000;  280.000
422.385;  -47.425;   12.000;  -98.000
422.510;    4.925;  151.000;  -26.000
422.635;   10.975;  -87.000;  -43.000
422.760;   63.950; -766.000; -791.000
422.885;   40.800;  -57.000;  -80.000
423.010;  -31.100; -112.000; -169.000
423.135; -106.825; -481.000; -561.000
423.260;  -32.050; -150.000; -245.000
423.385;   46.400;  476.000;  222.000
423.510;   14.625;   71.000;  -22.000
423.635;   52.175;  133.000;   45.000
423.760;   41.600;  383.000;  328.000
423.885;   48.600;  336.000;  391.000
424.010;   -9.375;  -68.000;  -13.000
424.135;  -24.825;    5.000;  -33.000
424.259;  -82.250; -654.000; -457.000
424.384;  -65.175; -279.000; -272.000
424.509;  -48.300; -260.000; -186.000
424.634; -118.400; -761.000; -623.000
424.759;  -28.175; -688.000; -544.000
424.883;  -34.000; -506.000; -527.000
425.008;  166.850; -502.000; -410.000
425.133; 2067.200; -679.000; -653.000
425.258;  923.525; -517.000; -381.000
425.382;  907.400; -867.000; -774.000
425.507; 2303.725; -487.000; -543.000
425.632;  388.025; -802.000; -663.000
425.756;  442.675; -256.000; -146.000
425.881; 7034.225; -831.000; -857.000
426.006;18795.600; -604.000; -355.000
426.130; 2812.200; -696.000; -508.000
426.255;  356.100; -611.000; -491.000
426.379;  156.925; -189.000; -577.000
426.504;  363.900;  660.000;  544.000
426.629; 4142.975; -519.000; -466.000
426.753; 2767.150;   64.000;  -46.000
426.878;  306.325; -252.000; -288.000
427.002;  171.850; -651.000; -668.000
427.127; 1659.850;  -35.000; -158.000
427.251;11813.575;  372.000;  401.000
427.375; 3287.100; -191.000; -173.000
427.500; 2030.050; -616.000; -610.000
427.624;  664.600; -234.000; -400.000
427.749;   79.350; -216.000; -225.000
427.873;  -68.275; -499.000; -412.000
427.997;  -41.075; -222.000; -230.000
428.122;   65.450;  795.000;  703.000
428.246;   57.275;  433.000;  434.000
428.371; -142.350; -869.000; -773.000
428.495; -118.875; -624.000; -646.000
428.619;  -50.050; -186.000; -117.000
428.743;   14.775;   65.000;  132.000
428.868;  -25.425; -732.000; -643.000
428.992; 1219.875; -219.000; -326.000
429.116;  462.775; -329.000; -357.000
429.240;  209.700;  419.000;  426.000
429.365;  -52.525; -454.000; -574.000
429.489;  -72.225; -638.000; -647.000
429.613;    8.425; -236.000; -177.000
429.737;   27.375; -563.000; -432.000
429.861;  258.150; -247.000; -133.000
429.985; 5782.500; -425.000; -305.000
430.109; 6224.000; -770.000; -908.000
430.234;  703.950;   76.000;  -50.000
430.358;   69.125; -250.000; -160.000
430.482;  -82.250; -672.000; -564.000
430.606;  -83.275; -655.000; -375.000
430.730;  -15.325; -437.000; -388.000
430.854;   49.900; -909.000; -835.000
430.978;  -88.100; -795.000; -764.000
431.102; -100.875; -499.000; -422.000
431.226; -130.875; -874.000; -815.000
431.350;   18.875;  345.000;  422.000
431.474;  -77.275; -661.000; -373.000
431.597; -167.900;-1060.000; -848.000
431.721;  -91.975; -276.000; -267.000
431.845; -133.300; -704.000; -472.000
431.969;  -86.025; -304.000; -349.000
432.093;  -99.000; -395.000; -317.000
432.217;  -32.700;   32.000;   82.000
432.341; -109.425; -523.000; -518.000
432.464;   -7.550;   96.000;   40.000
432.588;  123.725; -401.000; -329.000
432.712;   77.075;  -52.000;  -52.000
432.836;   36.175;  213.000;  263.000
432.959;  -21.600; -372.000; -311.000
433.083;   84.925;   11.000;    2.000
433.207;  365.900;  285.000;  930.000
433.330; 5305.325; -391.000; -200.000
433.454; 6445.600; -654.000; -638.000
433.578; 3682.300;  583.000;  278.000
433.701;  667.875; -623.000; -675.000
433.825;  117.850; -292.000; -299.000
433.949;  128.725;   28.000;  -72.000
434.072;   12.225; -410.000; -323.000
434.196;  -31.600; -309.000; -117.000
434.319; 3724.925;25482.000;25124.000
434.443;  717.200; -656.000; -603.000
434.566; 2765.575;  281.000;   62.000
434.690;  425.075; -637.000; -383.000
434.813;   44.225; -251.000; -173.000
434.937;  -82.200; -569.000; -696.000
435.060;  -51.300; -423.000; -332.000
435.184;  213.400; -492.000; -217.000
435.307;  100.175;  159.000;  102.000
435.431;  -27.700;  -40.000;   24.000
435.554;  -69.775; -399.000; -240.000
435.677; -108.475; -350.000; -258.000
435.801;  -61.000;  -25.000;   49.000
435.924;  -35.625;    1.000;  -67.000
436.048; -131.475;-1019.000; -732.000
436.171;  -77.725; -240.000;  -66.000
436.294;  -24.200; -248.000; -229.000
436.417;   86.400; -963.000; -849.000
436.541; -105.250; -814.000; -840.000
436.664;  -59.425; -242.000; -316.000
436.787;  -34.450;   13.000;  113.000
436.910; -127.800; -792.000; -422.000
437.034;  -20.300;  142.000;  143.000
437.157;   20.525;  -11.000;    0.000
437.280;  -68.525; -392.000; -292.000
437.403; -111.550; -982.000; -869.000
437.526;  446.675; -903.000; -865.000
437.649; 1766.925; -505.000; -332.000
437.772;  226.225; -692.000; -540.000
437.896;   96.425;  700.000;  544.000
438.019; -115.775; -758.000; -503.000
438.142; -110.800; -596.000; -506.000
438.265;  -54.825; -639.000; -670.000
438.388;  412.100; -520.000; -410.000
438.511;   30.050; -597.000; -394.000
438.634;  -76.650; -247.000; -125.000
438.757; -138.850; -693.000; -619.000
438.880;  -26.225;  -34.000;  -57.000
439.003;  -99.875; -417.000; -437.000
439.126;  -79.725; -287.000; -167.000
439.248;  -67.625;  -98.000; -139.000
439.371;  -55.375;    9.000;  -53.000
439.494;    6.500;  510.000;  439.000
439.617;  -68.000;   65.000;  -88.000
439.740; -184.125; -968.000; -816.000
439.863; -153.175; -755.000; -595.000
439.986; -131.575; -476.000; -431.000
440.108;  -53.050; -161.000; -112.000
440.231; -182.400; -950.000; -836.000
440.354;  -58.400;  -64.000; -150.000
440.477;  -20.775; -566.000; -542.000
440.599;  -31.200; -200.000; -225.000
440.722; -132.450; -709.000; -586.000
440.845;   61.025;  751.000;  928.000
440.968; -117.100; -415.000; -311.000
441.090;  -74.375; -199.000;  -33.000
441.213; -190.500;-1021.000; -825.000
441.336;  -65.675; -159.000;   -5.000
441.458; -100.600; -549.000; -396.000
441.581; -109.325; -628.000; -629.000
441.703;  -86.675; -152.000;   13.000
441.826; -119.775; -557.000; -400.000
441.948;  -54.900;   56.000;   51.000
442.071;   13.800;  555.000;  424.000
442.193; -131.525; -531.000; -485.000
442.316;   11.325;  152.000;   97.000
442.438;   37.650; -233.000;  -10.000
442.561;   55.925;  272.000;  262.000
442.683;  395.325; -809.000; -522.000
442.806;  905.625;   -8.000;   74.000
442.928;  -30.075; -859.000; -604.000
443.051;  -88.675; -577.000; -373.000
443.173;  -93.825; -341.000; -339.000
443.295; -105.100; -263.000; -371.000
443.418;  -84.850; -321.000;  -29.000
443.540;  -25.150; -106.000;   -4.000
443.662; -133.000; -563.000; -465.000
443.785;  -38.125;  335.000;  199.000
443.907; -109.375; -362.000; -208.000
444.029; -146.875; -767.000; -494.000
444.152; -163.025; -644.000; -554.000
444.274;  -29.725;  -18.000;  -24.000
444.396; -119.750; -461.000; -221.000
444.518; -137.125; -691.000; -454.000
444.640; -122.525; -268.000; -111.000
444.763;  -23.725;  388.000;  249.000
444.885; -138.600; -432.000; -392.000
445.007;  -50.075;   35.000;   86.000
445.129; -114.400; -610.000; -515.000
445.251; -109.250; -372.000; -439.000
445.373; -142.300; -537.000; -386.000
445.495;   -8.275;  242.000;  350.000
445.617;   39.000;  853.000;  753.000
445.739;  -78.300; -215.000;  -97.000
445.861;  -54.050; -245.000; -112.000
445.984;  -55.975; -267.000; -101.000
446.105;  127.225; -418.000; -251.000
446.227;  456.775; -176.000;  -19.000
446.349;  -27.100; -358.000; -249.000
446.471; -128.125; -615.000; -448.000
446.593;  -70.775; -316.000;   19.000
446.715;  -29.825;  -67.000;   41.000
446.837;   57.150;  697.000;  832.000
446.959;  -99.900; -457.000; -478.000
447.081; -140.525; -628.000; -518.000
447.203;   44.300;  862.000;  834.000
447.325; -111.000; -270.000;   42.000
447.446;  -16.575;  286.000;  530.000
447.568; -161.025; -921.000; -803.000
447.690;  -94.150; -236.000; -245.000
447.812; -162.675; -798.000; -519.000
447.933;  -42.150;  155.000;  127.000
448.055;  -88.625; -306.000; -261.000
448.177;  111.125;   31.000;   79.000
448.299;   10.800; -935.000; -727.000
448.420;    1.250;  -25.000;  159.000
448.542;  -62.175;   -3.000;   33.000
448.664;  -10.425;  109.000;  322.000
448.785;  -44.425;  265.000;   83.000
448.907;  -89.475; -614.000; -353.000
449.028;  -63.375; -771.000; -471.000
449.150;   41.450;  492.000;  589.000
449.272; -196.250;-1044.000; -913.000
449.393;   31.025;  612.000;  694.000
449.515; -152.175; -634.000; -581.000
449.636;  -79.675; -264.000; -155.000
449.758;   57.250;  763.000;  622.000
449.879; -108.100; -498.000; -396.000
450.001;  -87.800; -149.000;  -49.000
450.122;  -50.100;  -95.000;  162.000
450.244;  -20.475;   37.000;  364.000
450.365;  -88.000; -495.000; -301.000
450.486;  -37.100;   80.000;  268.000
450.608;  -18.225;  393.000;  326.000
450.729;   71.725;  578.000;  645.000
450.850;  -11.350; -574.000; -466.000
450.972;  785.050; -552.000; -389.000
451.093; 5220.275;  190.000;  588.000
451.214; 2164.400; -516.000; -337.000
451.336;  393.575;  773.000;  579.000
451.457;   46.375;  264.000;  393.000
451.578;  -49.350; -118.000;  -74.000
451.699; -120.800; -546.000; -540.000
451.821;  -63.275; -284.000;  -50.000
451.942;  -15.425;  278.000;  285.000
452.063;   26.700;  228.000;  419.000
452.184;  591.925;  -54.000;  -49.000
452.305; 1122.025;  103.000;  170.000
452.427;  131.025; -549.000; -301.000
452.548;  -23.775;   23.000;   79.000
452.669;  -68.675; -257.000;  -89.000
452.790;  -64.250;    3.000;  -18.000
452.911;   -1.775;  195.000;  259.000
453.032;  -83.850; -289.000;  -60.000
453.153;  -66.550;  -29.000;   81.000
453.274;   49.800;  737.000;  868.000
453.395;  -51.775;  -51.000;  175.000
453.516;  102.450; 1317.000; 1388.000
453.637;  -75.025; -205.000; -150.000
453.758;  -63.150;   15.000;   69.000
453.879; -120.200; -462.000; -250.000
454.000;   68.875; 1086.000;  948.000
454.121; -141.700; -554.000; -326.000
454.242; -134.600; -599.000; -383.000
454.362;  -65.275;  -99.000;  114.000
454.483;  -59.300; -309.000; -229.000
454.604;   43.675;  512.000;  580.000
454.725; -129.550; -627.000; -555.000
454.846; -134.850; -474.000; -406.000
454.967;  -34.700;  230.000;  539.000
455.087;  -57.725;  179.000;  153.000
455.208;    6.400;  554.000;  856.000
455.329;  -66.950;  -22.000;   82.000
455.450;   29.125;  473.000;  633.000
455.570;  -75.600; -234.000; -211.000
455.691;  -42.175;  201.000;  407.000
455.812; -114.650; -270.000;  -92.000
455.932;  -62.725;  107.000;  -97.000
456.053;  -90.775;   36.000;   24.000
456.173; -123.950; -433.000; -355.000
456.294; -138.525; -476.000; -303.000
456.415;  -80.075;  -73.000;   70.000
456.535;  -36.500;  297.000;  273.000
456.656;  -61.350;  132.000;  240.000
456.776;  -73.700;    3.000;  298.000
456.897;   -3.600;  308.000;  513.000
457.017;  -99.250; -153.000;   -3.000
457.138; -124.900; -402.000; -249.000
457.258;  -40.225;  263.000;  224.000
457.379;  -14.525;  509.000;  521.000
457.499;  -28.150;  443.000;  432.000
457.620; -123.425; -407.000; -231.000
457.740; -114.075; -132.000;  -11.000
457.860;  -60.850;   87.000;   44.000
457.981;  -43.850;  132.000;  124.000
458.101;  -88.500;  -89.000;   40.000
458.221;  -23.700;  336.000;  402.000
458.342;  -60.875;   -4.000;  -37.000
458.462;    9.075;  617.000;  352.000
458.582;  -40.025; -302.000; -294.000
458.703;   25.200;  303.000;  154.000
458.823;  -39.700;   22.000;  163.000
458.943;   26.300;  341.000;  467.000
459.063;  -29.450; 1124.000;  192.000
459.183;  -25.650;  328.000;  313.000
459.304;  -10.925;  315.000;  517.000
459.424;  -80.225; -246.000;  -89.000
459.544;  331.800;  388.000;  764.000
459.664;  847.750;  499.000;  506.000
459.784;  311.950; 1004.000; 1175.000
459.904;   49.775;  867.000;  744.000
460.024;   63.775;  867.000;  684.000
460.144;   -4.450;  449.000;  554.000
460.264;  -22.600;  515.000;  327.000
460.385;  -88.550; -145.000; -119.000
460.505;   39.350;  905.000;  858.000
460.625; -107.425;  -17.000;  -68.000
460.745;  -18.125;  396.000;  541.000
460.864;  -55.150;  153.000;  469.000
460.984;    6.575;  499.000;  573.000
461.104;  130.025; 1656.000; 1775.000
461.224;   32.225;  657.000;  650.000
461.344;  -30.675;  431.000;  360.000
461.464;  -38.075;  258.000;  513.000
461.584;  -38.125;  283.000;  466.000
461.704;  -77.400;   58.000;  108.000
461.824;  -65.150;  238.000;  259.000
461.943;  -57.375;  191.000;  130.000
462.063;  -88.225;    2.000;  324.000
462.183;    9.750;  639.000;  717.000
462.303;  101.325; 1678.000; 1230.000
462.422;   18.575;  781.000;  840.000
462.542;  -38.675;  271.000;  391.000
462.662;   37.725;  353.000;  380.000
462.782;  230.750;  833.000;  572.000
462.901;  487.875;  545.000;  717.000
463.021;  264.775; 1702.000; 1638.000
463.141;  -16.750;  337.000;  770.000
463.260;  -17.425;  614.000;  474.000
463.380;   13.625;  902.000;  884.000
463.499;  -53.450;  342.000;  332.000
463.619;  -50.500;  581.000;  559.000
463.738;  105.250; 1644.000;  903.000
463.858;   10.075;  657.000;  811.000
463.978;  -40.900;  542.000;  396.000
464.097;   36.000;  921.000; 1114.000
464.217;  121.150; 1196.000; 1143.000
464.336;  108.925; 1068.000; 1130.000
464.455;  -48.925;  328.000;  659.000
464.575;   17.450;  597.000;  602.000
464.694;  136.575; 1204.000; 1179.000
464.814;  120.000; 1190.000; 1138.000
464.933;   69.400; 1095.000; 1027.000
465.052;   85.350; 1412.000; 1054.000
465.172;   58.525;  922.000;  799.000
465.291;  122.700; 1376.000; 1320.000
465.410;    1.925;  462.000;  735.000
465.530;   79.200; 1355.000; 1310.000
465.649;   56.200; 1209.000; 1273.000
465.768;  125.750; 1673.000; 1508.000
465.888;   48.850;  941.000; 1174.000
466.007;   82.550; 1335.000; 1440.000
466.126;    5.900;  721.000;  641.000
466.245;   39.825; 1176.000; 1187.000
466.364;    0.875;  950.000; 1060.000
466.484;   36.325; 1024.000; 1213.000
466.603;   40.550; 1101.000; 1222.000
466.722;  119.500; 1490.000; 1769.000
466.841;   59.875; 1151.000; 1401.000
466.960;   39.725; 1069.000;  972.000
467.079;  126.475; 1971.000; 1786.000
467.198;   41.850; 1238.000; 1181.000
467.317;   70.300; 1768.000; 1162.000
467.436;   68.075; 1709.000; 1261.000
467.555;  123.450; 1796.000; 1746.000
467.674;   65.175; 1227.000; 1329.000
467.793;   38.325; 1376.000; 1374.000
467.912;   95.300; 1658.000; 1539.000
468.031;  126.025; 2038.000; 1930.000
468.150;  144.325; 1842.000; 1837.000
468.269;  186.950; 2313.000; 2090.000
468.388;  172.975; 2168.000; 2339.000
468.507;  268.400; 2884.000; 2903.000
468.626;  223.600; 2555.000; 2541.000
468.744;  122.000; 2018.000; 2174.000
468.863;  199.725; 2312.000; 2523.000
468.982;   82.025; 1503.000; 1555.000
469.101;  205.225; 2788.000; 2692.000
469.220;  140.475; 2333.000; 2176.000
469.338;  258.625; 2935.000; 3051.000
469.457;  184.950; 2719.000; 2545.000
469.576;  338.025; 3953.000; 3784.000
469.695;  232.625; 2877.000; 3066.000
469.813;  413.975; 4148.000; 4192.000
469.932;  408.725; 4255.000; 4485.000
470.051;  429.300; 4075.000; 4161.000
470.169;  876.350; 4470.000; 4338.000
470.288; 1505.775; 4700.000; 4809.000
470.406;  874.850; 5059.000; 5194.000
470.525;  611.100; 6101.000; 5787.000
470.644;  646.450; 6847.000; 6794.000
470.762;  824.300; 8397.000; 7873.000
470.881;  914.600; 8651.000; 8464.000
470.999; 1030.350; 9685.000; 9151.000
471.118; 1091.975;11174.000;10711.000

