
Integration time [ms]: 100.000
Averaging Nr. [scans]: 40
Smoothing Nr. [pixels]: 0
Data measured with spectrometer [name]: 2101012U2
Wave   ;Sample   ;Dark     ;Reference
[nm]   ;[counts] ;[counts] ;[counts] 

197.733;   55.975;  516.000;  404.000
197.879;  -91.600; -610.000; -634.000
198.025;  -54.950; -475.000; -420.000
198.171;  -64.600; -602.000; -612.000
198.317;  -25.325; -401.000; -316.000
198.463;  -65.350; -655.000; -404.000
198.609;   27.775;  181.000; -137.000
198.755;  -79.625; -644.000; -410.000
198.901;  -64.175; -505.000; -424.000
199.047;  -67.025; -615.000; -488.000
199.193;  -45.050; -230.000; -468.000
199.339;  -36.025; -222.000; -369.000
199.485;   34.850;  330.000;  271.000
199.631;   -3.375;  227.000;  310.000
199.777;  -54.725; -466.000; -398.000
199.923;  -71.975; -610.000; -424.000
200.069;   -9.925; -141.000;  -58.000
200.215;   48.825;  128.000;  453.000
200.361;   50.475;  243.000;  477.000
200.507;  -62.550; -600.000; -373.000
200.653;  -14.500; -371.000; -194.000
200.798;  -28.425; -215.000; -125.000
200.944;  -12.775; -146.000;  -41.000
201.090;   41.200;   61.000;  222.000
201.236;   -8.425; -116.000; -158.000
201.382;  124.975;  874.000;  903.000
201.528;    1.600;  -58.000;  -48.000
201.674;  -61.200; -386.000; -293.000
201.819;  -74.100; -540.000; -439.000
201.965;  -87.950; -699.000; -447.000
202.111;  -17.050; -273.000; -226.000
202.257;  -48.350; -250.000; -238.000
202.402;   16.150;   13.000;  -36.000
202.548;  -30.500; -169.000; -116.000
202.694;   81.150;  410.000; -183.000
202.840;  -74.825; -603.000; -531.000
202.985;  -69.125; -681.000; -639.000
203.131; -108.075; -832.000; -666.000
203.277;  -27.125; -199.000; -262.000
203.423;  -56.000; -434.000; -520.000
203.568;  -53.625; -462.000; -237.000
203.714;  -74.125; -535.000; -542.000
203.860;  -83.700; -682.000; -641.000
204.005;   21.700;  112.000;  167.000
204.151;   71.950;  561.000;  556.000
204.296;  -51.150; -354.000; -221.000
204.442;  -80.475; -600.000; -547.000
204.588;  -88.600; -592.000; -579.000
204.733;   16.575;  178.000;  168.000
204.879; -135.275;-1018.000; -822.000
205.025;    6.300;  -99.000;  126.000
205.170;   -3.800;  -17.000;   94.000
205.316;   84.975;  438.000;  661.000
205.461;  -90.850; -698.000; -554.000
205.607;   81.325;  609.000;  665.000
205.752;  -86.550; -626.000; -551.000
205.898;  -58.175; -501.000; -391.000
206.043;  -65.325; -578.000; -506.000
206.189;  -46.000; -243.000; -285.000
206.334;   68.125;  554.000;  606.000
206.480;   76.175;  409.000;  239.000
206.625;  -90.275; -529.000; -552.000
206.771;  -40.225; -451.000; -373.000
206.916;  -31.950; -210.000; -537.000
207.062;  -71.675; -545.000; -591.000
207.207;  -70.425; -546.000; -443.000
207.353;   47.750;  185.000;  460.000
207.498;   -3.900;  196.000;   85.000
207.643;  -53.850; -501.000; -370.000
207.789; -124.700;-1069.000; -910.000
207.934;  -97.800; -665.000; -713.000
208.080;  -18.300; -154.000;   66.000
208.225;   -8.725;  -22.000;  -57.000
208.370;  -85.175; -727.000; -619.000
208.516;  -72.275; -741.000; -487.000
208.661;  -42.550; -127.000;  -69.000
208.806;  -28.800; -165.000; -171.000
208.952; -126.175;-1044.000; -731.000
209.097;   57.350;  378.000;  349.000
209.242;  -54.800; -307.000; -382.000
209.387;   57.675;  392.000;  350.000
209.533;  -48.250; -321.000; -350.000
209.678;   82.325;  472.000;  543.000
209.823;  -63.125; -408.000; -310.000
209.969; -106.025; -860.000; -757.000
210.114; -118.275; -907.000; -719.000
210.259; -118.675; -939.000; -889.000
210.404;   -8.550; -171.000;  103.000
210.549;    4.725;  108.000;    3.000
210.695;  -19.475;   -3.000;  -95.000
210.840;   25.150;   94.000;   67.000
210.985;  -74.700; -484.000; -303.000
211.130;   65.375;  268.000;  406.000
211.275;    2.950;  207.000;  199.000
211.420;  -52.800; -300.000; -289.000
211.566;  -74.025; -536.000; -489.000
211.711;   32.100;  218.000;  157.000
211.856;  -72.575; -545.000; -519.000
212.001;   -1.100;  151.000;   44.000
212.146;   34.200;  153.000;   49.000
212.291;  -21.925; -210.000; -186.000
212.436;  -30.650; -280.000;   -6.000
212.581;  -90.975; -685.000; -653.000
212.726;  -83.500; -487.000; -538.000
212.871;  -64.300; -552.000; -217.000
213.016; -155.700;-1172.000;-1029.000
213.161;   68.250;  406.000;  291.000
213.306;  -76.050; -435.000; -577.000
213.451;  -89.275; -778.000; -689.000
213.596;  -45.225; -455.000; -347.000
213.741;  -59.775; -448.000; -538.000
213.886;  -81.400; -498.000; -517.000
214.031;  -24.575; -294.000; -124.000
214.176;  -51.175; -408.000; -341.000
214.321;  -18.075; -296.000; -157.000
214.466;  -21.400; -163.000;  -43.000
214.611;   -8.675;  -61.000;  -10.000
214.756; -130.850; -948.000; -858.000
214.901;  -39.975; -388.000; -226.000
215.046; -126.475; -797.000; -825.000
215.191;    3.600;  128.000;   35.000
215.336;  -25.700; -157.000;  -19.000
215.480;  -72.925; -684.000; -505.000
215.625;  -11.250; -175.000;  -19.000
215.770;  -80.800; -757.000; -662.000
215.915;  -11.925;   -5.000;  -97.000
216.060;   -4.725; -113.000;  -21.000
216.205; -121.325; -731.000; -779.000
216.349;  -64.825; -470.000; -533.000
216.494; -140.950; -939.000; -867.000
216.639; -120.450; -823.000; -888.000
216.784; -100.025; -577.000; -525.000
216.929;   48.650;  392.000;  281.000
217.073;  -14.275; -244.000;  -31.000
217.218;   15.275;   78.000;  -47.000
217.363;  -86.200; -656.000; -618.000
217.507;  -80.850; -623.000; -588.000
217.652; -126.525; -845.000; -874.000
217.797;  -86.125; -708.000; -659.000
217.942; -120.825; -856.000; -720.000
218.086;   54.900;  608.000;  539.000
218.231;  -22.500; -174.000;  -26.000
218.376;  -37.175; -337.000; -229.000
218.520;   14.075;  -41.000;   96.000
218.665;  -33.575; -338.000; -204.000
218.810;  -56.550; -275.000; -233.000
218.954;   18.125;  201.000;   35.000
219.099; -109.550; -713.000; -963.000
219.243;  -71.950; -589.000; -554.000
219.388;  -34.925; -264.000; -136.000
219.532;   -7.825; -116.000; -116.000
219.677;  -73.025; -564.000; -521.000
219.822;   -5.750;   33.000;   89.000
219.966;   16.550;   17.000;  -99.000
220.111;  -45.475; -328.000;  -40.000
220.255;  -96.325; -797.000; -750.000
220.400;  -17.575; -180.000; -146.000
220.544;  -65.150; -516.000; -450.000
220.689;  -53.650; -422.000; -451.000
220.833;  -29.000; -123.000;  -58.000
220.978;  -56.700; -393.000; -563.000
221.122;   20.025;  319.000;  307.000
221.267; -119.550; -906.000; -837.000
221.411;  -74.775; -478.000; -394.000
221.555;    0.325; -104.000;  -23.000
221.700;  -52.225; -329.000; -222.000
221.844;   28.400;  255.000;  272.000
221.989;  -47.375; -328.000; -311.000
222.133;  -34.275; -289.000; -307.000
222.277;   -3.575;    5.000;   78.000
222.422;    6.125;  227.000;  113.000
222.566;  -40.900; -381.000; -214.000
222.711;  -50.250; -414.000; -479.000
222.855;  -84.375; -643.000; -586.000
222.999;  -86.800; -642.000; -717.000
223.144;  -22.075; -195.000; -194.000
223.288;   47.675;  423.000;  251.000
223.432;   24.025;  184.000;  230.000
223.576;   16.050;  152.000;  -21.000
223.721;   37.025;  364.000;  273.000
223.865;  -69.550; -472.000; -475.000
224.009;  236.275; 1673.000; 1631.000
224.153;  -95.825; -660.000; -671.000
224.298;  -61.025; -531.000; -489.000
224.442;  -16.125;  -74.000;  -33.000
224.586;  -19.225; -169.000; -106.000
224.730; -108.825; -858.000; -670.000
224.875; -112.125; -739.000; -688.000
225.019;    9.250;  102.000;  188.000
225.163;   43.900;  208.000;  341.000
225.307;    0.725;   97.000;  -91.000
225.451;   51.575;  360.000;  481.000
225.595;   27.825;  264.000;  176.000
225.739;  -23.225; -170.000;  -94.000
225.884;   10.000;   86.000;    5.000
226.028; -107.800; -760.000; -626.000
226.172;  -49.175; -260.000; -273.000
226.316; -126.675; -941.000; -902.000
226.460;  -69.575; -645.000; -493.000
226.604;  -54.675; -406.000; -400.000
226.748; -105.600; -836.000; -733.000
226.892;  -38.350; -227.000; -181.000
227.036;  -60.800; -537.000; -447.000
227.180;  -48.075; -551.000; -375.000
227.324;  -67.825; -561.000; -580.000
227.468; -116.425; -819.000; -717.000
227.612;    6.075;  242.000;  -28.000
227.756; -106.300; -845.000; -698.000
227.900;   40.075;  342.000;  441.000
228.044;  -58.550; -509.000; -290.000
228.188;   35.950;  448.000;  568.000
228.332;  -92.625; -546.000; -472.000
228.476;  -31.175; -223.000; -149.000
228.620;  -30.625; -210.000; -150.000
228.764;   66.550;  431.000;  349.000
228.908;  -18.550; -155.000;   30.000
229.052;  -69.200; -615.000; -528.000
229.195;    3.125; -172.000;   13.000
229.339;  -36.375; -235.000; -305.000
229.483;  -24.325;    5.000; -162.000
229.627;  -13.850; -156.000;  139.000
229.771;  -46.950; -218.000; -294.000
229.915;   17.200;  230.000;   79.000
230.059;  -96.475; -648.000; -663.000
230.202;  -31.100; -370.000; -317.000
230.346;  -22.625; -107.000;  107.000
230.490;  -65.400; -489.000; -521.000
230.634; -107.175; -736.000; -553.000
230.777;   72.375;  478.000;  509.000
230.921;  -51.525; -450.000; -359.000
231.065;  -36.725; -246.000; -286.000
231.209;   21.075;  261.000;  265.000
231.352;   18.775;   54.000;   40.000
231.496;   24.050;  568.000;  188.000
231.640;  -79.800; -693.000; -621.000
231.783;   59.525;  546.000;  525.000
231.927;  -45.300; -294.000; -365.000
232.071; -133.175; -962.000; -736.000
232.214; -120.700; -980.000; -764.000
232.358; -110.775; -683.000; -599.000
232.502;   -0.450;  -19.000;    7.000
232.645; -143.325;-1090.000; -927.000
232.789;  -20.550; -257.000; -218.000
232.933;  -53.075; -407.000; -224.000
233.076; -119.200;-1038.000; -897.000
233.220; -113.725; -752.000; -777.000
233.363;  -82.875; -669.000; -477.000
233.507;   64.975;  371.000;  129.000
233.650;  -86.300; -764.000; -834.000
233.794;   39.075;  438.000;  461.000
233.938;  -64.875; -530.000; -362.000
234.081;  -20.225;  -93.000;   31.000
234.225;  -68.875; -631.000; -539.000
234.368; -111.350; -773.000; -723.000
234.512;  -32.425; -385.000; -299.000
234.655;  -88.325; -582.000; -555.000
234.798;  -61.500; -493.000; -466.000
234.942; -132.050; -884.000;-1002.000
235.085;  -71.625; -651.000; -443.000
235.229;  -82.325; -405.000; -410.000
235.372;  -50.150; -247.000; -191.000
235.516;  -73.125; -397.000; -321.000
235.659;   16.750;   92.000;  121.000
235.802;  -29.175;  -38.000;  -22.000
235.946;   21.400;  335.000;  215.000
236.089;   20.525;  126.000;  250.000
236.233;   58.200;  275.000;  298.000
236.376;  -47.125; -235.000; -378.000
236.519;  -49.475; -297.000; -319.000
236.663;  -27.375; -215.000; -117.000
236.806; -143.150;-1029.000; -999.000
236.949;   61.950;  543.000;  431.000
237.092;   69.575;  412.000;  391.000
237.236; -100.775; -589.000; -502.000
237.379;   58.075;  352.000;  428.000
237.522; -112.725; -879.000; -768.000
237.666;  -22.125; -271.000;   18.000
237.809; -130.950; -851.000; -823.000
237.952;   29.475;  469.000;  271.000
238.095;  -70.325; -447.000; -442.000
238.238;   82.575;  688.000;  700.000
238.382;  -16.325;  166.000;  103.000
238.525;  -74.775; -598.000; -511.000
238.668; -131.850;-1060.000; -985.000
238.811;  -87.350; -638.000; -643.000
238.954;  -61.075; -483.000; -334.000
239.097;   81.300;  617.000;  664.000
239.241;   17.425;  394.000;  326.000
239.384;  -46.350; -254.000; -214.000
239.527;  -66.775; -424.000; -224.000
239.670; -149.075; -994.000;-1091.000
239.813; -106.925; -696.000; -658.000
239.956;   74.450;  579.000;  473.000
240.099; -110.975; -778.000; -725.000
240.242;   58.675;  428.000;  432.000
240.385;   55.675;  466.000;  450.000
240.528;  -68.000; -706.000; -473.000
240.671;   10.100;  189.000;  134.000
240.814;  -51.925; -441.000; -158.000
240.957; -101.675; -767.000; -578.000
241.100;  -91.925; -779.000; -755.000
241.243; -142.650;-1234.000; -893.000
241.386;  -61.750; -508.000; -379.000
241.529; -108.200; -735.000; -547.000
241.672;  -73.525; -566.000; -495.000
241.815; -127.875; -832.000; -808.000
241.958;  -20.550; -125.000; -182.000
242.101;  -82.350; -545.000; -390.000
242.244;  -53.225; -270.000; -325.000
242.387;  -43.425; -304.000; -246.000
242.530;   47.000;  470.000;  134.000
242.673;  -46.275; -381.000; -309.000
242.815; -133.425; -925.000; -899.000
242.958;  -66.325; -482.000; -381.000
243.101;    5.050;  132.000;  187.000
243.244;  -83.900; -564.000; -521.000
243.387;  -62.975; -313.000; -316.000
243.530;  -98.975; -657.000; -674.000
243.672;   -1.900;   43.000;  -92.000
243.815;  -54.225; -355.000; -283.000
243.958;   -1.675;   98.000;  -26.000
244.101;   -0.625;   59.000;  -16.000
244.243;   -6.500;  -47.000;  101.000
244.386; -100.075; -761.000; -630.000
244.529;  -41.100; -132.000; -139.000
244.672; -161.025;-1154.000; -951.000
244.814; -105.800; -621.000; -794.000
244.957;  -42.475; -380.000; -304.000
245.100;  -78.075; -489.000; -489.000
245.242;  -66.775; -387.000; -374.000
245.385;   -6.275;  -59.000;  -39.000
245.528; -121.425; -871.000; -705.000
245.670;   93.325;  612.000;  634.000
245.813;  -89.850; -599.000; -547.000
245.956;  -31.925; -324.000; -275.000
246.098;  -78.125; -508.000; -650.000
246.241;    5.000;  194.000;   48.000
246.383;  -19.975; -119.000;  -73.000
246.526;  -83.575; -454.000; -525.000
246.669; -111.275; -889.000; -780.000
246.811;   17.075;  172.000;   -1.000
246.954;  -72.400; -512.000; -426.000
247.096;  -24.975;  -84.000;   -6.000
247.239;  -82.925; -482.000; -445.000
247.381;  -72.400; -647.000; -488.000
247.524;   73.250;  645.000;  679.000
247.666;  -13.350;   58.000;   11.000
247.809; -126.125; -887.000; -691.000
247.951;  -12.250;  -75.000;  138.000
248.094;   12.875;  432.000;  308.000
248.236; -167.075;-1262.000;-1238.000
248.378;   -6.775; -356.000;  -81.000
248.521;  -28.425; -334.000; -337.000
248.663;  -36.400; -236.000; -267.000
248.806;  -17.275; -300.000; -266.000
248.948; -110.725; -886.000; -763.000
249.090;  -56.225; -428.000; -398.000
249.233;  -57.700; -344.000; -381.000
249.375;  -72.225; -474.000; -451.000
249.518;  -23.150;  -83.000; -133.000
249.660;   -5.125; -103.000;    3.000
249.802; -178.225;-1303.000;-1189.000
249.945;  -76.125; -612.000; -540.000
250.087; -121.525; -834.000; -768.000
250.229;  -64.525; -362.000; -480.000
250.371;  -77.300; -494.000; -439.000
250.514;  -63.275; -310.000; -244.000
250.656;   -5.575;   69.000;  102.000
250.798; -121.800; -849.000; -800.000
250.940;  -71.775; -322.000; -322.000
251.083;  -37.275; -335.000; -111.000
251.225;   60.525;  338.000;  310.000
251.367;  -37.375; -274.000; -373.000
251.509;  -52.075; -265.000; -210.000
251.651; -105.525; -731.000; -671.000
251.794;   56.925;  538.000;  632.000
251.936; -106.375; -821.000; -747.000
252.078;  -84.500; -540.000; -461.000
252.220;  -89.100; -645.000; -477.000
252.362;   80.775;  344.000;  462.000
252.504;  -80.175; -677.000; -584.000
252.646; -110.875; -875.000; -722.000
252.788;   -4.200;   14.000; -128.000
252.931;  -41.850; -257.000; -253.000
253.073;  -55.200; -376.000; -317.000
253.215;  -12.650;  141.000;  122.000
253.357;  -20.875;   82.000; -153.000
253.499;  -56.475; -374.000; -234.000
253.641;  -92.525; -749.000; -594.000
253.783; -101.400; -609.000; -527.000
253.925;  -93.825; -586.000; -591.000
254.067; -106.250; -744.000; -667.000
254.209;  -31.625; -391.000; -259.000
254.351; -143.725; -865.000; -883.000
254.493;  -75.125; -441.000; -417.000
254.635; -132.650; -936.000; -818.000
254.777;  -96.325; -752.000; -687.000
254.918;  -67.400; -512.000; -430.000
255.060;  -71.025; -551.000; -395.000
255.202;  -63.075; -473.000; -261.000
255.344;  -91.800; -658.000; -455.000
255.486;  -77.300; -471.000; -406.000
255.628; -111.050; -780.000; -781.000
255.770;  -97.125; -676.000; -536.000
255.912;  -60.500; -559.000; -468.000
256.053;  -96.825; -730.000; -508.000
256.195;  157.750; 1008.000;  903.000
256.337; -106.200; -861.000; -595.000
256.479;   53.550;  532.000;  416.000
256.621;  -51.025; -394.000; -212.000
256.762; -107.750; -789.000; -742.000
256.904;   55.725;  485.000;  487.000
257.046;  -58.475; -381.000; -271.000
257.188;  -52.775; -351.000; -264.000
257.329;  -72.050; -525.000; -464.000
257.471; -123.150; -939.000; -807.000
257.613;  -76.850; -584.000; -498.000
257.755; -155.275;-1073.000; -982.000
257.896;   33.675;  286.000;  392.000
258.038;  -78.175; -403.000; -352.000
258.180;  -57.000; -354.000; -279.000
258.321;  -94.550; -581.000; -457.000
258.463;  -14.325;  -71.000;  133.000
258.605; -102.975; -562.000; -570.000
258.746;  -94.250; -886.000; -772.000
258.888; -155.375;-1026.000;-1020.000
259.029;    3.325;  121.000;   -8.000
259.171;  -89.525; -614.000; -550.000
259.313;  -10.350;  -49.000;  -47.000
259.454;  -86.950; -536.000; -414.000
259.596;  -61.450; -483.000; -390.000
259.737;  -72.125; -590.000; -474.000
259.879;   36.875;  217.000;  311.000
260.020;   89.975;  901.000;  636.000
260.162;  -28.175; -146.000; -253.000
260.303; -126.575; -768.000; -687.000
260.445;  -90.150; -609.000; -613.000
260.586;   21.175;  392.000;  157.000
260.728;  -52.350; -360.000; -248.000
260.869;  -77.375; -350.000; -343.000
261.011;   74.450;  706.000;  537.000
261.152;  -64.575; -479.000; -319.000
261.293;  -92.450; -576.000; -595.000
261.435;  -56.075; -219.000; -184.000
261.576;  -57.775; -455.000; -325.000
261.718;   40.725;  420.000;  470.000
261.859; -126.125; -940.000; -949.000
262.000; -138.550; -951.000;-1016.000
262.142;  -34.875;  -52.000;  -60.000
262.283; -117.025; -808.000; -691.000
262.424;  -99.750; -666.000; -625.000
262.566; -159.525;-1161.000; -983.000
262.707; -112.050; -840.000; -830.000
262.848; -116.225; -769.000; -726.000
262.990;  -42.650; -362.000; -345.000
263.131;   78.375;  650.000;  681.000
263.272;   -8.025;  -61.000;  -41.000
263.413; -107.500; -589.000; -561.000
263.555;  -82.850; -669.000; -143.000
263.696;  -99.550; -550.000; -641.000
263.837;  -65.550; -449.000; -551.000
263.978;   -1.275;   -5.000;  -77.000
264.119;  -58.650; -283.000; -264.000
264.261; -105.875; -847.000; -630.000
264.402;   -3.850;   33.000;   40.000
264.543;  -83.675; -509.000; -524.000
264.684;   -9.925;   61.000;  -50.000
264.825;  -88.275; -816.000; -538.000
264.966;  -15.775;  -84.000;  -67.000
265.107; -119.975; -646.000; -670.000
265.248; -128.875; -825.000; -812.000
265.390;   -8.950;  152.000;   -9.000
265.531;  -38.975; -238.000; -107.000
265.672;  -98.400; -557.000; -630.000
265.813;   55.550;  563.000;  439.000
265.954; -158.825; -959.000; -940.000
266.095;  -33.000; -372.000; -322.000
266.236; -103.375; -686.000; -548.000
266.377;  -48.325; -243.000; -297.000
266.518;  -72.800; -619.000; -547.000
266.659;   23.100;  170.000;  268.000
266.800;    3.325;   83.000;   85.000
266.941;  -85.725; -487.000; -478.000
267.082;   17.725;  354.000;   99.000
267.223;  -52.425; -344.000; -273.000
267.364; -129.275; -892.000; -686.000
267.504;  -24.300;    3.000;  135.000
267.645;   -7.325;  160.000;   67.000
267.786;  -35.225; -147.000;  -86.000
267.927;  -93.025; -473.000; -379.000
268.068;  -40.475; -186.000;  -61.000
268.209;  -44.750; -175.000; -413.000
268.350;  -74.825; -388.000; -532.000
268.490;  -93.075; -648.000; -521.000
268.631;   15.225;  127.000;  225.000
268.772; -115.775; -874.000; -647.000
268.913;  -56.975; -328.000; -476.000
269.054;  -12.200; -117.000;   12.000
269.194;  -61.375; -418.000; -402.000
269.335; -161.025;-1137.000;-1074.000
269.476;  -27.025;   33.000;  -35.000
269.617;  -43.650; -347.000; -392.000
269.757;  -84.050; -713.000; -646.000
269.898; -118.050; -856.000; -613.000
270.039;  -52.100; -415.000; -405.000
270.180; -142.025; -952.000; -816.000
270.320;  -37.475; -190.000; -250.000
270.461;  -38.000; -277.000; -249.000
270.602;  -18.900; -186.000; -156.000
270.742; -137.300; -868.000; -943.000
270.883;  -62.875; -442.000; -390.000
271.023;  -59.475; -358.000; -357.000
271.164;  -79.025; -607.000; -528.000
271.305; -107.975; -666.000; -654.000
271.445;  -98.625; -722.000; -683.000
271.586;  -90.500; -462.000; -283.000
271.726;  -55.750; -397.000; -322.000
271.867;  -53.800; -594.000; -534.000
272.008;  168.725; -473.000; -285.000
272.148;  117.325;  462.000;  468.000
272.289;    5.075; -113.000; -181.000
272.429;   -1.500;   19.000;  185.000
272.570;  -96.200; -633.000; -737.000
272.710; -101.325; -825.000; -775.000
272.851;  -36.950;  113.000; -130.000
272.991; -162.375;-1173.000;-1077.000
273.131;  -68.775; -419.000; -459.000
273.272; -110.425; -683.000; -723.000
273.412;   12.650; -143.000;  -31.000
273.553;  -57.700; -488.000; -507.000
273.693;  135.250;  913.000;  858.000
273.834; -101.425; -894.000; -692.000
273.974;  -94.450; -664.000; -615.000
274.114; -117.775; -772.000; -560.000
274.255;   66.100;  414.000;  373.000
274.395;   -7.300; -180.000; -125.000
274.535;   38.025;  199.000;  350.000
274.676;   33.575;  225.000;   94.000
274.816;  -15.350;  110.000;   34.000
274.956;  -89.875; -624.000; -690.000
275.097;  -76.150;-1014.000; -922.000
275.237; -117.575; -913.000; -803.000
275.377;  -98.450; -778.000; -689.000
275.517; -151.725; -878.000; -937.000
275.658;  -59.400; -590.000; -555.000
275.798;  -76.300; -606.000; -413.000
275.938;   26.575;  215.000;  323.000
276.078; -113.325; -626.000; -395.000
276.218;   15.375;   99.000;  104.000
276.359; -129.125;-1026.000;-1024.000
276.499;  -76.100; -605.000; -446.000
276.639;  -41.875; -305.000; -151.000
276.779;  -55.100; -475.000; -357.000
276.919; -117.125; -783.000; -624.000
277.059;  -22.525; -261.000; -212.000
277.199;  -46.075; -357.000; -259.000
277.340;   37.050;  287.000;  175.000
277.480; -113.050; -840.000; -693.000
277.620;   17.375;  192.000;   16.000
277.760; -199.125;-1533.000;-1294.000
277.900;    9.725;  113.000;   33.000
278.040;    7.050;  137.000;  159.000
278.180;   37.150;  270.000;  170.000
278.320;  -15.625;   21.000;   56.000
278.460;  -80.750; -443.000; -469.000
278.600;  -89.425; -708.000; -598.000
278.740;   44.200;  448.000;  224.000
278.880;  -75.050; -768.000; -791.000
279.020;  -13.075; -194.000; -144.000
279.160;  -99.175; -672.000; -595.000
279.300; -122.900; -926.000; -873.000
279.440;  -98.100; -709.000; -622.000
279.579;  -20.100;-1014.000; -929.000
279.719;  -48.550; -410.000; -394.000
279.859;   56.100;   -4.000;   41.000
279.999;   26.075; -208.000;  101.000
280.139;  -18.175; -435.000; -387.000
280.279;  -78.625; -708.000; -745.000
280.419;  -20.350; -229.000; -147.000
280.559;  -36.225; -259.000; -180.000
280.698;  -70.175; -790.000; -639.000
280.838; -106.225; -778.000; -800.000
280.978; -104.550; -846.000; -790.000
281.118; -108.925; -811.000; -704.000
281.257;   -7.050;   24.000;    6.000
281.397; -126.850;-1094.000; -960.000
281.537;  -87.975; -599.000; -712.000
281.677;  -24.475; -150.000; -101.000
281.816; -101.950; -700.000; -630.000
281.956;  -32.300; -193.000; -257.000
282.096;  -71.875; -539.000; -396.000
282.235; -110.675; -672.000; -638.000
282.375;  -33.325; -243.000;  -98.000
282.515; -110.225; -715.000; -707.000
282.654;   27.900;   29.000;  106.000
282.794;   22.400;  388.000;  244.000
282.934;  -67.375; -530.000; -491.000
283.073; -132.875;-1030.000; -857.000
283.213;  -69.550; -460.000; -467.000
283.353;  -48.375; -408.000; -349.000
283.492;  -30.200; -264.000; -296.000
283.632;  -55.100; -254.000; -168.000
283.771; -116.075; -859.000; -730.000
283.911;  -60.275; -369.000; -260.000
284.050; -125.950; -794.000; -748.000
284.190; -173.750;-1229.000;-1096.000
284.329; -136.900;-1055.000; -964.000
284.469;  -81.100; -516.000; -591.000
284.608;  -61.275; -559.000; -598.000
284.748;  -85.475; -614.000; -570.000
284.887;  -12.125;  -87.000;  -20.000
285.027; -122.125; -844.000; -892.000
285.166;  -36.375; -192.000; -249.000
285.306;   -6.475; -116.000;  -33.000
285.445;  -42.100; -229.000; -343.000
285.584;  -97.150; -630.000; -494.000
285.724;  -40.250; -282.000; -322.000
285.863; -123.775; -857.000; -507.000
286.002;  -79.575; -366.000; -276.000
286.142; -107.525; -715.000; -622.000
286.281;  -72.675; -525.000; -493.000
286.420;  -81.900; -554.000; -417.000
286.560;   86.300;  653.000;  623.000
286.699; -146.650; -958.000; -912.000
286.838; -100.075; -590.000; -591.000
286.978; -102.025; -533.000; -537.000
287.117; -131.025;-1085.000; -950.000
287.256;  -41.175; -228.000; -211.000
287.395;  -50.650; -197.000; -378.000
287.535;  -57.600; -370.000; -298.000
287.674;  -80.450; -509.000; -484.000
287.813;   36.725;  661.000;  533.000
287.952; -121.400;-1010.000; -871.000
288.091; -149.300;-1049.000; -915.000
288.231;    3.325;   13.000;   15.000
288.370; -184.100;-1217.000;-1200.000
288.509;  -97.750; -728.000; -645.000
288.648;  -97.075; -770.000; -548.000
288.787;  -26.700; -243.000;  -87.000
288.926;  -77.225; -454.000; -475.000
289.065;  108.550;  859.000;  672.000
289.204;  -43.025; -377.000; -217.000
289.344; -104.775; -791.000; -690.000
289.483;    7.075;  416.000;  304.000
289.622;  -35.600; -291.000; -149.000
289.761;  -30.175; -309.000; -166.000
289.900; -109.100; -785.000; -626.000
290.039;  -17.375;  -12.000;  -95.000
290.178;  -49.850; -274.000; -180.000
290.317;  -92.400; -618.000; -479.000
290.456;  -76.250; -463.000; -451.000
290.595; -131.125; -961.000; -833.000
290.734; -152.200; -904.000; -891.000
290.873;  -77.225; -456.000; -420.000
291.011; -114.125; -833.000; -843.000
291.150; -114.450; -770.000; -682.000
291.289;  -32.075; -343.000; -110.000
291.428; -104.800; -599.000; -480.000
291.567;  -67.275; -370.000; -442.000
291.706;   -7.800;  109.000;  154.000
291.845; -107.625; -597.000; -505.000
291.984; -165.375;-1234.000;-1061.000
292.122;   72.950;  602.000;  582.000
292.261;   44.025;  620.000;  463.000
292.400;    0.075; -144.000;  211.000
292.539; -124.825; -959.000; -813.000
292.678;  -45.150; -325.000; -300.000
292.816; -165.050;-1136.000; -965.000
292.955;  -97.400; -844.000; -684.000
293.094;  -39.425; -173.000; -337.000
293.233;  -65.000; -556.000; -400.000
293.371;  -36.150; -225.000;  -84.000
293.510; -111.350; -866.000; -780.000
293.649; -138.625; -959.000; -924.000
293.787;  -72.525;-1083.000;-1012.000
293.926;  -16.075; -113.000;  -32.000
294.065;  -51.225; -379.000; -290.000
294.203;   41.800;  298.000;  406.000
294.342;   20.025;   74.000;  156.000
294.481; 6629.375;51180.000; -836.000
294.619;  -20.150; -425.000; -582.000
294.758; -153.075;-1230.000;-1137.000
294.896;   48.250; -125.000;    5.000
295.035; -113.050;-1040.000;-1006.000
295.174; -140.375;-1082.000; -954.000
295.312;  -33.700; -323.000; -203.000
295.451;  -13.125; -307.000; -428.000
295.589;  -61.475; -389.000; -518.000
295.728;    9.950; -292.000; -165.000
295.866;    0.875;  -36.000;  -51.000
296.005;  -79.050; -584.000; -341.000
296.143;  -73.725; -558.000; -596.000
296.282; -107.875; -957.000; -881.000
296.420;  -87.650; -657.000; -557.000
296.559;  -98.600; -892.000; -633.000
296.697;    1.175; -847.000; -665.000
296.835;   40.800;-1141.000;-1002.000
296.974;   37.525;  -23.000;   39.000
297.112;   -3.725; -443.000; -504.000
297.251;  -82.875; -815.000; -755.000
297.389;   83.975; -576.000; -438.000
297.527;   28.800; -145.000;  -83.000
297.666;  -51.525; -486.000; -438.000
297.804;  -48.650; -404.000; -264.000
297.942;  -21.000; -136.000; -161.000
298.081;  -11.250; -183.000;   63.000
298.219;   51.525;  -17.000;  -19.000
298.357;   40.750; -144.000;  -71.000
298.495;   27.550; -810.000; -812.000
298.634;   60.350;  245.000;  219.000
298.772;   50.725; -220.000; -338.000
298.910;  -36.600; -309.000; -182.000
299.048;   -9.700; -130.000; -153.000
299.187;  -43.425; -350.000; -250.000
299.325;   19.075;   52.000;  122.000
299.463;   28.050; -389.000; -299.000
299.601;   95.150; -327.000; -271.000
299.739; -105.450; -908.000; -883.000
299.877;  -79.025; -791.000; -703.000
300.016;  -71.675;-1095.000; -935.000
300.154;  147.175;  -19.000; -161.000
300.292;   41.725; -428.000; -348.000
300.430;   22.225; -408.000; -291.000
300.568; -110.525; -940.000; -874.000
300.706;  -69.975; -366.000; -469.000
300.844;  -90.975;-1108.000; -979.000
300.982;  114.925;  246.000;  282.000
301.120; -127.425; -965.000; -866.000
301.258;  -71.300; -812.000; -705.000
301.396;    8.100;  104.000;  -41.000
301.534;   74.225; -218.000; -293.000
301.672;  -14.225; -664.000; -521.000
301.810;   19.700; -613.000; -545.000
301.948;  105.800;   53.000;  149.000
302.086;  586.275; -250.000;  -32.000
302.224;  877.400; -610.000; -585.000
302.362;   31.900; -558.000; -622.000
302.500;  -27.450; -923.000; -893.000
302.638;  106.400;  128.000;  245.000
302.776;   -6.675; -352.000; -408.000
302.913;   46.000;  447.000;  236.000
303.051;   -7.375;  -86.000;  -23.000
303.189;   46.900;   90.000;  118.000
303.327;  -38.850; -341.000; -256.000
303.465;  -94.675; -832.000; -588.000
303.603;  -94.550; -805.000; -604.000
303.740;   76.425;  417.000;  241.000
303.878;   16.600; -800.000; -759.000
304.016; -108.475; -915.000; -790.000
304.154; -123.300;-1123.000;-1152.000
304.291;  -49.700; -505.000; -554.000
304.429;   15.025;  102.000;   74.000
304.567; -134.725; -908.000; -893.000
304.705;  -54.975; -408.000; -515.000
304.842;   78.375; -616.000; -540.000
304.980;   42.575;  215.000;   35.000
305.118;   39.375; -367.000; -365.000
305.255;  -88.300; -945.000; -927.000
305.393;   39.025;  178.000;  239.000
305.531; -118.325;-1173.000; -956.000
305.668;  -81.075; -663.000; -582.000
305.806;   90.175; -358.000; -439.000
305.943;   92.525; -629.000; -637.000
306.081;   39.025; -378.000; -267.000
306.219; -118.600; -863.000; -748.000
306.356;   -2.150;  158.000;   27.000
306.494;  110.125;  981.000;  761.000
306.631;  -14.650;  -11.000;  -55.000
306.769;   -7.600; -613.000; -485.000
306.906;  -26.725; -284.000; -258.000
307.044;  -69.950; -473.000; -488.000
307.181;  -65.975; -410.000; -332.000
307.319;   11.575;  112.000;   87.000
307.456; -175.300;-1191.000;-1153.000
307.594; -109.550; -980.000; -727.000
307.731;  -25.825; -371.000; -164.000
307.868;  -15.825;  -15.000;   20.000
308.006; -143.850; -961.000; -847.000
308.143;  -77.175; -618.000; -330.000
308.281;  130.275;  -37.000; -254.000
308.418;  -30.425; -748.000; -640.000
308.555;  -75.750; -400.000; -250.000
308.693;  -86.300; -577.000; -573.000
308.830; -116.900; -712.000; -657.000
308.967;  -16.225; -215.000;  -95.000
309.105;  -49.350; -507.000; -396.000
309.242;   11.800; -468.000; -367.000
309.379;  251.875; -577.000; -655.000
309.517;  -75.025; -936.000; -948.000
309.654; -125.200; -910.000; -734.000
309.791;  -80.775; -662.000; -580.000
309.928; -120.250; -977.000; -914.000
310.065;  155.325;  819.000;  697.000
310.203;  -10.225; -825.000; -850.000
310.340;  -19.575; -465.000; -321.000
310.477;  -83.450; -412.000; -516.000
310.614;  -81.150; -383.000; -473.000
310.751;  -85.500; -427.000; -518.000
310.889;  -35.250;    1.000;   11.000
311.026; -158.000;-1161.000; -939.000
311.163;  -46.125; -386.000; -380.000
311.300;  -85.050; -512.000; -479.000
311.437;  -73.850; -658.000; -619.000
311.574; -161.175;-1226.000; -985.000
311.711;  -66.600; -595.000; -433.000
311.848;  -55.175; -380.000; -388.000
311.985;    7.200;  270.000;   93.000
312.122; -117.200; -932.000; -762.000
312.259; -128.675; -941.000; -994.000
312.396;  -85.700; -508.000; -551.000
312.533; -105.200; -812.000; -790.000
312.670; -139.450;-1070.000; -898.000
312.807;  -38.575; -352.000; -367.000
312.944;  -88.375; -513.000; -611.000
313.081;  -39.400; -150.000; -415.000
313.218; -112.600;-1111.000; -867.000
313.355;    8.600; -531.000; -449.000
313.492;   -6.275; -455.000; -292.000
313.629;  122.850;  815.000;  735.000
313.766; -168.175;-1176.000;-1008.000
313.902;  -18.525; -186.000;   21.000
314.039;  -51.250; -372.000; -289.000
314.176;   10.650;  286.000;  192.000
314.313;  -70.300; -569.000; -473.000
314.450;  -76.875; -788.000; -684.000
314.587;  -69.150; -468.000; -480.000
314.723;   -5.475;  -78.000;  130.000
314.860;   29.275;  318.000;  332.000
314.997;   34.200;  223.000;  142.000
315.134;  -37.750; -385.000; -368.000
315.270;  -28.425; -480.000; -496.000
315.407; -133.900;-1094.000; -967.000
315.544;  -59.175; -657.000; -538.000
315.681;  -72.875; -681.000; -565.000
315.817;   24.500; -133.000; -176.000
315.954;   14.625; -613.000; -392.000
316.091; -137.275;-1045.000;-1023.000
316.227;  -37.275;  -71.000; -179.000
316.364;  -14.350;   23.000;    6.000
316.500;  -38.575; -113.000; -300.000
316.637;  -56.175; -181.000; -302.000
316.774;  -95.325; -625.000; -358.000
316.910;  -98.475; -598.000; -629.000
317.047;  -74.200; -487.000; -351.000
317.183;  -59.150; -435.000; -566.000
317.320;  -22.125; -367.000; -321.000
317.456;  -69.750; -733.000; -805.000
317.593;  -96.750; -598.000; -641.000
317.729;   -1.100;  168.000;  -67.000
317.866; -210.900;-1434.000;-1285.000
318.002; -102.125; -708.000; -948.000
318.139;  -95.125; -883.000; -867.000
318.275; -106.325;-1003.000; -738.000
318.412;  -71.800; -517.000; -336.000
318.548;  -34.500; -751.000; -720.000
318.685; -105.500; -985.000; -888.000
318.821; -104.075; -762.000; -735.000
318.957;  -30.700;   34.000;  -23.000
319.094;   33.525;  297.000;  154.000
319.230;  -66.475; -756.000; -742.000
319.367;  111.800; -471.000; -520.000
319.503;   31.300; -538.000; -436.000
319.639; -101.875; -877.000; -793.000
319.775;  -68.175; -750.000; -685.000
319.912;  -57.475; -424.000; -519.000
320.048;  -80.475;-1184.000;-1184.000
320.184;   76.600;   59.000;   70.000
320.321;  -71.500; -497.000; -467.000
320.457;   69.175;  475.000;  662.000
320.593;  -73.400; -375.000; -382.000
320.729; -119.450; -732.000; -734.000
320.866;  -87.900; -577.000; -635.000
321.002;  -82.550; -759.000; -809.000
321.138;  -18.375; -135.000; -211.000
321.274;   65.500; -148.000; -115.000
321.410;  -34.125; -585.000; -353.000
321.546;  -48.800;-1011.000; -911.000
321.683;   53.775;  400.000;  185.000
321.819;   -2.850;  -48.000; -117.000
321.955; -121.150; -743.000; -722.000
322.091;  -61.750; -585.000; -540.000
322.227;  -10.200; -382.000; -202.000
322.363;  -22.025; -320.000; -215.000
322.499;  -57.375; -343.000; -331.000
322.635;  159.075;  636.000;  443.000
322.771;   18.475; -139.000;   12.000
322.907;   80.950;  129.000;  327.000
323.043;  -27.900; -115.000; -206.000
323.179;  -33.500; -394.000; -363.000
323.315;   10.975; -401.000; -371.000
323.451;   76.475; -328.000; -236.000
323.587;   70.400;  -60.000;  -77.000
323.723;    5.775; -682.000; -601.000
323.859;  -20.825; -258.000;  -76.000
323.995;  -45.125; -467.000; -409.000
324.131; -138.525; -967.000; -892.000
324.267;  -41.175; -254.000; -276.000
324.402; -149.525; -960.000; -983.000
324.538;  -30.400; -279.000; -104.000
324.674;   12.925;  164.000;   77.000
324.810;  106.550;  226.000;  308.000
324.946;   -8.100; -810.000; -658.000
325.082;  -66.900; -568.000; -475.000
325.217;  -19.250;  -62.000;   16.000
325.353; -114.200; -764.000; -659.000
325.489;  -95.625; -540.000; -506.000
325.625;  -74.100; -579.000; -525.000
325.760;   58.050;  517.000;  376.000
325.896;  -31.200; -515.000; -702.000
326.032;  -52.775; -403.000; -352.000
326.168;  -60.600; -462.000; -369.000
326.303;  -77.575; -352.000; -461.000
326.439;  -25.100; -336.000; -276.000
326.575;    2.950; -190.000;  -29.000
326.710;  -16.675; -156.000;  -30.000
326.846;  -20.300;  146.000;  103.000
326.982;  -94.050; -530.000; -548.000
327.117;  -70.000; -481.000; -442.000
327.253;  -97.875; -745.000; -742.000
327.388; -180.450;-1137.000;-1153.000
327.524;  -60.700; -811.000; -578.000
327.659;  -31.650;  -58.000;  -22.000
327.795;  -21.200;   69.000;   45.000
327.931;  -86.800; -723.000; -499.000
328.066;  -32.100; -417.000; -276.000
328.202;  -37.050;   12.000; -129.000
328.337;   83.875;  957.000;  713.000
328.473;   31.275;  -12.000;  -74.000
328.608;  -25.125; -256.000; -267.000
328.743;  -83.650; -799.000; -664.000
328.879;    9.900;  214.000;  114.000
329.014;  -35.325; -102.000; -122.000
329.150; -101.475; -358.000; -483.000
329.285;  -84.925; -465.000; -466.000
329.421;  -71.400; -548.000; -246.000
329.556;  -23.450;  -36.000;   85.000
329.691; -109.625; -633.000; -615.000
329.827;  -82.250; -626.000; -480.000
329.962;  -50.825;  131.000; -301.000
330.097;  -98.925; -673.000; -585.000
330.233;  -64.750; -410.000; -223.000
330.368; -131.200; -839.000; -628.000
330.503;  -30.075;    3.000;   98.000
330.638;   -6.225;  -93.000; -125.000
330.774;  -60.575; -609.000; -530.000
330.909;  -55.400; -434.000; -244.000
331.044;  -98.075; -714.000; -708.000
331.179; -187.900;-1217.000;-1109.000
331.315;   25.400;   77.000;   20.000
331.450;   12.925;  157.000;  285.000
331.585;  -97.850; -805.000; -706.000
331.720;  -96.375; -510.000; -460.000
331.855;  -12.800;  -35.000; -102.000
331.990;  245.650;   62.000;  138.000
332.126;  126.050; -110.000;   71.000
332.261;  -32.875; -379.000; -265.000
332.396;  -13.750; -135.000; -242.000
332.531; -107.725;-1074.000;-1031.000
332.666;   24.425; -519.000; -363.000
332.801; -108.100; -726.000; -807.000
332.936;  -20.450; -192.000; -122.000
333.071; -147.600; -870.000; -817.000
333.206;   22.425;  307.000;  379.000
333.341;   12.625;  344.000;  418.000
333.476; -108.575; -627.000; -623.000
333.611;  -48.525; -251.000; -173.000
333.746;  -60.150; -381.000; -464.000
333.881; -126.275; -973.000; -935.000
334.016; -140.125; -936.000; -917.000
334.151; -130.525; -746.000; -702.000
334.286;   16.025;  152.000;  186.000
334.421;  -28.750; -125.000; -178.000
334.556;  -83.075; -611.000; -567.000
334.690;  -85.575; -631.000; -577.000
334.825;   29.700;  381.000;   83.000
334.960;  -74.400; -285.000; -413.000
335.095;  -12.100;  135.000;  -91.000
335.230; -108.675; -722.000; -738.000
335.365; -148.025;-1084.000; -990.000
335.499; -142.625;-1108.000;-1037.000
335.634;   16.575;    9.000;  534.000
335.769; -106.900; -755.000; -720.000
335.904;  -54.500; -603.000; -561.000
336.038;  -60.375; -735.000; -657.000
336.173; -120.450;-1206.000;-1194.000
336.308;    3.175; -116.000; -189.000
336.443;   21.150; -544.000; -634.000
336.577;  -93.550; -936.000; -787.000
336.712;   49.300;   -4.000;  -12.000
336.847;  -44.400; -724.000; -607.000
336.981;   50.275; -272.000; -208.000
337.116;  280.675;  615.000;  501.000
337.250;  134.775; -434.000; -421.000
337.385;  244.275; -297.000; -208.000
337.520;   74.275; -632.000; -603.000
337.654;  -53.800; -215.000; -126.000
337.789; -128.525; -989.000; -933.000
337.923;  -34.275; -104.000; -205.000
338.058; -100.950; -673.000; -738.000
338.192;  -51.975; -611.000; -488.000
338.327;  -13.900;  -18.000; -155.000
338.461;  -67.675; -299.000; -469.000
338.596; -108.875; -780.000; -638.000
338.730;  -98.175; -767.000; -803.000
338.865;   82.750;  -46.000; -140.000
338.999;  -58.350; -846.000; -702.000
339.134;  -30.475; -634.000; -536.000
339.268;   -2.775; -741.000; -603.000
339.403;  347.600; -740.000; -775.000
339.537;  116.250; -894.000; -820.000
339.671; -127.450; -829.000; -813.000
339.806;  -73.850; -556.000; -512.000
339.940;    9.000; -261.000; -235.000
340.074; -112.775; -685.000; -510.000
340.209;  -65.850; -351.000; -230.000
340.343;  -97.300; -517.000; -573.000
340.477;  136.925;  998.000; 1036.000
340.612;  -59.525;-1033.000; -900.000
340.746;  126.775; -199.000; -243.000
340.880;  -80.550; -924.000; -785.000
341.014;  -22.125;  -45.000; -154.000
341.149; -139.950; -756.000; -718.000
341.283; -116.900; -839.000; -754.000
341.417; -104.525;-1124.000; -938.000
341.551;  102.025; -768.000; -708.000
341.685;  -48.525; -633.000; -611.000
341.820;  -54.250; -562.000; -493.000
341.954;  -50.875; -218.000; -349.000
342.088; -144.625;-1102.000;-1019.000
342.222;   46.575;  565.000;  618.000
342.356;  -71.875; -395.000; -335.000
342.490; -109.475; -880.000; -841.000
342.624;  -63.700; -339.000; -242.000
342.758;  -14.400; -364.000; -312.000
342.892;  -72.825; -710.000; -585.000
343.026;  -33.075;  -58.000; -116.000
343.160;  -78.175; -426.000; -376.000
343.294;  -89.000; -474.000; -337.000
343.428;  -37.975; -488.000; -448.000
343.562;  -23.975; -172.000;  -23.000
343.696;  -35.800; -385.000; -314.000
343.830;  -46.925; -362.000; -356.000
343.964;    2.725; -231.000; -168.000
344.098;  846.475;  199.000;   70.000
344.232;  701.025; -266.000; -127.000
344.366;   82.000; -567.000; -453.000
344.500;   39.050; -665.000; -744.000
344.634;   20.925; -324.000; -164.000
344.768;  -21.800; -531.000; -341.000
344.902;    5.250;  278.000;  256.000
345.035;  -93.025; -556.000; -496.000
345.169; -133.275; -933.000; -656.000
345.303;  -63.075; -308.000; -482.000
345.437;  -93.950; -826.000; -717.000
345.571;  -77.500; -675.000; -594.000
345.704;  -77.725; -309.000; -532.000
345.838;  -24.925; -331.000; -284.000
345.972;  -42.775; -543.000; -495.000
346.106;  152.500; -179.000; -190.000
346.239;  392.975; -312.000; -243.000
346.373;    0.125; -343.000; -302.000
346.507; -150.650; -950.000; -962.000
346.640;  136.775;  -30.000;   13.000
346.774;  -57.400; -650.000; -797.000
346.908;  -31.325; -138.000;  -11.000
347.041; -106.025; -646.000; -593.000
347.175;   -5.875;  259.000;   27.000
347.309;  -81.825; -698.000; -628.000
347.442; -109.500; -883.000; -732.000
347.576;  261.750;  670.000;  668.000
347.709;  181.525; -123.000;  -52.000
347.843;  -89.800; -933.000; -825.000
347.976;   17.475;  235.000;  294.000
348.110; -184.575;-1268.000;-1186.000
348.243; -104.500; -679.000; -772.000
348.377;   -3.525;  -26.000;   60.000
348.510;   57.900;  403.000;  540.000
348.644;  -49.750;  -37.000; -159.000
348.777;   -3.350;  180.000;  191.000
348.911;  -47.825; -142.000; -112.000
349.044;  162.500;  471.000;  448.000
349.178;  114.100;-1069.000;-1006.000
349.311;  121.625;  141.000;  255.000
349.444;   -5.250; -927.000; -813.000
349.578;  -36.575; -347.000; -200.000
349.711; -112.775; -959.000; -862.000
349.845;  -16.550; -661.000; -591.000
349.978; -162.900;-1224.000;-1137.000
350.111;  -89.750; -546.000; -612.000
350.244;  -86.750; -596.000; -700.000
350.378;   -7.450; -392.000; -393.000
350.511;  -79.075; -393.000; -426.000
350.644; -117.225; -808.000; -806.000
350.778;    0.600;  168.000;  104.000
350.911;   -4.300;  134.000;  140.000
351.044; -107.400; -685.000; -615.000
351.177;  -49.875; -321.000; -281.000
351.310;  -26.550;    3.000; -131.000
351.444;  -88.150; -888.000; -788.000
351.577;   91.850;  140.000;   90.000
351.710;   90.200;  593.000;  417.000
351.843;  -37.775; -165.000;  -77.000
351.976;    3.375;  149.000;  -79.000
352.109; -106.550; -621.000; -612.000
352.242;  -33.475; -464.000; -419.000
352.376;  -75.700; -580.000; -636.000
352.509;  140.300; -437.000; -356.000
352.642;   -7.500; -654.000; -604.000
352.775;   44.175; -141.000;  -98.000
352.908; -119.325; -933.000; -904.000
353.041; -104.050; -814.000; -824.000
353.174;  -69.000; -551.000; -424.000
353.307;  -93.825; -753.000; -764.000
353.440;   64.875;  541.000;  453.000
353.573; -127.300; -957.000;-1008.000
353.706;  -65.750; -384.000; -558.000
353.839;  -21.500; -264.000; -220.000
353.971;  -98.475; -657.000; -512.000
354.104;  -91.650; -896.000; -835.000
354.237;  -49.300; -627.000; -662.000
354.370;  -99.725; -846.000; -879.000
354.503; -206.625;-1231.000;-1308.000
354.636;  -40.175; -529.000; -348.000
354.769; -131.575; -937.000; -860.000
354.902;  -21.450; -230.000; -139.000
355.034;  -28.900; -164.000; -220.000
355.167;  -24.725; -262.000; -162.000
355.300;  -97.975;-1061.000; -880.000
355.433;  964.675;  -71.000;  -14.000
355.565; 1483.775; -402.000; -384.000
355.698;  368.800; -356.000; -296.000
355.831;   -3.375; -882.000; -801.000
355.964;   52.325; -285.000; -170.000
356.096;  -88.575; -856.000; -843.000
356.229;   -5.575; -523.000; -530.000
356.362;  315.325; -373.000; -266.000
356.494;  602.025; -229.000; -162.000
356.627;  455.475;  269.000;  377.000
356.760;  648.000;  120.000;   53.000
356.892;  960.625; -286.000; -601.000
357.025;  612.825;  403.000;  389.000
357.157;  557.900; -167.000; -179.000
357.290;  673.025; -856.000; -713.000
357.423;  196.675; -667.000; -556.000
357.555;  108.000; -217.000; -228.000
357.688;  119.550; -483.000; -364.000
357.820;  430.450; -870.000; -877.000
357.953; 3567.175; -563.000; -589.000
358.085;  758.525; -632.000; -612.000
358.218; 1033.375;-1131.000; -932.000
358.350;  178.800;  -58.000;  312.000
358.483; -124.400;-1300.000;-1187.000
358.615;  -19.450;-1182.000;-1078.000
358.747;  -65.150;-1187.000;-1058.000
358.880;   14.825; -810.000; -744.000
359.012;  -14.775; -376.000; -202.000
359.145;  -42.125; -480.000; -511.000
359.277;   41.750; -962.000; -913.000
359.409; 2950.225;  536.000;  231.000
359.542;  758.850; -738.000; -688.000
359.674;   46.450;   46.000;   13.000
359.806;  -77.850; -565.000; -438.000
359.939;  -61.525; -617.000; -516.000
360.071;  -16.950; -583.000; -579.000
360.203;  -34.475; -411.000; -364.000
360.335;   49.250;  164.000;  -16.000
360.468;  177.525; -249.000; -307.000
360.600; 2360.075; -547.000; -454.000
360.732; 2815.250; -546.000; -423.000
360.864;  372.525;-1216.000;-1044.000
360.996;  256.800; -516.000; -554.000
361.129;   25.825; -389.000; -598.000
361.261;    2.250;  110.000; -113.000
361.393;  -50.075; -252.000; -214.000
361.525;   22.950;   94.000;  244.000
361.657;  -49.850; -821.000; -703.000
361.789;    7.050; -139.000; -155.000
361.921;  190.075; -642.000; -593.000
362.053;  230.500;  524.000;  541.000
362.185;   30.575;  288.000;   72.000
362.318;  -92.125; -709.000; -705.000
362.450;   97.375;  294.000;  444.000
362.582;   60.075; -913.000; -870.000
362.714;  -42.275; -353.000; -332.000
362.846;  -95.700; -606.000; -490.000
362.978; -154.100; -941.000; -811.000
363.109;   30.600; -161.000; -260.000
363.241;  396.475; -739.000; -749.000
363.373;  425.500; -649.000; -564.000
363.505;  652.300; -186.000;  -91.000
363.637;  142.975; -787.000; -601.000
363.769; -128.300;-1067.000;-1080.000
363.901;  -76.300; -596.000; -654.000
364.033; -124.225;-1103.000;-1062.000
364.165;  -24.750; -283.000; -283.000
364.296;   76.425; -316.000; -177.000
364.428;   67.400;-1344.000;-1220.000
364.560;  -80.500; -679.000; -661.000
364.692;  -91.450; -738.000; -835.000
364.824;  231.025; -588.000; -456.000
364.955;  410.575; -402.000; -564.000
365.087;  896.575;-1097.000; -852.000
365.219;   21.175; -686.000; -816.000
365.351;  -76.975; -526.000; -572.000
365.482;   52.275;  300.000;  240.000
365.614;  -60.550; -402.000; -314.000
365.746; -112.650; -729.000; -752.000
365.877; -102.225; -706.000; -672.000
366.009;  265.050;  -35.000;  -62.000
366.141; -104.225;-1249.000;-1134.000
366.272; -110.075; -803.000; -719.000
366.404; -122.200;-1005.000; -874.000
366.535;  -34.475; -139.000;  -12.000
366.667; -111.350; -644.000; -649.000
366.799;   26.625;  353.000;  203.000
366.930; -137.850; -862.000; -996.000
367.062;   99.375; -639.000; -613.000
367.193;  143.425; -872.000; -842.000
367.325;  -68.250; -580.000; -684.000
367.456;   41.300; -246.000;   31.000
367.588;  159.400; -371.000; -318.000
367.719;   12.475;  -44.000;  -45.000
367.851;  -16.750; -222.000; -241.000
367.982;  -63.725; -875.000; -732.000
368.113;   82.725; -475.000; -358.000
368.245; -121.400; -960.000; -841.000
368.376;  -33.225; -254.000; -302.000
368.508;  -42.475; -188.000; -263.000
368.639; -145.750;-1166.000;-1034.000
368.770;  -11.750; -670.000; -589.000
368.902;  -81.925; -836.000; -926.000
369.033; -124.975; -906.000; -855.000
369.164;  -57.575; -720.000; -653.000
369.296; -107.800; -452.000; -601.000
369.427;  -12.625; -209.000; -144.000
369.558;  -72.975; -593.000; -377.000
369.689;  -92.400; -721.000; -569.000
369.821; -143.375; -951.000; -845.000
369.952;  -25.900;   42.000; -108.000
370.083;  -42.100; -229.000; -108.000
370.214;  -91.175; -735.000; -650.000
370.345;   -7.275;   65.000;   81.000
370.477;  -92.100; -810.000; -790.000
370.608;  212.575; -328.000; -264.000
370.739;  -53.125;-1233.000;-1292.000
370.870;  -63.875;-1102.000; -923.000
371.001;   85.025; -378.000; -467.000
371.132;  -83.250; -754.000; -735.000
371.263;  -30.675;  -42.000; -148.000
371.394; -140.050; -841.000; -748.000
371.525;   31.425;  345.000;  225.000
371.657;  -92.525; -808.000; -670.000
371.788;   77.275;  103.000;  199.000
371.919;  162.325; -384.000; -304.000
372.050; 3450.100;  -91.000; -156.000
372.181; 1011.275; -188.000; -294.000
372.311;  347.225;   42.000; -127.000
372.442;   16.550; -457.000; -451.000
372.573;  -25.125; -444.000; -340.000
372.704; -136.800;-1008.000; -980.000
372.835;   61.600; -228.000; -289.000
372.966;  -71.600; -646.000; -554.000
373.097;  -72.225; -575.000; -711.000
373.228;  -51.825; -717.000; -542.000
373.359;  100.525; -824.000; -536.000
373.490;  876.400; -881.000; -727.000
373.620; 1096.325;-1001.000; -803.000
373.751; 1676.625; -332.000; -396.000
373.882;  745.075; -663.000; -733.000
374.013;   44.625; -449.000; -262.000
374.143;  -41.525; -581.000; -659.000
374.274; -125.225; -987.000; -908.000
374.405;  148.600; -388.000; -276.000
374.536;  402.200; -526.000; -387.000
374.666; 1038.400; -759.000; -807.000
374.797;  195.200; -817.000; -868.000
374.928;  787.450; -710.000; -560.000
375.058;  823.150; -535.000; -500.000
375.189;   78.725;  -59.000;  -93.000
375.320; -117.050; -928.000;-1034.000
375.450;  -55.525; -625.000; -616.000
375.581;  -42.275; -526.000; -436.000
375.712;  -38.875; -574.000; -250.000
375.842;  269.975; -438.000; -415.000
375.973;  201.700; -554.000; -513.000
376.103;  -57.925; -665.000; -648.000
376.234;  -89.350; -531.000; -552.000
376.364;  -62.275; -944.000; -867.000
376.495;  308.175;  925.000;  529.000
376.625;  -18.150; -472.000; -485.000
376.756;   38.800; -709.000; -678.000
376.886;  -96.600;-1178.000;-1026.000
377.017;   40.075;-1048.000;-1061.000
377.147;  350.900; -786.000; -782.000
377.278;   47.900;  174.000;  228.000
377.408; -143.975; -801.000; -815.000
377.538; -103.800; -707.000; -693.000
377.669;  -76.800; -537.000; -613.000
377.799; -102.125; -645.000; -635.000
377.929;  -76.700; -610.000; -428.000
378.060; -135.100; -781.000; -847.000
378.190;  -63.750; -726.000; -531.000
378.320;  -71.250; -401.000; -406.000
378.451;  -23.350; -131.000;  -22.000
378.581;  -15.450;  -67.000; -110.000
378.711;  130.600; 1035.000;  866.000
378.841;  -25.400; -533.000; -675.000
378.972;  -78.900; -871.000; -751.000
379.102;  -15.850; -652.000; -579.000
379.232;  -26.125; -126.000;  -73.000
379.362; -118.125;-1001.000; -885.000
379.492;  -11.750; -373.000; -424.000
379.623;   80.750;    0.000;  111.000
379.753; -104.375;-1107.000; -974.000
379.883;  175.700;   59.000;  156.000
380.013;  -15.700;-1081.000;-1017.000
380.143; -111.125;-1097.000;-1056.000
380.273; -110.700; -985.000; -861.000
380.403;  -10.325; -344.000; -257.000
380.533;  -31.050; -651.000; -664.000
380.663;   49.275;  173.000;  128.000
380.793; -102.600;-1027.000;-1074.000
380.923;  -29.075; -103.000;  -34.000
381.053;  -98.125; -613.000; -623.000
381.183;  -39.875; -106.000; -248.000
381.313;   11.300; -656.000; -470.000
381.443;   18.425; -692.000; -473.000
381.573;  192.350; -402.000; -409.000
381.703;  248.375;-1249.000;-1095.000
381.833; -150.200;-1454.000;-1336.000
381.963;   92.875; -134.000;  -87.000
382.093; 1341.675; -925.000; -909.000
382.223;  400.100; -713.000; -602.000
382.353;  -20.850; -801.000; -608.000
382.482;  333.850;-1091.000; -964.000
382.612;  725.350; -872.000; -644.000
382.742;  390.775; -695.000; -622.000
382.872;  217.350; -565.000; -551.000
383.002;   53.325;  347.000; -132.000
383.131;  -21.650; -226.000; -160.000
383.261;  -38.200; -706.000; -768.000
383.391;  276.925; -552.000; -377.000
383.521; 3203.250;  451.000;  263.000
383.650;  747.325; -947.000; -904.000
383.780;  -14.800; -783.000; -656.000
383.910;  119.100;  880.000;  802.000
384.039;    4.550; -794.000; -656.000
384.169;  178.775;-1205.000;-1017.000
384.299;  -36.575; -650.000; -662.000
384.428; -109.775; -764.000; -680.000
384.558;  -56.700; -308.000; -275.000
384.687;  -48.875; -414.000; -334.000
384.817;   10.950;   75.000;   -2.000
384.947;   15.600; -234.000; -141.000
385.076;  276.825;  982.000;  912.000
385.206;   88.075;  369.000;  480.000
385.335;  -30.050; -549.000; -417.000
385.465;  -82.800; -655.000; -663.000
385.594;  129.050;  -53.000;  -44.000
385.724;  382.850; -868.000; -838.000
385.853;  101.050; -296.000; -270.000
385.982; 1269.475; -743.000; -787.000
386.112; 2019.975;-1052.000; -871.000
386.241;  116.050; -307.000; -312.000
386.371;   -2.675; -174.000;  -87.000
386.500;  -27.775; -825.000; -789.000
386.629;    8.650; -874.000; -817.000
386.759;   50.450;  -43.000;   68.000
386.888;   -7.250; -170.000; -250.000
387.017;  -84.275; -648.000; -620.000
387.147;  -98.850; -771.000; -798.000
387.276;  -16.675; -410.000; -397.000
387.405;    7.550; -398.000; -342.000
387.535;  -51.050; -452.000; -361.000
387.664;  -56.600; -692.000; -620.000
387.793;   46.350; -198.000; -113.000
387.922;  488.225;  255.000;  200.000
388.052;   -8.225; -576.000; -423.000
388.181;   -2.975; -342.000; -472.000
388.310;  -13.225; -889.000; -710.000
388.439;  -46.200; -749.000; -742.000
388.568;  159.650;  365.000;  244.000
388.697;  988.925; -756.000; -653.000
388.826;  176.075; -768.000; -666.000
388.956;   40.150; -285.000; -307.000
389.085;  -45.350; -347.000; -287.000
389.214; -108.875; -842.000; -872.000
389.343;  -81.550; -645.000; -413.000
389.472;  389.125;  126.000;  149.000
389.601;  485.475;   91.000;    0.000
389.730;    1.400; -568.000; -687.000
389.859;   46.275;  226.000;   46.000
389.988;  159.875; -423.000; -408.000
390.117;  123.325; -168.000; -146.000
390.246;  -22.400; -331.000; -320.000
390.375;   87.150; -673.000; -626.000
390.504;  -74.150; -703.000; -621.000
390.633; -105.600; -672.000; -726.000
390.761;  -90.700; -732.000; -645.000
390.890;    6.475;   -4.000; -130.000
391.019;  -49.900; -421.000; -441.000
391.148; -137.350; -826.000; -855.000
391.277;  -70.000; -576.000; -493.000
391.406;  -88.825; -821.000; -805.000
391.534;   14.225;  574.000; -301.000
391.663;  -73.425; -583.000; -645.000
391.792;  -96.275; -673.000; -701.000
391.921;   82.725;   -3.000;   15.000
392.050;  148.775; -287.000; -228.000
392.178;  -51.500;-1206.000;-1061.000
392.307;  115.000; -758.000; -712.000
392.436;   55.650; -427.000; -641.000
392.564;    3.275;  166.000;   -6.000
392.693; -111.350; -860.000; -682.000
392.822;  190.875; -529.000; -534.000
392.950;   60.025; -880.000; -714.000
393.079;  300.800; -188.000; -328.000
393.208;   16.525; -488.000; -511.000
393.336;  -11.550; -170.000; -145.000
393.465;  -57.350; -317.000; -199.000
393.593;  -10.125;   62.000;   79.000
393.722; -159.725;-1121.000; -916.000
393.850;  -43.875; -188.000;  -61.000
393.979; -159.700; -926.000; -805.000
394.107;  -61.400; -517.000; -537.000
394.236;  -50.975; -570.000; -507.000
394.364;  177.900;  383.000;  206.000
394.493;  265.375; -911.000; -767.000
394.621;  -22.225; -955.000; -916.000
394.750;  711.250; -873.000; -923.000
394.878; 2929.675; -247.000; -149.000
395.007; 4024.125; -721.000; -807.000
395.135;  296.450; -790.000; -721.000
395.263;  -97.025;-1038.000;-1040.000
395.392;  -19.900;  -25.000; -107.000
395.520; -146.300; -818.000; -679.000
395.648; -109.050; -865.000; -915.000
395.777;  -40.600; -366.000; -405.000
395.905;  -61.275; -449.000; -564.000
396.033;  -13.550;  217.000;  172.000
396.162;  449.200; -399.000; -453.000
396.290;  409.500;  -17.000;   -2.000
396.418;   70.275; -555.000; -514.000
396.546;  -93.725; -571.000; -466.000
396.674; -101.950; -850.000; -878.000
396.803;  -15.275;  -72.000;  -23.000
396.931;   63.100; -179.000; -199.000
397.059;   21.150;-1026.000; -989.000
397.187; -111.525;-1026.000; -975.000
397.315; -145.875; -884.000; -649.000
397.443; -108.825; -592.000; -443.000
397.572;  -97.800; -578.000; -424.000
397.700;  -16.175; -607.000; -614.000
397.828;   -6.050;  120.000;  -90.000
397.956;  -52.675; -508.000; -478.000
398.084;  -85.750; -767.000; -626.000
398.212;    9.750;  137.000;  124.000
398.340;  -14.950;  -56.000;  159.000
398.468;    5.350; -390.000; -169.000
398.596; -148.950; -993.000; -953.000
398.724; -128.150; -762.000; -767.000
398.852; -167.800;-1024.000; -976.000
398.980;  -63.225; -560.000; -560.000
399.108;  -74.825; -982.000; -735.000
399.236;   21.150;   13.000;    8.000
399.363;    3.175;  222.000;  196.000
399.491;  -70.225; -404.000; -398.000
399.619; -133.250; -829.000; -800.000
399.747;  -97.300; -859.000; -771.000
399.875;   78.250;  220.000;  234.000
400.003;  -58.975; -359.000; -284.000
400.130;  -78.525; -421.000; -341.000
400.258;  -36.200;  -83.000;   38.000
400.386;  -71.075; -352.000; -168.000
400.514;  -63.275; -526.000; -587.000
400.641; -111.675; -928.000; -802.000
400.769; -150.100; -979.000; -888.000
400.897; -125.075; -838.000; -793.000
401.025;  -39.225; -166.000; -152.000
401.152;   -7.825;  220.000;   38.000
401.280;  -96.225; -430.000; -429.000
401.408; -123.500; -712.000; -576.000
401.535; -115.425; -735.000; -758.000
401.663; -193.100;-1134.000;-1054.000
401.790;  -93.750; -514.000; -525.000
401.918;   33.275;  436.000;  405.000
402.046;  -23.575;  134.000;  122.000
402.173;  -47.400;  -18.000;    7.000
402.301;  -69.075; -519.000; -397.000
402.428;   16.750;  528.000;  383.000
402.556; -154.900;-1188.000; -913.000
402.683;  -35.725;  -20.000;   -1.000
402.811;  -34.350;  -37.000; -206.000
402.938;  -29.225;   20.000;   27.000
403.066;  168.025; -574.000; -558.000
403.193;  320.650;  299.000;  239.000
403.321;  247.175; -396.000; -574.000
403.448;  297.725;   83.000;   27.000
403.575;  117.850;  -90.000;  -46.000
403.703; -100.400; -732.000; -557.000
403.830;  -74.775; -531.000; -496.000
403.957; -153.575;-1117.000;-1023.000
404.085;    3.825;  -61.000; -172.000
404.212;   93.175;  -50.000;   63.000
404.339;  248.325; -566.000; -306.000
404.467; 5808.125; -612.000; -524.000
404.594; 3800.625; -287.000; -227.000
404.721;  855.650; -869.000; -764.000
404.848;   59.250; -113.000; -202.000
404.976; -104.100; -856.000; -783.000
405.103;  -26.975;  -14.000;  -82.000
405.230;  -24.575;  190.000;  226.000
405.357;   15.875;  117.000;   44.000
405.484;  260.250;  -49.000;    5.000
405.612;   36.125; -548.000; -563.000
405.739;  -65.875; -488.000; -243.000
405.866;   69.575;  669.000;  385.000
405.993;  -63.750; -398.000; -102.000
406.120; -136.425; -801.000; -887.000
406.247;  -75.650; -323.000; -342.000
406.374;  407.675;  540.000;  629.000
406.501;   74.575; -632.000; -702.000
406.628;  -90.875; -621.000; -589.000
406.755; -108.425; -803.000; -620.000
406.882;  -47.150; -228.000; -277.000
407.009; -118.200; -719.000; -628.000
407.136;   31.775; -480.000; -401.000
407.263;   98.400; -939.000; -829.000
407.390;  -94.625; -692.000; -614.000
407.517; -182.375;-1139.000;-1187.000
407.644;  -79.000; -332.000; -256.000
407.771;  -82.925; -249.000; -287.000
407.898;   -0.700;  168.000;  328.000
408.025;  -80.925; -421.000; -313.000
408.151;  -14.750;   82.000;  153.000
408.278;  -75.375; -267.000; -216.000
408.405; -123.775; -931.000; -899.000
408.532;  -78.800; -549.000; -542.000
408.659; -132.600; -677.000; -648.000
408.785; -204.775;-1298.000;-1170.000
408.912;  -70.775; -412.000; -296.000
409.039; -127.425; -610.000; -686.000
409.166; -118.500; -591.000; -555.000
409.292; -115.000; -571.000; -534.000
409.419; -121.350; -665.000; -649.000
409.546;  -89.900; -431.000; -192.000
409.672; -122.150; -713.000; -545.000
409.799;  -35.225;  -36.000;   34.000
409.926;  -45.325; -180.000; -179.000
410.052; -186.900;-1127.000;-1091.000
410.179;  -64.800; -368.000; -392.000
410.305;  -95.900; -375.000; -493.000
410.432;  -58.425; -220.000; -333.000
410.558; -107.800; -305.000; -380.000
410.685; -120.350; -688.000; -431.000
410.812; -104.975; -409.000; -588.000
410.938; -148.250; -964.000; -808.000
411.065; -110.625; -671.000; -645.000
411.191;  -42.575; -189.000; -174.000
411.317; -137.600; -823.000; -742.000
411.444;  -62.250; -317.000; -246.000
411.570;  -89.850; -339.000; -294.000
411.697; -132.000; -758.000; -752.000
411.823; -185.825; -989.000; -999.000
411.949;  -51.750;  -56.000;   17.000
412.076; -112.825; -539.000; -519.000
412.202; -129.750; -758.000; -757.000
412.329; -144.800; -798.000; -752.000
412.455; -112.525; -821.000; -657.000
412.581;  -29.025;  -15.000;  172.000
412.707;  -82.350; -540.000; -457.000
412.834;    9.250;  156.000;  219.000
412.960;  -94.200; -785.000; -784.000
413.086;  -98.725; -743.000; -701.000
413.212;  134.050;  604.000;  578.000
413.339;  -77.250; -685.000; -701.000
413.465;  -16.175; -364.000; -310.000
413.591;  -94.750; -757.000; -474.000
413.717;  -72.575; -358.000; -366.000
413.843; -152.225; -839.000; -861.000
413.969;  -62.325;  -47.000; -292.000
414.096; -102.600; -679.000; -679.000
414.222;  -26.150;  -33.000;   85.000
414.348;  -39.675; -652.000; -385.000
414.474;   79.925;   38.000;  -52.000
414.600;  -31.125; -126.000; -144.000
414.726;  -24.875;  -96.000;  -55.000
414.852;  -58.675; -365.000; -342.000
414.978;   25.600;  104.000;  -18.000
415.104;   35.000;   38.000;   80.000
415.230;    8.175; -329.000; -330.000
415.356;   24.075; -409.000; -514.000
415.482;  172.375;   13.000;  -35.000
415.608;  261.025; -247.000; -323.000
415.734;  952.550;   67.000;   38.000
415.860;20004.475; -875.000; -767.000
415.986;14432.275; -685.000; -607.000
416.111; 1225.450; -798.000; -652.000
416.237;  233.675; -424.000; -571.000
416.363; 1133.950; -765.000; -733.000
416.489; 4195.750; -324.000; -251.000
416.615;  446.400; -707.000; -742.000
416.741;  -41.050; -677.000; -784.000
416.866;  -99.425; -673.000; -736.000
416.992; -124.800; -801.000; -818.000
417.118;  -38.400;  -41.000;  -80.000
417.244;  -73.050; -798.000; -531.000
417.369;  -87.025; -801.000; -612.000
417.495;  -16.575; -325.000; -254.000
417.621;  -88.500;-1015.000; -803.000
417.746;   -3.650; -579.000; -572.000
417.872;   28.575; -254.000; -144.000
417.998;   44.725; -515.000; -530.000
418.123; 1062.775;-1073.000; -845.000
418.249; 5416.150; -512.000; -601.000
418.374;  750.200; -916.000; -824.000
418.500;  108.100; -383.000; -482.000
418.626;  113.800;   70.000;  -59.000
418.751;  112.575; -549.000; -448.000
418.877;  187.650; -637.000; -643.000
419.002; 1833.125; -688.000; -560.000
419.128;12706.925; -930.000; -721.000
419.253; 3065.425; -967.000; -837.000
419.379;  385.775; -391.000; -338.000
419.504;  374.675;  325.000;  415.000
419.629;  500.325; -393.000; -212.000
419.755; 3608.525; -317.000; -254.000
419.880;21392.950;  -98.000;   67.000
420.006;11535.150; -280.000; -221.000
420.131;29548.475; -662.000; -775.000
420.256; 4230.500; -315.000; -316.000
420.382;  551.100; -665.000; -687.000
420.507;   71.350; -649.000; -778.000
420.632;  113.200; -337.000; -339.000
420.758;  210.550; -251.000; -425.000
420.883;  -87.875; -876.000; -672.000
421.008; -108.500; -775.000; -619.000
421.133;  -88.925; -509.000; -467.000
421.259;  -53.300; -325.000; -259.000
421.384; -124.700; -834.000; -693.000
421.509;  -63.200;-1052.000; -862.000
421.634; 1079.250; -936.000; -820.000
421.759;  456.750; -359.000; -327.000
421.885;  -63.000; -717.000; -656.000
422.010;  -84.750; -673.000; -542.000
422.135; -169.050; -695.000; -727.000
422.260;   30.675;  340.000;  280.000
422.385;  -49.050;   12.000;  -98.000
422.510;   -7.225;  151.000;  -26.000
422.635;    1.675;  -87.000;  -43.000
422.760;   64.800; -766.000; -791.000
422.885;   44.300;  -57.000;  -80.000
423.010;  -35.875; -112.000; -169.000
423.135; -117.400; -481.000; -561.000
423.260;   -9.250; -150.000; -245.000
423.385;   70.050;  476.000;  222.000
423.510;    9.025;   71.000;  -22.000
423.635;   75.075;  133.000;   45.000
423.760;   55.075;  383.000;  328.000
423.885;   44.625;  336.000;  391.000
424.010;    6.100;  -68.000;  -13.000
424.135;  -28.750;    5.000;  -33.000
424.259;  -84.150; -654.000; -457.000
424.384;  -63.050; -279.000; -272.000
424.509;  -29.975; -260.000; -186.000
424.634;  -98.250; -761.000; -623.000
424.759;  -32.025; -688.000; -544.000
424.883;  -21.950; -506.000; -527.000
425.008;  152.500; -502.000; -410.000
425.133; 2013.850; -679.000; -653.000
425.258;  923.650; -517.000; -381.000
425.382;  985.650; -867.000; -774.000
425.507; 2524.575; -487.000; -543.000
425.632;  409.475; -802.000; -663.000
425.756;  452.725; -256.000; -146.000
425.881; 6605.050; -831.000; -857.000
426.006;17977.775; -604.000; -355.000
426.130; 2787.325; -696.000; -508.000
426.255;  331.500; -611.000; -491.000
426.379;  143.975; -189.000; -577.000
426.504;  361.350;  660.000;  544.000
426.629; 4032.750; -519.000; -466.000
426.753; 2764.000;   64.000;  -46.000
426.878;  311.625; -252.000; -288.000
427.002;  136.850; -651.000; -668.000
427.127; 1587.350;  -35.000; -158.000
427.251;11481.350;  372.000;  401.000
427.375; 3243.400; -191.000; -173.000
427.500; 2176.700; -616.000; -610.000
427.624;  729.875; -234.000; -400.000
427.749;   81.575; -216.000; -225.000
427.873;  -64.025; -499.000; -412.000
427.997;  -43.825; -222.000; -230.000
428.122;   57.300;  795.000;  703.000
428.246;   51.650;  433.000;  434.000
428.371; -134.225; -869.000; -773.000
428.495; -118.200; -624.000; -646.000
428.619;  -41.125; -186.000; -117.000
428.743;   16.425;   65.000;  132.000
428.868;    3.700; -732.000; -643.000
428.992; 1304.625; -219.000; -326.000
429.116;  531.300; -329.000; -357.000
429.240;  243.500;  419.000;  426.000
429.365;  -28.550; -454.000; -574.000
429.489;  -51.100; -638.000; -647.000
429.613;   -0.775; -236.000; -177.000
429.737;   19.425; -563.000; -432.000
429.861;  256.300; -247.000; -133.000
429.985; 5619.750; -425.000; -305.000
430.109; 6124.000; -770.000; -908.000
430.234;  699.475;   76.000;  -50.000
430.358;   53.925; -250.000; -160.000
430.482;  -79.750; -672.000; -564.000
430.606;  -83.075; -655.000; -375.000
430.730;   -2.575; -437.000; -388.000
430.854;   94.075; -909.000; -835.000
430.978;  -85.600; -795.000; -764.000
431.102; -107.750; -499.000; -422.000
431.226; -127.775; -874.000; -815.000
431.350;   25.775;  345.000;  422.000
431.474;  -86.075; -661.000; -373.000
431.597; -148.150;-1060.000; -848.000
431.721;  -96.975; -276.000; -267.000
431.845; -124.875; -704.000; -472.000
431.969;  -85.075; -304.000; -349.000
432.093;  -86.425; -395.000; -317.000
432.217;  -29.375;   32.000;   82.000
432.341;  -96.725; -523.000; -518.000
432.464;    0.350;   96.000;   40.000
432.588;  179.200; -401.000; -329.000
432.712;   87.300;  -52.000;  -52.000
432.836;   36.775;  213.000;  263.000
432.959;  -38.000; -372.000; -311.000
433.083;   80.825;   11.000;    2.000
433.207;  376.675;  285.000;  930.000
433.330; 5105.600; -391.000; -200.000
433.454; 6254.325; -654.000; -638.000
433.578; 3618.975;  583.000;  278.000
433.701;  645.500; -623.000; -675.000
433.825;  116.725; -292.000; -299.000
433.949;  140.375;   28.000;  -72.000
434.072;   30.025; -410.000; -323.000
434.196;  -14.150; -309.000; -117.000
434.319; 3685.125;25482.000;25124.000
434.443;  698.175; -656.000; -603.000
434.566; 2684.450;  281.000;   62.000
434.690;  442.400; -637.000; -383.000
434.813;   45.650; -251.000; -173.000
434.937;  -89.875; -569.000; -696.000
435.060;  -53.150; -423.000; -332.000
435.184;  263.850; -492.000; -217.000
435.307;  135.525;  159.000;  102.000
435.431;  -22.950;  -40.000;   24.000
435.554;  -85.775; -399.000; -240.000
435.677;  -91.875; -350.000; -258.000
435.801;  -50.075;  -25.000;   49.000
435.924;  -25.275;    1.000;  -67.000
436.048; -138.000;-1019.000; -732.000
436.171;  -69.875; -240.000;  -66.000
436.294;  -33.600; -248.000; -229.000
436.417;   84.075; -963.000; -849.000
436.541;  -86.900; -814.000; -840.000
436.664;  -55.225; -242.000; -316.000
436.787;  -35.475;   13.000;  113.000
436.910; -121.450; -792.000; -422.000
437.034;  -12.550;  142.000;  143.000
437.157;   37.125;  -11.000;    0.000
437.280;  -61.150; -392.000; -292.000
437.403;  -94.650; -982.000; -869.000
437.526;  563.725; -903.000; -865.000
437.649; 2063.850; -505.000; -332.000
437.772;  266.750; -692.000; -540.000
437.896;   98.875;  700.000;  544.000
438.019; -118.350; -758.000; -503.000
438.142; -107.325; -596.000; -506.000
438.265;  -21.475; -639.000; -670.000
438.388;  485.475; -520.000; -410.000
438.511;   90.125; -597.000; -394.000
438.634;  -57.525; -247.000; -125.000
438.757; -146.875; -693.000; -619.000
438.880;  -32.625;  -34.000;  -57.000
439.003;  -78.975; -417.000; -437.000
439.126;  -74.000; -287.000; -167.000
439.248;  -69.575;  -98.000; -139.000
439.371;  -58.400;    9.000;  -53.000
439.494;   20.150;  510.000;  439.000
439.617;  -60.075;   65.000;  -88.000
439.740; -190.925; -968.000; -816.000
439.863; -156.175; -755.000; -595.000
439.986; -134.450; -476.000; -431.000
440.108;  -60.025; -161.000; -112.000
440.231; -175.750; -950.000; -836.000
440.354;  -61.125;  -64.000; -150.000
440.477;   11.200; -566.000; -542.000
440.599;  -13.425; -200.000; -225.000
440.722; -139.300; -709.000; -586.000
440.845;   54.000;  751.000;  928.000
440.968; -122.800; -415.000; -311.000
441.090;  -65.400; -199.000;  -33.000
441.213; -184.500;-1021.000; -825.000
441.336;  -66.975; -159.000;   -5.000
441.458;  -92.700; -549.000; -396.000
441.581; -100.025; -628.000; -629.000
441.703;  -79.500; -152.000;   13.000
441.826; -127.150; -557.000; -400.000
441.948;  -47.500;   56.000;   51.000
442.071;   16.650;  555.000;  424.000
442.193; -131.250; -531.000; -485.000
442.316;    8.425;  152.000;   97.000
442.438;   29.125; -233.000;  -10.000
442.561;   60.400;  272.000;  262.000
442.683;  489.575; -809.000; -522.000
442.806; 1047.825;   -8.000;   74.000
442.928;   -1.925; -859.000; -604.000
443.051;  -81.750; -577.000; -373.000
443.173; -107.325; -341.000; -339.000
443.295; -107.350; -263.000; -371.000
443.418;  -88.875; -321.000;  -29.000
443.540;   -8.425; -106.000;   -4.000
443.662; -128.075; -563.000; -465.000
443.785;  -29.975;  335.000;  199.000
443.907; -104.050; -362.000; -208.000
444.029; -136.700; -767.000; -494.000
444.152; -153.550; -644.000; -554.000
444.274;  -49.800;  -18.000;  -24.000
444.396; -119.575; -461.000; -221.000
444.518; -133.375; -691.000; -454.000
444.640; -118.075; -268.000; -111.000
444.763;  -31.925;  388.000;  249.000
444.885; -136.900; -432.000; -392.000
445.007;  -44.750;   35.000;   86.000
445.129; -112.525; -610.000; -515.000
445.251; -110.775; -372.000; -439.000
445.373; -142.100; -537.000; -386.000
445.495;  -16.775;  242.000;  350.000
445.617;   43.075;  853.000;  753.000
445.739;  -73.500; -215.000;  -97.000
445.861;  -45.050; -245.000; -112.000
445.984;  -47.750; -267.000; -101.000
446.105;  165.375; -418.000; -251.000
446.227;  541.925; -176.000;  -19.000
446.349;  -13.275; -358.000; -249.000
446.471; -108.725; -615.000; -448.000
446.593;  -68.975; -316.000;   19.000
446.715;  -26.650;  -67.000;   41.000
446.837;   52.275;  697.000;  832.000
446.959; -110.175; -457.000; -478.000
447.081; -137.075; -628.000; -518.000
447.203;   51.200;  862.000;  834.000
447.325;  -90.275; -270.000;   42.000
447.446;   -6.375;  286.000;  530.000
447.568; -167.825; -921.000; -803.000
447.690;  -88.650; -236.000; -245.000
447.812; -154.300; -798.000; -519.000
447.933;  -24.500;  155.000;  127.000
448.055;  -79.400; -306.000; -261.000
448.177;  121.375;   31.000;   79.000
448.299;   58.250; -935.000; -727.000
448.420;   15.025;  -25.000;  159.000
448.542;  -47.875;   -3.000;   33.000
448.664;  -40.700;  109.000;  322.000
448.785;  -49.925;  265.000;   83.000
448.907;  -92.750; -614.000; -353.000
449.028;  -44.975; -771.000; -471.000
449.150;   62.975;  492.000;  589.000
449.272; -183.800;-1044.000; -913.000
449.393;   19.900;  612.000;  694.000
449.515; -152.000; -634.000; -581.000
449.636;  -64.075; -264.000; -155.000
449.758;   64.375;  763.000;  622.000
449.879;  -98.250; -498.000; -396.000
450.001;  -84.050; -149.000;  -49.000
450.122;  -36.375;  -95.000;  162.000
450.244;  -31.125;   37.000;  364.000
450.365; -100.300; -495.000; -301.000
450.486;  -36.725;   80.000;  268.000
450.608;    5.150;  393.000;  326.000
450.729;   77.600;  578.000;  645.000
450.850;  -14.850; -574.000; -466.000
450.972;  770.100; -552.000; -389.000
451.093; 4960.900;  190.000;  588.000
451.214; 2148.450; -516.000; -337.000
451.336;  393.925;  773.000;  579.000
451.457;   63.700;  264.000;  393.000
451.578;  -60.800; -118.000;  -74.000
451.699; -125.075; -546.000; -540.000
451.821;  -60.325; -284.000;  -50.000
451.942;  -14.650;  278.000;  285.000
452.063;   21.450;  228.000;  419.000
452.184;  563.325;  -54.000;  -49.000
452.305; 1093.300;  103.000;  170.000
452.427;  122.075; -549.000; -301.000
452.548;  -24.425;   23.000;   79.000
452.669;  -46.425; -257.000;  -89.000
452.790;  -59.625;    3.000;  -18.000
452.911;  -15.225;  195.000;  259.000
453.032;  -92.625; -289.000;  -60.000
453.153;  -68.300;  -29.000;   81.000
453.274;   45.950;  737.000;  868.000
453.395;  -66.650;  -51.000;  175.000
453.516;  110.000; 1317.000; 1388.000
453.637;  -77.000; -205.000; -150.000
453.758;  -72.075;   15.000;   69.000
453.879; -119.800; -462.000; -250.000
454.000;   60.350; 1086.000;  948.000
454.121; -122.850; -554.000; -326.000
454.242; -126.025; -599.000; -383.000
454.362;  -75.100;  -99.000;  114.000
454.483;  -39.850; -309.000; -229.000
454.604;   38.600;  512.000;  580.000
454.725; -148.850; -627.000; -555.000
454.846; -136.250; -474.000; -406.000
454.967;  -40.875;  230.000;  539.000
455.087;  -53.825;  179.000;  153.000
455.208;   11.425;  554.000;  856.000
455.329;  -74.775;  -22.000;   82.000
455.450;   29.375;  473.000;  633.000
455.570;  -89.200; -234.000; -211.000
455.691;  -60.025;  201.000;  407.000
455.812; -117.825; -270.000;  -92.000
455.932;  -68.450;  107.000;  -97.000
456.053;  -94.575;   36.000;   24.000
456.173; -125.325; -433.000; -355.000
456.294; -138.950; -476.000; -303.000
456.415;  -70.050;  -73.000;   70.000
456.535;  -49.100;  297.000;  273.000
456.656;  -40.275;  132.000;  240.000
456.776;  -86.375;    3.000;  298.000
456.897;   -6.150;  308.000;  513.000
457.017;  -91.750; -153.000;   -3.000
457.138; -110.825; -402.000; -249.000
457.258;  -27.625;  263.000;  224.000
457.379;  -15.825;  509.000;  521.000
457.499;  -43.200;  443.000;  432.000
457.620; -123.750; -407.000; -231.000
457.740;  -92.275; -132.000;  -11.000
457.860;  -64.650;   87.000;   44.000
457.981;  -60.350;  132.000;  124.000
458.101;  -94.525;  -89.000;   40.000
458.221;  -15.925;  336.000;  402.000
458.342;  -62.825;   -4.000;  -37.000
458.462;   21.600;  617.000;  352.000
458.582;  -49.025; -302.000; -294.000
458.703;   -4.350;  303.000;  154.000
458.823;  -28.475;   22.000;  163.000
458.943;   20.300;  341.000;  467.000
459.063;  -19.550; 1124.000;  192.000
459.183;  -55.675;  328.000;  313.000
459.304;   11.250;  315.000;  517.000
459.424;  -73.675; -246.000;  -89.000
459.544;  322.775;  388.000;  764.000
459.664;  814.925;  499.000;  506.000
459.784;  300.025; 1004.000; 1175.000
459.904;   49.675;  867.000;  744.000
460.024;   63.050;  867.000;  684.000
460.144;    5.875;  449.000;  554.000
460.264;  -17.850;  515.000;  327.000
460.385; -105.500; -145.000; -119.000
460.505;   20.625;  905.000;  858.000
460.625; -112.350;  -17.000;  -68.000
460.745;  -28.775;  396.000;  541.000
460.864;  -49.525;  153.000;  469.000
460.984;   -4.300;  499.000;  573.000
461.104;  125.275; 1656.000; 1775.000
461.224;    7.025;  657.000;  650.000
461.344;  -37.325;  431.000;  360.000
461.464;  -43.750;  258.000;  513.000
461.584;  -31.025;  283.000;  466.000
461.704;  -58.375;   58.000;  108.000
461.824;  -72.250;  238.000;  259.000
461.943;  -39.425;  191.000;  130.000
462.063;  -88.175;    2.000;  324.000
462.183;   24.675;  639.000;  717.000
462.303;   97.725; 1678.000; 1230.000
462.422;   23.175;  781.000;  840.000
462.542;  -36.700;  271.000;  391.000
462.662;   26.800;  353.000;  380.000
462.782;  219.150;  833.000;  572.000
462.901;  487.400;  545.000;  717.000
463.021;  280.800; 1702.000; 1638.000
463.141;  -36.425;  337.000;  770.000
463.260;  -29.800;  614.000;  474.000
463.380;    3.600;  902.000;  884.000
463.499;  -55.000;  342.000;  332.000
463.619;  -42.775;  581.000;  559.000
463.738;  118.050; 1644.000;  903.000
463.858;   -5.325;  657.000;  811.000
463.978;  -41.475;  542.000;  396.000
464.097;   47.550;  921.000; 1114.000
464.217;   94.950; 1196.000; 1143.000
464.336;  108.425; 1068.000; 1130.000
464.455;  -47.850;  328.000;  659.000
464.575;   22.325;  597.000;  602.000
464.694;  161.350; 1204.000; 1179.000
464.814;  109.600; 1190.000; 1138.000
464.933;   76.050; 1095.000; 1027.000
465.052;   83.425; 1412.000; 1054.000
465.172;   63.375;  922.000;  799.000
465.291;  116.900; 1376.000; 1320.000
465.410;   -2.925;  462.000;  735.000
465.530;   67.975; 1355.000; 1310.000
465.649;   60.250; 1209.000; 1273.000
465.768;  128.250; 1673.000; 1508.000
465.888;   27.450;  941.000; 1174.000
466.007;   86.225; 1335.000; 1440.000
466.126;   -4.325;  721.000;  641.000
466.245;   26.550; 1176.000; 1187.000
466.364;   18.050;  950.000; 1060.000
466.484;   60.700; 1024.000; 1213.000
466.603;   12.500; 1101.000; 1222.000
466.722;  110.425; 1490.000; 1769.000
466.841;   66.825; 1151.000; 1401.000
466.960;   23.825; 1069.000;  972.000
467.079;  122.600; 1971.000; 1786.000
467.198;   47.700; 1238.000; 1181.000
467.317;   84.075; 1768.000; 1162.000
467.436;   67.425; 1709.000; 1261.000
467.555;  117.725; 1796.000; 1746.000
467.674;   51.900; 1227.000; 1329.000
467.793;   38.975; 1376.000; 1374.000
467.912;   69.025; 1658.000; 1539.000
468.031;  121.200; 2038.000; 1930.000
468.150;  140.475; 1842.000; 1837.000
468.269;  187.250; 2313.000; 2090.000
468.388;  177.200; 2168.000; 2339.000
468.507;  245.075; 2884.000; 2903.000
468.626;  209.700; 2555.000; 2541.000
468.744;  121.025; 2018.000; 2174.000
468.863;  190.475; 2312.000; 2523.000
468.982;   85.475; 1503.000; 1555.000
469.101;  218.050; 2788.000; 2692.000
469.220;  155.650; 2333.000; 2176.000
469.338;  239.000; 2935.000; 3051.000
469.457;  190.725; 2719.000; 2545.000
469.576;  352.100; 3953.000; 3784.000
469.695;  244.925; 2877.000; 3066.000
469.813;  411.050; 4148.000; 4192.000
469.932;  406.300; 4255.000; 4485.000
470.051;  419.500; 4075.000; 4161.000
470.169;  859.025; 4470.000; 4338.000
470.288; 1458.950; 4700.000; 4809.000
470.406;  881.300; 5059.000; 5194.000
470.525;  646.225; 6101.000; 5787.000
470.644;  634.950; 6847.000; 6794.000
470.762;  821.325; 8397.000; 7873.000
470.881;  906.575; 8651.000; 8464.000
470.999; 1030.875; 9685.000; 9151.000
471.118; 1130.050;11174.000;10711.000

