
Integration time [ms]: 100.000
Averaging Nr. [scans]: 40
Smoothing Nr. [pixels]: 0
Data measured with spectrometer [name]: 2101012U2
Wave   ;Sample   ;Dark     ;Reference
[nm]   ;[counts] ;[counts] ;[counts] 

197.733;   54.575;  516.000;  404.000
197.879;  -91.025; -610.000; -634.000
198.025;  -56.125; -475.000; -420.000
198.171;  -70.800; -602.000; -612.000
198.317;  -21.175; -401.000; -316.000
198.463;  -70.125; -655.000; -404.000
198.609;   33.400;  181.000; -137.000
198.755;  -69.025; -644.000; -410.000
198.901;  -67.900; -505.000; -424.000
199.047;  -71.450; -615.000; -488.000
199.193;  -35.425; -230.000; -468.000
199.339;  -47.525; -222.000; -369.000
199.485;   39.475;  330.000;  271.000
199.631;   15.275;  227.000;  310.000
199.777;  -46.325; -466.000; -398.000
199.923;  -68.950; -610.000; -424.000
200.069;   -0.450; -141.000;  -58.000
200.215;   59.950;  128.000;  453.000
200.361;   26.800;  243.000;  477.000
200.507;  -50.025; -600.000; -373.000
200.653;  -34.725; -371.000; -194.000
200.798;  -29.800; -215.000; -125.000
200.944;   -4.400; -146.000;  -41.000
201.090;   35.475;   61.000;  222.000
201.236;    8.450; -116.000; -158.000
201.382;  116.725;  874.000;  903.000
201.528;   -2.850;  -58.000;  -48.000
201.674;  -60.550; -386.000; -293.000
201.819;  -71.450; -540.000; -439.000
201.965;  -80.850; -699.000; -447.000
202.111;  -24.725; -273.000; -226.000
202.257;  -43.400; -250.000; -238.000
202.402;   -0.100;   13.000;  -36.000
202.548;  -31.125; -169.000; -116.000
202.694;   77.375;  410.000; -183.000
202.840;  -82.000; -603.000; -531.000
202.985;  -65.850; -681.000; -639.000
203.131; -108.175; -832.000; -666.000
203.277;  -16.775; -199.000; -262.000
203.423;  -58.375; -434.000; -520.000
203.568;  -35.250; -462.000; -237.000
203.714;  -61.975; -535.000; -542.000
203.860;  -73.925; -682.000; -641.000
204.005;   13.350;  112.000;  167.000
204.151;   78.025;  561.000;  556.000
204.296;  -49.050; -354.000; -221.000
204.442;  -75.500; -600.000; -547.000
204.588;  -85.375; -592.000; -579.000
204.733;   26.425;  178.000;  168.000
204.879; -131.500;-1018.000; -822.000
205.025;   12.775;  -99.000;  126.000
205.170;   -6.350;  -17.000;   94.000
205.316;   80.275;  438.000;  661.000
205.461;  -88.600; -698.000; -554.000
205.607;   85.950;  609.000;  665.000
205.752;  -75.950; -626.000; -551.000
205.898;  -53.725; -501.000; -391.000
206.043;  -59.800; -578.000; -506.000
206.189;  -46.875; -243.000; -285.000
206.334;   79.350;  554.000;  606.000
206.480;   66.175;  409.000;  239.000
206.625;  -91.125; -529.000; -552.000
206.771;  -42.075; -451.000; -373.000
206.916;  -42.500; -210.000; -537.000
207.062;  -68.350; -545.000; -591.000
207.207;  -69.300; -546.000; -443.000
207.353;   39.850;  185.000;  460.000
207.498;   22.475;  196.000;   85.000
207.643;  -50.550; -501.000; -370.000
207.789; -125.300;-1069.000; -910.000
207.934;  -94.475; -665.000; -713.000
208.080;  -36.650; -154.000;   66.000
208.225;   -9.600;  -22.000;  -57.000
208.370;  -85.875; -727.000; -619.000
208.516;  -73.125; -741.000; -487.000
208.661;  -24.925; -127.000;  -69.000
208.806;  -21.450; -165.000; -171.000
208.952; -122.625;-1044.000; -731.000
209.097;   73.825;  378.000;  349.000
209.242;  -58.800; -307.000; -382.000
209.387;   69.525;  392.000;  350.000
209.533;  -54.525; -321.000; -350.000
209.678;   77.475;  472.000;  543.000
209.823;  -62.450; -408.000; -310.000
209.969;  -97.275; -860.000; -757.000
210.114; -110.675; -907.000; -719.000
210.259; -121.825; -939.000; -889.000
210.404;  -14.425; -171.000;  103.000
210.549;   14.050;  108.000;    3.000
210.695;   -6.075;   -3.000;  -95.000
210.840;   36.350;   94.000;   67.000
210.985;  -67.250; -484.000; -303.000
211.130;   59.800;  268.000;  406.000
211.275;    1.950;  207.000;  199.000
211.420;  -56.550; -300.000; -289.000
211.566;  -68.150; -536.000; -489.000
211.711;   27.225;  218.000;  157.000
211.856;  -64.925; -545.000; -519.000
212.001;   20.975;  151.000;   44.000
212.146;   31.400;  153.000;   49.000
212.291;  -34.050; -210.000; -186.000
212.436;  -35.100; -280.000;   -6.000
212.581;  -84.200; -685.000; -653.000
212.726;  -74.800; -487.000; -538.000
212.871;  -43.775; -552.000; -217.000
213.016; -163.525;-1172.000;-1029.000
213.161;   75.450;  406.000;  291.000
213.306;  -88.200; -435.000; -577.000
213.451;  -95.725; -778.000; -689.000
213.596;  -46.750; -455.000; -347.000
213.741;  -48.975; -448.000; -538.000
213.886;  -75.250; -498.000; -517.000
214.031;  -34.225; -294.000; -124.000
214.176;  -65.000; -408.000; -341.000
214.321;  -15.875; -296.000; -157.000
214.466;  -35.050; -163.000;  -43.000
214.611;   -6.950;  -61.000;  -10.000
214.756; -125.000; -948.000; -858.000
214.901;  -25.275; -388.000; -226.000
215.046; -131.275; -797.000; -825.000
215.191;   25.125;  128.000;   35.000
215.336;   -5.775; -157.000;  -19.000
215.480;  -72.625; -684.000; -505.000
215.625;  -18.825; -175.000;  -19.000
215.770;  -68.700; -757.000; -662.000
215.915;  -16.650;   -5.000;  -97.000
216.060;    4.475; -113.000;  -21.000
216.205; -109.025; -731.000; -779.000
216.349;  -74.950; -470.000; -533.000
216.494; -143.525; -939.000; -867.000
216.639; -115.100; -823.000; -888.000
216.784;  -84.300; -577.000; -525.000
216.929;   46.325;  392.000;  281.000
217.073;  -17.275; -244.000;  -31.000
217.218;    6.425;   78.000;  -47.000
217.363;  -91.125; -656.000; -618.000
217.507;  -81.775; -623.000; -588.000
217.652; -131.725; -845.000; -874.000
217.797;  -95.600; -708.000; -659.000
217.942; -104.225; -856.000; -720.000
218.086;   67.225;  608.000;  539.000
218.231;  -28.125; -174.000;  -26.000
218.376;  -38.675; -337.000; -229.000
218.520;    2.600;  -41.000;   96.000
218.665;  -37.150; -338.000; -204.000
218.810;  -52.400; -275.000; -233.000
218.954;    5.825;  201.000;   35.000
219.099; -127.125; -713.000; -963.000
219.243;  -92.350; -589.000; -554.000
219.388;  -24.225; -264.000; -136.000
219.532;   -3.350; -116.000; -116.000
219.677;  -73.950; -564.000; -521.000
219.822;    1.275;   33.000;   89.000
219.966;    1.000;   17.000;  -99.000
220.111;  -25.500; -328.000;  -40.000
220.255; -101.225; -797.000; -750.000
220.400;  -33.025; -180.000; -146.000
220.544;  -73.550; -516.000; -450.000
220.689;  -55.600; -422.000; -451.000
220.833;  -29.950; -123.000;  -58.000
220.978;  -44.875; -393.000; -563.000
221.122;   31.550;  319.000;  307.000
221.267; -117.050; -906.000; -837.000
221.411;  -71.675; -478.000; -394.000
221.555;  -16.800; -104.000;  -23.000
221.700;  -56.075; -329.000; -222.000
221.844;   37.025;  255.000;  272.000
221.989;  -47.775; -328.000; -311.000
222.133;  -28.975; -289.000; -307.000
222.277;  -13.825;    5.000;   78.000
222.422;   21.100;  227.000;  113.000
222.566;  -40.750; -381.000; -214.000
222.711;  -64.525; -414.000; -479.000
222.855;  -81.500; -643.000; -586.000
222.999;  -95.150; -642.000; -717.000
223.144;  -42.500; -195.000; -194.000
223.288;   57.750;  423.000;  251.000
223.432;   32.600;  184.000;  230.000
223.576;   12.025;  152.000;  -21.000
223.721;   46.900;  364.000;  273.000
223.865;  -57.075; -472.000; -475.000
224.009;  268.175; 1673.000; 1631.000
224.153;  -79.325; -660.000; -671.000
224.298;  -61.950; -531.000; -489.000
224.442;  -16.200;  -74.000;  -33.000
224.586;  -28.700; -169.000; -106.000
224.730;  -95.850; -858.000; -670.000
224.875; -102.175; -739.000; -688.000
225.019;    4.500;  102.000;  188.000
225.163;   59.525;  208.000;  341.000
225.307;   17.350;   97.000;  -91.000
225.451;   33.250;  360.000;  481.000
225.595;   22.625;  264.000;  176.000
225.739;  -10.425; -170.000;  -94.000
225.884;    7.800;   86.000;    5.000
226.028;  -92.150; -760.000; -626.000
226.172;  -38.550; -260.000; -273.000
226.316; -112.875; -941.000; -902.000
226.460;  -70.200; -645.000; -493.000
226.604;  -56.200; -406.000; -400.000
226.748;  -98.325; -836.000; -733.000
226.892;  -36.150; -227.000; -181.000
227.036;  -35.225; -537.000; -447.000
227.180;  -77.950; -551.000; -375.000
227.324;  -64.675; -561.000; -580.000
227.468; -123.525; -819.000; -717.000
227.612;   -0.075;  242.000;  -28.000
227.756; -111.975; -845.000; -698.000
227.900;   57.200;  342.000;  441.000
228.044;  -60.075; -509.000; -290.000
228.188;   51.850;  448.000;  568.000
228.332;  -82.275; -546.000; -472.000
228.476;  -28.675; -223.000; -149.000
228.620;  -32.900; -210.000; -150.000
228.764;   52.350;  431.000;  349.000
228.908;  -18.825; -155.000;   30.000
229.052;  -58.000; -615.000; -528.000
229.195;  -31.075; -172.000;   13.000
229.339;  -36.925; -235.000; -305.000
229.483;  -41.525;    5.000; -162.000
229.627;  -13.850; -156.000;  139.000
229.771;  -55.000; -218.000; -294.000
229.915;   14.700;  230.000;   79.000
230.059;  -83.550; -648.000; -663.000
230.202;  -33.275; -370.000; -317.000
230.346;  -17.575; -107.000;  107.000
230.490;  -64.075; -489.000; -521.000
230.634; -108.550; -736.000; -553.000
230.777;   65.175;  478.000;  509.000
230.921;  -54.500; -450.000; -359.000
231.065;  -45.275; -246.000; -286.000
231.209;   21.900;  261.000;  265.000
231.352;   19.075;   54.000;   40.000
231.496;   11.525;  568.000;  188.000
231.640;  -80.250; -693.000; -621.000
231.783;   65.850;  546.000;  525.000
231.927;  -39.875; -294.000; -365.000
232.071; -116.700; -962.000; -736.000
232.214; -100.450; -980.000; -764.000
232.358;  -90.475; -683.000; -599.000
232.502;    4.450;  -19.000;    7.000
232.645; -130.125;-1090.000; -927.000
232.789;  -21.925; -257.000; -218.000
232.933;  -53.825; -407.000; -224.000
233.076; -132.025;-1038.000; -897.000
233.220; -111.250; -752.000; -777.000
233.363;  -88.275; -669.000; -477.000
233.507;   46.525;  371.000;  129.000
233.650;  -92.875; -764.000; -834.000
233.794;   36.525;  438.000;  461.000
233.938;  -63.400; -530.000; -362.000
234.081;  -18.075;  -93.000;   31.000
234.225;  -72.075; -631.000; -539.000
234.368; -118.075; -773.000; -723.000
234.512;  -46.175; -385.000; -299.000
234.655;  -89.850; -582.000; -555.000
234.798;  -82.950; -493.000; -466.000
234.942; -135.625; -884.000;-1002.000
235.085;  -70.550; -651.000; -443.000
235.229;  -73.700; -405.000; -410.000
235.372;  -53.450; -247.000; -191.000
235.516;  -63.000; -397.000; -321.000
235.659;   23.050;   92.000;  121.000
235.802;  -12.725;  -38.000;  -22.000
235.946;   23.700;  335.000;  215.000
236.089;   24.275;  126.000;  250.000
236.233;   42.600;  275.000;  298.000
236.376;  -47.825; -235.000; -378.000
236.519;  -56.800; -297.000; -319.000
236.663;  -24.400; -215.000; -117.000
236.806; -139.575;-1029.000; -999.000
236.949;   57.700;  543.000;  431.000
237.092;   49.475;  412.000;  391.000
237.236;  -99.550; -589.000; -502.000
237.379;   65.000;  352.000;  428.000
237.522; -127.325; -879.000; -768.000
237.666;  -22.250; -271.000;   18.000
237.809; -127.875; -851.000; -823.000
237.952;   31.875;  469.000;  271.000
238.095;  -64.750; -447.000; -442.000
238.238;   88.300;  688.000;  700.000
238.382;   -2.850;  166.000;  103.000
238.525;  -77.175; -598.000; -511.000
238.668; -147.000;-1060.000; -985.000
238.811;  -88.650; -638.000; -643.000
238.954;  -48.725; -483.000; -334.000
239.097;   74.000;  617.000;  664.000
239.241;   28.225;  394.000;  326.000
239.384;  -44.175; -254.000; -214.000
239.527;  -57.125; -424.000; -224.000
239.670; -150.075; -994.000;-1091.000
239.813; -115.800; -696.000; -658.000
239.956;   85.500;  579.000;  473.000
240.099; -117.350; -778.000; -725.000
240.242;   71.375;  428.000;  432.000
240.385;   38.025;  466.000;  450.000
240.528;  -78.300; -706.000; -473.000
240.671;    9.650;  189.000;  134.000
240.814;  -48.650; -441.000; -158.000
240.957; -107.675; -767.000; -578.000
241.100; -109.600; -779.000; -755.000
241.243; -151.600;-1234.000; -893.000
241.386;  -65.425; -508.000; -379.000
241.529;  -88.725; -735.000; -547.000
241.672;  -71.825; -566.000; -495.000
241.815; -126.300; -832.000; -808.000
241.958;  -23.750; -125.000; -182.000
242.101;  -88.000; -545.000; -390.000
242.244;  -36.350; -270.000; -325.000
242.387;  -44.225; -304.000; -246.000
242.530;   56.400;  470.000;  134.000
242.673;  -55.425; -381.000; -309.000
242.815; -113.800; -925.000; -899.000
242.958;  -75.125; -482.000; -381.000
243.101;   12.175;  132.000;  187.000
243.244;  -82.325; -564.000; -521.000
243.387;  -62.875; -313.000; -316.000
243.530;  -97.175; -657.000; -674.000
243.672;    1.300;   43.000;  -92.000
243.815;  -70.275; -355.000; -283.000
243.958;   -6.525;   98.000;  -26.000
244.101;  -11.475;   59.000;  -16.000
244.243;  -27.300;  -47.000;  101.000
244.386; -117.950; -761.000; -630.000
244.529;  -22.450; -132.000; -139.000
244.672; -152.425;-1154.000; -951.000
244.814;  -93.575; -621.000; -794.000
244.957;  -44.425; -380.000; -304.000
245.100;  -71.375; -489.000; -489.000
245.242;  -65.675; -387.000; -374.000
245.385;   -0.800;  -59.000;  -39.000
245.528; -136.675; -871.000; -705.000
245.670;   89.000;  612.000;  634.000
245.813;  -89.825; -599.000; -547.000
245.956;  -25.825; -324.000; -275.000
246.098;  -80.375; -508.000; -650.000
246.241;   -0.700;  194.000;   48.000
246.383;  -29.875; -119.000;  -73.000
246.526;  -69.600; -454.000; -525.000
246.669; -123.600; -889.000; -780.000
246.811;   -1.975;  172.000;   -1.000
246.954;  -68.450; -512.000; -426.000
247.096;  -28.900;  -84.000;   -6.000
247.239;  -67.375; -482.000; -445.000
247.381;  -70.725; -647.000; -488.000
247.524;   69.325;  645.000;  679.000
247.666;   -1.075;   58.000;   11.000
247.809; -114.375; -887.000; -691.000
247.951;   -7.225;  -75.000;  138.000
248.094;   25.775;  432.000;  308.000
248.236; -148.600;-1262.000;-1238.000
248.378;    2.500; -356.000;  -81.000
248.521;  -18.725; -334.000; -337.000
248.663;  -51.900; -236.000; -267.000
248.806;  -22.875; -300.000; -266.000
248.948;  -89.375; -886.000; -763.000
249.090;  -49.800; -428.000; -398.000
249.233;  -47.625; -344.000; -381.000
249.375;  -67.425; -474.000; -451.000
249.518;  -20.850;  -83.000; -133.000
249.660;   -4.425; -103.000;    3.000
249.802; -179.150;-1303.000;-1189.000
249.945;  -81.700; -612.000; -540.000
250.087; -111.100; -834.000; -768.000
250.229;  -63.900; -362.000; -480.000
250.371;  -89.400; -494.000; -439.000
250.514;  -33.425; -310.000; -244.000
250.656;  -61.475;   69.000;  102.000
250.798; -125.150; -849.000; -800.000
250.940;  -68.100; -322.000; -322.000
251.083;  -35.200; -335.000; -111.000
251.225;   52.250;  338.000;  310.000
251.367;  -45.425; -274.000; -373.000
251.509;  -47.625; -265.000; -210.000
251.651;  -89.250; -731.000; -671.000
251.794;   44.050;  538.000;  632.000
251.936;  -99.175; -821.000; -747.000
252.078;  -83.350; -540.000; -461.000
252.220;  -67.850; -645.000; -477.000
252.362;   80.050;  344.000;  462.000
252.504;  -84.950; -677.000; -584.000
252.646; -107.650; -875.000; -722.000
252.788;   -5.800;   14.000; -128.000
252.931;  -47.925; -257.000; -253.000
253.073;  -54.800; -376.000; -317.000
253.215;  -14.575;  141.000;  122.000
253.357;  -28.550;   82.000; -153.000
253.499;  -50.950; -374.000; -234.000
253.641;  -88.025; -749.000; -594.000
253.783;  -96.375; -609.000; -527.000
253.925;  -83.500; -586.000; -591.000
254.067; -112.475; -744.000; -667.000
254.209;  -30.375; -391.000; -259.000
254.351; -136.300; -865.000; -883.000
254.493;  -61.325; -441.000; -417.000
254.635; -132.975; -936.000; -818.000
254.777;  -95.350; -752.000; -687.000
254.918;  -77.825; -512.000; -430.000
255.060;  -59.750; -551.000; -395.000
255.202;  -48.350; -473.000; -261.000
255.344;  -80.300; -658.000; -455.000
255.486;  -70.125; -471.000; -406.000
255.628;  -99.700; -780.000; -781.000
255.770; -100.800; -676.000; -536.000
255.912;  -76.400; -559.000; -468.000
256.053;  -99.825; -730.000; -508.000
256.195;  143.050; 1008.000;  903.000
256.337; -115.475; -861.000; -595.000
256.479;   66.125;  532.000;  416.000
256.621;  -62.700; -394.000; -212.000
256.762;  -92.200; -789.000; -742.000
256.904;   32.625;  485.000;  487.000
257.046;  -48.350; -381.000; -271.000
257.188;  -54.650; -351.000; -264.000
257.329;  -72.600; -525.000; -464.000
257.471; -117.650; -939.000; -807.000
257.613;  -63.400; -584.000; -498.000
257.755; -142.700;-1073.000; -982.000
257.896;   25.900;  286.000;  392.000
258.038;  -74.550; -403.000; -352.000
258.180;  -48.025; -354.000; -279.000
258.321;  -92.350; -581.000; -457.000
258.463;   -2.825;  -71.000;  133.000
258.605; -103.925; -562.000; -570.000
258.746; -105.900; -886.000; -772.000
258.888; -162.950;-1026.000;-1020.000
259.029;   20.875;  121.000;   -8.000
259.171;  -92.475; -614.000; -550.000
259.313;  -13.500;  -49.000;  -47.000
259.454;  -80.425; -536.000; -414.000
259.596;  -51.850; -483.000; -390.000
259.737;  -80.100; -590.000; -474.000
259.879;   17.525;  217.000;  311.000
260.020;   73.750;  901.000;  636.000
260.162;  -25.400; -146.000; -253.000
260.303; -120.950; -768.000; -687.000
260.445;  -92.225; -609.000; -613.000
260.586;   31.500;  392.000;  157.000
260.728;  -45.600; -360.000; -248.000
260.869; -124.800; -350.000; -343.000
261.011;   86.500;  706.000;  537.000
261.152;  -71.050; -479.000; -319.000
261.293;  -96.075; -576.000; -595.000
261.435;  -40.550; -219.000; -184.000
261.576;  -52.825; -455.000; -325.000
261.718;   49.850;  420.000;  470.000
261.859; -135.700; -940.000; -949.000
262.000; -131.975; -951.000;-1016.000
262.142;  -24.750;  -52.000;  -60.000
262.283; -120.575; -808.000; -691.000
262.424;  -92.350; -666.000; -625.000
262.566; -163.400;-1161.000; -983.000
262.707; -125.525; -840.000; -830.000
262.848; -139.500; -769.000; -726.000
262.990;  -48.650; -362.000; -345.000
263.131;   66.500;  650.000;  681.000
263.272;   -7.800;  -61.000;  -41.000
263.413;  -88.125; -589.000; -561.000
263.555;  -72.675; -669.000; -143.000
263.696;  -87.800; -550.000; -641.000
263.837;  -58.850; -449.000; -551.000
263.978;  -12.775;   -5.000;  -77.000
264.119;  -38.350; -283.000; -264.000
264.261; -112.000; -847.000; -630.000
264.402;   -3.525;   33.000;   40.000
264.543;  -76.950; -509.000; -524.000
264.684;  -17.475;   61.000;  -50.000
264.825;  -72.325; -816.000; -538.000
264.966;  -10.800;  -84.000;  -67.000
265.107; -123.950; -646.000; -670.000
265.248; -114.700; -825.000; -812.000
265.390;   -6.925;  152.000;   -9.000
265.531;  -30.625; -238.000; -107.000
265.672;  -96.750; -557.000; -630.000
265.813;   62.350;  563.000;  439.000
265.954; -144.500; -959.000; -940.000
266.095;  -21.650; -372.000; -322.000
266.236; -106.175; -686.000; -548.000
266.377;  -49.550; -243.000; -297.000
266.518;  -90.875; -619.000; -547.000
266.659;   22.425;  170.000;  268.000
266.800;    4.450;   83.000;   85.000
266.941;  -79.175; -487.000; -478.000
267.082;   16.300;  354.000;   99.000
267.223;  -62.750; -344.000; -273.000
267.364; -128.200; -892.000; -686.000
267.504;  -12.150;    3.000;  135.000
267.645;   -7.000;  160.000;   67.000
267.786;  -38.225; -147.000;  -86.000
267.927;  -89.200; -473.000; -379.000
268.068;  -22.950; -186.000;  -61.000
268.209;  -54.225; -175.000; -413.000
268.350;  -59.425; -388.000; -532.000
268.490;  -77.775; -648.000; -521.000
268.631;   25.475;  127.000;  225.000
268.772; -113.300; -874.000; -647.000
268.913;  -57.975; -328.000; -476.000
269.054;  -23.825; -117.000;   12.000
269.194;  -53.850; -418.000; -402.000
269.335; -153.225;-1137.000;-1074.000
269.476;  -12.250;   33.000;  -35.000
269.617;  -43.025; -347.000; -392.000
269.757;  -96.750; -713.000; -646.000
269.898; -112.000; -856.000; -613.000
270.039;  -61.750; -415.000; -405.000
270.180; -137.375; -952.000; -816.000
270.320;  -27.750; -190.000; -250.000
270.461;  -51.375; -277.000; -249.000
270.602;   -7.000; -186.000; -156.000
270.742; -137.000; -868.000; -943.000
270.883;  -56.775; -442.000; -390.000
271.023;  -64.900; -358.000; -357.000
271.164;  -79.000; -607.000; -528.000
271.305;  -92.500; -666.000; -654.000
271.445; -107.675; -722.000; -683.000
271.586;  -92.375; -462.000; -283.000
271.726;  -44.200; -397.000; -322.000
271.867;  -71.725; -594.000; -534.000
272.008;  183.450; -473.000; -285.000
272.148;  118.850;  462.000;  468.000
272.289;   11.050; -113.000; -181.000
272.429;   11.050;   19.000;  185.000
272.570;  -80.875; -633.000; -737.000
272.710; -114.825; -825.000; -775.000
272.851;  -30.975;  113.000; -130.000
272.991; -172.650;-1173.000;-1077.000
273.131;  -65.675; -419.000; -459.000
273.272; -104.325; -683.000; -723.000
273.412;    6.250; -143.000;  -31.000
273.553;  -56.475; -488.000; -507.000
273.693;  140.125;  913.000;  858.000
273.834;  -86.900; -894.000; -692.000
273.974;  -71.250; -664.000; -615.000
274.114; -101.800; -772.000; -560.000
274.255;   80.300;  414.000;  373.000
274.395;    1.125; -180.000; -125.000
274.535;   35.025;  199.000;  350.000
274.676;   18.625;  225.000;   94.000
274.816;    1.650;  110.000;   34.000
274.956;  -89.000; -624.000; -690.000
275.097;  -55.425;-1014.000; -922.000
275.237; -111.900; -913.000; -803.000
275.377; -112.075; -778.000; -689.000
275.517; -157.300; -878.000; -937.000
275.658;  -63.725; -590.000; -555.000
275.798;  -73.025; -606.000; -413.000
275.938;   12.325;  215.000;  323.000
276.078; -107.525; -626.000; -395.000
276.218;   -6.400;   99.000;  104.000
276.359; -128.200;-1026.000;-1024.000
276.499;  -82.150; -605.000; -446.000
276.639;  -35.000; -305.000; -151.000
276.779;  -51.950; -475.000; -357.000
276.919; -100.950; -783.000; -624.000
277.059;  -25.275; -261.000; -212.000
277.199;  -40.125; -357.000; -259.000
277.340;   40.400;  287.000;  175.000
277.480; -123.625; -840.000; -693.000
277.620;   22.725;  192.000;   16.000
277.760; -194.775;-1533.000;-1294.000
277.900;   16.575;  113.000;   33.000
278.040;   22.075;  137.000;  159.000
278.180;   30.550;  270.000;  170.000
278.320;  -13.400;   21.000;   56.000
278.460;  -62.075; -443.000; -469.000
278.600;  -83.975; -708.000; -598.000
278.740;   48.425;  448.000;  224.000
278.880;  -50.950; -768.000; -791.000
279.020;   -9.375; -194.000; -144.000
279.160;  -93.950; -672.000; -595.000
279.300; -123.075; -926.000; -873.000
279.440;  -85.025; -709.000; -622.000
279.579;  -18.625;-1014.000; -929.000
279.719;  -61.500; -410.000; -394.000
279.859;   94.850;   -4.000;   41.000
279.999;   30.750; -208.000;  101.000
280.139;   -5.575; -435.000; -387.000
280.279;  -71.525; -708.000; -745.000
280.419;  -22.850; -229.000; -147.000
280.559;  -37.500; -259.000; -180.000
280.698;  -79.000; -790.000; -639.000
280.838; -107.225; -778.000; -800.000
280.978;  -98.200; -846.000; -790.000
281.118; -117.300; -811.000; -704.000
281.257;   -4.925;   24.000;    6.000
281.397; -121.675;-1094.000; -960.000
281.537;  -83.900; -599.000; -712.000
281.677;  -31.725; -150.000; -101.000
281.816;  -88.825; -700.000; -630.000
281.956;  -42.525; -193.000; -257.000
282.096;  -54.050; -539.000; -396.000
282.235; -107.375; -672.000; -638.000
282.375;  -35.225; -243.000;  -98.000
282.515; -120.800; -715.000; -707.000
282.654;   -3.225;   29.000;  106.000
282.794;   31.325;  388.000;  244.000
282.934;  -61.275; -530.000; -491.000
283.073; -133.125;-1030.000; -857.000
283.213;  -53.225; -460.000; -467.000
283.353;  -38.075; -408.000; -349.000
283.492;  -42.900; -264.000; -296.000
283.632;  -43.375; -254.000; -168.000
283.771;  -90.475; -859.000; -730.000
283.911;  -51.475; -369.000; -260.000
284.050; -107.750; -794.000; -748.000
284.190; -165.150;-1229.000;-1096.000
284.329; -146.050;-1055.000; -964.000
284.469;  -79.475; -516.000; -591.000
284.608;  -49.400; -559.000; -598.000
284.748;  -85.650; -614.000; -570.000
284.887;  -10.250;  -87.000;  -20.000
285.027; -118.175; -844.000; -892.000
285.166;  -34.025; -192.000; -249.000
285.306;   -9.000; -116.000;  -33.000
285.445;  -40.200; -229.000; -343.000
285.584; -102.300; -630.000; -494.000
285.724;  -51.400; -282.000; -322.000
285.863; -127.100; -857.000; -507.000
286.002;  -58.325; -366.000; -276.000
286.142; -113.150; -715.000; -622.000
286.281;  -71.600; -525.000; -493.000
286.420;  -87.200; -554.000; -417.000
286.560;  101.875;  653.000;  623.000
286.699; -144.550; -958.000; -912.000
286.838;  -84.200; -590.000; -591.000
286.978;  -90.775; -533.000; -537.000
287.117; -139.375;-1085.000; -950.000
287.256;  -53.025; -228.000; -211.000
287.395;  -48.725; -197.000; -378.000
287.535;  -56.375; -370.000; -298.000
287.674;  -85.750; -509.000; -484.000
287.813;   42.900;  661.000;  533.000
287.952; -147.575;-1010.000; -871.000
288.091; -152.025;-1049.000; -915.000
288.231;    2.875;   13.000;   15.000
288.370; -169.850;-1217.000;-1200.000
288.509;  -91.375; -728.000; -645.000
288.648;  -96.725; -770.000; -548.000
288.787;  -32.000; -243.000;  -87.000
288.926;  -74.250; -454.000; -475.000
289.065;   97.725;  859.000;  672.000
289.204;  -56.350; -377.000; -217.000
289.344; -103.250; -791.000; -690.000
289.483;   14.725;  416.000;  304.000
289.622;  -32.825; -291.000; -149.000
289.761;  -37.300; -309.000; -166.000
289.900; -114.900; -785.000; -626.000
290.039;  -21.150;  -12.000;  -95.000
290.178;  -46.475; -274.000; -180.000
290.317;  -94.825; -618.000; -479.000
290.456;  -62.000; -463.000; -451.000
290.595; -138.300; -961.000; -833.000
290.734; -135.125; -904.000; -891.000
290.873;  -73.025; -456.000; -420.000
291.011; -108.250; -833.000; -843.000
291.150; -115.075; -770.000; -682.000
291.289;  -27.325; -343.000; -110.000
291.428; -107.975; -599.000; -480.000
291.567;  -57.900; -370.000; -442.000
291.706;    1.250;  109.000;  154.000
291.845;  -98.200; -597.000; -505.000
291.984; -161.525;-1234.000;-1061.000
292.122;   63.300;  602.000;  582.000
292.261;   42.600;  620.000;  463.000
292.400;   10.000; -144.000;  211.000
292.539; -129.500; -959.000; -813.000
292.678;  -35.975; -325.000; -300.000
292.816; -160.500;-1136.000; -965.000
292.955;  -93.575; -844.000; -684.000
293.094;  -31.825; -173.000; -337.000
293.233;  -60.075; -556.000; -400.000
293.371;  -36.825; -225.000;  -84.000
293.510; -118.450; -866.000; -780.000
293.649; -140.775; -959.000; -924.000
293.787;  -61.800;-1083.000;-1012.000
293.926;   -1.975; -113.000;  -32.000
294.065;  -56.350; -379.000; -290.000
294.203;   42.800;  298.000;  406.000
294.342;   16.000;   74.000;  156.000
294.481; 5442.575;51180.000; -836.000
294.619;  -37.875; -425.000; -582.000
294.758; -143.175;-1230.000;-1137.000
294.896;   64.625; -125.000;    5.000
295.035; -127.675;-1040.000;-1006.000
295.174; -124.800;-1082.000; -954.000
295.312;  -49.400; -323.000; -203.000
295.451;   11.125; -307.000; -428.000
295.589;  -53.450; -389.000; -518.000
295.728;   21.625; -292.000; -165.000
295.866;    1.550;  -36.000;  -51.000
296.005;  -61.275; -584.000; -341.000
296.143;  -67.050; -558.000; -596.000
296.282;  -96.375; -957.000; -881.000
296.420;  -93.150; -657.000; -557.000
296.559;  -88.025; -892.000; -633.000
296.697;   25.700; -847.000; -665.000
296.835;   60.475;-1141.000;-1002.000
296.974;   36.625;  -23.000;   39.000
297.112;    3.925; -443.000; -504.000
297.251;  -88.400; -815.000; -755.000
297.389;   98.025; -576.000; -438.000
297.527;   17.825; -145.000;  -83.000
297.666;  -57.875; -486.000; -438.000
297.804;  -53.675; -404.000; -264.000
297.942;   -9.600; -136.000; -161.000
298.081;  -17.900; -183.000;   63.000
298.219;   73.675;  -17.000;  -19.000
298.357;   68.525; -144.000;  -71.000
298.495;   25.050; -810.000; -812.000
298.634;   58.800;  245.000;  219.000
298.772;   63.925; -220.000; -338.000
298.910;  -45.025; -309.000; -182.000
299.048;  -10.775; -130.000; -153.000
299.187;  -34.575; -350.000; -250.000
299.325;    5.925;   52.000;  122.000
299.463;   46.975; -389.000; -299.000
299.601;  103.525; -327.000; -271.000
299.739; -112.675; -908.000; -883.000
299.877;  -82.625; -791.000; -703.000
300.016;  -38.800;-1095.000; -935.000
300.154;  159.625;  -19.000; -161.000
300.292;   50.375; -428.000; -348.000
300.430;   34.200; -408.000; -291.000
300.568; -104.100; -940.000; -874.000
300.706;  -26.575; -366.000; -469.000
300.844;  -79.900;-1108.000; -979.000
300.982;  119.625;  246.000;  282.000
301.120; -116.925; -965.000; -866.000
301.258;  -71.350; -812.000; -705.000
301.396;   32.525;  104.000;  -41.000
301.534;   81.100; -218.000; -293.000
301.672;  -15.425; -664.000; -521.000
301.810;   30.350; -613.000; -545.000
301.948;  118.825;   53.000;  149.000
302.086;  671.825; -250.000;  -32.000
302.224;  990.700; -610.000; -585.000
302.362;   52.800; -558.000; -622.000
302.500;  -25.200; -923.000; -893.000
302.638;  114.900;  128.000;  245.000
302.776;  -14.500; -352.000; -408.000
302.913;   38.000;  447.000;  236.000
303.051;  -13.875;  -86.000;  -23.000
303.189;   47.450;   90.000;  118.000
303.327;  -34.600; -341.000; -256.000
303.465;  -62.500; -832.000; -588.000
303.603;  -96.125; -805.000; -604.000
303.740;  108.350;  417.000;  241.000
303.878;   17.200; -800.000; -759.000
304.016;  -92.325; -915.000; -790.000
304.154; -147.050;-1123.000;-1152.000
304.291;  -27.650; -505.000; -554.000
304.429;    6.800;  102.000;   74.000
304.567; -132.725; -908.000; -893.000
304.705;  -52.975; -408.000; -515.000
304.842;  101.325; -616.000; -540.000
304.980;   42.425;  215.000;   35.000
305.118;   47.900; -367.000; -365.000
305.255;  -93.100; -945.000; -927.000
305.393;   45.125;  178.000;  239.000
305.531;  -96.325;-1173.000; -956.000
305.668;  -75.100; -663.000; -582.000
305.806;  101.900; -358.000; -439.000
305.943;  121.650; -629.000; -637.000
306.081;   54.325; -378.000; -267.000
306.219; -107.450; -863.000; -748.000
306.356;  -10.000;  158.000;   27.000
306.494;   89.575;  981.000;  761.000
306.631;  -10.675;  -11.000;  -55.000
306.769;    6.150; -613.000; -485.000
306.906;  -19.450; -284.000; -258.000
307.044;  -68.950; -473.000; -488.000
307.181;  -81.850; -410.000; -332.000
307.319;   12.850;  112.000;   87.000
307.456; -182.675;-1191.000;-1153.000
307.594;  -93.475; -980.000; -727.000
307.731;   -9.425; -371.000; -164.000
307.868;   -4.325;  -15.000;   20.000
308.006; -138.400; -961.000; -847.000
308.143;  -71.875; -618.000; -330.000
308.281;  142.425;  -37.000; -254.000
308.418;  -15.550; -748.000; -640.000
308.555;  -81.675; -400.000; -250.000
308.693;  -72.650; -577.000; -573.000
308.830; -109.775; -712.000; -657.000
308.967;  -16.175; -215.000;  -95.000
309.105;  -44.525; -507.000; -396.000
309.242;   40.650; -468.000; -367.000
309.379;  292.950; -577.000; -655.000
309.517;  -85.300; -936.000; -948.000
309.654; -109.825; -910.000; -734.000
309.791;  -77.050; -662.000; -580.000
309.928; -121.025; -977.000; -914.000
310.065;  179.175;  819.000;  697.000
310.203;  -11.950; -825.000; -850.000
310.340;  -16.200; -465.000; -321.000
310.477;  -72.925; -412.000; -516.000
310.614;  -72.225; -383.000; -473.000
310.751;  -78.925; -427.000; -518.000
310.889;  -15.150;    1.000;   11.000
311.026; -166.475;-1161.000; -939.000
311.163;  -55.500; -386.000; -380.000
311.300;  -91.100; -512.000; -479.000
311.437;  -78.050; -658.000; -619.000
311.574; -162.200;-1226.000; -985.000
311.711;  -53.925; -595.000; -433.000
311.848;  -51.775; -380.000; -388.000
311.985;    6.800;  270.000;   93.000
312.122; -117.375; -932.000; -762.000
312.259; -129.875; -941.000; -994.000
312.396;  -77.725; -508.000; -551.000
312.533; -100.475; -812.000; -790.000
312.670; -148.425;-1070.000; -898.000
312.807;  -33.800; -352.000; -367.000
312.944;  -88.275; -513.000; -611.000
313.081;  -33.650; -150.000; -415.000
313.218; -113.350;-1111.000; -867.000
313.355;    4.575; -531.000; -449.000
313.492;    0.050; -455.000; -292.000
313.629;  142.625;  815.000;  735.000
313.766; -159.475;-1176.000;-1008.000
313.902;  -12.025; -186.000;   21.000
314.039;  -58.850; -372.000; -289.000
314.176;   23.925;  286.000;  192.000
314.313;  -78.850; -569.000; -473.000
314.450;  -74.075; -788.000; -684.000
314.587;  -58.600; -468.000; -480.000
314.723;   -6.275;  -78.000;  130.000
314.860;   23.175;  318.000;  332.000
314.997;   18.750;  223.000;  142.000
315.134;  -53.650; -385.000; -368.000
315.270;  -36.150; -480.000; -496.000
315.407; -140.825;-1094.000; -967.000
315.544;  -48.300; -657.000; -538.000
315.681;  -64.000; -681.000; -565.000
315.817;   23.125; -133.000; -176.000
315.954;   14.050; -613.000; -392.000
316.091; -136.125;-1045.000;-1023.000
316.227;  -32.150;  -71.000; -179.000
316.364;   -4.800;   23.000;    6.000
316.500;  -57.850; -113.000; -300.000
316.637;  -53.075; -181.000; -302.000
316.774;  -91.250; -625.000; -358.000
316.910;  -89.175; -598.000; -629.000
317.047;  -85.325; -487.000; -351.000
317.183;  -58.900; -435.000; -566.000
317.320;  -17.925; -367.000; -321.000
317.456;  -56.225; -733.000; -805.000
317.593;  -95.175; -598.000; -641.000
317.729;   -7.175;  168.000;  -67.000
317.866; -201.500;-1434.000;-1285.000
318.002; -101.550; -708.000; -948.000
318.139; -105.325; -883.000; -867.000
318.275; -105.875;-1003.000; -738.000
318.412;  -68.925; -517.000; -336.000
318.548;  -32.100; -751.000; -720.000
318.685; -100.050; -985.000; -888.000
318.821;  -95.050; -762.000; -735.000
318.957;  -20.650;   34.000;  -23.000
319.094;   22.725;  297.000;  154.000
319.230;  -65.325; -756.000; -742.000
319.367;  132.700; -471.000; -520.000
319.503;   58.575; -538.000; -436.000
319.639; -110.575; -877.000; -793.000
319.775;  -65.300; -750.000; -685.000
319.912;  -68.775; -424.000; -519.000
320.048;  -80.400;-1184.000;-1184.000
320.184;   62.600;   59.000;   70.000
320.321;  -76.650; -497.000; -467.000
320.457;   51.300;  475.000;  662.000
320.593;  -53.975; -375.000; -382.000
320.729; -111.100; -732.000; -734.000
320.866;  -72.675; -577.000; -635.000
321.002;  -88.875; -759.000; -809.000
321.138;  -15.050; -135.000; -211.000
321.274;   75.225; -148.000; -115.000
321.410;  -26.225; -585.000; -353.000
321.546;  -27.775;-1011.000; -911.000
321.683;   48.175;  400.000;  185.000
321.819;  -11.225;  -48.000; -117.000
321.955; -102.950; -743.000; -722.000
322.091;  -39.325; -585.000; -540.000
322.227;  -15.425; -382.000; -202.000
322.363;  -14.100; -320.000; -215.000
322.499;  -48.950; -343.000; -331.000
322.635;  157.200;  636.000;  443.000
322.771;   24.950; -139.000;   12.000
322.907;   87.400;  129.000;  327.000
323.043;  -14.875; -115.000; -206.000
323.179;  -40.400; -394.000; -363.000
323.315;    1.925; -401.000; -371.000
323.451;   91.650; -328.000; -236.000
323.587;   54.875;  -60.000;  -77.000
323.723;   10.900; -682.000; -601.000
323.859;  -12.025; -258.000;  -76.000
323.995;  -44.400; -467.000; -409.000
324.131; -125.650; -967.000; -892.000
324.267;  -38.450; -254.000; -276.000
324.402; -129.300; -960.000; -983.000
324.538;  -16.375; -279.000; -104.000
324.674;   13.850;  164.000;   77.000
324.810;  128.850;  226.000;  308.000
324.946;   -3.275; -810.000; -658.000
325.082;  -72.200; -568.000; -475.000
325.217;  -12.900;  -62.000;   16.000
325.353; -100.450; -764.000; -659.000
325.489;  -98.875; -540.000; -506.000
325.625;  -72.175; -579.000; -525.000
325.760;   56.300;  517.000;  376.000
325.896;  -27.250; -515.000; -702.000
326.032;  -47.975; -403.000; -352.000
326.168;  -73.250; -462.000; -369.000
326.303;  -64.875; -352.000; -461.000
326.439;  -13.625; -336.000; -276.000
326.575;    2.975; -190.000;  -29.000
326.710;  -10.075; -156.000;  -30.000
326.846;  -10.175;  146.000;  103.000
326.982; -100.175; -530.000; -548.000
327.117;  -87.600; -481.000; -442.000
327.253;  -88.225; -745.000; -742.000
327.388; -153.850;-1137.000;-1153.000
327.524;  -51.675; -811.000; -578.000
327.659;  -18.100;  -58.000;  -22.000
327.795;   -5.800;   69.000;   45.000
327.931;  -96.700; -723.000; -499.000
328.066;  -27.250; -417.000; -276.000
328.202;  -28.900;   12.000; -129.000
328.337;   99.775;  957.000;  713.000
328.473;   22.575;  -12.000;  -74.000
328.608;  -30.475; -256.000; -267.000
328.743;  -92.200; -799.000; -664.000
328.879;   13.525;  214.000;  114.000
329.014;  -43.100; -102.000; -122.000
329.150;  -90.000; -358.000; -483.000
329.285;  -87.325; -465.000; -466.000
329.421;  -60.450; -548.000; -246.000
329.556;  -16.675;  -36.000;   85.000
329.691;  -96.950; -633.000; -615.000
329.827; -100.700; -626.000; -480.000
329.962;  -48.100;  131.000; -301.000
330.097;  -80.975; -673.000; -585.000
330.233;  -58.050; -410.000; -223.000
330.368; -122.175; -839.000; -628.000
330.503;   -9.425;    3.000;   98.000
330.638;   -0.075;  -93.000; -125.000
330.774;  -73.550; -609.000; -530.000
330.909;  -53.525; -434.000; -244.000
331.044;  -95.650; -714.000; -708.000
331.179; -184.350;-1217.000;-1109.000
331.315;    7.175;   77.000;   20.000
331.450;   -6.325;  157.000;  285.000
331.585;  -85.475; -805.000; -706.000
331.720;  -90.925; -510.000; -460.000
331.855;  -14.400;  -35.000; -102.000
331.990;  232.125;   62.000;  138.000
332.126;  119.200; -110.000;   71.000
332.261;  -35.950; -379.000; -265.000
332.396;  -12.750; -135.000; -242.000
332.531; -104.275;-1074.000;-1031.000
332.666;   14.175; -519.000; -363.000
332.801; -115.900; -726.000; -807.000
332.936;  -13.025; -192.000; -122.000
333.071; -146.825; -870.000; -817.000
333.206;   19.350;  307.000;  379.000
333.341;   14.075;  344.000;  418.000
333.476;  -97.950; -627.000; -623.000
333.611;  -46.275; -251.000; -173.000
333.746;  -59.575; -381.000; -464.000
333.881; -118.150; -973.000; -935.000
334.016; -135.675; -936.000; -917.000
334.151; -138.350; -746.000; -702.000
334.286;   24.800;  152.000;  186.000
334.421;  -11.875; -125.000; -178.000
334.556;  -76.475; -611.000; -567.000
334.690;  -73.900; -631.000; -577.000
334.825;   45.025;  381.000;   83.000
334.960;  -59.400; -285.000; -413.000
335.095;    6.725;  135.000;  -91.000
335.230;  -90.450; -722.000; -738.000
335.365; -148.675;-1084.000; -990.000
335.499; -127.425;-1108.000;-1037.000
335.634;    9.675;    9.000;  534.000
335.769; -103.550; -755.000; -720.000
335.904;  -68.550; -603.000; -561.000
336.038;  -60.500; -735.000; -657.000
336.173; -107.950;-1206.000;-1194.000
336.308;   -5.050; -116.000; -189.000
336.443;   23.725; -544.000; -634.000
336.577;  -79.525; -936.000; -787.000
336.712;   59.300;   -4.000;  -12.000
336.847;  -29.400; -724.000; -607.000
336.981;   67.450; -272.000; -208.000
337.116;  285.625;  615.000;  501.000
337.250;  156.900; -434.000; -421.000
337.385;  225.600; -297.000; -208.000
337.520;   83.375; -632.000; -603.000
337.654;  -46.350; -215.000; -126.000
337.789; -117.400; -989.000; -933.000
337.923;  -32.125; -104.000; -205.000
338.058;  -85.275; -673.000; -738.000
338.192;  -43.025; -611.000; -488.000
338.327;  -15.525;  -18.000; -155.000
338.461;  -68.850; -299.000; -469.000
338.596;  -89.875; -780.000; -638.000
338.730; -118.275; -767.000; -803.000
338.865;   88.875;  -46.000; -140.000
338.999;  -68.275; -846.000; -702.000
339.134;  -13.550; -634.000; -536.000
339.268;   -2.800; -741.000; -603.000
339.403;  362.475; -740.000; -775.000
339.537;  105.475; -894.000; -820.000
339.671; -114.400; -829.000; -813.000
339.806;  -62.975; -556.000; -512.000
339.940;   -0.675; -261.000; -235.000
340.074;  -95.825; -685.000; -510.000
340.209;  -46.800; -351.000; -230.000
340.343;  -84.200; -517.000; -573.000
340.477;  140.750;  998.000; 1036.000
340.612;  -76.600;-1033.000; -900.000
340.746;  126.750; -199.000; -243.000
340.880;  -80.500; -924.000; -785.000
341.014;  -18.825;  -45.000; -154.000
341.149; -122.525; -756.000; -718.000
341.283; -115.400; -839.000; -754.000
341.417;  -96.675;-1124.000; -938.000
341.551;  128.750; -768.000; -708.000
341.685;  -29.300; -633.000; -611.000
341.820;  -60.125; -562.000; -493.000
341.954;  -59.850; -218.000; -349.000
342.088; -159.425;-1102.000;-1019.000
342.222;   32.375;  565.000;  618.000
342.356;  -59.700; -395.000; -335.000
342.490; -103.675; -880.000; -841.000
342.624;  -52.000; -339.000; -242.000
342.758;   -3.700; -364.000; -312.000
342.892;  -67.400; -710.000; -585.000
343.026;  -51.325;  -58.000; -116.000
343.160;  -77.475; -426.000; -376.000
343.294;  -92.475; -474.000; -337.000
343.428;  -15.675; -488.000; -448.000
343.562;  -23.300; -172.000;  -23.000
343.696;  -30.450; -385.000; -314.000
343.830;  -23.450; -362.000; -356.000
343.964;   10.175; -231.000; -168.000
344.098;  945.425;  199.000;   70.000
344.232;  780.300; -266.000; -127.000
344.366;   83.600; -567.000; -453.000
344.500;   56.175; -665.000; -744.000
344.634;   32.400; -324.000; -164.000
344.768;  -24.900; -531.000; -341.000
344.902;   21.750;  278.000;  256.000
345.035;  -62.275; -556.000; -496.000
345.169; -150.550; -933.000; -656.000
345.303;  -24.350; -308.000; -482.000
345.437;  -85.500; -826.000; -717.000
345.571;  -78.725; -675.000; -594.000
345.704;  -69.450; -309.000; -532.000
345.838;  -25.925; -331.000; -284.000
345.972;  -44.875; -543.000; -495.000
346.106;  162.075; -179.000; -190.000
346.239;  416.775; -312.000; -243.000
346.373;    0.500; -343.000; -302.000
346.507; -149.975; -950.000; -962.000
346.640;  152.475;  -30.000;   13.000
346.774;  -52.325; -650.000; -797.000
346.908;  -16.225; -138.000;  -11.000
347.041;  -98.775; -646.000; -593.000
347.175;   -2.450;  259.000;   27.000
347.309;  -81.775; -698.000; -628.000
347.442; -101.450; -883.000; -732.000
347.576;  271.650;  670.000;  668.000
347.709;  206.600; -123.000;  -52.000
347.843;  -83.875; -933.000; -825.000
347.976;   40.675;  235.000;  294.000
348.110; -193.000;-1268.000;-1186.000
348.243;  -95.950; -679.000; -772.000
348.377;   -8.425;  -26.000;   60.000
348.510;   42.725;  403.000;  540.000
348.644;  -31.150;  -37.000; -159.000
348.777;   -7.325;  180.000;  191.000
348.911;  -59.600; -142.000; -112.000
349.044;  162.175;  471.000;  448.000
349.178;  138.250;-1069.000;-1006.000
349.311;  110.075;  141.000;  255.000
349.444;  -18.000; -927.000; -813.000
349.578;  -24.350; -347.000; -200.000
349.711; -107.475; -959.000; -862.000
349.845;   -5.150; -661.000; -591.000
349.978; -154.900;-1224.000;-1137.000
350.111;  -79.275; -546.000; -612.000
350.244;  -73.550; -596.000; -700.000
350.378;    1.325; -392.000; -393.000
350.511;  -71.000; -393.000; -426.000
350.644; -105.425; -808.000; -806.000
350.778;  -13.925;  168.000;  104.000
350.911;   -7.775;  134.000;  140.000
351.044; -100.250; -685.000; -615.000
351.177;  -28.725; -321.000; -281.000
351.310;  -24.150;    3.000; -131.000
351.444;  -88.475; -888.000; -788.000
351.577;   91.200;  140.000;   90.000
351.710;   77.250;  593.000;  417.000
351.843;  -33.175; -165.000;  -77.000
351.976;  -18.725;  149.000;  -79.000
352.109;  -95.975; -621.000; -612.000
352.242;  -28.225; -464.000; -419.000
352.376;  -54.175; -580.000; -636.000
352.509;  179.800; -437.000; -356.000
352.642;    5.200; -654.000; -604.000
352.775;   58.400; -141.000;  -98.000
352.908; -130.150; -933.000; -904.000
353.041; -109.250; -814.000; -824.000
353.174;  -64.200; -551.000; -424.000
353.307;  -86.675; -753.000; -764.000
353.440;   76.775;  541.000;  453.000
353.573; -110.475; -957.000;-1008.000
353.706;  -63.150; -384.000; -558.000
353.839;  -18.475; -264.000; -220.000
353.971; -102.975; -657.000; -512.000
354.104;  -78.650; -896.000; -835.000
354.237;  -34.775; -627.000; -662.000
354.370;  -90.025; -846.000; -879.000
354.503; -187.125;-1231.000;-1308.000
354.636;  -57.150; -529.000; -348.000
354.769; -136.200; -937.000; -860.000
354.902;  -11.375; -230.000; -139.000
355.034;  -26.325; -164.000; -220.000
355.167;  -17.100; -262.000; -162.000
355.300;  -98.500;-1061.000; -880.000
355.433;  960.925;  -71.000;  -14.000
355.565; 1498.775; -402.000; -384.000
355.698;  364.025; -356.000; -296.000
355.831;    4.150; -882.000; -801.000
355.964;   89.550; -285.000; -170.000
356.096;  -95.750; -856.000; -843.000
356.229;  -10.925; -523.000; -530.000
356.362;  314.975; -373.000; -266.000
356.494;  586.625; -229.000; -162.000
356.627;  492.725;  269.000;  377.000
356.760;  645.000;  120.000;   53.000
356.892;  965.750; -286.000; -601.000
357.025;  665.550;  403.000;  389.000
357.157;  625.400; -167.000; -179.000
357.290;  660.400; -856.000; -713.000
357.423;  183.675; -667.000; -556.000
357.555;  106.825; -217.000; -228.000
357.688;  127.525; -483.000; -364.000
357.820;  486.450; -870.000; -877.000
357.953; 3904.425; -563.000; -589.000
358.085;  869.050; -632.000; -612.000
358.218; 1181.675;-1131.000; -932.000
358.350;  216.100;  -58.000;  312.000
358.483; -122.875;-1300.000;-1187.000
358.615;  -19.475;-1182.000;-1078.000
358.747;  -51.875;-1187.000;-1058.000
358.880;   48.775; -810.000; -744.000
359.012;  -11.725; -376.000; -202.000
359.145;  -46.325; -480.000; -511.000
359.277;   55.225; -962.000; -913.000
359.409; 3230.675;  536.000;  231.000
359.542;  836.450; -738.000; -688.000
359.674;   92.475;   46.000;   13.000
359.806;  -62.975; -565.000; -438.000
359.939;  -47.075; -617.000; -516.000
360.071;  -26.300; -583.000; -579.000
360.203;  -39.600; -411.000; -364.000
360.335;   51.325;  164.000;  -16.000
360.468;  212.125; -249.000; -307.000
360.600; 2553.125; -547.000; -454.000
360.732; 2830.425; -546.000; -423.000
360.864;  384.850;-1216.000;-1044.000
360.996;  293.525; -516.000; -554.000
361.129;   36.575; -389.000; -598.000
361.261;   23.275;  110.000; -113.000
361.393;  -20.925; -252.000; -214.000
361.525;   32.700;   94.000;  244.000
361.657;  -42.275; -821.000; -703.000
361.789;    5.800; -139.000; -155.000
361.921;  227.750; -642.000; -593.000
362.053;  277.500;  524.000;  541.000
362.185;   41.750;  288.000;   72.000
362.318;  -72.600; -709.000; -705.000
362.450;  116.375;  294.000;  444.000
362.582;  102.100; -913.000; -870.000
362.714;  -39.100; -353.000; -332.000
362.846;  -83.975; -606.000; -490.000
362.978; -137.825; -941.000; -811.000
363.109;   58.025; -161.000; -260.000
363.241;  450.700; -739.000; -749.000
363.373;  425.225; -649.000; -564.000
363.505;  654.625; -186.000;  -91.000
363.637;  168.400; -787.000; -601.000
363.769; -125.725;-1067.000;-1080.000
363.901;  -57.850; -596.000; -654.000
364.033; -121.250;-1103.000;-1062.000
364.165;   -2.175; -283.000; -283.000
364.296;   72.450; -316.000; -177.000
364.428;   66.675;-1344.000;-1220.000
364.560;  -81.200; -679.000; -661.000
364.692;  -58.125; -738.000; -835.000
364.824;  261.750; -588.000; -456.000
364.955;  446.075; -402.000; -564.000
365.087;  906.200;-1097.000; -852.000
365.219;   25.150; -686.000; -816.000
365.351;  -72.725; -526.000; -572.000
365.482;   25.800;  300.000;  240.000
365.614;  -57.450; -402.000; -314.000
365.746;  -97.350; -729.000; -752.000
365.877; -105.025; -706.000; -672.000
366.009;  257.125;  -35.000;  -62.000
366.141;  -89.625;-1249.000;-1134.000
366.272; -115.800; -803.000; -719.000
366.404; -124.400;-1005.000; -874.000
366.535;  -13.700; -139.000;  -12.000
366.667; -111.700; -644.000; -649.000
366.799;   36.275;  353.000;  203.000
366.930; -121.500; -862.000; -996.000
367.062;  121.650; -639.000; -613.000
367.193;  148.050; -872.000; -842.000
367.325;  -79.125; -580.000; -684.000
367.456;   36.675; -246.000;   31.000
367.588;  164.875; -371.000; -318.000
367.719;   20.375;  -44.000;  -45.000
367.851;  -18.525; -222.000; -241.000
367.982;  -50.525; -875.000; -732.000
368.113;  101.900; -475.000; -358.000
368.245; -126.250; -960.000; -841.000
368.376;  -22.450; -254.000; -302.000
368.508;  -42.750; -188.000; -263.000
368.639; -133.775;-1166.000;-1034.000
368.770;  -16.825; -670.000; -589.000
368.902;  -57.625; -836.000; -926.000
369.033; -105.225; -906.000; -855.000
369.164;  -52.175; -720.000; -653.000
369.296; -119.575; -452.000; -601.000
369.427;   -1.575; -209.000; -144.000
369.558;  -53.400; -593.000; -377.000
369.689;  -84.325; -721.000; -569.000
369.821; -147.000; -951.000; -845.000
369.952;  -15.050;   42.000; -108.000
370.083;  -62.175; -229.000; -108.000
370.214;  -85.075; -735.000; -650.000
370.345;   -8.725;   65.000;   81.000
370.477;  -85.325; -810.000; -790.000
370.608;  248.900; -328.000; -264.000
370.739;  -49.800;-1233.000;-1292.000
370.870;  -37.700;-1102.000; -923.000
371.001;   91.625; -378.000; -467.000
371.132;  -80.825; -754.000; -735.000
371.263;  -23.675;  -42.000; -148.000
371.394; -145.950; -841.000; -748.000
371.525;   18.475;  345.000;  225.000
371.657;  -94.925; -808.000; -670.000
371.788;   79.225;  103.000;  199.000
371.919;  170.550; -384.000; -304.000
372.050; 3805.000;  -91.000; -156.000
372.181; 1130.700; -188.000; -294.000
372.311;  382.700;   42.000; -127.000
372.442;   40.875; -457.000; -451.000
372.573;  -39.550; -444.000; -340.000
372.704; -139.425;-1008.000; -980.000
372.835;   79.600; -228.000; -289.000
372.966;  -59.250; -646.000; -554.000
373.097;  -65.375; -575.000; -711.000
373.228;  -44.075; -717.000; -542.000
373.359;  147.350; -824.000; -536.000
373.490;  974.475; -881.000; -727.000
373.620; 1236.725;-1001.000; -803.000
373.751; 1831.075; -332.000; -396.000
373.882;  839.225; -663.000; -733.000
374.013;   68.425; -449.000; -262.000
374.143;  -37.975; -581.000; -659.000
374.274; -113.775; -987.000; -908.000
374.405;  172.800; -388.000; -276.000
374.536;  460.250; -526.000; -387.000
374.666; 1174.975; -759.000; -807.000
374.797;  226.225; -817.000; -868.000
374.928;  898.125; -710.000; -560.000
375.058;  932.125; -535.000; -500.000
375.189;   80.850;  -59.000;  -93.000
375.320; -123.625; -928.000;-1034.000
375.450;  -36.700; -625.000; -616.000
375.581;  -59.025; -526.000; -436.000
375.712;  -26.875; -574.000; -250.000
375.842;  320.250; -438.000; -415.000
375.973;  230.750; -554.000; -513.000
376.103;  -40.075; -665.000; -648.000
376.234;  -90.000; -531.000; -552.000
376.364;  -42.300; -944.000; -867.000
376.495;  340.550;  925.000;  529.000
376.625;  -14.675; -472.000; -485.000
376.756;   63.950; -709.000; -678.000
376.886;  -98.550;-1178.000;-1026.000
377.017;   38.800;-1048.000;-1061.000
377.147;  350.650; -786.000; -782.000
377.278;   56.125;  174.000;  228.000
377.408; -115.075; -801.000; -815.000
377.538; -103.400; -707.000; -693.000
377.669;  -82.425; -537.000; -613.000
377.799;  -83.325; -645.000; -635.000
377.929;  -57.800; -610.000; -428.000
378.060; -131.775; -781.000; -847.000
378.190;  -65.600; -726.000; -531.000
378.320;  -49.475; -401.000; -406.000
378.451;  -23.825; -131.000;  -22.000
378.581;  -16.500;  -67.000; -110.000
378.711;  142.700; 1035.000;  866.000
378.841;  -12.125; -533.000; -675.000
378.972;  -74.250; -871.000; -751.000
379.102;  -11.200; -652.000; -579.000
379.232;  -28.550; -126.000;  -73.000
379.362; -110.475;-1001.000; -885.000
379.492;   -2.375; -373.000; -424.000
379.623;   95.050;    0.000;  111.000
379.753; -101.300;-1107.000; -974.000
379.883;  198.075;   59.000;  156.000
380.013;    2.100;-1081.000;-1017.000
380.143; -102.625;-1097.000;-1056.000
380.273; -102.075; -985.000; -861.000
380.403;  -11.300; -344.000; -257.000
380.533;  -10.450; -651.000; -664.000
380.663;   70.050;  173.000;  128.000
380.793; -105.200;-1027.000;-1074.000
380.923;  -31.300; -103.000;  -34.000
381.053;  -89.875; -613.000; -623.000
381.183;  -34.825; -106.000; -248.000
381.313;   32.200; -656.000; -470.000
381.443;   35.500; -692.000; -473.000
381.573;  210.425; -402.000; -409.000
381.703;  295.550;-1249.000;-1095.000
381.833; -131.750;-1454.000;-1336.000
381.963;  115.000; -134.000;  -87.000
382.093; 1466.375; -925.000; -909.000
382.223;  456.575; -713.000; -602.000
382.353;  -20.525; -801.000; -608.000
382.482;  399.800;-1091.000; -964.000
382.612;  804.625; -872.000; -644.000
382.742;  464.850; -695.000; -622.000
382.872;  271.200; -565.000; -551.000
383.002;   66.725;  347.000; -132.000
383.131;   -5.900; -226.000; -160.000
383.261;  -38.050; -706.000; -768.000
383.391;  262.425; -552.000; -377.000
383.521; 3184.725;  451.000;  263.000
383.650;  741.750; -947.000; -904.000
383.780;    0.700; -783.000; -656.000
383.910;  119.325;  880.000;  802.000
384.039;   32.175; -794.000; -656.000
384.169;  204.150;-1205.000;-1017.000
384.299;  -21.475; -650.000; -662.000
384.428;  -94.500; -764.000; -680.000
384.558;  -40.550; -308.000; -275.000
384.687;  -66.850; -414.000; -334.000
384.817;   13.525;   75.000;   -2.000
384.947;   18.925; -234.000; -141.000
385.076;  297.925;  982.000;  912.000
385.206;   73.775;  369.000;  480.000
385.335;  -29.375; -549.000; -417.000
385.465;  -83.400; -655.000; -663.000
385.594;  147.225;  -53.000;  -44.000
385.724;  421.700; -868.000; -838.000
385.853;  126.200; -296.000; -270.000
385.982; 1418.550; -743.000; -787.000
386.112; 2260.850;-1052.000; -871.000
386.241;  150.400; -307.000; -312.000
386.371;   20.275; -174.000;  -87.000
386.500;   -2.700; -825.000; -789.000
386.629;   24.525; -874.000; -817.000
386.759;   58.100;  -43.000;   68.000
386.888;  -16.475; -170.000; -250.000
387.017;  -88.200; -648.000; -620.000
387.147;  -96.350; -771.000; -798.000
387.276;   13.325; -410.000; -397.000
387.405;    9.350; -398.000; -342.000
387.535;  -47.725; -452.000; -361.000
387.664;  -66.775; -692.000; -620.000
387.793;   53.425; -198.000; -113.000
387.922;  535.425;  255.000;  200.000
388.052;    6.700; -576.000; -423.000
388.181;   -8.600; -342.000; -472.000
388.310;   -9.275; -889.000; -710.000
388.439;  -50.250; -749.000; -742.000
388.568;  180.475;  365.000;  244.000
388.697; 1099.600; -756.000; -653.000
388.826;  230.175; -768.000; -666.000
388.956;   61.250; -285.000; -307.000
389.085;  -37.100; -347.000; -287.000
389.214; -116.325; -842.000; -872.000
389.343;  -71.750; -645.000; -413.000
389.472;  395.775;  126.000;  149.000
389.601;  516.725;   91.000;    0.000
389.730;   30.375; -568.000; -687.000
389.859;   56.125;  226.000;   46.000
389.988;  205.300; -423.000; -408.000
390.117;  142.550; -168.000; -146.000
390.246;  -16.700; -331.000; -320.000
390.375;  107.475; -673.000; -626.000
390.504;  -56.700; -703.000; -621.000
390.633; -111.125; -672.000; -726.000
390.761;  -73.100; -732.000; -645.000
390.890;   17.925;   -4.000; -130.000
391.019;  -30.175; -421.000; -441.000
391.148; -140.600; -826.000; -855.000
391.277;  -67.350; -576.000; -493.000
391.406;  -81.075; -821.000; -805.000
391.534;    8.975;  574.000; -301.000
391.663;  -61.125; -583.000; -645.000
391.792;  -95.075; -673.000; -701.000
391.921;   93.050;   -3.000;   15.000
392.050;  191.550; -287.000; -228.000
392.178;  -63.400;-1206.000;-1061.000
392.307;  152.425; -758.000; -712.000
392.436;   77.050; -427.000; -641.000
392.564;    5.075;  166.000;   -6.000
392.693;  -94.600; -860.000; -682.000
392.822;  214.175; -529.000; -534.000
392.950;   85.475; -880.000; -714.000
393.079;  338.225; -188.000; -328.000
393.208;   34.025; -488.000; -511.000
393.336;  -17.600; -170.000; -145.000
393.465;  -56.575; -317.000; -199.000
393.593;   -3.025;   62.000;   79.000
393.722; -164.125;-1121.000; -916.000
393.850;  -36.800; -188.000;  -61.000
393.979; -154.350; -926.000; -805.000
394.107;  -65.375; -517.000; -537.000
394.236;  -33.150; -570.000; -507.000
394.364;  215.325;  383.000;  206.000
394.493;  336.125; -911.000; -767.000
394.621;  -12.800; -955.000; -916.000
394.750;  688.875; -873.000; -923.000
394.878; 2934.825; -247.000; -149.000
395.007; 3980.175; -721.000; -807.000
395.135;  305.775; -790.000; -721.000
395.263;  -89.250;-1038.000;-1040.000
395.392;    3.025;  -25.000; -107.000
395.520; -147.875; -818.000; -679.000
395.648;  -96.775; -865.000; -915.000
395.777;  -21.050; -366.000; -405.000
395.905;  -50.025; -449.000; -564.000
396.033;   -1.900;  217.000;  172.000
396.162;  558.275; -399.000; -453.000
396.290;  498.300;  -17.000;   -2.000
396.418;  113.050; -555.000; -514.000
396.546;  -73.625; -571.000; -466.000
396.674;  -99.325; -850.000; -878.000
396.803;    2.575;  -72.000;  -23.000
396.931;   88.750; -179.000; -199.000
397.059;   46.150;-1026.000; -989.000
397.187; -120.175;-1026.000; -975.000
397.315; -150.350; -884.000; -649.000
397.443;  -93.400; -592.000; -443.000
397.572; -114.250; -578.000; -424.000
397.700;   -9.400; -607.000; -614.000
397.828;    5.075;  120.000;  -90.000
397.956;  -51.900; -508.000; -478.000
398.084;  -68.875; -767.000; -626.000
398.212;   26.700;  137.000;  124.000
398.340;    0.000;  -56.000;  159.000
398.468;   24.075; -390.000; -169.000
398.596; -146.725; -993.000; -953.000
398.724; -118.600; -762.000; -767.000
398.852; -166.525;-1024.000; -976.000
398.980;  -62.125; -560.000; -560.000
399.108;  -57.625; -982.000; -735.000
399.236;   26.250;   13.000;    8.000
399.363;    5.600;  222.000;  196.000
399.491;  -66.675; -404.000; -398.000
399.619; -134.675; -829.000; -800.000
399.747; -101.025; -859.000; -771.000
399.875;   65.825;  220.000;  234.000
400.003;  -66.700; -359.000; -284.000
400.130;  -99.400; -421.000; -341.000
400.258;  -34.350;  -83.000;   38.000
400.386;  -81.025; -352.000; -168.000
400.514;  -37.450; -526.000; -587.000
400.641;  -89.125; -928.000; -802.000
400.769; -131.200; -979.000; -888.000
400.897; -120.825; -838.000; -793.000
401.025;  -23.125; -166.000; -152.000
401.152;  -10.750;  220.000;   38.000
401.280;  -81.250; -430.000; -429.000
401.408; -113.075; -712.000; -576.000
401.535; -105.800; -735.000; -758.000
401.663; -202.550;-1134.000;-1054.000
401.790;  -89.300; -514.000; -525.000
401.918;   35.975;  436.000;  405.000
402.046;  -20.675;  134.000;  122.000
402.173;  -51.875;  -18.000;    7.000
402.301;  -74.300; -519.000; -397.000
402.428;   31.625;  528.000;  383.000
402.556; -155.375;-1188.000; -913.000
402.683;  -34.250;  -20.000;   -1.000
402.811;  -15.625;  -37.000; -206.000
402.938;  -22.875;   20.000;   27.000
403.066;  204.225; -574.000; -558.000
403.193;  340.175;  299.000;  239.000
403.321;  272.500; -396.000; -574.000
403.448;  334.775;   83.000;   27.000
403.575;  154.275;  -90.000;  -46.000
403.703; -102.825; -732.000; -557.000
403.830;  -61.200; -531.000; -496.000
403.957; -157.450;-1117.000;-1023.000
404.085;   17.325;  -61.000; -172.000
404.212;  101.800;  -50.000;   63.000
404.339;  278.450; -566.000; -306.000
404.467; 5752.300; -612.000; -524.000
404.594; 3855.975; -287.000; -227.000
404.721;  921.525; -869.000; -764.000
404.848;   88.275; -113.000; -202.000
404.976; -104.325; -856.000; -783.000
405.103;  -16.025;  -14.000;  -82.000
405.230;  -13.100;  190.000;  226.000
405.357;    9.500;  117.000;   44.000
405.484;  244.850;  -49.000;    5.000
405.612;   34.100; -548.000; -563.000
405.739;  -61.200; -488.000; -243.000
405.866;   85.725;  669.000;  385.000
405.993;  -51.300; -398.000; -102.000
406.120; -138.825; -801.000; -887.000
406.247;  -63.550; -323.000; -342.000
406.374;  442.300;  540.000;  629.000
406.501;  116.325; -632.000; -702.000
406.628;  -87.375; -621.000; -589.000
406.755; -110.675; -803.000; -620.000
406.882;  -28.850; -228.000; -277.000
407.009; -117.950; -719.000; -628.000
407.136;   39.400; -480.000; -401.000
407.263;  132.325; -939.000; -829.000
407.390;  -83.775; -692.000; -614.000
407.517; -180.425;-1139.000;-1187.000
407.644;  -62.225; -332.000; -256.000
407.771; -138.500; -249.000; -287.000
407.898;    3.200;  168.000;  328.000
408.025;  -69.775; -421.000; -313.000
408.151;  -23.325;   82.000;  153.000
408.278;  -73.175; -267.000; -216.000
408.405; -110.900; -931.000; -899.000
408.532;  -79.450; -549.000; -542.000
408.659; -123.025; -677.000; -648.000
408.785; -203.300;-1298.000;-1170.000
408.912;  -76.625; -412.000; -296.000
409.039; -121.775; -610.000; -686.000
409.166; -109.350; -591.000; -555.000
409.292; -116.800; -571.000; -534.000
409.419; -124.475; -665.000; -649.000
409.546;  -92.725; -431.000; -192.000
409.672; -114.975; -713.000; -545.000
409.799;  -30.375;  -36.000;   34.000
409.926;  -56.075; -180.000; -179.000
410.052; -176.625;-1127.000;-1091.000
410.179;  -72.375; -368.000; -392.000
410.305; -100.575; -375.000; -493.000
410.432;  -55.350; -220.000; -333.000
410.558;  -98.675; -305.000; -380.000
410.685; -102.975; -688.000; -431.000
410.812; -102.950; -409.000; -588.000
410.938; -137.425; -964.000; -808.000
411.065;  -96.975; -671.000; -645.000
411.191;  -33.475; -189.000; -174.000
411.317; -127.675; -823.000; -742.000
411.444;  -60.900; -317.000; -246.000
411.570;  -77.000; -339.000; -294.000
411.697; -119.225; -758.000; -752.000
411.823; -178.400; -989.000; -999.000
411.949;  -35.950;  -56.000;   17.000
412.076; -131.825; -539.000; -519.000
412.202; -122.000; -758.000; -757.000
412.329; -142.875; -798.000; -752.000
412.455; -115.875; -821.000; -657.000
412.581;  -23.100;  -15.000;  172.000
412.707;  -68.850; -540.000; -457.000
412.834;    3.000;  156.000;  219.000
412.960;  -83.500; -785.000; -784.000
413.086; -110.200; -743.000; -701.000
413.212;  148.125;  604.000;  578.000
413.339;  -57.150; -685.000; -701.000
413.465;    6.500; -364.000; -310.000
413.591;  -88.600; -757.000; -474.000
413.717;  -51.200; -358.000; -366.000
413.843; -148.150; -839.000; -861.000
413.969;  -68.925;  -47.000; -292.000
414.096; -108.800; -679.000; -679.000
414.222;  -12.725;  -33.000;   85.000
414.348;  -38.325; -652.000; -385.000
414.474;   93.550;   38.000;  -52.000
414.600;  -36.000; -126.000; -144.000
414.726;  -22.500;  -96.000;  -55.000
414.852;  -69.700; -365.000; -342.000
414.978;   34.850;  104.000;  -18.000
415.104;   40.775;   38.000;   80.000
415.230;    9.100; -329.000; -330.000
415.356;   29.400; -409.000; -514.000
415.482;  195.325;   13.000;  -35.000
415.608;  265.175; -247.000; -323.000
415.734;  959.050;   67.000;   38.000
415.860;19797.650; -875.000; -767.000
415.986;14591.475; -685.000; -607.000
416.111; 1286.600; -798.000; -652.000
416.237;  246.550; -424.000; -571.000
416.363; 1110.975; -765.000; -733.000
416.489; 4211.450; -324.000; -251.000
416.615;  455.000; -707.000; -742.000
416.741;  -32.425; -677.000; -784.000
416.866;  -97.900; -673.000; -736.000
416.992; -114.375; -801.000; -818.000
417.118;  -40.450;  -41.000;  -80.000
417.244;  -78.250; -798.000; -531.000
417.369; -107.625; -801.000; -612.000
417.495;  -11.225; -325.000; -254.000
417.621;  -93.100;-1015.000; -803.000
417.746;   -1.600; -579.000; -572.000
417.872;   38.275; -254.000; -144.000
417.998;   46.050; -515.000; -530.000
418.123; 1026.050;-1073.000; -845.000
418.249; 5366.300; -512.000; -601.000
418.374;  759.725; -916.000; -824.000
418.500;  122.150; -383.000; -482.000
418.626;  102.325;   70.000;  -59.000
418.751;  108.000; -549.000; -448.000
418.877;  186.100; -637.000; -643.000
419.002; 1759.750; -688.000; -560.000
419.128;12562.800; -930.000; -721.000
419.253; 3139.950; -967.000; -837.000
419.379;  405.500; -391.000; -338.000
419.504;  392.550;  325.000;  415.000
419.629;  520.100; -393.000; -212.000
419.755; 3541.225; -317.000; -254.000
419.880;21100.775;  -98.000;   67.000
420.006;11400.050; -280.000; -221.000
420.131;29484.800; -662.000; -775.000
420.256; 4336.625; -315.000; -316.000
420.382;  550.200; -665.000; -687.000
420.507;   50.975; -649.000; -778.000
420.632;  135.350; -337.000; -339.000
420.758;  249.250; -251.000; -425.000
420.883;  -89.700; -876.000; -672.000
421.008;  -97.875; -775.000; -619.000
421.133;  -79.125; -509.000; -467.000
421.259;  -53.900; -325.000; -259.000
421.384; -116.175; -834.000; -693.000
421.509;  -50.725;-1052.000; -862.000
421.634; 1194.350; -936.000; -820.000
421.759;  535.125; -359.000; -327.000
421.885;  -60.050; -717.000; -656.000
422.010;  -88.000; -673.000; -542.000
422.135; -157.950; -695.000; -727.000
422.260;   34.250;  340.000;  280.000
422.385;  -53.050;   12.000;  -98.000
422.510;   -1.125;  151.000;  -26.000
422.635;   11.125;  -87.000;  -43.000
422.760;  108.300; -766.000; -791.000
422.885;   42.925;  -57.000;  -80.000
423.010;  -39.050; -112.000; -169.000
423.135; -105.700; -481.000; -561.000
423.260;  -26.425; -150.000; -245.000
423.385;   49.275;  476.000;  222.000
423.510;   29.200;   71.000;  -22.000
423.635;   79.425;  133.000;   45.000
423.760;   53.375;  383.000;  328.000
423.885;   52.475;  336.000;  391.000
424.010;    5.150;  -68.000;  -13.000
424.135;  -17.100;    5.000;  -33.000
424.259;  -80.200; -654.000; -457.000
424.384;  -72.750; -279.000; -272.000
424.509;  -28.350; -260.000; -186.000
424.634; -104.075; -761.000; -623.000
424.759;  -20.300; -688.000; -544.000
424.883;  -32.325; -506.000; -527.000
425.008;  154.600; -502.000; -410.000
425.133; 1992.500; -679.000; -653.000
425.258;  950.725; -517.000; -381.000
425.382; 1045.975; -867.000; -774.000
425.507; 2754.500; -487.000; -543.000
425.632;  448.950; -802.000; -663.000
425.756;  464.675; -256.000; -146.000
425.881; 6441.300; -831.000; -857.000
426.006;17855.900; -604.000; -355.000
426.130; 2880.625; -696.000; -508.000
426.255;  339.350; -611.000; -491.000
426.379;  156.200; -189.000; -577.000
426.504;  368.650;  660.000;  544.000
426.629; 3995.175; -519.000; -466.000
426.753; 2813.425;   64.000;  -46.000
426.878;  305.175; -252.000; -288.000
427.002;  145.425; -651.000; -668.000
427.127; 1565.350;  -35.000; -158.000
427.251;11362.750;  372.000;  401.000
427.375; 3312.125; -191.000; -173.000
427.500; 2375.450; -616.000; -610.000
427.624;  814.975; -234.000; -400.000
427.749;   87.775; -216.000; -225.000
427.873;  -48.000; -499.000; -412.000
427.997;  -41.500; -222.000; -230.000
428.122;   72.975;  795.000;  703.000
428.246;   66.400;  433.000;  434.000
428.371; -143.675; -869.000; -773.000
428.495; -109.250; -624.000; -646.000
428.619;  -55.650; -186.000; -117.000
428.743;   17.600;   65.000;  132.000
428.868;   12.250; -732.000; -643.000
428.992; 1458.050; -219.000; -326.000
429.116;  595.000; -329.000; -357.000
429.240;  287.925;  419.000;  426.000
429.365;  -23.525; -454.000; -574.000
429.489;  -46.875; -638.000; -647.000
429.613;   25.575; -236.000; -177.000
429.737;   34.850; -563.000; -432.000
429.861;  257.975; -247.000; -133.000
429.985; 5527.675; -425.000; -305.000
430.109; 6147.400; -770.000; -908.000
430.234;  719.650;   76.000;  -50.000
430.358;   57.475; -250.000; -160.000
430.482;  -82.750; -672.000; -564.000
430.606;  -78.400; -655.000; -375.000
430.730;    2.525; -437.000; -388.000
430.854;  130.650; -909.000; -835.000
430.978;  -85.650; -795.000; -764.000
431.102;  -94.675; -499.000; -422.000
431.226; -123.225; -874.000; -815.000
431.350;   27.750;  345.000;  422.000
431.474;  -85.825; -661.000; -373.000
431.597; -158.700;-1060.000; -848.000
431.721;  -96.350; -276.000; -267.000
431.845; -145.300; -704.000; -472.000
431.969;  -86.875; -304.000; -349.000
432.093; -116.325; -395.000; -317.000
432.217;  -22.175;   32.000;   82.000
432.341;  -95.250; -523.000; -518.000
432.464;   10.775;   96.000;   40.000
432.588;  205.200; -401.000; -329.000
432.712;  105.750;  -52.000;  -52.000
432.836;   36.050;  213.000;  263.000
432.959;  -27.925; -372.000; -311.000
433.083;   72.100;   11.000;    2.000
433.207;  375.850;  285.000;  930.000
433.330; 5054.350; -391.000; -200.000
433.454; 6281.700; -654.000; -638.000
433.578; 3620.850;  583.000;  278.000
433.701;  681.950; -623.000; -675.000
433.825;  143.150; -292.000; -299.000
433.949;  166.525;   28.000;  -72.000
434.072;   39.900; -410.000; -323.000
434.196;   -6.550; -309.000; -117.000
434.319; 3698.175;25482.000;25124.000
434.443;  696.850; -656.000; -603.000
434.566; 2665.175;  281.000;   62.000
434.690;  457.275; -637.000; -383.000
434.813;   44.775; -251.000; -173.000
434.937;  -81.875; -569.000; -696.000
435.060;  -55.675; -423.000; -332.000
435.184;  306.600; -492.000; -217.000
435.307;  162.025;  159.000;  102.000
435.431;  -12.850;  -40.000;   24.000
435.554;  -80.775; -399.000; -240.000
435.677;  -91.125; -350.000; -258.000
435.801;  -41.650;  -25.000;   49.000
435.924;  -20.900;    1.000;  -67.000
436.048; -121.825;-1019.000; -732.000
436.171;  -79.100; -240.000;  -66.000
436.294;  -53.850; -248.000; -229.000
436.417;   92.150; -963.000; -849.000
436.541;  -87.300; -814.000; -840.000
436.664;  -55.525; -242.000; -316.000
436.787;  -42.750;   13.000;  113.000
436.910; -125.400; -792.000; -422.000
437.034;   -3.850;  142.000;  143.000
437.157;   47.100;  -11.000;    0.000
437.280;  -67.475; -392.000; -292.000
437.403;  -94.600; -982.000; -869.000
437.526;  629.825; -903.000; -865.000
437.649; 2328.350; -505.000; -332.000
437.772;  340.000; -692.000; -540.000
437.896;  115.225;  700.000;  544.000
438.019; -111.050; -758.000; -503.000
438.142; -103.475; -596.000; -506.000
438.265;  -20.675; -639.000; -670.000
438.388;  559.600; -520.000; -410.000
438.511;  104.650; -597.000; -394.000
438.634;  -51.225; -247.000; -125.000
438.757; -141.200; -693.000; -619.000
438.880;  -29.000;  -34.000;  -57.000
439.003;  -79.000; -417.000; -437.000
439.126;  -75.375; -287.000; -167.000
439.248;  -72.900;  -98.000; -139.000
439.371;  -57.525;    9.000;  -53.000
439.494;   12.100;  510.000;  439.000
439.617;  -61.550;   65.000;  -88.000
439.740; -187.575; -968.000; -816.000
439.863; -143.300; -755.000; -595.000
439.986; -136.025; -476.000; -431.000
440.108;  -53.800; -161.000; -112.000
440.231; -172.125; -950.000; -836.000
440.354;  -45.325;  -64.000; -150.000
440.477;   16.400; -566.000; -542.000
440.599;   -2.350; -200.000; -225.000
440.722; -119.500; -709.000; -586.000
440.845;   59.025;  751.000;  928.000
440.968; -112.500; -415.000; -311.000
441.090;  -58.550; -199.000;  -33.000
441.213; -177.075;-1021.000; -825.000
441.336;  -40.700; -159.000;   -5.000
441.458;  -76.800; -549.000; -396.000
441.581;  -87.550; -628.000; -629.000
441.703;  -74.425; -152.000;   13.000
441.826; -107.675; -557.000; -400.000
441.948;  -70.950;   56.000;   51.000
442.071;   19.625;  555.000;  424.000
442.193; -124.475; -531.000; -485.000
442.316;    6.550;  152.000;   97.000
442.438;   42.700; -233.000;  -10.000
442.561;   66.550;  272.000;  262.000
442.683;  500.925; -809.000; -522.000
442.806; 1202.225;   -8.000;   74.000
442.928;   26.275; -859.000; -604.000
443.051;  -69.600; -577.000; -373.000
443.173;  -96.150; -341.000; -339.000
443.295;  -99.875; -263.000; -371.000
443.418;  -82.075; -321.000;  -29.000
443.540;  -15.675; -106.000;   -4.000
443.662; -122.850; -563.000; -465.000
443.785;  -22.050;  335.000;  199.000
443.907; -101.200; -362.000; -208.000
444.029; -125.050; -767.000; -494.000
444.152; -149.950; -644.000; -554.000
444.274;  -46.425;  -18.000;  -24.000
444.396; -118.875; -461.000; -221.000
444.518; -130.375; -691.000; -454.000
444.640; -120.650; -268.000; -111.000
444.763;  -26.000;  388.000;  249.000
444.885; -133.200; -432.000; -392.000
445.007;  -44.150;   35.000;   86.000
445.129; -120.375; -610.000; -515.000
445.251; -101.925; -372.000; -439.000
445.373; -140.975; -537.000; -386.000
445.495;   -1.675;  242.000;  350.000
445.617;   38.075;  853.000;  753.000
445.739;  -68.225; -215.000;  -97.000
445.861;  -41.175; -245.000; -112.000
445.984;  -35.450; -267.000; -101.000
446.105;  200.925; -418.000; -251.000
446.227;  623.825; -176.000;  -19.000
446.349;    6.825; -358.000; -249.000
446.471; -104.525; -615.000; -448.000
446.593;  -63.125; -316.000;   19.000
446.715;   -7.500;  -67.000;   41.000
446.837;   45.050;  697.000;  832.000
446.959; -108.375; -457.000; -478.000
447.081; -132.175; -628.000; -518.000
447.203;   52.875;  862.000;  834.000
447.325; -103.825; -270.000;   42.000
447.446;  -22.375;  286.000;  530.000
447.568; -164.725; -921.000; -803.000
447.690;  -82.600; -236.000; -245.000
447.812; -160.325; -798.000; -519.000
447.933;  -34.725;  155.000;  127.000
448.055;  -73.475; -306.000; -261.000
448.177;  136.400;   31.000;   79.000
448.299;   90.500; -935.000; -727.000
448.420;   22.050;  -25.000;  159.000
448.542;  -57.250;   -3.000;   33.000
448.664;  -22.625;  109.000;  322.000
448.785;  -52.750;  265.000;   83.000
448.907;  -92.900; -614.000; -353.000
449.028;  -64.025; -771.000; -471.000
449.150;   70.900;  492.000;  589.000
449.272; -176.250;-1044.000; -913.000
449.393;   30.475;  612.000;  694.000
449.515; -152.375; -634.000; -581.000
449.636;  -63.800; -264.000; -155.000
449.758;   73.275;  763.000;  622.000
449.879; -100.125; -498.000; -396.000
450.001;  -88.500; -149.000;  -49.000
450.122;  -32.050;  -95.000;  162.000
450.244;  -24.600;   37.000;  364.000
450.365; -109.275; -495.000; -301.000
450.486;  -31.350;   80.000;  268.000
450.608;    2.300;  393.000;  326.000
450.729;   55.475;  578.000;  645.000
450.850;   10.225; -574.000; -466.000
450.972;  729.925; -552.000; -389.000
451.093; 4883.675;  190.000;  588.000
451.214; 2179.100; -516.000; -337.000
451.336;  394.225;  773.000;  579.000
451.457;   38.750;  264.000;  393.000
451.578;  -48.650; -118.000;  -74.000
451.699; -125.900; -546.000; -540.000
451.821;  -67.150; -284.000;  -50.000
451.942;  -12.800;  278.000;  285.000
452.063;   24.400;  228.000;  419.000
452.184;  554.275;  -54.000;  -49.000
452.305; 1089.750;  103.000;  170.000
452.427;  128.950; -549.000; -301.000
452.548;  -14.950;   23.000;   79.000
452.669;  -76.550; -257.000;  -89.000
452.790;  -34.375;    3.000;  -18.000
452.911;  -11.925;  195.000;  259.000
453.032;  -62.125; -289.000;  -60.000
453.153;  -72.900;  -29.000;   81.000
453.274;   58.850;  737.000;  868.000
453.395;  -61.950;  -51.000;  175.000
453.516;  119.725; 1317.000; 1388.000
453.637;  -79.175; -205.000; -150.000
453.758;  -56.400;   15.000;   69.000
453.879; -125.525; -462.000; -250.000
454.000;   72.300; 1086.000;  948.000
454.121; -135.225; -554.000; -326.000
454.242; -126.700; -599.000; -383.000
454.362;  -54.225;  -99.000;  114.000
454.483;  -32.800; -309.000; -229.000
454.604;   43.750;  512.000;  580.000
454.725; -118.400; -627.000; -555.000
454.846; -135.925; -474.000; -406.000
454.967;  -33.350;  230.000;  539.000
455.087;  -58.550;  179.000;  153.000
455.208;    1.925;  554.000;  856.000
455.329;  -59.050;  -22.000;   82.000
455.450;   36.725;  473.000;  633.000
455.570;  -90.025; -234.000; -211.000
455.691;  -38.325;  201.000;  407.000
455.812; -123.775; -270.000;  -92.000
455.932;  -65.575;  107.000;  -97.000
456.053;  -94.875;   36.000;   24.000
456.173; -116.575; -433.000; -355.000
456.294; -143.125; -476.000; -303.000
456.415;  -64.050;  -73.000;   70.000
456.535;  -47.600;  297.000;  273.000
456.656;  -45.975;  132.000;  240.000
456.776;  -91.675;    3.000;  298.000
456.897;   -7.675;  308.000;  513.000
457.017;  -94.325; -153.000;   -3.000
457.138; -113.825; -402.000; -249.000
457.258;  -33.800;  263.000;  224.000
457.379;  -24.575;  509.000;  521.000
457.499;  -32.225;  443.000;  432.000
457.620; -126.650; -407.000; -231.000
457.740; -105.750; -132.000;  -11.000
457.860;  -71.050;   87.000;   44.000
457.981;  -57.600;  132.000;  124.000
458.101;  -76.575;  -89.000;   40.000
458.221;  -18.100;  336.000;  402.000
458.342;  -64.825;   -4.000;  -37.000
458.462;    5.200;  617.000;  352.000
458.582;  -42.950; -302.000; -294.000
458.703;    6.950;  303.000;  154.000
458.823;  -33.300;   22.000;  163.000
458.943;    9.700;  341.000;  467.000
459.063;  -14.775; 1124.000;  192.000
459.183;  -34.925;  328.000;  313.000
459.304;    8.200;  315.000;  517.000
459.424;  -81.025; -246.000;  -89.000
459.544;  318.725;  388.000;  764.000
459.664;  833.300;  499.000;  506.000
459.784;  305.300; 1004.000; 1175.000
459.904;   57.875;  867.000;  744.000
460.024;   60.900;  867.000;  684.000
460.144;  -12.200;  449.000;  554.000
460.264;   -3.850;  515.000;  327.000
460.385;  -89.575; -145.000; -119.000
460.505;   22.475;  905.000;  858.000
460.625;  -95.650;  -17.000;  -68.000
460.745;  -30.075;  396.000;  541.000
460.864;  -72.050;  153.000;  469.000
460.984;   -6.925;  499.000;  573.000
461.104;  144.575; 1656.000; 1775.000
461.224;   12.800;  657.000;  650.000
461.344;  -25.175;  431.000;  360.000
461.464;  -51.000;  258.000;  513.000
461.584;  -28.300;  283.000;  466.000
461.704;  -56.175;   58.000;  108.000
461.824;  -60.475;  238.000;  259.000
461.943;  -39.550;  191.000;  130.000
462.063;  -78.100;    2.000;  324.000
462.183;   13.450;  639.000;  717.000
462.303;  100.050; 1678.000; 1230.000
462.422;   32.725;  781.000;  840.000
462.542;  -56.250;  271.000;  391.000
462.662;   32.200;  353.000;  380.000
462.782;  221.350;  833.000;  572.000
462.901;  470.925;  545.000;  717.000
463.021;  271.325; 1702.000; 1638.000
463.141;  -15.125;  337.000;  770.000
463.260;  -23.300;  614.000;  474.000
463.380;   -1.950;  902.000;  884.000
463.499;  -53.825;  342.000;  332.000
463.619;  -37.025;  581.000;  559.000
463.738;  102.050; 1644.000;  903.000
463.858;   15.700;  657.000;  811.000
463.978;  -51.650;  542.000;  396.000
464.097;   35.025;  921.000; 1114.000
464.217;  111.500; 1196.000; 1143.000
464.336;  114.250; 1068.000; 1130.000
464.455;  -45.625;  328.000;  659.000
464.575;   27.400;  597.000;  602.000
464.694;  152.175; 1204.000; 1179.000
464.814;  131.575; 1190.000; 1138.000
464.933;   72.750; 1095.000; 1027.000
465.052;   85.275; 1412.000; 1054.000
465.172;   81.000;  922.000;  799.000
465.291;  134.900; 1376.000; 1320.000
465.410;   21.375;  462.000;  735.000
465.530;   83.525; 1355.000; 1310.000
465.649;   62.875; 1209.000; 1273.000
465.768;  142.825; 1673.000; 1508.000
465.888;   32.125;  941.000; 1174.000
466.007;   79.875; 1335.000; 1440.000
466.126;  -15.200;  721.000;  641.000
466.245;   30.975; 1176.000; 1187.000
466.364;   32.200;  950.000; 1060.000
466.484;   48.975; 1024.000; 1213.000
466.603;   46.075; 1101.000; 1222.000
466.722;  114.625; 1490.000; 1769.000
466.841;   71.200; 1151.000; 1401.000
466.960;   58.650; 1069.000;  972.000
467.079;  134.300; 1971.000; 1786.000
467.198;   56.150; 1238.000; 1181.000
467.317;   93.425; 1768.000; 1162.000
467.436;   71.250; 1709.000; 1261.000
467.555;  112.650; 1796.000; 1746.000
467.674;   56.650; 1227.000; 1329.000
467.793;   38.775; 1376.000; 1374.000
467.912;   83.650; 1658.000; 1539.000
468.031;  136.800; 2038.000; 1930.000
468.150;  140.025; 1842.000; 1837.000
468.269;  186.125; 2313.000; 2090.000
468.388;  173.650; 2168.000; 2339.000
468.507;  246.700; 2884.000; 2903.000
468.626;  228.750; 2555.000; 2541.000
468.744;  114.775; 2018.000; 2174.000
468.863;  207.250; 2312.000; 2523.000
468.982;   78.475; 1503.000; 1555.000
469.101;  211.275; 2788.000; 2692.000
469.220;  137.850; 2333.000; 2176.000
469.338;  244.375; 2935.000; 3051.000
469.457;  196.225; 2719.000; 2545.000
469.576;  360.375; 3953.000; 3784.000
469.695;  212.475; 2877.000; 3066.000
469.813;  413.450; 4148.000; 4192.000
469.932;  394.525; 4255.000; 4485.000
470.051;  402.400; 4075.000; 4161.000
470.169;  827.900; 4470.000; 4338.000
470.288; 1465.525; 4700.000; 4809.000
470.406;  872.875; 5059.000; 5194.000
470.525;  640.250; 6101.000; 5787.000
470.644;  629.250; 6847.000; 6794.000
470.762;  804.800; 8397.000; 7873.000
470.881;  904.675; 8651.000; 8464.000
470.999; 1023.650; 9685.000; 9151.000
471.118; 1109.775;11174.000;10711.000

