
Integration time [ms]: 100.000
Averaging Nr. [scans]: 40
Smoothing Nr. [pixels]: 0
Data measured with spectrometer [name]: 2101012U2
Wave   ;Sample   ;Dark     ;Reference
[nm]   ;[counts] ;[counts] ;[counts] 

197.733;   61.825;  516.000;  404.000
197.879;  -92.800; -610.000; -634.000
198.025;  -41.875; -475.000; -420.000
198.171;  -71.300; -602.000; -612.000
198.317;  -32.100; -401.000; -316.000
198.463;  -55.950; -655.000; -404.000
198.609;   32.825;  181.000; -137.000
198.755;  -70.275; -644.000; -410.000
198.901;  -66.025; -505.000; -424.000
199.047;  -63.950; -615.000; -488.000
199.193;  -40.000; -230.000; -468.000
199.339;  -40.650; -222.000; -369.000
199.485;   32.250;  330.000;  271.000
199.631;   17.100;  227.000;  310.000
199.777;  -57.775; -466.000; -398.000
199.923;  -61.175; -610.000; -424.000
200.069;   -0.325; -141.000;  -58.000
200.215;   69.875;  128.000;  453.000
200.361;   45.450;  243.000;  477.000
200.507;  -57.675; -600.000; -373.000
200.653;  -31.700; -371.000; -194.000
200.798;  -28.400; -215.000; -125.000
200.944;    0.325; -146.000;  -41.000
201.090;   40.650;   61.000;  222.000
201.236;    9.075; -116.000; -158.000
201.382;  123.125;  874.000;  903.000
201.528;   -3.200;  -58.000;  -48.000
201.674;  -48.475; -386.000; -293.000
201.819;  -60.875; -540.000; -439.000
201.965;  -81.275; -699.000; -447.000
202.111;  -18.275; -273.000; -226.000
202.257;  -32.075; -250.000; -238.000
202.402;   18.125;   13.000;  -36.000
202.548;  -38.975; -169.000; -116.000
202.694;   96.850;  410.000; -183.000
202.840;  -77.150; -603.000; -531.000
202.985;  -63.425; -681.000; -639.000
203.131; -102.675; -832.000; -666.000
203.277;   -5.625; -199.000; -262.000
203.423;  -52.900; -434.000; -520.000
203.568;  -37.325; -462.000; -237.000
203.714;  -72.050; -535.000; -542.000
203.860;  -81.575; -682.000; -641.000
204.005;   11.000;  112.000;  167.000
204.151;   79.850;  561.000;  556.000
204.296;  -41.900; -354.000; -221.000
204.442;  -65.125; -600.000; -547.000
204.588;  -70.650; -592.000; -579.000
204.733;   23.000;  178.000;  168.000
204.879; -114.850;-1018.000; -822.000
205.025;   17.650;  -99.000;  126.000
205.170;   -2.725;  -17.000;   94.000
205.316;   86.950;  438.000;  661.000
205.461;  -77.000; -698.000; -554.000
205.607;   85.200;  609.000;  665.000
205.752;  -78.150; -626.000; -551.000
205.898;  -42.025; -501.000; -391.000
206.043;  -55.175; -578.000; -506.000
206.189;  -27.450; -243.000; -285.000
206.334;   75.225;  554.000;  606.000
206.480;   92.775;  409.000;  239.000
206.625;  -88.675; -529.000; -552.000
206.771;  -42.350; -451.000; -373.000
206.916;  -41.375; -210.000; -537.000
207.062;  -72.475; -545.000; -591.000
207.207;  -67.575; -546.000; -443.000
207.353;   55.650;  185.000;  460.000
207.498;   13.325;  196.000;   85.000
207.643;  -47.575; -501.000; -370.000
207.789; -138.450;-1069.000; -910.000
207.934;  -87.800; -665.000; -713.000
208.080;  -30.475; -154.000;   66.000
208.225;    6.350;  -22.000;  -57.000
208.370;  -83.925; -727.000; -619.000
208.516;  -78.050; -741.000; -487.000
208.661;  -26.600; -127.000;  -69.000
208.806;  -18.075; -165.000; -171.000
208.952; -117.850;-1044.000; -731.000
209.097;   70.925;  378.000;  349.000
209.242;  -25.325; -307.000; -382.000
209.387;   75.450;  392.000;  350.000
209.533;  -57.100; -321.000; -350.000
209.678;   85.500;  472.000;  543.000
209.823;  -60.075; -408.000; -310.000
209.969;  -89.275; -860.000; -757.000
210.114; -116.850; -907.000; -719.000
210.259; -114.250; -939.000; -889.000
210.404;  -10.425; -171.000;  103.000
210.549;    0.525;  108.000;    3.000
210.695;  -23.000;   -3.000;  -95.000
210.840;   53.400;   94.000;   67.000
210.985;  -66.550; -484.000; -303.000
211.130;   74.575;  268.000;  406.000
211.275;   26.400;  207.000;  199.000
211.420;  -47.400; -300.000; -289.000
211.566;  -73.775; -536.000; -489.000
211.711;   28.925;  218.000;  157.000
211.856;  -63.500; -545.000; -519.000
212.001;   17.900;  151.000;   44.000
212.146;   17.900;  153.000;   49.000
212.291;  -17.625; -210.000; -186.000
212.436;  -25.350; -280.000;   -6.000
212.581;  -72.800; -685.000; -653.000
212.726;  -82.225; -487.000; -538.000
212.871;  -53.125; -552.000; -217.000
213.016; -158.225;-1172.000;-1029.000
213.161;   56.725;  406.000;  291.000
213.306;  -75.450; -435.000; -577.000
213.451;  -93.325; -778.000; -689.000
213.596;  -36.800; -455.000; -347.000
213.741;  -52.325; -448.000; -538.000
213.886;  -71.600; -498.000; -517.000
214.031;   -8.275; -294.000; -124.000
214.176;  -46.825; -408.000; -341.000
214.321;   -9.825; -296.000; -157.000
214.466;  -16.550; -163.000;  -43.000
214.611;    8.800;  -61.000;  -10.000
214.756; -110.250; -948.000; -858.000
214.901;  -18.625; -388.000; -226.000
215.046; -132.850; -797.000; -825.000
215.191;    9.725;  128.000;   35.000
215.336;  -17.675; -157.000;  -19.000
215.480;  -45.675; -684.000; -505.000
215.625;   -1.650; -175.000;  -19.000
215.770;  -71.750; -757.000; -662.000
215.915;   -6.350;   -5.000;  -97.000
216.060;   -2.675; -113.000;  -21.000
216.205; -105.675; -731.000; -779.000
216.349;  -66.100; -470.000; -533.000
216.494; -131.325; -939.000; -867.000
216.639; -113.250; -823.000; -888.000
216.784;  -76.425; -577.000; -525.000
216.929;   54.125;  392.000;  281.000
217.073;  -23.825; -244.000;  -31.000
217.218;    9.725;   78.000;  -47.000
217.363;  -74.300; -656.000; -618.000
217.507;  -81.175; -623.000; -588.000
217.652; -114.775; -845.000; -874.000
217.797;  -83.625; -708.000; -659.000
217.942; -112.775; -856.000; -720.000
218.086;   70.825;  608.000;  539.000
218.231;  -15.000; -174.000;  -26.000
218.376;  -31.275; -337.000; -229.000
218.520;    4.550;  -41.000;   96.000
218.665;  -37.175; -338.000; -204.000
218.810;  -49.475; -275.000; -233.000
218.954;    7.425;  201.000;   35.000
219.099; -110.825; -713.000; -963.000
219.243;  -59.275; -589.000; -554.000
219.388;  -41.125; -264.000; -136.000
219.532;  -15.050; -116.000; -116.000
219.677;  -77.600; -564.000; -521.000
219.822;   13.275;   33.000;   89.000
219.966;   -5.975;   17.000;  -99.000
220.111;  -33.300; -328.000;  -40.000
220.255;  -88.025; -797.000; -750.000
220.400;   -7.100; -180.000; -146.000
220.544;  -70.275; -516.000; -450.000
220.689;  -43.850; -422.000; -451.000
220.833;  -31.450; -123.000;  -58.000
220.978;  -39.575; -393.000; -563.000
221.122;   33.950;  319.000;  307.000
221.267; -122.200; -906.000; -837.000
221.411;  -73.875; -478.000; -394.000
221.555;   -6.400; -104.000;  -23.000
221.700;  -46.025; -329.000; -222.000
221.844;   37.075;  255.000;  272.000
221.989;  -40.100; -328.000; -311.000
222.133;  -22.875; -289.000; -307.000
222.277;   -0.850;    5.000;   78.000
222.422;   20.300;  227.000;  113.000
222.566;  -43.000; -381.000; -214.000
222.711;  -47.425; -414.000; -479.000
222.855;  -73.175; -643.000; -586.000
222.999;  -72.900; -642.000; -717.000
223.144;  -33.675; -195.000; -194.000
223.288;   42.850;  423.000;  251.000
223.432;   24.250;  184.000;  230.000
223.576;   19.325;  152.000;  -21.000
223.721;   36.525;  364.000;  273.000
223.865;  -47.575; -472.000; -475.000
224.009;  230.050; 1673.000; 1631.000
224.153;  -67.550; -660.000; -671.000
224.298;  -59.900; -531.000; -489.000
224.442;   -9.350;  -74.000;  -33.000
224.586;  -16.000; -169.000; -106.000
224.730;  -94.700; -858.000; -670.000
224.875; -111.425; -739.000; -688.000
225.019;   26.350;  102.000;  188.000
225.163;   41.650;  208.000;  341.000
225.307;   19.350;   97.000;  -91.000
225.451;   43.625;  360.000;  481.000
225.595;   34.850;  264.000;  176.000
225.739;   -4.875; -170.000;  -94.000
225.884;    6.825;   86.000;    5.000
226.028;  -90.375; -760.000; -626.000
226.172;  -32.150; -260.000; -273.000
226.316; -117.900; -941.000; -902.000
226.460;  -66.825; -645.000; -493.000
226.604;  -46.750; -406.000; -400.000
226.748;  -93.700; -836.000; -733.000
226.892;  -23.025; -227.000; -181.000
227.036;  -46.925; -537.000; -447.000
227.180;  -62.825; -551.000; -375.000
227.324;  -61.575; -561.000; -580.000
227.468; -112.175; -819.000; -717.000
227.612;   12.450;  242.000;  -28.000
227.756;  -93.750; -845.000; -698.000
227.900;   42.900;  342.000;  441.000
228.044;  -54.725; -509.000; -290.000
228.188;   68.000;  448.000;  568.000
228.332;  -88.450; -546.000; -472.000
228.476;  -19.375; -223.000; -149.000
228.620;  -28.975; -210.000; -150.000
228.764;   70.150;  431.000;  349.000
228.908;   -4.625; -155.000;   30.000
229.052;  -50.250; -615.000; -528.000
229.195;  -10.825; -172.000;   13.000
229.339;  -21.975; -235.000; -305.000
229.483;  -31.775;    5.000; -162.000
229.627;   -2.300; -156.000;  139.000
229.771;  -45.350; -218.000; -294.000
229.915;    9.100;  230.000;   79.000
230.059;  -94.300; -648.000; -663.000
230.202;  -41.575; -370.000; -317.000
230.346;  -11.125; -107.000;  107.000
230.490;  -71.300; -489.000; -521.000
230.634; -116.700; -736.000; -553.000
230.777;   85.725;  478.000;  509.000
230.921;  -61.175; -450.000; -359.000
231.065;  -40.125; -246.000; -286.000
231.209;   19.125;  261.000;  265.000
231.352;   28.100;   54.000;   40.000
231.496;   27.000;  568.000;  188.000
231.640;  -80.950; -693.000; -621.000
231.783;   76.925;  546.000;  525.000
231.927;  -32.750; -294.000; -365.000
232.071; -119.550; -962.000; -736.000
232.214; -104.325; -980.000; -764.000
232.358; -102.625; -683.000; -599.000
232.502;    6.900;  -19.000;    7.000
232.645; -151.725;-1090.000; -927.000
232.789;  -19.625; -257.000; -218.000
232.933;  -41.675; -407.000; -224.000
233.076; -115.925;-1038.000; -897.000
233.220; -105.500; -752.000; -777.000
233.363;  -77.775; -669.000; -477.000
233.507;   69.675;  371.000;  129.000
233.650;  -91.600; -764.000; -834.000
233.794;   39.325;  438.000;  461.000
233.938;  -53.050; -530.000; -362.000
234.081;  -18.875;  -93.000;   31.000
234.225;  -56.675; -631.000; -539.000
234.368; -108.400; -773.000; -723.000
234.512;  -42.975; -385.000; -299.000
234.655;  -85.225; -582.000; -555.000
234.798;  -63.675; -493.000; -466.000
234.942; -128.225; -884.000;-1002.000
235.085;  -76.900; -651.000; -443.000
235.229;  -75.400; -405.000; -410.000
235.372;  -38.200; -247.000; -191.000
235.516;  -61.825; -397.000; -321.000
235.659;   35.400;   92.000;  121.000
235.802;  -14.750;  -38.000;  -22.000
235.946;   25.350;  335.000;  215.000
236.089;   21.625;  126.000;  250.000
236.233;   53.300;  275.000;  298.000
236.376;  -45.675; -235.000; -378.000
236.519;  -54.650; -297.000; -319.000
236.663;  -19.950; -215.000; -117.000
236.806; -127.100;-1029.000; -999.000
236.949;   62.200;  543.000;  431.000
237.092;   64.925;  412.000;  391.000
237.236;  -88.675; -589.000; -502.000
237.379;   64.450;  352.000;  428.000
237.522; -114.400; -879.000; -768.000
237.666;  -12.450; -271.000;   18.000
237.809; -116.050; -851.000; -823.000
237.952;   24.425;  469.000;  271.000
238.095;  -70.850; -447.000; -442.000
238.238;   95.225;  688.000;  700.000
238.382;   -2.875;  166.000;  103.000
238.525;  -54.275; -598.000; -511.000
238.668; -140.975;-1060.000; -985.000
238.811;  -69.650; -638.000; -643.000
238.954;  -61.250; -483.000; -334.000
239.097;   91.325;  617.000;  664.000
239.241;   13.425;  394.000;  326.000
239.384;  -26.400; -254.000; -214.000
239.527;  -45.875; -424.000; -224.000
239.670; -139.275; -994.000;-1091.000
239.813; -113.400; -696.000; -658.000
239.956;   79.375;  579.000;  473.000
240.099; -120.500; -778.000; -725.000
240.242;   60.275;  428.000;  432.000
240.385;   34.625;  466.000;  450.000
240.528;  -69.700; -706.000; -473.000
240.671;   17.925;  189.000;  134.000
240.814;  -36.175; -441.000; -158.000
240.957; -103.800; -767.000; -578.000
241.100;  -84.125; -779.000; -755.000
241.243; -151.450;-1234.000; -893.000
241.386;  -67.625; -508.000; -379.000
241.529;  -82.200; -735.000; -547.000
241.672;  -58.975; -566.000; -495.000
241.815; -117.800; -832.000; -808.000
241.958;  -27.275; -125.000; -182.000
242.101;  -63.875; -545.000; -390.000
242.244;  -35.000; -270.000; -325.000
242.387;  -44.725; -304.000; -246.000
242.530;   51.500;  470.000;  134.000
242.673;  -52.250; -381.000; -309.000
242.815; -113.950; -925.000; -899.000
242.958;  -78.850; -482.000; -381.000
243.101;   13.200;  132.000;  187.000
243.244;  -91.075; -564.000; -521.000
243.387;  -47.575; -313.000; -316.000
243.530;  -94.100; -657.000; -674.000
243.672;  -10.900;   43.000;  -92.000
243.815;  -62.800; -355.000; -283.000
243.958;    7.900;   98.000;  -26.000
244.101;    1.550;   59.000;  -16.000
244.243;   -4.250;  -47.000;  101.000
244.386; -103.625; -761.000; -630.000
244.529;  -16.025; -132.000; -139.000
244.672; -155.425;-1154.000; -951.000
244.814;  -91.575; -621.000; -794.000
244.957;  -55.375; -380.000; -304.000
245.100;  -74.825; -489.000; -489.000
245.242;  -64.300; -387.000; -374.000
245.385;   -3.650;  -59.000;  -39.000
245.528; -125.050; -871.000; -705.000
245.670;  100.225;  612.000;  634.000
245.813;  -87.150; -599.000; -547.000
245.956;  -19.875; -324.000; -275.000
246.098;  -76.950; -508.000; -650.000
246.241;    3.400;  194.000;   48.000
246.383;  -12.775; -119.000;  -73.000
246.526;  -83.025; -454.000; -525.000
246.669; -108.650; -889.000; -780.000
246.811;   18.325;  172.000;   -1.000
246.954;  -68.975; -512.000; -426.000
247.096;  -20.450;  -84.000;   -6.000
247.239;  -79.100; -482.000; -445.000
247.381;  -70.600; -647.000; -488.000
247.524;  102.425;  645.000;  679.000
247.666;    0.675;   58.000;   11.000
247.809; -120.325; -887.000; -691.000
247.951;   -8.700;  -75.000;  138.000
248.094;   34.800;  432.000;  308.000
248.236; -149.650;-1262.000;-1238.000
248.378;   -1.625; -356.000;  -81.000
248.521;  -23.225; -334.000; -337.000
248.663;  -38.375; -236.000; -267.000
248.806;  -21.475; -300.000; -266.000
248.948;  -90.450; -886.000; -763.000
249.090;  -33.125; -428.000; -398.000
249.233;  -52.225; -344.000; -381.000
249.375;  -63.300; -474.000; -451.000
249.518;  -15.550;  -83.000; -133.000
249.660;   -7.975; -103.000;    3.000
249.802; -178.500;-1303.000;-1189.000
249.945;  -77.400; -612.000; -540.000
250.087; -124.700; -834.000; -768.000
250.229;  -40.000; -362.000; -480.000
250.371;  -66.475; -494.000; -439.000
250.514;  -46.075; -310.000; -244.000
250.656;  -58.275;   69.000;  102.000
250.798; -106.525; -849.000; -800.000
250.940;  -58.375; -322.000; -322.000
251.083;  -36.675; -335.000; -111.000
251.225;   63.425;  338.000;  310.000
251.367;  -35.875; -274.000; -373.000
251.509;  -53.225; -265.000; -210.000
251.651;  -83.375; -731.000; -671.000
251.794;   68.925;  538.000;  632.000
251.936; -107.100; -821.000; -747.000
252.078;  -75.975; -540.000; -461.000
252.220;  -74.400; -645.000; -477.000
252.362;   82.700;  344.000;  462.000
252.504;  -63.250; -677.000; -584.000
252.646; -116.875; -875.000; -722.000
252.788;    4.350;   14.000; -128.000
252.931;  -32.150; -257.000; -253.000
253.073;  -55.300; -376.000; -317.000
253.215;  -10.775;  141.000;  122.000
253.357;  -11.750;   82.000; -153.000
253.499;  -54.375; -374.000; -234.000
253.641;  -79.825; -749.000; -594.000
253.783;  -99.825; -609.000; -527.000
253.925;  -81.300; -586.000; -591.000
254.067; -115.100; -744.000; -667.000
254.209;  -16.050; -391.000; -259.000
254.351; -129.450; -865.000; -883.000
254.493;  -61.400; -441.000; -417.000
254.635; -128.250; -936.000; -818.000
254.777;  -71.300; -752.000; -687.000
254.918;  -65.050; -512.000; -430.000
255.060;  -53.275; -551.000; -395.000
255.202;  -63.050; -473.000; -261.000
255.344;  -67.125; -658.000; -455.000
255.486;  -61.950; -471.000; -406.000
255.628; -109.725; -780.000; -781.000
255.770;  -83.875; -676.000; -536.000
255.912;  -54.450; -559.000; -468.000
256.053;  -87.800; -730.000; -508.000
256.195;  154.725; 1008.000;  903.000
256.337; -102.625; -861.000; -595.000
256.479;   62.950;  532.000;  416.000
256.621;  -49.925; -394.000; -212.000
256.762;  -99.700; -789.000; -742.000
256.904;   42.175;  485.000;  487.000
257.046;  -36.825; -381.000; -271.000
257.188;  -49.325; -351.000; -264.000
257.329;  -69.025; -525.000; -464.000
257.471; -116.650; -939.000; -807.000
257.613;  -56.150; -584.000; -498.000
257.755; -144.200;-1073.000; -982.000
257.896;   34.900;  286.000;  392.000
258.038;  -70.500; -403.000; -352.000
258.180;  -42.625; -354.000; -279.000
258.321;  -88.800; -581.000; -457.000
258.463;    2.125;  -71.000;  133.000
258.605;  -82.075; -562.000; -570.000
258.746;  -89.625; -886.000; -772.000
258.888; -153.650;-1026.000;-1020.000
259.029;   17.900;  121.000;   -8.000
259.171;  -95.475; -614.000; -550.000
259.313;    5.350;  -49.000;  -47.000
259.454;  -74.525; -536.000; -414.000
259.596;  -53.450; -483.000; -390.000
259.737;  -78.600; -590.000; -474.000
259.879;   33.375;  217.000;  311.000
260.020;   90.775;  901.000;  636.000
260.162;  -34.500; -146.000; -253.000
260.303; -116.825; -768.000; -687.000
260.445;  -86.400; -609.000; -613.000
260.586;   27.125;  392.000;  157.000
260.728;  -44.075; -360.000; -248.000
260.869;  -60.575; -350.000; -343.000
261.011;   85.750;  706.000;  537.000
261.152;  -44.050; -479.000; -319.000
261.293;  -78.275; -576.000; -595.000
261.435;  -30.600; -219.000; -184.000
261.576;  -36.875; -455.000; -325.000
261.718;   46.050;  420.000;  470.000
261.859; -133.025; -940.000; -949.000
262.000; -137.775; -951.000;-1016.000
262.142;  -12.575;  -52.000;  -60.000
262.283; -106.400; -808.000; -691.000
262.424;  -84.500; -666.000; -625.000
262.566; -159.875;-1161.000; -983.000
262.707; -106.425; -840.000; -830.000
262.848; -124.000; -769.000; -726.000
262.990;  -53.350; -362.000; -345.000
263.131;   75.025;  650.000;  681.000
263.272;    5.900;  -61.000;  -41.000
263.413;  -96.750; -589.000; -561.000
263.555;  -54.175; -669.000; -143.000
263.696;  -82.175; -550.000; -641.000
263.837;  -50.250; -449.000; -551.000
263.978;   -8.675;   -5.000;  -77.000
264.119;  -42.125; -283.000; -264.000
264.261;  -99.625; -847.000; -630.000
264.402;    0.350;   33.000;   40.000
264.543;  -77.750; -509.000; -524.000
264.684;   -1.925;   61.000;  -50.000
264.825;  -72.275; -816.000; -538.000
264.966;    5.775;  -84.000;  -67.000
265.107; -117.450; -646.000; -670.000
265.248; -125.425; -825.000; -812.000
265.390;  -31.975;  152.000;   -9.000
265.531;  -22.575; -238.000; -107.000
265.672;  -83.100; -557.000; -630.000
265.813;   68.975;  563.000;  439.000
265.954; -143.700; -959.000; -940.000
266.095;   -5.725; -372.000; -322.000
266.236;  -91.150; -686.000; -548.000
266.377;  -28.400; -243.000; -297.000
266.518;  -69.550; -619.000; -547.000
266.659;   22.300;  170.000;  268.000
266.800;    1.075;   83.000;   85.000
266.941;  -61.500; -487.000; -478.000
267.082;   22.300;  354.000;   99.000
267.223;  -55.100; -344.000; -273.000
267.364; -113.175; -892.000; -686.000
267.504;  -14.625;    3.000;  135.000
267.645;   12.475;  160.000;   67.000
267.786;  -19.650; -147.000;  -86.000
267.927;  -71.375; -473.000; -379.000
268.068;   -7.625; -186.000;  -61.000
268.209;  -39.775; -175.000; -413.000
268.350;  -65.050; -388.000; -532.000
268.490;  -89.500; -648.000; -521.000
268.631;   29.275;  127.000;  225.000
268.772; -108.275; -874.000; -647.000
268.913;  -44.550; -328.000; -476.000
269.054;  -12.725; -117.000;   12.000
269.194;  -51.775; -418.000; -402.000
269.335; -153.325;-1137.000;-1074.000
269.476;  -16.050;   33.000;  -35.000
269.617;  -57.975; -347.000; -392.000
269.757;  -83.400; -713.000; -646.000
269.898; -113.425; -856.000; -613.000
270.039;  -52.200; -415.000; -405.000
270.180; -136.150; -952.000; -816.000
270.320;   -4.125; -190.000; -250.000
270.461;  -49.825; -277.000; -249.000
270.602;   -8.325; -186.000; -156.000
270.742; -121.025; -868.000; -943.000
270.883;  -53.075; -442.000; -390.000
271.023;  -59.550; -358.000; -357.000
271.164;  -65.850; -607.000; -528.000
271.305; -103.925; -666.000; -654.000
271.445;  -88.775; -722.000; -683.000
271.586;  -67.025; -462.000; -283.000
271.726;  -43.000; -397.000; -322.000
271.867;  -52.525; -594.000; -534.000
272.008;  178.850; -473.000; -285.000
272.148;  137.400;  462.000;  468.000
272.289;   27.700; -113.000; -181.000
272.429;   23.425;   19.000;  185.000
272.570;  -81.875; -633.000; -737.000
272.710;  -94.750; -825.000; -775.000
272.851;  -11.775;  113.000; -130.000
272.991; -170.775;-1173.000;-1077.000
273.131;  -60.025; -419.000; -459.000
273.272;  -80.250; -683.000; -723.000
273.412;   10.500; -143.000;  -31.000
273.553;  -55.025; -488.000; -507.000
273.693;  142.625;  913.000;  858.000
273.834;  -77.700; -894.000; -692.000
273.974;  -51.950; -664.000; -615.000
274.114; -102.475; -772.000; -560.000
274.255;   76.575;  414.000;  373.000
274.395;   23.200; -180.000; -125.000
274.535;   47.225;  199.000;  350.000
274.676;   28.275;  225.000;   94.000
274.816;   22.075;  110.000;   34.000
274.956;  -81.550; -624.000; -690.000
275.097;  -52.925;-1014.000; -922.000
275.237; -103.200; -913.000; -803.000
275.377;  -91.925; -778.000; -689.000
275.517; -143.775; -878.000; -937.000
275.658;  -47.125; -590.000; -555.000
275.798;  -67.950; -606.000; -413.000
275.938;   18.250;  215.000;  323.000
276.078;  -98.050; -626.000; -395.000
276.218;    8.225;   99.000;  104.000
276.359; -121.225;-1026.000;-1024.000
276.499;  -65.325; -605.000; -446.000
276.639;  -36.000; -305.000; -151.000
276.779;  -41.475; -475.000; -357.000
276.919;  -95.900; -783.000; -624.000
277.059;  -19.025; -261.000; -212.000
277.199;  -46.750; -357.000; -259.000
277.340;   52.325;  287.000;  175.000
277.480; -107.750; -840.000; -693.000
277.620;   39.500;  192.000;   16.000
277.760; -192.650;-1533.000;-1294.000
277.900;   23.725;  113.000;   33.000
278.040;   26.275;  137.000;  159.000
278.180;   62.000;  270.000;  170.000
278.320;    0.325;   21.000;   56.000
278.460;  -60.925; -443.000; -469.000
278.600;  -65.700; -708.000; -598.000
278.740;   58.475;  448.000;  224.000
278.880;   -4.325; -768.000; -791.000
279.020;   26.475; -194.000; -144.000
279.160;  -89.525; -672.000; -595.000
279.300; -100.925; -926.000; -873.000
279.440;  -88.125; -709.000; -622.000
279.579;  -18.275;-1014.000; -929.000
279.719;  -32.925; -410.000; -394.000
279.859;   82.400;   -4.000;   41.000
279.999;   19.575; -208.000;  101.000
280.139;   -5.775; -435.000; -387.000
280.279;  -63.475; -708.000; -745.000
280.419;    5.825; -229.000; -147.000
280.559;  -25.125; -259.000; -180.000
280.698;  -66.700; -790.000; -639.000
280.838;  -86.375; -778.000; -800.000
280.978;  -99.725; -846.000; -790.000
281.118; -100.925; -811.000; -704.000
281.257;    5.950;   24.000;    6.000
281.397;  -81.500;-1094.000; -960.000
281.537;  -81.200; -599.000; -712.000
281.677;  -19.450; -150.000; -101.000
281.816;  -81.100; -700.000; -630.000
281.956;  -26.050; -193.000; -257.000
282.096;  -67.425; -539.000; -396.000
282.235; -100.450; -672.000; -638.000
282.375;   -9.700; -243.000;  -98.000
282.515;  -93.150; -715.000; -707.000
282.654;   41.400;   29.000;  106.000
282.794;   29.500;  388.000;  244.000
282.934;  -60.175; -530.000; -491.000
283.073; -141.500;-1030.000; -857.000
283.213;  -41.450; -460.000; -467.000
283.353;  -17.975; -408.000; -349.000
283.492;  -16.000; -264.000; -296.000
283.632;  -29.500; -254.000; -168.000
283.771;  -90.675; -859.000; -730.000
283.911;  -35.650; -369.000; -260.000
284.050; -109.600; -794.000; -748.000
284.190; -160.575;-1229.000;-1096.000
284.329; -135.175;-1055.000; -964.000
284.469;  -48.225; -516.000; -591.000
284.608;  -43.675; -559.000; -598.000
284.748;  -88.350; -614.000; -570.000
284.887;    6.100;  -87.000;  -20.000
285.027; -115.650; -844.000; -892.000
285.166;  -20.275; -192.000; -249.000
285.306;   29.900; -116.000;  -33.000
285.445;  -25.750; -229.000; -343.000
285.584;  -86.925; -630.000; -494.000
285.724;  -29.550; -282.000; -322.000
285.863; -104.350; -857.000; -507.000
286.002;  -31.325; -366.000; -276.000
286.142; -105.400; -715.000; -622.000
286.281;  -54.900; -525.000; -493.000
286.420;  -69.950; -554.000; -417.000
286.560;  103.800;  653.000;  623.000
286.699; -133.650; -958.000; -912.000
286.838;  -70.500; -590.000; -591.000
286.978;  -93.750; -533.000; -537.000
287.117; -127.900;-1085.000; -950.000
287.256;  -42.750; -228.000; -211.000
287.395;  -30.575; -197.000; -378.000
287.535;  -36.925; -370.000; -298.000
287.674;  -70.350; -509.000; -484.000
287.813;   67.725;  661.000;  533.000
287.952; -107.875;-1010.000; -871.000
288.091; -156.275;-1049.000; -915.000
288.231;   22.275;   13.000;   15.000
288.370; -167.050;-1217.000;-1200.000
288.509;  -78.100; -728.000; -645.000
288.648;  -82.900; -770.000; -548.000
288.787;  -12.750; -243.000;  -87.000
288.926;  -64.950; -454.000; -475.000
289.065;  140.350;  859.000;  672.000
289.204;  -50.300; -377.000; -217.000
289.344;  -82.300; -791.000; -690.000
289.483;   44.275;  416.000;  304.000
289.622;  -28.350; -291.000; -149.000
289.761;  -11.100; -309.000; -166.000
289.900;  -86.900; -785.000; -626.000
290.039;   -9.150;  -12.000;  -95.000
290.178;  -32.500; -274.000; -180.000
290.317;  -70.550; -618.000; -479.000
290.456;  -64.025; -463.000; -451.000
290.595; -132.775; -961.000; -833.000
290.734; -124.100; -904.000; -891.000
290.873;  -53.900; -456.000; -420.000
291.011; -100.000; -833.000; -843.000
291.150;  -93.025; -770.000; -682.000
291.289;   -8.150; -343.000; -110.000
291.428;  -90.975; -599.000; -480.000
291.567;  -50.475; -370.000; -442.000
291.706;  -11.775;  109.000;  154.000
291.845;  -79.550; -597.000; -505.000
291.984; -155.550;-1234.000;-1061.000
292.122;   81.550;  602.000;  582.000
292.261;   55.700;  620.000;  463.000
292.400;   22.100; -144.000;  211.000
292.539; -113.375; -959.000; -813.000
292.678;  -24.500; -325.000; -300.000
292.816; -154.300;-1136.000; -965.000
292.955;  -78.475; -844.000; -684.000
293.094;  -18.450; -173.000; -337.000
293.233;  -34.950; -556.000; -400.000
293.371;  -37.000; -225.000;  -84.000
293.510;  -98.275; -866.000; -780.000
293.649; -120.825; -959.000; -924.000
293.787;  -22.000;-1083.000;-1012.000
293.926;    6.575; -113.000;  -32.000
294.065;  -28.975; -379.000; -290.000
294.203;   61.225;  298.000;  406.000
294.342;   37.800;   74.000;  156.000
294.481; 5676.125;51180.000; -836.000
294.619;   -5.100; -425.000; -582.000
294.758; -134.775;-1230.000;-1137.000
294.896;   97.025; -125.000;    5.000
295.035; -103.825;-1040.000;-1006.000
295.174; -106.625;-1082.000; -954.000
295.312;  -36.800; -323.000; -203.000
295.451;   11.600; -307.000; -428.000
295.589;  -48.775; -389.000; -518.000
295.728;   28.900; -292.000; -165.000
295.866;    9.250;  -36.000;  -51.000
296.005;  -45.000; -584.000; -341.000
296.143;  -62.700; -558.000; -596.000
296.282; -105.600; -957.000; -881.000
296.420;  -77.575; -657.000; -557.000
296.559;  -66.675; -892.000; -633.000
296.697;   81.925; -847.000; -665.000
296.835;  152.100;-1141.000;-1002.000
296.974;   67.800;  -23.000;   39.000
297.112;   41.950; -443.000; -504.000
297.251;  -57.375; -815.000; -755.000
297.389;  138.375; -576.000; -438.000
297.527;   65.100; -145.000;  -83.000
297.666;  -38.625; -486.000; -438.000
297.804;  -49.375; -404.000; -264.000
297.942;    5.850; -136.000; -161.000
298.081;   11.575; -183.000;   63.000
298.219;  106.800;  -17.000;  -19.000
298.357;   74.825; -144.000;  -71.000
298.495;   82.825; -810.000; -812.000
298.634;  120.650;  245.000;  219.000
298.772;  106.200; -220.000; -338.000
298.910;   -6.700; -309.000; -182.000
299.048;    8.875; -130.000; -153.000
299.187;  -25.950; -350.000; -250.000
299.325;   20.850;   52.000;  122.000
299.463;   84.575; -389.000; -299.000
299.601;  176.925; -327.000; -271.000
299.739;  -78.325; -908.000; -883.000
299.877;  -66.825; -791.000; -703.000
300.016;  -25.925;-1095.000; -935.000
300.154;  220.475;  -19.000; -161.000
300.292;   92.025; -428.000; -348.000
300.430;   73.875; -408.000; -291.000
300.568;  -89.300; -940.000; -874.000
300.706;  -34.600; -366.000; -469.000
300.844;  -56.250;-1108.000; -979.000
300.982;  133.050;  246.000;  282.000
301.120;  -87.200; -965.000; -866.000
301.258;  -48.425; -812.000; -705.000
301.396;   57.475;  104.000;  -41.000
301.534;  145.800; -218.000; -293.000
301.672;   25.200; -664.000; -521.000
301.810;   94.325; -613.000; -545.000
301.948;  160.375;   53.000;  149.000
302.086;  761.625; -250.000;  -32.000
302.224; 1186.150; -610.000; -585.000
302.362;   89.450; -558.000; -622.000
302.500;   21.050; -923.000; -893.000
302.638;  145.425;  128.000;  245.000
302.776;   14.425; -352.000; -408.000
302.913;   65.400;  447.000;  236.000
303.051;   14.350;  -86.000;  -23.000
303.189;   86.150;   90.000;  118.000
303.327;  -14.650; -341.000; -256.000
303.465;  -61.850; -832.000; -588.000
303.603;  -93.825; -805.000; -604.000
303.740;  115.175;  417.000;  241.000
303.878;   65.925; -800.000; -759.000
304.016;  -72.650; -915.000; -790.000
304.154; -110.050;-1123.000;-1152.000
304.291;   -4.675; -505.000; -554.000
304.429;    1.225;  102.000;   74.000
304.567; -115.050; -908.000; -893.000
304.705;  -35.375; -408.000; -515.000
304.842;  139.650; -616.000; -540.000
304.980;   76.825;  215.000;   35.000
305.118;   93.525; -367.000; -365.000
305.255;  -45.425; -945.000; -927.000
305.393;   79.075;  178.000;  239.000
305.531;  -74.275;-1173.000; -956.000
305.668;  -54.975; -663.000; -582.000
305.806;  110.275; -358.000; -439.000
305.943;  140.800; -629.000; -637.000
306.081;   79.425; -378.000; -267.000
306.219;  -80.025; -863.000; -748.000
306.356;   14.800;  158.000;   27.000
306.494;  130.100;  981.000;  761.000
306.631;   12.125;  -11.000;  -55.000
306.769;    9.025; -613.000; -485.000
306.906;   -5.825; -284.000; -258.000
307.044;  -63.675; -473.000; -488.000
307.181;  -50.875; -410.000; -332.000
307.319;   15.650;  112.000;   87.000
307.456; -175.775;-1191.000;-1153.000
307.594;  -72.700; -980.000; -727.000
307.731;    3.250; -371.000; -164.000
307.868;   19.675;  -15.000;   20.000
308.006; -126.825; -961.000; -847.000
308.143;  -48.650; -618.000; -330.000
308.281;  183.225;  -37.000; -254.000
308.418;    3.200; -748.000; -640.000
308.555;  -46.800; -400.000; -250.000
308.693;  -50.650; -577.000; -573.000
308.830;  -90.350; -712.000; -657.000
308.967;  -11.325; -215.000;  -95.000
309.105;  -38.500; -507.000; -396.000
309.242;   48.850; -468.000; -367.000
309.379;  318.350; -577.000; -655.000
309.517;  -49.425; -936.000; -948.000
309.654;  -84.650; -910.000; -734.000
309.791;  -52.975; -662.000; -580.000
309.928; -100.775; -977.000; -914.000
310.065;  212.200;  819.000;  697.000
310.203;   30.750; -825.000; -850.000
310.340;   26.975; -465.000; -321.000
310.477;  -53.300; -412.000; -516.000
310.614;  -47.425; -383.000; -473.000
310.751;  -58.550; -427.000; -518.000
310.889;   -9.450;    1.000;   11.000
311.026; -139.075;-1161.000; -939.000
311.163;  -38.800; -386.000; -380.000
311.300;  -66.800; -512.000; -479.000
311.437;  -72.325; -658.000; -619.000
311.574; -153.300;-1226.000; -985.000
311.711;  -48.675; -595.000; -433.000
311.848;  -29.100; -380.000; -388.000
311.985;   32.175;  270.000;   93.000
312.122;  -99.550; -932.000; -762.000
312.259; -104.850; -941.000; -994.000
312.396;  -76.175; -508.000; -551.000
312.533;  -72.925; -812.000; -790.000
312.670; -118.350;-1070.000; -898.000
312.807;  -26.125; -352.000; -367.000
312.944;  -71.400; -513.000; -611.000
313.081;  -26.850; -150.000; -415.000
313.218;  -93.225;-1111.000; -867.000
313.355;   30.950; -531.000; -449.000
313.492;   35.550; -455.000; -292.000
313.629;  144.275;  815.000;  735.000
313.766; -130.525;-1176.000;-1008.000
313.902;   -0.600; -186.000;   21.000
314.039;  -44.200; -372.000; -289.000
314.176;   41.100;  286.000;  192.000
314.313;  -64.850; -569.000; -473.000
314.450;  -71.000; -788.000; -684.000
314.587;  -47.400; -468.000; -480.000
314.723;   16.975;  -78.000;  130.000
314.860;   32.825;  318.000;  332.000
314.997;   45.475;  223.000;  142.000
315.134;  -34.275; -385.000; -368.000
315.270;  -12.700; -480.000; -496.000
315.407; -115.450;-1094.000; -967.000
315.544;  -42.875; -657.000; -538.000
315.681;  -49.000; -681.000; -565.000
315.817;   53.850; -133.000; -176.000
315.954;   46.075; -613.000; -392.000
316.091;  -95.050;-1045.000;-1023.000
316.227;  -20.800;  -71.000; -179.000
316.364;   16.450;   23.000;    6.000
316.500;  -36.150; -113.000; -300.000
316.637;  -39.500; -181.000; -302.000
316.774;  -80.275; -625.000; -358.000
316.910;  -74.550; -598.000; -629.000
317.047;  -69.825; -487.000; -351.000
317.183;  -42.575; -435.000; -566.000
317.320;  -41.850; -367.000; -321.000
317.456;  -91.350; -733.000; -805.000
317.593;  -87.650; -598.000; -641.000
317.729;    7.575;  168.000;  -67.000
317.866; -188.425;-1434.000;-1285.000
318.002;  -76.725; -708.000; -948.000
318.139;  -77.350; -883.000; -867.000
318.275;  -86.275;-1003.000; -738.000
318.412;  -50.675; -517.000; -336.000
318.548;  -14.500; -751.000; -720.000
318.685;  -92.400; -985.000; -888.000
318.821;  -77.000; -762.000; -735.000
318.957;   -5.200;   34.000;  -23.000
319.094;   59.350;  297.000;  154.000
319.230;  -36.200; -756.000; -742.000
319.367;  175.075; -471.000; -520.000
319.503;   73.000; -538.000; -436.000
319.639;  -85.100; -877.000; -793.000
319.775;  -43.675; -750.000; -685.000
319.912;  -45.600; -424.000; -519.000
320.048;  -74.325;-1184.000;-1184.000
320.184;   80.850;   59.000;   70.000
320.321;  -53.250; -497.000; -467.000
320.457;   63.875;  475.000;  662.000
320.593;  -61.125; -375.000; -382.000
320.729;  -98.625; -732.000; -734.000
320.866;  -69.025; -577.000; -635.000
321.002;  -75.375; -759.000; -809.000
321.138;   -9.375; -135.000; -211.000
321.274;   84.550; -148.000; -115.000
321.410;  -10.750; -585.000; -353.000
321.546;  -17.950;-1011.000; -911.000
321.683;   73.125;  400.000;  185.000
321.819;   25.325;  -48.000; -117.000
321.955; -102.500; -743.000; -722.000
322.091;  -30.750; -585.000; -540.000
322.227;    7.950; -382.000; -202.000
322.363;    1.075; -320.000; -215.000
322.499;  -36.850; -343.000; -331.000
322.635;  202.050;  636.000;  443.000
322.771;   48.850; -139.000;   12.000
322.907;  119.600;  129.000;  327.000
323.043;    2.275; -115.000; -206.000
323.179;   -1.825; -394.000; -363.000
323.315;   84.400; -401.000; -371.000
323.451;  168.400; -328.000; -236.000
323.587;   77.125;  -60.000;  -77.000
323.723;   49.675; -682.000; -601.000
323.859;   -8.550; -258.000;  -76.000
323.995;  -17.450; -467.000; -409.000
324.131; -107.700; -967.000; -892.000
324.267;  -34.125; -254.000; -276.000
324.402; -120.925; -960.000; -983.000
324.538;   13.575; -279.000; -104.000
324.674;   33.275;  164.000;   77.000
324.810;  194.175;  226.000;  308.000
324.946;   42.800; -810.000; -658.000
325.082;  -66.875; -568.000; -475.000
325.217;    3.775;  -62.000;   16.000
325.353;  -87.925; -764.000; -659.000
325.489;  -72.850; -540.000; -506.000
325.625;  -61.150; -579.000; -525.000
325.760;   47.375;  517.000;  376.000
325.896;  -43.000; -515.000; -702.000
326.032;  -35.275; -403.000; -352.000
326.168;  -55.575; -462.000; -369.000
326.303;  -64.700; -352.000; -461.000
326.439;  -26.575; -336.000; -276.000
326.575;   11.600; -190.000;  -29.000
326.710;   22.475; -156.000;  -30.000
326.846;    7.900;  146.000;  103.000
326.982;  -80.175; -530.000; -548.000
327.117;  -71.375; -481.000; -442.000
327.253;  -81.175; -745.000; -742.000
327.388; -120.475;-1137.000;-1153.000
327.524;   -5.225; -811.000; -578.000
327.659;  -15.450;  -58.000;  -22.000
327.795;   -2.950;   69.000;   45.000
327.931;  -87.475; -723.000; -499.000
328.066;  -13.700; -417.000; -276.000
328.202;  -10.250;   12.000; -129.000
328.337;  134.175;  957.000;  713.000
328.473;   54.025;  -12.000;  -74.000
328.608;  -10.575; -256.000; -267.000
328.743;  -52.800; -799.000; -664.000
328.879;   23.750;  214.000;  114.000
329.014;  -20.325; -102.000; -122.000
329.150;  -74.100; -358.000; -483.000
329.285;  -63.200; -465.000; -466.000
329.421;  -34.300; -548.000; -246.000
329.556;  -10.625;  -36.000;   85.000
329.691;  -83.325; -633.000; -615.000
329.827;  -74.625; -626.000; -480.000
329.962;  -30.625;  131.000; -301.000
330.097;  -85.400; -673.000; -585.000
330.233;  -43.625; -410.000; -223.000
330.368; -119.200; -839.000; -628.000
330.503;  -11.150;    3.000;   98.000
330.638;   31.625;  -93.000; -125.000
330.774;  -41.175; -609.000; -530.000
330.909;  -26.250; -434.000; -244.000
331.044;  -91.150; -714.000; -708.000
331.179; -173.450;-1217.000;-1109.000
331.315;   15.050;   77.000;   20.000
331.450;   16.425;  157.000;  285.000
331.585;  -65.525; -805.000; -706.000
331.720;  -79.775; -510.000; -460.000
331.855;   -4.925;  -35.000; -102.000
331.990;  165.600;   62.000;  138.000
332.126;   96.000; -110.000;   71.000
332.261;  -27.100; -379.000; -265.000
332.396;   10.025; -135.000; -242.000
332.531; -115.075;-1074.000;-1031.000
332.666;   19.325; -519.000; -363.000
332.801;  -96.025; -726.000; -807.000
332.936;   -1.450; -192.000; -122.000
333.071; -107.375; -870.000; -817.000
333.206;   30.900;  307.000;  379.000
333.341;   40.175;  344.000;  418.000
333.476;  -70.100; -627.000; -623.000
333.611;  -33.850; -251.000; -173.000
333.746;  -42.525; -381.000; -464.000
333.881;  -88.550; -973.000; -935.000
334.016; -107.875; -936.000; -917.000
334.151; -114.625; -746.000; -702.000
334.286;   28.650;  152.000;  186.000
334.421;    9.425; -125.000; -178.000
334.556;  -66.325; -611.000; -567.000
334.690;  -64.975; -631.000; -577.000
334.825;   70.900;  381.000;   83.000
334.960;  -27.425; -285.000; -413.000
335.095;   36.525;  135.000;  -91.000
335.230;  -81.425; -722.000; -738.000
335.365; -109.475;-1084.000; -990.000
335.499; -111.775;-1108.000;-1037.000
335.634;   53.875;    9.000;  534.000
335.769;  -70.600; -755.000; -720.000
335.904;  -27.825; -603.000; -561.000
336.038;  -38.200; -735.000; -657.000
336.173;  -78.475;-1206.000;-1194.000
336.308;   52.475; -116.000; -189.000
336.443;   39.125; -544.000; -634.000
336.577;  -39.350; -936.000; -787.000
336.712;  111.300;   -4.000;  -12.000
336.847;   -0.500; -724.000; -607.000
336.981;  121.475; -272.000; -208.000
337.116;  363.150;  615.000;  501.000
337.250;  240.050; -434.000; -421.000
337.385;  154.300; -297.000; -208.000
337.520;   35.950; -632.000; -603.000
337.654;  -42.625; -215.000; -126.000
337.789; -116.225; -989.000; -933.000
337.923;  -21.650; -104.000; -205.000
338.058;  -70.150; -673.000; -738.000
338.192;  -13.775; -611.000; -488.000
338.327;   11.600;  -18.000; -155.000
338.461;  -56.850; -299.000; -469.000
338.596;  -80.500; -780.000; -638.000
338.730;  -94.525; -767.000; -803.000
338.865;   52.000;  -46.000; -140.000
338.999;  -65.725; -846.000; -702.000
339.134;  -35.025; -634.000; -536.000
339.268;   19.950; -741.000; -603.000
339.403;  273.625; -740.000; -775.000
339.537;   29.975; -894.000; -820.000
339.671; -115.325; -829.000; -813.000
339.806;  -61.875; -556.000; -512.000
339.940;   10.525; -261.000; -235.000
340.074;  -86.050; -685.000; -510.000
340.209;  -37.350; -351.000; -230.000
340.343;  -83.725; -517.000; -573.000
340.477;  166.050;  998.000; 1036.000
340.612;  -73.825;-1033.000; -900.000
340.746;   81.425; -199.000; -243.000
340.880;  -42.200; -924.000; -785.000
341.014;  -18.275;  -45.000; -154.000
341.149; -118.700; -756.000; -718.000
341.283;  -99.450; -839.000; -754.000
341.417;  -54.000;-1124.000; -938.000
341.551;  238.375; -768.000; -708.000
341.685;   -7.425; -633.000; -611.000
341.820;  -43.200; -562.000; -493.000
341.954;  -36.075; -218.000; -349.000
342.088; -144.750;-1102.000;-1019.000
342.222;   76.700;  565.000;  618.000
342.356;  -51.150; -395.000; -335.000
342.490;  -67.500; -880.000; -841.000
342.624;  -36.825; -339.000; -242.000
342.758;   36.650; -364.000; -312.000
342.892;  -47.050; -710.000; -585.000
343.026;  -59.325;  -58.000; -116.000
343.160;  -40.325; -426.000; -376.000
343.294;  -73.500; -474.000; -337.000
343.428;    6.800; -488.000; -448.000
343.562;    3.425; -172.000;  -23.000
343.696;   -4.600; -385.000; -314.000
343.830;    8.400; -362.000; -356.000
343.964;   37.150; -231.000; -168.000
344.098; 1222.675;  199.000;   70.000
344.232; 1002.500; -266.000; -127.000
344.366;   96.525; -567.000; -453.000
344.500;  107.775; -665.000; -744.000
344.634;   52.525; -324.000; -164.000
344.768;   17.600; -531.000; -341.000
344.902;   30.400;  278.000;  256.000
345.035;  -68.125; -556.000; -496.000
345.169; -124.300; -933.000; -656.000
345.303;  -23.475; -308.000; -482.000
345.437;  -38.900; -826.000; -717.000
345.571;  -68.775; -675.000; -594.000
345.704;  -57.700; -309.000; -532.000
345.838;   -7.000; -331.000; -284.000
345.972;  -22.350; -543.000; -495.000
346.106;  124.525; -179.000; -190.000
346.239;  417.050; -312.000; -243.000
346.373;   41.725; -343.000; -302.000
346.507; -132.450; -950.000; -962.000
346.640;  208.800;  -30.000;   13.000
346.774;  -10.750; -650.000; -797.000
346.908;    0.625; -138.000;  -11.000
347.041;  -88.475; -646.000; -593.000
347.175;   11.600;  259.000;   27.000
347.309;  -47.175; -698.000; -628.000
347.442;  -78.250; -883.000; -732.000
347.576;  350.775;  670.000;  668.000
347.709;  281.375; -123.000;  -52.000
347.843;  -62.525; -933.000; -825.000
347.976;   58.700;  235.000;  294.000
348.110; -173.600;-1268.000;-1186.000
348.243;  -88.275; -679.000; -772.000
348.377;    2.025;  -26.000;   60.000
348.510;   73.475;  403.000;  540.000
348.644;  -21.375;  -37.000; -159.000
348.777;    2.300;  180.000;  191.000
348.911;  -35.575; -142.000; -112.000
349.044;  211.875;  471.000;  448.000
349.178;  245.700;-1069.000;-1006.000
349.311;  146.475;  141.000;  255.000
349.444;  -26.175; -927.000; -813.000
349.578;   -0.800; -347.000; -200.000
349.711;  -71.325; -959.000; -862.000
349.845;   38.575; -661.000; -591.000
349.978; -133.075;-1224.000;-1137.000
350.111;  -76.800; -546.000; -612.000
350.244;  -74.650; -596.000; -700.000
350.378;   28.075; -392.000; -393.000
350.511;  -65.075; -393.000; -426.000
350.644;  -92.700; -808.000; -806.000
350.778;   10.175;  168.000;  104.000
350.911;   10.075;  134.000;  140.000
351.044;  -87.925; -685.000; -615.000
351.177;  -10.700; -321.000; -281.000
351.310;   -5.325;    3.000; -131.000
351.444;  -44.125; -888.000; -788.000
351.577;  167.200;  140.000;   90.000
351.710;  116.575;  593.000;  417.000
351.843;  -21.700; -165.000;  -77.000
351.976;   11.450;  149.000;  -79.000
352.109;  -63.400; -621.000; -612.000
352.242;    4.400; -464.000; -419.000
352.376;  -24.400; -580.000; -636.000
352.509;  297.400; -437.000; -356.000
352.642;   89.400; -654.000; -604.000
352.775;   96.000; -141.000;  -98.000
352.908; -107.725; -933.000; -904.000
353.041;  -87.525; -814.000; -824.000
353.174;  -42.725; -551.000; -424.000
353.307;  -70.350; -753.000; -764.000
353.440;   87.725;  541.000;  453.000
353.573; -105.950; -957.000;-1008.000
353.706;  -45.250; -384.000; -558.000
353.839;   -8.450; -264.000; -220.000
353.971;  -72.675; -657.000; -512.000
354.104;  -66.825; -896.000; -835.000
354.237;   -5.600; -627.000; -662.000
354.370;  -63.750; -846.000; -879.000
354.503; -148.800;-1231.000;-1308.000
354.636;    0.400; -529.000; -348.000
354.769; -124.075; -937.000; -860.000
354.902;   17.900; -230.000; -139.000
355.034;  -10.225; -164.000; -220.000
355.167;   -4.050; -262.000; -162.000
355.300;  -89.750;-1061.000; -880.000
355.433;  728.900;  -71.000;  -14.000
355.565; 1089.350; -402.000; -384.000
355.698;  283.650; -356.000; -296.000
355.831;   11.375; -882.000; -801.000
355.964;  139.075; -285.000; -170.000
356.096;  -56.375; -856.000; -843.000
356.229;   50.525; -523.000; -530.000
356.362;  209.650; -373.000; -266.000
356.494;  442.175; -229.000; -162.000
356.627;  578.950;  269.000;  377.000
356.760;  552.075;  120.000;   53.000
356.892;  666.175; -286.000; -601.000
357.025;  833.625;  403.000;  389.000
357.157;  806.350; -167.000; -179.000
357.290;  402.925; -856.000; -713.000
357.423;  145.475; -667.000; -556.000
357.555;  166.400; -217.000; -228.000
357.688;  171.025; -483.000; -364.000
357.820;  545.700; -870.000; -877.000
357.953; 4200.075; -563.000; -589.000
358.085; 1066.025; -632.000; -612.000
358.218; 1818.150;-1131.000; -932.000
358.350;  332.625;  -58.000;  312.000
358.483;  -98.950;-1300.000;-1187.000
358.615;   44.750;-1182.000;-1078.000
358.747;   -8.875;-1187.000;-1058.000
358.880;   82.775; -810.000; -744.000
359.012;   13.475; -376.000; -202.000
359.145;  -17.200; -480.000; -511.000
359.277;   91.075; -962.000; -913.000
359.409; 3562.750;  536.000;  231.000
359.542;  950.425; -738.000; -688.000
359.674;   97.225;   46.000;   13.000
359.806;  -64.050; -565.000; -438.000
359.939;  -45.725; -617.000; -516.000
360.071;  -38.575; -583.000; -579.000
360.203;  -26.100; -411.000; -364.000
360.335;   64.800;  164.000;  -16.000
360.468;  212.650; -249.000; -307.000
360.600; 2698.800; -547.000; -454.000
360.732; 2010.275; -546.000; -423.000
360.864;  263.125;-1216.000;-1044.000
360.996;  436.300; -516.000; -554.000
361.129;   96.550; -389.000; -598.000
361.261;   36.650;  110.000; -113.000
361.393;  -17.525; -252.000; -214.000
361.525;   43.650;   94.000;  244.000
361.657;  -36.500; -821.000; -703.000
361.789;   33.675; -139.000; -155.000
361.921;  353.375; -642.000; -593.000
362.053;  348.575;  524.000;  541.000
362.185;   77.100;  288.000;   72.000
362.318;  -42.375; -709.000; -705.000
362.450;  219.675;  294.000;  444.000
362.582;  325.600; -913.000; -870.000
362.714;  -21.450; -353.000; -332.000
362.846;  -70.550; -606.000; -490.000
362.978; -133.850; -941.000; -811.000
363.109;  102.050; -161.000; -260.000
363.241;  587.675; -739.000; -749.000
363.373;  322.425; -649.000; -564.000
363.505;  438.450; -186.000;  -91.000
363.637;  125.275; -787.000; -601.000
363.769; -111.475;-1067.000;-1080.000
363.901;  -45.350; -596.000; -654.000
364.033;  -93.775;-1103.000;-1062.000
364.165;   25.575; -283.000; -283.000
364.296;   61.325; -316.000; -177.000
364.428;   -2.850;-1344.000;-1220.000
364.560;  -59.450; -679.000; -661.000
364.692;  -44.100; -738.000; -835.000
364.824;  424.975; -588.000; -456.000
364.955;  420.975; -402.000; -564.000
365.087;  490.825;-1097.000; -852.000
365.219;    2.600; -686.000; -816.000
365.351;  -67.200; -526.000; -572.000
365.482;   68.300;  300.000;  240.000
365.614;  -38.675; -402.000; -314.000
365.746;  -82.975; -729.000; -752.000
365.877;  -99.050; -706.000; -672.000
366.009;  169.150;  -35.000;  -62.000
366.141; -104.325;-1249.000;-1134.000
366.272;  -94.425; -803.000; -719.000
366.404; -105.500;-1005.000; -874.000
366.535;   -2.400; -139.000;  -12.000
366.667;  -96.950; -644.000; -649.000
366.799;   51.000;  353.000;  203.000
366.930;  -87.650; -862.000; -996.000
367.062;  103.550; -639.000; -613.000
367.193;   53.525; -872.000; -842.000
367.325;  -55.975; -580.000; -684.000
367.456;  146.675; -246.000;   31.000
367.588;  126.225; -371.000; -318.000
367.719;   24.325;  -44.000;  -45.000
367.851;    4.175; -222.000; -241.000
367.982;  -23.675; -875.000; -732.000
368.113;  183.625; -475.000; -358.000
368.245;  -97.575; -960.000; -841.000
368.376;   12.475; -254.000; -302.000
368.508;   -3.825; -188.000; -263.000
368.639; -122.425;-1166.000;-1034.000
368.770;   14.400; -670.000; -589.000
368.902;  -36.275; -836.000; -926.000
369.033;  -93.300; -906.000; -855.000
369.164;  -52.075; -720.000; -653.000
369.296; -107.450; -452.000; -601.000
369.427;   16.175; -209.000; -144.000
369.558;   -8.825; -593.000; -377.000
369.689;  -88.900; -721.000; -569.000
369.821; -118.600; -951.000; -845.000
369.952;   -4.200;   42.000; -108.000
370.083;  -54.775; -229.000; -108.000
370.214;  -78.375; -735.000; -650.000
370.345;    5.325;   65.000;   81.000
370.477;  -58.350; -810.000; -790.000
370.608;  326.550; -328.000; -264.000
370.739;   -9.700;-1233.000;-1292.000
370.870;    1.850;-1102.000; -923.000
371.001;  146.300; -378.000; -467.000
371.132;  -46.700; -754.000; -735.000
371.263;    1.000;  -42.000; -148.000
371.394; -126.100; -841.000; -748.000
371.525;   44.550;  345.000;  225.000
371.657;  -77.425; -808.000; -670.000
371.788;   95.800;  103.000;  199.000
371.919;  249.375; -384.000; -304.000
372.050; 4615.475;  -91.000; -156.000
372.181; 1391.125; -188.000; -294.000
372.311;  506.075;   42.000; -127.000
372.442;   84.100; -457.000; -451.000
372.573;    6.150; -444.000; -340.000
372.704; -106.675;-1008.000; -980.000
372.835;  128.025; -228.000; -289.000
372.966;  -34.175; -646.000; -554.000
373.097;  -41.825; -575.000; -711.000
373.228;   -8.025; -717.000; -542.000
373.359;  232.225; -824.000; -536.000
373.490; 1299.225; -881.000; -727.000
373.620; 1592.225;-1001.000; -803.000
373.751; 2432.900; -332.000; -396.000
373.882; 1131.200; -663.000; -733.000
374.013;  132.300; -449.000; -262.000
374.143;   -3.150; -581.000; -659.000
374.274;  -87.650; -987.000; -908.000
374.405;  236.700; -388.000; -276.000
374.536;  638.675; -526.000; -387.000
374.666; 1552.750; -759.000; -807.000
374.797;  369.875; -817.000; -868.000
374.928; 1232.900; -710.000; -560.000
375.058; 1221.775; -535.000; -500.000
375.189;  133.200;  -59.000;  -93.000
375.320;  -87.175; -928.000;-1034.000
375.450;  -22.825; -625.000; -616.000
375.581;  -38.900; -526.000; -436.000
375.712;   -8.575; -574.000; -250.000
375.842;  437.375; -438.000; -415.000
375.973;  328.600; -554.000; -513.000
376.103;    9.200; -665.000; -648.000
376.234;  -55.800; -531.000; -552.000
376.364;   12.000; -944.000; -867.000
376.495;  412.700;  925.000;  529.000
376.625;   67.475; -472.000; -485.000
376.756;  129.125; -709.000; -678.000
376.886;  -24.975;-1178.000;-1026.000
377.017;   -3.050;-1048.000;-1061.000
377.147;  192.900; -786.000; -782.000
377.278;   58.650;  174.000;  228.000
377.408; -116.475; -801.000; -815.000
377.538;  -95.000; -707.000; -693.000
377.669;  -67.225; -537.000; -613.000
377.799;  -52.625; -645.000; -635.000
377.929;  -28.675; -610.000; -428.000
378.060; -111.175; -781.000; -847.000
378.190;  -52.975; -726.000; -531.000
378.320;  -53.100; -401.000; -406.000
378.451;   -1.200; -131.000;  -22.000
378.581;   37.800;  -67.000; -110.000
378.711;  213.350; 1035.000;  866.000
378.841;   15.450; -533.000; -675.000
378.972;  -42.875; -871.000; -751.000
379.102;   46.575; -652.000; -579.000
379.232;    8.300; -126.000;  -73.000
379.362;  -80.600;-1001.000; -885.000
379.492;   61.775; -373.000; -424.000
379.623;  147.375;    0.000;  111.000
379.753;  -67.825;-1107.000; -974.000
379.883;  248.275;   59.000;  156.000
380.013;   56.225;-1081.000;-1017.000
380.143;  -73.325;-1097.000;-1056.000
380.273;  -86.025; -985.000; -861.000
380.403;   22.450; -344.000; -257.000
380.533;   11.825; -651.000; -664.000
380.663;  117.100;  173.000;  128.000
380.793;  -64.275;-1027.000;-1074.000
380.923;    4.650; -103.000;  -34.000
381.053;  -77.500; -613.000; -623.000
381.183;  -13.125; -106.000; -248.000
381.313;   84.025; -656.000; -470.000
381.443;   97.975; -692.000; -473.000
381.573;  312.000; -402.000; -409.000
381.703;  479.400;-1249.000;-1095.000
381.833;  -90.375;-1454.000;-1336.000
381.963;  149.175; -134.000;  -87.000
382.093; 1711.600; -925.000; -909.000
382.223;  555.075; -713.000; -602.000
382.353;   26.550; -801.000; -608.000
382.482;  582.675;-1091.000; -964.000
382.612;  974.675; -872.000; -644.000
382.742;  556.450; -695.000; -622.000
382.872;  402.550; -565.000; -551.000
383.002;   86.500;  347.000; -132.000
383.131;   13.250; -226.000; -160.000
383.261;  -26.025; -706.000; -768.000
383.391;  267.700; -552.000; -377.000
383.521; 2156.625;  451.000;  263.000
383.650;  432.525; -947.000; -904.000
383.780;   -9.175; -783.000; -656.000
383.910;  128.900;  880.000;  802.000
384.039;   71.100; -794.000; -656.000
384.169;  353.125;-1205.000;-1017.000
384.299;   32.575; -650.000; -662.000
384.428;  -59.975; -764.000; -680.000
384.558;  -13.925; -308.000; -275.000
384.687;  -12.900; -414.000; -334.000
384.817;   44.375;   75.000;   -2.000
384.947;   64.600; -234.000; -141.000
385.076;  361.950;  982.000;  912.000
385.206;  145.575;  369.000;  480.000
385.335;   11.625; -549.000; -417.000
385.465;  -54.550; -655.000; -663.000
385.594;  222.050;  -53.000;  -44.000
385.724;  664.925; -868.000; -838.000
385.853;  202.075; -296.000; -270.000
385.982; 1904.300; -743.000; -787.000
386.112; 2931.875;-1052.000; -871.000
386.241;  246.350; -307.000; -312.000
386.371;   57.775; -174.000;  -87.000
386.500;   32.900; -825.000; -789.000
386.629;   47.925; -874.000; -817.000
386.759;   69.725;  -43.000;   68.000
386.888;   37.025; -170.000; -250.000
387.017;  -50.150; -648.000; -620.000
387.147;  -48.425; -771.000; -798.000
387.276;   40.275; -410.000; -397.000
387.405;   62.550; -398.000; -342.000
387.535;   -9.275; -452.000; -361.000
387.664;  -50.900; -692.000; -620.000
387.793;  116.275; -198.000; -113.000
387.922;  737.750;  255.000;  200.000
388.052;   92.500; -576.000; -423.000
388.181;  106.175; -342.000; -472.000
388.310;  117.750; -889.000; -710.000
388.439;   30.025; -749.000; -742.000
388.568;  275.100;  365.000;  244.000
388.697; 1523.675; -756.000; -653.000
388.826;  345.150; -768.000; -666.000
388.956;  118.400; -285.000; -307.000
389.085;   -7.825; -347.000; -287.000
389.214;  -72.675; -842.000; -872.000
389.343;  -34.825; -645.000; -413.000
389.472;  322.075;  126.000;  149.000
389.601;  466.800;   91.000;    0.000
389.730;   49.325; -568.000; -687.000
389.859;   93.525;  226.000;   46.000
389.988;  278.750; -423.000; -408.000
390.117;  215.550; -168.000; -146.000
390.246;   22.450; -331.000; -320.000
390.375;  215.400; -673.000; -626.000
390.504;  -40.025; -703.000; -621.000
390.633;  -81.325; -672.000; -726.000
390.761;  -32.125; -732.000; -645.000
390.890;   68.100;   -4.000; -130.000
391.019;   12.950; -421.000; -441.000
391.148; -115.400; -826.000; -855.000
391.277;  -51.675; -576.000; -493.000
391.406;  -24.475; -821.000; -805.000
391.534;   47.025;  574.000; -301.000
391.663;  -43.025; -583.000; -645.000
391.792;  -55.650; -673.000; -701.000
391.921;  202.800;   -3.000;   15.000
392.050;  354.925; -287.000; -228.000
392.178;   35.025;-1206.000;-1061.000
392.307;  236.950; -758.000; -712.000
392.436;  146.275; -427.000; -641.000
392.564;   33.350;  166.000;   -6.000
392.693;  -70.800; -860.000; -682.000
392.822;  326.350; -529.000; -534.000
392.950;  196.325; -880.000; -714.000
393.079;  471.025; -188.000; -328.000
393.208;   70.950; -488.000; -511.000
393.336;    0.175; -170.000; -145.000
393.465;  -47.775; -317.000; -199.000
393.593;   11.525;   62.000;   79.000
393.722; -145.375;-1121.000; -916.000
393.850;  -34.175; -188.000;  -61.000
393.979; -156.425; -926.000; -805.000
394.107;  -54.525; -517.000; -537.000
394.236;    5.525; -570.000; -507.000
394.364;  237.725;  383.000;  206.000
394.493;  366.850; -911.000; -767.000
394.621;  -23.225; -955.000; -916.000
394.750;  469.575; -873.000; -923.000
394.878; 2165.100; -247.000; -149.000
395.007; 2898.275; -721.000; -807.000
395.135;  227.350; -790.000; -721.000
395.263; -105.250;-1038.000;-1040.000
395.392;    9.275;  -25.000; -107.000
395.520; -142.100; -818.000; -679.000
395.648;  -56.275; -865.000; -915.000
395.777;   10.125; -366.000; -405.000
395.905;  -21.425; -449.000; -564.000
396.033;   31.900;  217.000;  172.000
396.162;  602.150; -399.000; -453.000
396.290;  535.350;  -17.000;   -2.000
396.418;  174.575; -555.000; -514.000
396.546;  -39.200; -571.000; -466.000
396.674;  -91.900; -850.000; -878.000
396.803;   25.650;  -72.000;  -23.000
396.931;  144.650; -179.000; -199.000
397.059;  167.950;-1026.000; -989.000
397.187;  -76.750;-1026.000; -975.000
397.315; -131.975; -884.000; -649.000
397.443;  -78.600; -592.000; -443.000
397.572;  -89.350; -578.000; -424.000
397.700;   46.250; -607.000; -614.000
397.828;   37.650;  120.000;  -90.000
397.956;  -50.525; -508.000; -478.000
398.084;  -67.700; -767.000; -626.000
398.212;   48.650;  137.000;  124.000
398.340;   39.550;  -56.000;  159.000
398.468;   71.775; -390.000; -169.000
398.596; -126.850; -993.000; -953.000
398.724; -115.025; -762.000; -767.000
398.852; -150.525;-1024.000; -976.000
398.980;  -53.025; -560.000; -560.000
399.108;  -20.375; -982.000; -735.000
399.236;   46.775;   13.000;    8.000
399.363;   24.350;  222.000;  196.000
399.491;  -56.050; -404.000; -398.000
399.619; -119.175; -829.000; -800.000
399.747;  -78.200; -859.000; -771.000
399.875;  105.000;  220.000;  234.000
400.003;  -54.700; -359.000; -284.000
400.130;  -92.525; -421.000; -341.000
400.258;  -35.400;  -83.000;   38.000
400.386;  -66.700; -352.000; -168.000
400.514;   -8.675; -526.000; -587.000
400.641;  -54.550; -928.000; -802.000
400.769; -124.675; -979.000; -888.000
400.897;  -86.050; -838.000; -793.000
401.025;   -3.600; -166.000; -152.000
401.152;   -8.675;  220.000;   38.000
401.280;  -75.675; -430.000; -429.000
401.408; -105.500; -712.000; -576.000
401.535;  -94.125; -735.000; -758.000
401.663; -184.450;-1134.000;-1054.000
401.790;  -73.725; -514.000; -525.000
401.918;   51.350;  436.000;  405.000
402.046;  -22.750;  134.000;  122.000
402.173;  -24.575;  -18.000;    7.000
402.301;  -60.725; -519.000; -397.000
402.428;   37.150;  528.000;  383.000
402.556; -139.800;-1188.000; -913.000
402.683;  -10.950;  -20.000;   -1.000
402.811;  -14.675;  -37.000; -206.000
402.938;   -2.825;   20.000;   27.000
403.066;  302.150; -574.000; -558.000
403.193;  466.200;  299.000;  239.000
403.321;  384.350; -396.000; -574.000
403.448;  439.450;   83.000;   27.000
403.575;  215.975;  -90.000;  -46.000
403.703;  -81.925; -732.000; -557.000
403.830;  -55.650; -531.000; -496.000
403.957; -142.350;-1117.000;-1023.000
404.085;   11.625;  -61.000; -172.000
404.212;  106.650;  -50.000;   63.000
404.339;  195.750; -566.000; -306.000
404.467; 4119.675; -612.000; -524.000
404.594; 3255.525; -287.000; -227.000
404.721;  964.025; -869.000; -764.000
404.848;   90.550; -113.000; -202.000
404.976; -108.050; -856.000; -783.000
405.103;    0.275;  -14.000;  -82.000
405.230;   -0.650;  190.000;  226.000
405.357;   49.375;  117.000;   44.000
405.484;  182.175;  -49.000;    5.000
405.612;   30.025; -548.000; -563.000
405.739;  -39.225; -488.000; -243.000
405.866;   93.400;  669.000;  385.000
405.993;  -41.125; -398.000; -102.000
406.120; -132.875; -801.000; -887.000
406.247;  -29.200; -323.000; -342.000
406.374;  625.975;  540.000;  629.000
406.501;  215.025; -632.000; -702.000
406.628;  -54.050; -621.000; -589.000
406.755;  -78.575; -803.000; -620.000
406.882;  -26.450; -228.000; -277.000
407.009; -101.000; -719.000; -628.000
407.136;  110.000; -480.000; -401.000
407.263;  242.900; -939.000; -829.000
407.390;  -42.375; -692.000; -614.000
407.517; -145.075;-1139.000;-1187.000
407.644;  -47.575; -332.000; -256.000
407.771;  -72.975; -249.000; -287.000
407.898;   19.150;  168.000;  328.000
408.025;  -58.000; -421.000; -313.000
408.151;    8.825;   82.000;  153.000
408.278;  -65.700; -267.000; -216.000
408.405; -114.625; -931.000; -899.000
408.532;  -67.350; -549.000; -542.000
408.659; -112.375; -677.000; -648.000
408.785; -201.800;-1298.000;-1170.000
408.912;  -57.600; -412.000; -296.000
409.039; -103.550; -610.000; -686.000
409.166; -107.250; -591.000; -555.000
409.292; -104.900; -571.000; -534.000
409.419; -121.400; -665.000; -649.000
409.546;  -89.500; -431.000; -192.000
409.672;  -95.875; -713.000; -545.000
409.799;  -30.000;  -36.000;   34.000
409.926;  -31.725; -180.000; -179.000
410.052; -175.700;-1127.000;-1091.000
410.179;  -42.875; -368.000; -392.000
410.305;  -71.875; -375.000; -493.000
410.432;  -26.925; -220.000; -333.000
410.558;  -82.650; -305.000; -380.000
410.685; -105.325; -688.000; -431.000
410.812;  -85.175; -409.000; -588.000
410.938; -134.850; -964.000; -808.000
411.065;  -89.900; -671.000; -645.000
411.191;   -7.225; -189.000; -174.000
411.317; -109.575; -823.000; -742.000
411.444;  -61.125; -317.000; -246.000
411.570;  -74.425; -339.000; -294.000
411.697; -112.600; -758.000; -752.000
411.823; -154.275; -989.000; -999.000
411.949;  -11.400;  -56.000;   17.000
412.076; -114.700; -539.000; -519.000
412.202;  -97.950; -758.000; -757.000
412.329; -121.550; -798.000; -752.000
412.455; -101.575; -821.000; -657.000
412.581;  -11.700;  -15.000;  172.000
412.707;  -62.925; -540.000; -457.000
412.834;   21.375;  156.000;  219.000
412.960;  -83.625; -785.000; -784.000
413.086;  -81.050; -743.000; -701.000
413.212;  199.325;  604.000;  578.000
413.339;  -36.175; -685.000; -701.000
413.465;   45.150; -364.000; -310.000
413.591;  -71.350; -757.000; -474.000
413.717;  -35.850; -358.000; -366.000
413.843; -137.075; -839.000; -861.000
413.969;  -57.700;  -47.000; -292.000
414.096; -104.475; -679.000; -679.000
414.222;    3.075;  -33.000;   85.000
414.348;    6.050; -652.000; -385.000
414.474;  165.675;   38.000;  -52.000
414.600;  -14.750; -126.000; -144.000
414.726;  -16.775;  -96.000;  -55.000
414.852;  -59.400; -365.000; -342.000
414.978;   32.175;  104.000;  -18.000
415.104;   33.050;   38.000;   80.000
415.230;    7.675; -329.000; -330.000
415.356;   36.550; -409.000; -514.000
415.482;  205.025;   13.000;  -35.000
415.608;  202.450; -247.000; -323.000
415.734;  806.475;   67.000;   38.000
415.860;16015.375; -875.000; -767.000
415.986;11687.600; -685.000; -607.000
416.111;  976.200; -798.000; -652.000
416.237;  189.350; -424.000; -571.000
416.363;  800.875; -765.000; -733.000
416.489; 3042.975; -324.000; -251.000
416.615;  301.675; -707.000; -742.000
416.741;  -35.700; -677.000; -784.000
416.866; -106.875; -673.000; -736.000
416.992; -121.200; -801.000; -818.000
417.118;  -31.250;  -41.000;  -80.000
417.244;  -66.550; -798.000; -531.000
417.369;  -74.325; -801.000; -612.000
417.495;    9.025; -325.000; -254.000
417.621;  -80.575;-1015.000; -803.000
417.746;    6.575; -579.000; -572.000
417.872;   24.225; -254.000; -144.000
417.998;   28.825; -515.000; -530.000
418.123;  737.975;-1073.000; -845.000
418.249; 3971.425; -512.000; -601.000
418.374;  520.475; -916.000; -824.000
418.500;   63.525; -383.000; -482.000
418.626;   90.500;   70.000;  -59.000
418.751;   93.700; -549.000; -448.000
418.877;  141.975; -637.000; -643.000
419.002; 1314.875; -688.000; -560.000
419.128; 9249.525; -930.000; -721.000
419.253; 2220.125; -967.000; -837.000
419.379;  284.675; -391.000; -338.000
419.504;  308.725;  325.000;  415.000
419.629;  364.700; -393.000; -212.000
419.755; 2434.025; -317.000; -254.000
419.880;14264.250;  -98.000;   67.000
420.006; 8501.475; -280.000; -221.000
420.131;22742.575; -662.000; -775.000
420.256; 3293.425; -315.000; -316.000
420.382;  418.425; -665.000; -687.000
420.507;   56.250; -649.000; -778.000
420.632;  203.100; -337.000; -339.000
420.758;  417.650; -251.000; -425.000
420.883;  -53.150; -876.000; -672.000
421.008;  -93.150; -775.000; -619.000
421.133;  -80.100; -509.000; -467.000
421.259;  -38.500; -325.000; -259.000
421.384;  -95.925; -834.000; -693.000
421.509;   11.125;-1052.000; -862.000
421.634; 1862.250; -936.000; -820.000
421.759;  823.025; -359.000; -327.000
421.885;  -23.275; -717.000; -656.000
422.010;  -47.450; -673.000; -542.000
422.135; -158.100; -695.000; -727.000
422.260;   50.450;  340.000;  280.000
422.385;  -36.925;   12.000;  -98.000
422.510;   16.700;  151.000;  -26.000
422.635;   17.875;  -87.000;  -43.000
422.760;   92.725; -766.000; -791.000
422.885;   60.150;  -57.000;  -80.000
423.010;  -28.875; -112.000; -169.000
423.135;  -86.200; -481.000; -561.000
423.260;    1.575; -150.000; -245.000
423.385;   91.025;  476.000;  222.000
423.510;   47.825;   71.000;  -22.000
423.635;  104.100;  133.000;   45.000
423.760;   68.350;  383.000;  328.000
423.885;   60.600;  336.000;  391.000
424.010;   25.450;  -68.000;  -13.000
424.135;   -7.325;    5.000;  -33.000
424.259;  -87.575; -654.000; -457.000
424.384;  -56.700; -279.000; -272.000
424.509;  -22.850; -260.000; -186.000
424.634; -102.900; -761.000; -623.000
424.759;  -18.300; -688.000; -544.000
424.883;  -23.025; -506.000; -527.000
425.008;  129.825; -502.000; -410.000
425.133; 1531.175; -679.000; -653.000
425.258;  710.150; -517.000; -381.000
425.382; 1273.925; -867.000; -774.000
425.507; 3294.300; -487.000; -543.000
425.632;  465.900; -802.000; -663.000
425.756;  342.200; -256.000; -146.000
425.881; 4190.325; -831.000; -857.000
426.006;11058.775; -604.000; -355.000
426.130; 1890.400; -696.000; -508.000
426.255;  234.925; -611.000; -491.000
426.379;  104.775; -189.000; -577.000
426.504;  310.725;  660.000;  544.000
426.629; 3256.425; -519.000; -466.000
426.753; 2217.400;   64.000;  -46.000
426.878;  252.475; -252.000; -288.000
427.002;  136.825; -651.000; -668.000
427.127; 1258.500;  -35.000; -158.000
427.251; 8516.175;  372.000;  401.000
427.375; 2492.875; -191.000; -173.000
427.500; 2784.800; -616.000; -610.000
427.624;  977.525; -234.000; -400.000
427.749;  134.675; -216.000; -225.000
427.873;   -8.875; -499.000; -412.000
427.997;  -21.025; -222.000; -230.000
428.122;  102.100;  795.000;  703.000
428.246;   89.975;  433.000;  434.000
428.371; -108.850; -869.000; -773.000
428.495;  -93.575; -624.000; -646.000
428.619;  -18.575; -186.000; -117.000
428.743;   17.525;   65.000;  132.000
428.868;   64.850; -732.000; -643.000
428.992; 1822.350; -219.000; -326.000
429.116;  768.100; -329.000; -357.000
429.240;  405.175;  419.000;  426.000
429.365;    0.950; -454.000; -574.000
429.489;  -24.225; -638.000; -647.000
429.613;   15.850; -236.000; -177.000
429.737;   45.550; -563.000; -432.000
429.861;  232.800; -247.000; -133.000
429.985; 4240.800; -425.000; -305.000
430.109; 4613.700; -770.000; -908.000
430.234;  542.200;   76.000;  -50.000
430.358;   41.100; -250.000; -160.000
430.482;  -53.950; -672.000; -564.000
430.606;  -55.775; -655.000; -375.000
430.730;   51.950; -437.000; -388.000
430.854;  229.025; -909.000; -835.000
430.978;  -35.500; -795.000; -764.000
431.102;  -54.475; -499.000; -422.000
431.226;  -77.075; -874.000; -815.000
431.350;   58.000;  345.000;  422.000
431.474;  -47.325; -661.000; -373.000
431.597; -134.075;-1060.000; -848.000
431.721;  -76.225; -276.000; -267.000
431.845; -121.875; -704.000; -472.000
431.969;  -71.475; -304.000; -349.000
432.093;  -99.000; -395.000; -317.000
432.217;  -16.175;   32.000;   82.000
432.341;  -91.725; -523.000; -518.000
432.464;   15.950;   96.000;   40.000
432.588;  308.175; -401.000; -329.000
432.712;  143.800;  -52.000;  -52.000
432.836;   49.650;  213.000;  263.000
432.959;  -28.500; -372.000; -311.000
433.083;   62.650;   11.000;    2.000
433.207;  278.750;  285.000;  930.000
433.330; 3616.675; -391.000; -200.000
433.454; 4480.450; -654.000; -638.000
433.578; 2645.575;  583.000;  278.000
433.701;  513.325; -623.000; -675.000
433.825;  225.375; -292.000; -299.000
433.949;  341.450;   28.000;  -72.000
434.072;  164.800; -410.000; -323.000
434.196;   13.000; -309.000; -117.000
434.319; 3700.850;25482.000;25124.000
434.443;  687.325; -656.000; -603.000
434.566; 2054.600;  281.000;   62.000
434.690;  322.150; -637.000; -383.000
434.813;   46.825; -251.000; -173.000
434.937;  -68.700; -569.000; -696.000
435.060;   -3.900; -423.000; -332.000
435.184;  615.300; -492.000; -217.000
435.307;  336.300;  159.000;  102.000
435.431;   20.425;  -40.000;   24.000
435.554;  -93.100; -399.000; -240.000
435.677;  -82.175; -350.000; -258.000
435.801;  -40.300;  -25.000;   49.000
435.924;   11.550;    1.000;  -67.000
436.048;  -64.825;-1019.000; -732.000
436.171;  -54.650; -240.000;  -66.000
436.294;  -34.925; -248.000; -229.000
436.417;   32.650; -963.000; -849.000
436.541;  -97.375; -814.000; -840.000
436.664;  -42.875; -242.000; -316.000
436.787;  -20.775;   13.000;  113.000
436.910;  -92.925; -792.000; -422.000
437.034;   33.100;  142.000;  143.000
437.157;  128.575;  -11.000;    0.000
437.280;  -15.300; -392.000; -292.000
437.403;  -31.600; -982.000; -869.000
437.526; 1096.950; -903.000; -865.000
437.649; 3761.250; -505.000; -332.000
437.772;  615.750; -692.000; -540.000
437.896;  168.575;  700.000;  544.000
438.019;  -76.750; -758.000; -503.000
438.142;  -72.775; -596.000; -506.000
438.265;   51.750; -639.000; -670.000
438.388;  885.375; -520.000; -410.000
438.511;  214.875; -597.000; -394.000
438.634;   -9.150; -247.000; -125.000
438.757; -144.900; -693.000; -619.000
438.880;  -27.400;  -34.000;  -57.000
439.003;  -68.975; -417.000; -437.000
439.126;  -59.525; -287.000; -167.000
439.248;  -54.525;  -98.000; -139.000
439.371;  -49.400;    9.000;  -53.000
439.494;   26.475;  510.000;  439.000
439.617;  -50.500;   65.000;  -88.000
439.740; -184.875; -968.000; -816.000
439.863; -132.450; -755.000; -595.000
439.986; -121.125; -476.000; -431.000
440.108;  -39.250; -161.000; -112.000
440.231; -151.275; -950.000; -836.000
440.354;  -17.000;  -64.000; -150.000
440.477;  107.400; -566.000; -542.000
440.599;   51.125; -200.000; -225.000
440.722; -120.450; -709.000; -586.000
440.845;   70.275;  751.000;  928.000
440.968; -102.125; -415.000; -311.000
441.090;  -57.875; -199.000;  -33.000
441.213; -156.350;-1021.000; -825.000
441.336;  -50.850; -159.000;   -5.000
441.458;  -73.575; -549.000; -396.000
441.581;  -58.775; -628.000; -629.000
441.703;  -66.225; -152.000;   13.000
441.826; -125.825; -557.000; -400.000
441.948;  -40.325;   56.000;   51.000
442.071;   36.325;  555.000;  424.000
442.193; -105.850; -531.000; -485.000
442.316;   44.925;  152.000;   97.000
442.438;   28.675; -233.000;  -10.000
442.561;  102.875;  272.000;  262.000
442.683;  909.575; -809.000; -522.000
442.806; 1835.675;   -8.000;   74.000
442.928;  128.625; -859.000; -604.000
443.051;  -37.525; -577.000; -373.000
443.173;  -98.050; -341.000; -339.000
443.295;  -73.550; -263.000; -371.000
443.418;  -64.050; -321.000;  -29.000
443.540;    6.475; -106.000;   -4.000
443.662; -105.500; -563.000; -465.000
443.785;  -10.325;  335.000;  199.000
443.907;  -99.125; -362.000; -208.000
444.029; -133.425; -767.000; -494.000
444.152; -148.750; -644.000; -554.000
444.274;  -21.575;  -18.000;  -24.000
444.396;  -97.025; -461.000; -221.000
444.518; -117.800; -691.000; -454.000
444.640;  -99.900; -268.000; -111.000
444.763;  -13.600;  388.000;  249.000
444.885; -115.725; -432.000; -392.000
445.007;  -39.650;   35.000;   86.000
445.129; -114.200; -610.000; -515.000
445.251;  -84.425; -372.000; -439.000
445.373; -126.700; -537.000; -386.000
445.495;   13.550;  242.000;  350.000
445.617;   40.300;  853.000;  753.000
445.739;  -43.800; -215.000;  -97.000
445.861;  -33.725; -245.000; -112.000
445.984;   -6.625; -267.000; -101.000
446.105;  322.725; -418.000; -251.000
446.227;  914.175; -176.000;  -19.000
446.349;   61.250; -358.000; -249.000
446.471;  -85.325; -615.000; -448.000
446.593;  -45.050; -316.000;   19.000
446.715;   22.425;  -67.000;   41.000
446.837;   62.525;  697.000;  832.000
446.959;  -88.850; -457.000; -478.000
447.081; -136.850; -628.000; -518.000
447.203;   55.500;  862.000;  834.000
447.325;  -92.325; -270.000;   42.000
447.446;   -7.025;  286.000;  530.000
447.568; -147.825; -921.000; -803.000
447.690;  -81.050; -236.000; -245.000
447.812; -143.450; -798.000; -519.000
447.933;  -26.700;  155.000;  127.000
448.055;  -50.650; -306.000; -261.000
448.177;  195.450;   31.000;   79.000
448.299;  182.975; -935.000; -727.000
448.420;   47.050;  -25.000;  159.000
448.542;  -54.875;   -3.000;   33.000
448.664;  -18.675;  109.000;  322.000
448.785;  -46.925;  265.000;   83.000
448.907;  -79.200; -614.000; -353.000
449.028;   -9.425; -771.000; -471.000
449.150;   80.000;  492.000;  589.000
449.272; -175.725;-1044.000; -913.000
449.393;   28.525;  612.000;  694.000
449.515; -141.900; -634.000; -581.000
449.636;  -48.450; -264.000; -155.000
449.758;   97.225;  763.000;  622.000
449.879;  -88.125; -498.000; -396.000
450.001;  -87.225; -149.000;  -49.000
450.122;  -27.375;  -95.000;  162.000
450.244;  -30.675;   37.000;  364.000
450.365;  -87.175; -495.000; -301.000
450.486;  -46.425;   80.000;  268.000
450.608;    2.725;  393.000;  326.000
450.729;   48.700;  578.000;  645.000
450.850;  -29.550; -574.000; -466.000
450.972;  428.225; -552.000; -389.000
451.093; 3304.450;  190.000;  588.000
451.214; 1397.925; -516.000; -337.000
451.336;  280.300;  773.000;  579.000
451.457;   32.675;  264.000;  393.000
451.578;  -49.925; -118.000;  -74.000
451.699; -121.250; -546.000; -540.000
451.821;  -72.175; -284.000;  -50.000
451.942;  -17.425;  278.000;  285.000
452.063;    8.550;  228.000;  419.000
452.184;  370.100;  -54.000;  -49.000
452.305;  778.875;  103.000;  170.000
452.427;   66.100; -549.000; -301.000
452.548;  -28.375;   23.000;   79.000
452.669;  -36.525; -257.000;  -89.000
452.790;  -33.650;    3.000;  -18.000
452.911;  -14.650;  195.000;  259.000
453.032;  -48.100; -289.000;  -60.000
453.153;  -36.850;  -29.000;   81.000
453.274;   75.150;  737.000;  868.000
453.395;  -43.575;  -51.000;  175.000
453.516;  149.475; 1317.000; 1388.000
453.637;  -64.800; -205.000; -150.000
453.758;  -59.250;   15.000;   69.000
453.879; -121.175; -462.000; -250.000
454.000;   84.375; 1086.000;  948.000
454.121; -104.825; -554.000; -326.000
454.242; -123.900; -599.000; -383.000
454.362;  -40.900;  -99.000;  114.000
454.483;  -23.750; -309.000; -229.000
454.604;   84.900;  512.000;  580.000
454.725; -117.950; -627.000; -555.000
454.846; -120.725; -474.000; -406.000
454.967;  -12.750;  230.000;  539.000
455.087;  -53.550;  179.000;  153.000
455.208;   -0.075;  554.000;  856.000
455.329;  -91.000;  -22.000;   82.000
455.450;   49.300;  473.000;  633.000
455.570;  -92.125; -234.000; -211.000
455.691;  -42.875;  201.000;  407.000
455.812; -108.500; -270.000;  -92.000
455.932;  -54.100;  107.000;  -97.000
456.053;  -91.325;   36.000;   24.000
456.173; -111.675; -433.000; -355.000
456.294; -137.700; -476.000; -303.000
456.415;  -60.925;  -73.000;   70.000
456.535;  -35.200;  297.000;  273.000
456.656;  -36.775;  132.000;  240.000
456.776;  -78.975;    3.000;  298.000
456.897;   -6.725;  308.000;  513.000
457.017;  -82.825; -153.000;   -3.000
457.138;  -85.275; -402.000; -249.000
457.258;  -16.400;  263.000;  224.000
457.379;  -20.750;  509.000;  521.000
457.499;  -28.875;  443.000;  432.000
457.620; -138.550; -407.000; -231.000
457.740; -100.000; -132.000;  -11.000
457.860;  -43.700;   87.000;   44.000
457.981;  -35.350;  132.000;  124.000
458.101;  -67.150;  -89.000;   40.000
458.221;  -23.750;  336.000;  402.000
458.342;  -63.675;   -4.000;  -37.000
458.462;   -8.200;  617.000;  352.000
458.582;  -71.025; -302.000; -294.000
458.703;  -21.200;  303.000;  154.000
458.823;  -30.625;   22.000;  163.000
458.943;   25.400;  341.000;  467.000
459.063;   -7.700; 1124.000;  192.000
459.183;  -16.975;  328.000;  313.000
459.304;   16.525;  315.000;  517.000
459.424;  -73.800; -246.000;  -89.000
459.544;  255.225;  388.000;  764.000
459.664;  592.600;  499.000;  506.000
459.784;  247.250; 1004.000; 1175.000
459.904;   57.825;  867.000;  744.000
460.024;   81.175;  867.000;  684.000
460.144;   35.850;  449.000;  554.000
460.264;    0.300;  515.000;  327.000
460.385;  -93.850; -145.000; -119.000
460.505;   41.725;  905.000;  858.000
460.625;  -98.950;  -17.000;  -68.000
460.745;   -8.950;  396.000;  541.000
460.864;  -44.650;  153.000;  469.000
460.984;   29.025;  499.000;  573.000
461.104;  146.250; 1656.000; 1775.000
461.224;   21.675;  657.000;  650.000
461.344;  -17.525;  431.000;  360.000
461.464;  -21.225;  258.000;  513.000
461.584;  -13.075;  283.000;  466.000
461.704;  -37.000;   58.000;  108.000
461.824;  -50.950;  238.000;  259.000
461.943;  -41.775;  191.000;  130.000
462.063;  -78.700;    2.000;  324.000
462.183;   43.750;  639.000;  717.000
462.303;  104.425; 1678.000; 1230.000
462.422;   35.250;  781.000;  840.000
462.542;  -36.700;  271.000;  391.000
462.662;   47.325;  353.000;  380.000
462.782;  184.300;  833.000;  572.000
462.901;  356.575;  545.000;  717.000
463.021;  236.825; 1702.000; 1638.000
463.141;   -8.925;  337.000;  770.000
463.260;  -15.050;  614.000;  474.000
463.380;   22.700;  902.000;  884.000
463.499;  -37.025;  342.000;  332.000
463.619;  -30.375;  581.000;  559.000
463.738;  121.700; 1644.000;  903.000
463.858;   20.875;  657.000;  811.000
463.978;  -32.600;  542.000;  396.000
464.097;   46.775;  921.000; 1114.000
464.217;   86.000; 1196.000; 1143.000
464.336;   94.175; 1068.000; 1130.000
464.455;  -31.725;  328.000;  659.000
464.575;   66.400;  597.000;  602.000
464.694;  193.550; 1204.000; 1179.000
464.814;  130.550; 1190.000; 1138.000
464.933;   86.200; 1095.000; 1027.000
465.052;  101.750; 1412.000; 1054.000
465.172;   96.200;  922.000;  799.000
465.291;  161.650; 1376.000; 1320.000
465.410;    9.900;  462.000;  735.000
465.530;   96.625; 1355.000; 1310.000
465.649;   77.450; 1209.000; 1273.000
465.768;  151.825; 1673.000; 1508.000
465.888;   62.275;  941.000; 1174.000
466.007;  100.475; 1335.000; 1440.000
466.126;  -11.100;  721.000;  641.000
466.245;   46.375; 1176.000; 1187.000
466.364;   22.150;  950.000; 1060.000
466.484;   70.450; 1024.000; 1213.000
466.603;   35.775; 1101.000; 1222.000
466.722;  139.725; 1490.000; 1769.000
466.841;   87.725; 1151.000; 1401.000
466.960;   40.375; 1069.000;  972.000
467.079;  115.950; 1971.000; 1786.000
467.198;   50.500; 1238.000; 1181.000
467.317;   80.725; 1768.000; 1162.000
467.436;   66.075; 1709.000; 1261.000
467.555;  131.400; 1796.000; 1746.000
467.674;   59.400; 1227.000; 1329.000
467.793;   51.600; 1376.000; 1374.000
467.912;   94.650; 1658.000; 1539.000
468.031;  139.750; 2038.000; 1930.000
468.150;  164.775; 1842.000; 1837.000
468.269;  205.700; 2313.000; 2090.000
468.388;  197.275; 2168.000; 2339.000
468.507;  252.950; 2884.000; 2903.000
468.626;  228.375; 2555.000; 2541.000
468.744;  131.775; 2018.000; 2174.000
468.863;  190.350; 2312.000; 2523.000
468.982;   83.625; 1503.000; 1555.000
469.101;  233.150; 2788.000; 2692.000
469.220;  158.700; 2333.000; 2176.000
469.338;  251.975; 2935.000; 3051.000
469.457;  198.375; 2719.000; 2545.000
469.576;  346.450; 3953.000; 3784.000
469.695;  246.075; 2877.000; 3066.000
469.813;  431.925; 4148.000; 4192.000
469.932;  415.050; 4255.000; 4485.000
470.051;  420.325; 4075.000; 4161.000
470.169;  729.300; 4470.000; 4338.000
470.288; 1197.025; 4700.000; 4809.000
470.406;  766.375; 5059.000; 5194.000
470.525;  624.250; 6101.000; 5787.000
470.644;  659.200; 6847.000; 6794.000
470.762;  818.375; 8397.000; 7873.000
470.881;  892.000; 8651.000; 8464.000
470.999; 1021.325; 9685.000; 9151.000
471.118; 1106.675;11174.000;10711.000

