
Integration time [ms]: 100.000
Averaging Nr. [scans]: 40
Smoothing Nr. [pixels]: 0
Data measured with spectrometer [name]: 2101012U2
Wave   ;Sample   ;Dark     ;Reference
[nm]   ;[counts] ;[counts] ;[counts] 

197.733;   45.425;  516.000;  404.000
197.879;  -73.975; -610.000; -634.000
198.025;  -50.900; -475.000; -420.000
198.171;  -72.850; -602.000; -612.000
198.317;  -46.375; -401.000; -316.000
198.463;  -38.250; -655.000; -404.000
198.609;   10.200;  181.000; -137.000
198.755;  -70.275; -644.000; -410.000
198.901;  -60.425; -505.000; -424.000
199.047;  -65.300; -615.000; -488.000
199.193;  -33.750; -230.000; -468.000
199.339;  -45.125; -222.000; -369.000
199.485;   27.600;  330.000;  271.000
199.631;    3.275;  227.000;  310.000
199.777;  -66.725; -466.000; -398.000
199.923;  -57.800; -610.000; -424.000
200.069;  -18.500; -141.000;  -58.000
200.215;   48.725;  128.000;  453.000
200.361;   31.300;  243.000;  477.000
200.507;  -61.950; -600.000; -373.000
200.653;  -40.650; -371.000; -194.000
200.798;  -40.350; -215.000; -125.000
200.944;  -13.600; -146.000;  -41.000
201.090;   29.750;   61.000;  222.000
201.236;  -14.375; -116.000; -158.000
201.382;  115.200;  874.000;  903.000
201.528;   -2.025;  -58.000;  -48.000
201.674;  -55.175; -386.000; -293.000
201.819;  -69.475; -540.000; -439.000
201.965;  -69.575; -699.000; -447.000
202.111;  -26.150; -273.000; -226.000
202.257;  -34.625; -250.000; -238.000
202.402;  -27.000;   13.000;  -36.000
202.548;  -33.675; -169.000; -116.000
202.694;   68.575;  410.000; -183.000
202.840;  -77.250; -603.000; -531.000
202.985;  -80.925; -681.000; -639.000
203.131;  -95.275; -832.000; -666.000
203.277;  -21.350; -199.000; -262.000
203.423;  -59.375; -434.000; -520.000
203.568;  -43.225; -462.000; -237.000
203.714;  -54.475; -535.000; -542.000
203.860;  -79.650; -682.000; -641.000
204.005;   18.725;  112.000;  167.000
204.151;   46.025;  561.000;  556.000
204.296;  -35.675; -354.000; -221.000
204.442;  -80.600; -600.000; -547.000
204.588;  -63.425; -592.000; -579.000
204.733;   11.950;  178.000;  168.000
204.879; -119.725;-1018.000; -822.000
205.025;   -2.450;  -99.000;  126.000
205.170;   -9.175;  -17.000;   94.000
205.316;   80.600;  438.000;  661.000
205.461;  -75.575; -698.000; -554.000
205.607;   71.100;  609.000;  665.000
205.752;  -74.600; -626.000; -551.000
205.898;  -61.525; -501.000; -391.000
206.043;  -68.225; -578.000; -506.000
206.189;  -47.325; -243.000; -285.000
206.334;   65.875;  554.000;  606.000
206.480;   66.175;  409.000;  239.000
206.625;  -78.525; -529.000; -552.000
206.771;  -56.325; -451.000; -373.000
206.916;  -33.400; -210.000; -537.000
207.062;  -82.800; -545.000; -591.000
207.207;  -71.725; -546.000; -443.000
207.353;   46.125;  185.000;  460.000
207.498;   15.400;  196.000;   85.000
207.643;  -56.450; -501.000; -370.000
207.789; -121.875;-1069.000; -910.000
207.934;  -99.600; -665.000; -713.000
208.080;  -22.150; -154.000;   66.000
208.225;  -15.250;  -22.000;  -57.000
208.370;  -83.050; -727.000; -619.000
208.516;  -66.600; -741.000; -487.000
208.661;  -11.800; -127.000;  -69.000
208.806;  -30.950; -165.000; -171.000
208.952; -117.525;-1044.000; -731.000
209.097;   39.475;  378.000;  349.000
209.242;  -48.150; -307.000; -382.000
209.387;   57.050;  392.000;  350.000
209.533;  -45.275; -321.000; -350.000
209.678;   56.125;  472.000;  543.000
209.823;  -30.975; -408.000; -310.000
209.969; -104.375; -860.000; -757.000
210.114; -109.700; -907.000; -719.000
210.259; -110.900; -939.000; -889.000
210.404;   -9.875; -171.000;  103.000
210.549;   -1.600;  108.000;    3.000
210.695;   -2.375;   -3.000;  -95.000
210.840;   18.200;   94.000;   67.000
210.985;  -71.475; -484.000; -303.000
211.130;   44.525;  268.000;  406.000
211.275;   16.175;  207.000;  199.000
211.420;  -47.150; -300.000; -289.000
211.566;  -63.825; -536.000; -489.000
211.711;   22.075;  218.000;  157.000
211.856;  -68.875; -545.000; -519.000
212.001;   -4.025;  151.000;   44.000
212.146;   15.050;  153.000;   49.000
212.291;  -21.250; -210.000; -186.000
212.436;  -33.525; -280.000;   -6.000
212.581;  -91.850; -685.000; -653.000
212.726;  -71.725; -487.000; -538.000
212.871;  -58.700; -552.000; -217.000
213.016; -147.100;-1172.000;-1029.000
213.161;   47.425;  406.000;  291.000
213.306;  -72.700; -435.000; -577.000
213.451;  -85.300; -778.000; -689.000
213.596;  -52.425; -455.000; -347.000
213.741;  -59.075; -448.000; -538.000
213.886;  -73.700; -498.000; -517.000
214.031;  -24.250; -294.000; -124.000
214.176;  -59.100; -408.000; -341.000
214.321;  -20.075; -296.000; -157.000
214.466;  -29.300; -163.000;  -43.000
214.611;   -2.500;  -61.000;  -10.000
214.756; -107.775; -948.000; -858.000
214.901;  -30.525; -388.000; -226.000
215.046; -127.150; -797.000; -825.000
215.191;    7.525;  128.000;   35.000
215.336;  -11.900; -157.000;  -19.000
215.480;  -63.150; -684.000; -505.000
215.625;  -15.475; -175.000;  -19.000
215.770;  -76.775; -757.000; -662.000
215.915;  -11.200;   -5.000;  -97.000
216.060;   -6.500; -113.000;  -21.000
216.205;  -90.675; -731.000; -779.000
216.349;  -67.425; -470.000; -533.000
216.494; -119.125; -939.000; -867.000
216.639; -105.375; -823.000; -888.000
216.784;  -89.875; -577.000; -525.000
216.929;   28.800;  392.000;  281.000
217.073;  -12.775; -244.000;  -31.000
217.218;  -12.350;   78.000;  -47.000
217.363;  -73.800; -656.000; -618.000
217.507;  -81.950; -623.000; -588.000
217.652; -125.875; -845.000; -874.000
217.797; -105.075; -708.000; -659.000
217.942; -103.975; -856.000; -720.000
218.086;   46.650;  608.000;  539.000
218.231;  -35.575; -174.000;  -26.000
218.376;  -39.875; -337.000; -229.000
218.520;   -6.350;  -41.000;   96.000
218.665;  -36.325; -338.000; -204.000
218.810;  -45.575; -275.000; -233.000
218.954;    6.950;  201.000;   35.000
219.099;  -93.725; -713.000; -963.000
219.243;  -69.550; -589.000; -554.000
219.388;  -28.725; -264.000; -136.000
219.532;   -6.950; -116.000; -116.000
219.677;  -69.050; -564.000; -521.000
219.822;   -0.225;   33.000;   89.000
219.966;   -3.875;   17.000;  -99.000
220.111;  -31.400; -328.000;  -40.000
220.255;  -89.975; -797.000; -750.000
220.400;  -20.350; -180.000; -146.000
220.544;  -62.075; -516.000; -450.000
220.689;  -51.500; -422.000; -451.000
220.833;  -20.550; -123.000;  -58.000
220.978;  -57.050; -393.000; -563.000
221.122;   11.300;  319.000;  307.000
221.267; -123.150; -906.000; -837.000
221.411;  -68.075; -478.000; -394.000
221.555;  -17.875; -104.000;  -23.000
221.700;  -61.325; -329.000; -222.000
221.844;   25.725;  255.000;  272.000
221.989;  -45.325; -328.000; -311.000
222.133;  -54.125; -289.000; -307.000
222.277;   -4.125;    5.000;   78.000
222.422;   -2.200;  227.000;  113.000
222.566;  -28.200; -381.000; -214.000
222.711;  -67.200; -414.000; -479.000
222.855;  -68.525; -643.000; -586.000
222.999;  -83.375; -642.000; -717.000
223.144;  -35.250; -195.000; -194.000
223.288;   46.525;  423.000;  251.000
223.432;   15.025;  184.000;  230.000
223.576;   11.850;  152.000;  -21.000
223.721;   30.100;  364.000;  273.000
223.865;  -74.500; -472.000; -475.000
224.009;  227.325; 1673.000; 1631.000
224.153;  -85.650; -660.000; -671.000
224.298;  -67.875; -531.000; -489.000
224.442;  -22.225;  -74.000;  -33.000
224.586;  -10.900; -169.000; -106.000
224.730; -100.500; -858.000; -670.000
224.875;  -81.550; -739.000; -688.000
225.019;   -4.775;  102.000;  188.000
225.163;   43.975;  208.000;  341.000
225.307;   -2.425;   97.000;  -91.000
225.451;   31.975;  360.000;  481.000
225.595;   21.850;  264.000;  176.000
225.739;  -32.000; -170.000;  -94.000
225.884;   -3.000;   86.000;    5.000
226.028;  -92.100; -760.000; -626.000
226.172;  -38.000; -260.000; -273.000
226.316; -118.375; -941.000; -902.000
226.460;  -61.475; -645.000; -493.000
226.604;  -40.825; -406.000; -400.000
226.748; -106.975; -836.000; -733.000
226.892;  -31.000; -227.000; -181.000
227.036;  -56.450; -537.000; -447.000
227.180;  -56.050; -551.000; -375.000
227.324;  -71.925; -561.000; -580.000
227.468; -108.750; -819.000; -717.000
227.612;   -5.975;  242.000;  -28.000
227.756;  -92.325; -845.000; -698.000
227.900;   41.700;  342.000;  441.000
228.044;  -53.850; -509.000; -290.000
228.188;   51.900;  448.000;  568.000
228.332; -101.000; -546.000; -472.000
228.476;  -38.200; -223.000; -149.000
228.620;  -41.625; -210.000; -150.000
228.764;   49.900;  431.000;  349.000
228.908;  -20.600; -155.000;   30.000
229.052;  -61.900; -615.000; -528.000
229.195;  -21.075; -172.000;   13.000
229.339;  -26.175; -235.000; -305.000
229.483;  -32.050;    5.000; -162.000
229.627;  -22.250; -156.000;  139.000
229.771;  -48.550; -218.000; -294.000
229.915;    4.825;  230.000;   79.000
230.059;  -89.400; -648.000; -663.000
230.202;  -43.500; -370.000; -317.000
230.346;  -20.400; -107.000;  107.000
230.490;  -72.750; -489.000; -521.000
230.634; -102.175; -736.000; -553.000
230.777;   46.950;  478.000;  509.000
230.921;  -72.325; -450.000; -359.000
231.065;  -48.425; -246.000; -286.000
231.209;   23.000;  261.000;  265.000
231.352;    6.950;   54.000;   40.000
231.496;   15.325;  568.000;  188.000
231.640;  -97.725; -693.000; -621.000
231.783;   58.100;  546.000;  525.000
231.927;  -53.375; -294.000; -365.000
232.071; -104.725; -962.000; -736.000
232.214; -130.850; -980.000; -764.000
232.358;  -98.400; -683.000; -599.000
232.502;  -18.400;  -19.000;    7.000
232.645; -132.425;-1090.000; -927.000
232.789;  -28.000; -257.000; -218.000
232.933;  -45.200; -407.000; -224.000
233.076; -123.850;-1038.000; -897.000
233.220; -110.775; -752.000; -777.000
233.363;  -84.275; -669.000; -477.000
233.507;   38.050;  371.000;  129.000
233.650; -109.775; -764.000; -834.000
233.794;   36.750;  438.000;  461.000
233.938;  -63.175; -530.000; -362.000
234.081;  -18.150;  -93.000;   31.000
234.225;  -84.875; -631.000; -539.000
234.368; -107.525; -773.000; -723.000
234.512;  -48.550; -385.000; -299.000
234.655;  -85.425; -582.000; -555.000
234.798;  -66.850; -493.000; -466.000
234.942; -126.025; -884.000;-1002.000
235.085;  -79.175; -651.000; -443.000
235.229;  -74.525; -405.000; -410.000
235.372;  -52.925; -247.000; -191.000
235.516;  -64.950; -397.000; -321.000
235.659;   14.200;   92.000;  121.000
235.802;  -27.000;  -38.000;  -22.000
235.946;   12.675;  335.000;  215.000
236.089;   27.925;  126.000;  250.000
236.233;   46.450;  275.000;  298.000
236.376;  -54.450; -235.000; -378.000
236.519;  -47.200; -297.000; -319.000
236.663;  -26.175; -215.000; -117.000
236.806; -134.125;-1029.000; -999.000
236.949;   62.050;  543.000;  431.000
237.092;   38.000;  412.000;  391.000
237.236;  -82.600; -589.000; -502.000
237.379;   50.800;  352.000;  428.000
237.522; -113.725; -879.000; -768.000
237.666;  -26.925; -271.000;   18.000
237.809; -116.525; -851.000; -823.000
237.952;   21.000;  469.000;  271.000
238.095;  -62.450; -447.000; -442.000
238.238;   60.825;  688.000;  700.000
238.382;   -3.800;  166.000;  103.000
238.525;  -77.025; -598.000; -511.000
238.668; -134.500;-1060.000; -985.000
238.811;  -89.500; -638.000; -643.000
238.954;  -58.500; -483.000; -334.000
239.097;   67.800;  617.000;  664.000
239.241;    9.800;  394.000;  326.000
239.384;  -38.325; -254.000; -214.000
239.527;  -61.950; -424.000; -224.000
239.670; -152.700; -994.000;-1091.000
239.813; -114.650; -696.000; -658.000
239.956;   60.200;  579.000;  473.000
240.099; -107.325; -778.000; -725.000
240.242;   27.500;  428.000;  432.000
240.385;   25.550;  466.000;  450.000
240.528;  -73.225; -706.000; -473.000
240.671;   -4.900;  189.000;  134.000
240.814;  -54.050; -441.000; -158.000
240.957;  -97.550; -767.000; -578.000
241.100; -102.900; -779.000; -755.000
241.243; -139.600;-1234.000; -893.000
241.386;  -68.425; -508.000; -379.000
241.529;  -94.875; -735.000; -547.000
241.672;  -70.000; -566.000; -495.000
241.815; -100.750; -832.000; -808.000
241.958;  -40.825; -125.000; -182.000
242.101;  -74.300; -545.000; -390.000
242.244;  -38.225; -270.000; -325.000
242.387;  -56.675; -304.000; -246.000
242.530;   42.100;  470.000;  134.000
242.673;  -42.525; -381.000; -309.000
242.815; -120.625; -925.000; -899.000
242.958;  -83.350; -482.000; -381.000
243.101;   -4.925;  132.000;  187.000
243.244;  -89.900; -564.000; -521.000
243.387;  -52.275; -313.000; -316.000
243.530;  -93.075; -657.000; -674.000
243.672;   -9.075;   43.000;  -92.000
243.815;  -52.325; -355.000; -283.000
243.958;  -12.725;   98.000;  -26.000
244.101;    3.750;   59.000;  -16.000
244.243;  -21.275;  -47.000;  101.000
244.386; -104.275; -761.000; -630.000
244.529;  -41.350; -132.000; -139.000
244.672; -145.700;-1154.000; -951.000
244.814;  -98.175; -621.000; -794.000
244.957;  -59.000; -380.000; -304.000
245.100;  -81.375; -489.000; -489.000
245.242;  -55.425; -387.000; -374.000
245.385;  -26.950;  -59.000;  -39.000
245.528; -114.275; -871.000; -705.000
245.670;   70.175;  612.000;  634.000
245.813;  -89.275; -599.000; -547.000
245.956;  -46.825; -324.000; -275.000
246.098;  -76.825; -508.000; -650.000
246.241;   -4.375;  194.000;   48.000
246.383;  -35.150; -119.000;  -73.000
246.526;  -74.800; -454.000; -525.000
246.669; -110.175; -889.000; -780.000
246.811;    2.400;  172.000;   -1.000
246.954;  -62.925; -512.000; -426.000
247.096;  -28.375;  -84.000;   -6.000
247.239;  -76.200; -482.000; -445.000
247.381;  -91.225; -647.000; -488.000
247.524;   82.775;  645.000;  679.000
247.666;  -23.975;   58.000;   11.000
247.809; -120.450; -887.000; -691.000
247.951;  -20.525;  -75.000;  138.000
248.094;   14.075;  432.000;  308.000
248.236; -155.900;-1262.000;-1238.000
248.378;  -38.625; -356.000;  -81.000
248.521;  -54.925; -334.000; -337.000
248.663;  -46.975; -236.000; -267.000
248.806;  -40.125; -300.000; -266.000
248.948; -116.900; -886.000; -763.000
249.090;  -74.875; -428.000; -398.000
249.233;  -72.225; -344.000; -381.000
249.375;  -72.775; -474.000; -451.000
249.518;  -30.950;  -83.000; -133.000
249.660;  -13.100; -103.000;    3.000
249.802; -162.225;-1303.000;-1189.000
249.945; -100.275; -612.000; -540.000
250.087; -104.150; -834.000; -768.000
250.229;  -71.575; -362.000; -480.000
250.371;  -74.375; -494.000; -439.000
250.514;  -63.575; -310.000; -244.000
250.656;  -33.625;   69.000;  102.000
250.798; -116.450; -849.000; -800.000
250.940;  -69.800; -322.000; -322.000
251.083;  -59.975; -335.000; -111.000
251.225;   36.825;  338.000;  310.000
251.367;  -62.025; -274.000; -373.000
251.509;  -35.125; -265.000; -210.000
251.651; -103.075; -731.000; -671.000
251.794;   23.550;  538.000;  632.000
251.936; -124.425; -821.000; -747.000
252.078;  -90.750; -540.000; -461.000
252.220;  -78.825; -645.000; -477.000
252.362;   19.775;  344.000;  462.000
252.504;  -99.900; -677.000; -584.000
252.646; -131.050; -875.000; -722.000
252.788;  -25.450;   14.000; -128.000
252.931;  -52.625; -257.000; -253.000
253.073;  -64.900; -376.000; -317.000
253.215;  -16.225;  141.000;  122.000
253.357;  -30.775;   82.000; -153.000
253.499;  -53.175; -374.000; -234.000
253.641;  -93.200; -749.000; -594.000
253.783; -100.375; -609.000; -527.000
253.925;  -96.500; -586.000; -591.000
254.067; -107.650; -744.000; -667.000
254.209;  -49.625; -391.000; -259.000
254.351; -133.850; -865.000; -883.000
254.493;  -84.350; -441.000; -417.000
254.635; -125.525; -936.000; -818.000
254.777; -111.275; -752.000; -687.000
254.918;  -67.550; -512.000; -430.000
255.060;  -80.675; -551.000; -395.000
255.202;  -65.000; -473.000; -261.000
255.344;  -82.700; -658.000; -455.000
255.486;  -67.075; -471.000; -406.000
255.628; -118.325; -780.000; -781.000
255.770;  -86.450; -676.000; -536.000
255.912;  -67.500; -559.000; -468.000
256.053;  -85.950; -730.000; -508.000
256.195;  118.275; 1008.000;  903.000
256.337;  -97.500; -861.000; -595.000
256.479;   47.025;  532.000;  416.000
256.621;  -52.800; -394.000; -212.000
256.762; -101.300; -789.000; -742.000
256.904;   41.125;  485.000;  487.000
257.046;  -51.450; -381.000; -271.000
257.188;  -43.275; -351.000; -264.000
257.329;  -84.675; -525.000; -464.000
257.471; -115.325; -939.000; -807.000
257.613;  -87.875; -584.000; -498.000
257.755; -143.025;-1073.000; -982.000
257.896;    7.800;  286.000;  392.000
258.038;  -73.375; -403.000; -352.000
258.180;  -54.075; -354.000; -279.000
258.321;  -95.550; -581.000; -457.000
258.463;  -35.225;  -71.000;  133.000
258.605;  -93.925; -562.000; -570.000
258.746; -112.550; -886.000; -772.000
258.888; -141.775;-1026.000;-1020.000
259.029;   -0.650;  121.000;   -8.000
259.171;  -87.000; -614.000; -550.000
259.313;  -20.250;  -49.000;  -47.000
259.454;  -80.775; -536.000; -414.000
259.596;  -66.850; -483.000; -390.000
259.737;  -87.350; -590.000; -474.000
259.879;   20.425;  217.000;  311.000
260.020;   68.875;  901.000;  636.000
260.162;  -42.775; -146.000; -253.000
260.303; -106.900; -768.000; -687.000
260.445;  -95.275; -609.000; -613.000
260.586;   12.750;  392.000;  157.000
260.728;  -53.375; -360.000; -248.000
260.869;  -77.325; -350.000; -343.000
261.011;   59.650;  706.000;  537.000
261.152;  -76.175; -479.000; -319.000
261.293;  -88.525; -576.000; -595.000
261.435;  -40.325; -219.000; -184.000
261.576;  -56.175; -455.000; -325.000
261.718;   30.175;  420.000;  470.000
261.859; -137.075; -940.000; -949.000
262.000; -139.525; -951.000;-1016.000
262.142;  -40.100;  -52.000;  -60.000
262.283; -108.775; -808.000; -691.000
262.424;  -96.500; -666.000; -625.000
262.566; -147.200;-1161.000; -983.000
262.707; -130.125; -840.000; -830.000
262.848; -117.975; -769.000; -726.000
262.990;  -59.925; -362.000; -345.000
263.131;   73.950;  650.000;  681.000
263.272;  -17.650;  -61.000;  -41.000
263.413;  -85.900; -589.000; -561.000
263.555;  -80.725; -669.000; -143.000
263.696;  -71.100; -550.000; -641.000
263.837;  -73.450; -449.000; -551.000
263.978;  -17.475;   -5.000;  -77.000
264.119;  -69.875; -283.000; -264.000
264.261; -114.175; -847.000; -630.000
264.402;   -9.525;   33.000;   40.000
264.543;  -83.900; -509.000; -524.000
264.684;  -13.775;   61.000;  -50.000
264.825;  -89.575; -816.000; -538.000
264.966;  -29.775;  -84.000;  -67.000
265.107; -111.625; -646.000; -670.000
265.248; -124.150; -825.000; -812.000
265.390;  -27.725;  152.000;   -9.000
265.531;  -30.350; -238.000; -107.000
265.672;  -95.125; -557.000; -630.000
265.813;   27.025;  563.000;  439.000
265.954; -142.900; -959.000; -940.000
266.095;  -45.000; -372.000; -322.000
266.236; -114.250; -686.000; -548.000
266.377;  -56.500; -243.000; -297.000
266.518;  -73.050; -619.000; -547.000
266.659;    3.350;  170.000;  268.000
266.800;    3.975;   83.000;   85.000
266.941;  -98.325; -487.000; -478.000
267.082;    7.075;  354.000;   99.000
267.223;  -63.000; -344.000; -273.000
267.364; -126.500; -892.000; -686.000
267.504;  -26.375;    3.000;  135.000
267.645;  -13.550;  160.000;   67.000
267.786;  -45.975; -147.000;  -86.000
267.927;  -76.125; -473.000; -379.000
268.068;  -42.000; -186.000;  -61.000
268.209;  -54.275; -175.000; -413.000
268.350;  -57.850; -388.000; -532.000
268.490;  -87.725; -648.000; -521.000
268.631;    1.350;  127.000;  225.000
268.772; -116.050; -874.000; -647.000
268.913;  -64.175; -328.000; -476.000
269.054;  -41.075; -117.000;   12.000
269.194;  -64.100; -418.000; -402.000
269.335; -143.750;-1137.000;-1074.000
269.476;  -38.575;   33.000;  -35.000
269.617;  -50.725; -347.000; -392.000
269.757;  -99.975; -713.000; -646.000
269.898;  -93.100; -856.000; -613.000
270.039;  -77.300; -415.000; -405.000
270.180; -140.400; -952.000; -816.000
270.320;  -42.450; -190.000; -250.000
270.461;  -55.900; -277.000; -249.000
270.602;  -41.225; -186.000; -156.000
270.742; -121.725; -868.000; -943.000
270.883;  -82.150; -442.000; -390.000
271.023;  -68.775; -358.000; -357.000
271.164;  -71.475; -607.000; -528.000
271.305; -106.525; -666.000; -654.000
271.445;  -93.150; -722.000; -683.000
271.586;  -68.200; -462.000; -283.000
271.726;  -52.450; -397.000; -322.000
271.867;  -93.075; -594.000; -534.000
272.008;  -53.625; -473.000; -285.000
272.148;   17.550;  462.000;  468.000
272.289;  -37.325; -113.000; -181.000
272.429;  -14.500;   19.000;  185.000
272.570; -117.925; -633.000; -737.000
272.710; -105.800; -825.000; -775.000
272.851;  -46.750;  113.000; -130.000
272.991; -163.100;-1173.000;-1077.000
273.131;  -83.050; -419.000; -459.000
273.272; -108.000; -683.000; -723.000
273.412;  -39.075; -143.000;  -31.000
273.553;  -70.825; -488.000; -507.000
273.693;   75.500;  913.000;  858.000
273.834; -143.050; -894.000; -692.000
273.974;  -96.525; -664.000; -615.000
274.114;  -98.525; -772.000; -560.000
274.255;   33.025;  414.000;  373.000
274.395;  -51.100; -180.000; -125.000
274.535;    4.150;  199.000;  350.000
274.676;    0.300;  225.000;   94.000
274.816;  -38.050;  110.000;   34.000
274.956;  -83.050; -624.000; -690.000
275.097; -140.750;-1014.000; -922.000
275.237; -124.025; -913.000; -803.000
275.377; -105.775; -778.000; -689.000
275.517; -147.300; -878.000; -937.000
275.658; -100.550; -590.000; -555.000
275.798;  -89.600; -606.000; -413.000
275.938;  -18.325;  215.000;  323.000
276.078;  -90.900; -626.000; -395.000
276.218;  -11.525;   99.000;  104.000
276.359; -141.475;-1026.000;-1024.000
276.499;  -87.700; -605.000; -446.000
276.639;  -34.350; -305.000; -151.000
276.779;  -72.275; -475.000; -357.000
276.919; -105.850; -783.000; -624.000
277.059;  -41.975; -261.000; -212.000
277.199;  -56.200; -357.000; -259.000
277.340;   12.650;  287.000;  175.000
277.480; -115.850; -840.000; -693.000
277.620;    3.600;  192.000;   16.000
277.760; -184.550;-1533.000;-1294.000
277.900;  -18.575;  113.000;   33.000
278.040;  -13.375;  137.000;  159.000
278.180;    8.875;  270.000;  170.000
278.320;  -20.800;   21.000;   56.000
278.460;  -77.300; -443.000; -469.000
278.600; -105.825; -708.000; -598.000
278.740;   24.650;  448.000;  224.000
278.880; -130.250; -768.000; -791.000
279.020;  -59.350; -194.000; -144.000
279.160;  -96.125; -672.000; -595.000
279.300; -137.100; -926.000; -873.000
279.440; -112.225; -709.000; -622.000
279.579; -143.225;-1014.000; -929.000
279.719;  -75.900; -410.000; -394.000
279.859;   -0.725;   -4.000;   41.000
279.999;  -44.675; -208.000;  101.000
280.139;  -75.450; -435.000; -387.000
280.279; -115.450; -708.000; -745.000
280.419;  -48.125; -229.000; -147.000
280.559;  -48.650; -259.000; -180.000
280.698; -111.675; -790.000; -639.000
280.838; -126.775; -778.000; -800.000
280.978; -111.750; -846.000; -790.000
281.118; -120.300; -811.000; -704.000
281.257;  -23.400;   24.000;    6.000
281.397; -163.250;-1094.000; -960.000
281.537; -118.750; -599.000; -712.000
281.677;  -47.875; -150.000; -101.000
281.816; -119.575; -700.000; -630.000
281.956;  -42.175; -193.000; -257.000
282.096;  -78.950; -539.000; -396.000
282.235; -110.050; -672.000; -638.000
282.375;  -46.475; -243.000;  -98.000
282.515; -113.700; -715.000; -707.000
282.654;  -24.875;   29.000;  106.000
282.794;    4.525;  388.000;  244.000
282.934;  -75.525; -530.000; -491.000
283.073; -137.775;-1030.000; -857.000
283.213;  -72.325; -460.000; -467.000
283.353;  -66.900; -408.000; -349.000
283.492;  -54.325; -264.000; -296.000
283.632;  -72.675; -254.000; -168.000
283.771; -114.350; -859.000; -730.000
283.911;  -61.675; -369.000; -260.000
284.050; -127.575; -794.000; -748.000
284.190; -164.350;-1229.000;-1096.000
284.329; -146.700;-1055.000; -964.000
284.469; -100.775; -516.000; -591.000
284.608;  -78.775; -559.000; -598.000
284.748;  -87.550; -614.000; -570.000
284.887;  -16.700;  -87.000;  -20.000
285.027; -129.600; -844.000; -892.000
285.166;  -50.900; -192.000; -249.000
285.306;  -47.250; -116.000;  -33.000
285.445;  -59.275; -229.000; -343.000
285.584; -106.675; -630.000; -494.000
285.724;  -61.150; -282.000; -322.000
285.863; -113.625; -857.000; -507.000
286.002;  -69.050; -366.000; -276.000
286.142; -115.675; -715.000; -622.000
286.281;  -87.425; -525.000; -493.000
286.420;  -93.100; -554.000; -417.000
286.560;   70.825;  653.000;  623.000
286.699; -138.375; -958.000; -912.000
286.838;  -90.325; -590.000; -591.000
286.978;  -93.625; -533.000; -537.000
287.117; -146.675;-1085.000; -950.000
287.256;  -41.825; -228.000; -211.000
287.395;  -66.550; -197.000; -378.000
287.535;  -71.875; -370.000; -298.000
287.674;  -93.550; -509.000; -484.000
287.813;   28.725;  661.000;  533.000
287.952; -145.300;-1010.000; -871.000
288.091; -152.300;-1049.000; -915.000
288.231;  -24.725;   13.000;   15.000
288.370; -168.325;-1217.000;-1200.000
288.509;  -97.650; -728.000; -645.000
288.648;  -95.650; -770.000; -548.000
288.787;  -38.925; -243.000;  -87.000
288.926;  -83.325; -454.000; -475.000
289.065;  100.850;  859.000;  672.000
289.204;  -67.950; -377.000; -217.000
289.344; -113.025; -791.000; -690.000
289.483;   -3.625;  416.000;  304.000
289.622;  -45.175; -291.000; -149.000
289.761;  -34.625; -309.000; -166.000
289.900; -115.850; -785.000; -626.000
290.039;  -31.625;  -12.000;  -95.000
290.178;  -69.275; -274.000; -180.000
290.317; -111.125; -618.000; -479.000
290.456;  -93.300; -463.000; -451.000
290.595; -126.825; -961.000; -833.000
290.734; -145.800; -904.000; -891.000
290.873;  -78.750; -456.000; -420.000
291.011; -124.850; -833.000; -843.000
291.150; -110.225; -770.000; -682.000
291.289;  -48.625; -343.000; -110.000
291.428;  -95.250; -599.000; -480.000
291.567;  -75.575; -370.000; -442.000
291.706;  -27.250;  109.000;  154.000
291.845; -110.975; -597.000; -505.000
291.984; -167.450;-1234.000;-1061.000
292.122;   51.075;  602.000;  582.000
292.261;   11.300;  620.000;  463.000
292.400;  -21.475; -144.000;  211.000
292.539; -130.350; -959.000; -813.000
292.678;  -58.950; -325.000; -300.000
292.816; -159.475;-1136.000; -965.000
292.955; -119.400; -844.000; -684.000
293.094;  -60.325; -173.000; -337.000
293.233;  -61.175; -556.000; -400.000
293.371;  -48.450; -225.000;  -84.000
293.510; -119.450; -866.000; -780.000
293.649; -145.325; -959.000; -924.000
293.787; -155.950;-1083.000;-1012.000
293.926;  -43.375; -113.000;  -32.000
294.065;  -67.350; -379.000; -290.000
294.203;   24.900;  298.000;  406.000
294.342;  -11.050;   74.000;  156.000
294.481; 5089.275;51180.000; -836.000
294.619;  -52.975; -425.000; -582.000
294.758; -157.100;-1230.000;-1137.000
294.896;  -30.600; -125.000;    5.000
295.035; -155.450;-1040.000;-1006.000
295.174; -150.200;-1082.000; -954.000
295.312;  -63.300; -323.000; -203.000
295.451;  -74.650; -307.000; -428.000
295.589;  -95.800; -389.000; -518.000
295.728;  -24.875; -292.000; -165.000
295.866;  -36.125;  -36.000;  -51.000
296.005;  -93.725; -584.000; -341.000
296.143;  -96.250; -558.000; -596.000
296.282; -127.975; -957.000; -881.000
296.420;  -94.425; -657.000; -557.000
296.559; -119.950; -892.000; -633.000
296.697; -116.675; -847.000; -665.000
296.835; -157.975;-1141.000;-1002.000
296.974;  -11.500;  -23.000;   39.000
297.112;  -76.050; -443.000; -504.000
297.251; -109.725; -815.000; -755.000
297.389;  -99.700; -576.000; -438.000
297.527;  -25.200; -145.000;  -83.000
297.666;  -86.100; -486.000; -438.000
297.804;  -85.875; -404.000; -264.000
297.942;  -38.250; -136.000; -161.000
298.081;  -35.050; -183.000;   63.000
298.219;  -36.575;  -17.000;  -19.000
298.357;  -49.025; -144.000;  -71.000
298.495; -135.375; -810.000; -812.000
298.634;  -10.925;  245.000;  219.000
298.772;  -59.700; -220.000; -338.000
298.910;  -78.850; -309.000; -182.000
299.048;  -56.450; -130.000; -153.000
299.187;  -54.300; -350.000; -250.000
299.325;  -38.675;   52.000;  122.000
299.463;  -73.675; -389.000; -299.000
299.601;  -61.775; -327.000; -271.000
299.739; -161.725; -908.000; -883.000
299.877; -106.225; -791.000; -703.000
300.016; -149.775;-1095.000; -935.000
300.154;  -41.600;  -19.000; -161.000
300.292;  -81.975; -428.000; -348.000
300.430;  -68.775; -408.000; -291.000
300.568; -140.625; -940.000; -874.000
300.706;  -82.550; -366.000; -469.000
300.844; -157.900;-1108.000; -979.000
300.982;   10.025;  246.000;  282.000
301.120; -138.625; -965.000; -866.000
301.258; -114.525; -812.000; -705.000
301.396;  -22.100;  104.000;  -41.000
301.534;  -63.200; -218.000; -293.000
301.672; -106.225; -664.000; -521.000
301.810;  -99.600; -613.000; -545.000
301.948;   -5.850;   53.000;  149.000
302.086;  -50.200; -250.000;  -32.000
302.224;  -94.925; -610.000; -585.000
302.362; -115.050; -558.000; -622.000
302.500; -144.650; -923.000; -893.000
302.638;  -17.100;  128.000;  245.000
302.776;  -54.425; -352.000; -408.000
302.913;    8.125;  447.000;  236.000
303.051;  -54.575;  -86.000;  -23.000
303.189;  -12.200;   90.000;  118.000
303.327;  -58.325; -341.000; -256.000
303.465; -106.975; -832.000; -588.000
303.603; -116.150; -805.000; -604.000
303.740;    1.200;  417.000;  241.000
303.878; -123.600; -800.000; -759.000
304.016; -132.925; -915.000; -790.000
304.154; -168.900;-1123.000;-1152.000
304.291;  -98.600; -505.000; -554.000
304.429;  -22.000;  102.000;   74.000
304.567; -169.850; -908.000; -893.000
304.705;  -88.975; -408.000; -515.000
304.842; -107.375; -616.000; -540.000
304.980;   -7.775;  215.000;   35.000
305.118;  -62.950; -367.000; -365.000
305.255; -145.450; -945.000; -927.000
305.393;   20.925;  178.000;  239.000
305.531; -152.025;-1173.000; -956.000
305.668; -102.300; -663.000; -582.000
305.806;  -75.050; -358.000; -439.000
305.943; -105.600; -629.000; -637.000
306.081;  -63.250; -378.000; -267.000
306.219; -122.150; -863.000; -748.000
306.356;  -30.325;  158.000;   27.000
306.494;   59.475;  981.000;  761.000
306.631;  -33.025;  -11.000;  -55.000
306.769;  -52.850; -613.000; -485.000
306.906;  -81.900; -284.000; -258.000
307.044;  -87.350; -473.000; -488.000
307.181;  -91.525; -410.000; -332.000
307.319;  -17.125;  112.000;   87.000
307.456; -189.800;-1191.000;-1153.000
307.594; -138.375; -980.000; -727.000
307.731;  -68.350; -371.000; -164.000
307.868;  -37.350;  -15.000;   20.000
308.006; -159.600; -961.000; -847.000
308.143;  -95.050; -618.000; -330.000
308.281;  -49.800;  -37.000; -254.000
308.418; -104.375; -748.000; -640.000
308.555;  -99.650; -400.000; -250.000
308.693; -104.175; -577.000; -573.000
308.830; -130.700; -712.000; -657.000
308.967;  -30.350; -215.000;  -95.000
309.105;  -83.725; -507.000; -396.000
309.242;  -92.325; -468.000; -367.000
309.379; -122.900; -577.000; -655.000
309.517; -150.350; -936.000; -948.000
309.654; -134.950; -910.000; -734.000
309.791; -105.900; -662.000; -580.000
309.928; -150.950; -977.000; -914.000
310.065;   61.150;  819.000;  697.000
310.203; -136.000; -825.000; -850.000
310.340;  -88.650; -465.000; -321.000
310.477;  -92.475; -412.000; -516.000
310.614;  -95.125; -383.000; -473.000
310.751; -101.150; -427.000; -518.000
310.889;  -49.425;    1.000;   11.000
311.026; -170.900;-1161.000; -939.000
311.163;  -81.075; -386.000; -380.000
311.300; -105.575; -512.000; -479.000
311.437;  -98.850; -658.000; -619.000
311.574; -181.125;-1226.000; -985.000
311.711;  -93.700; -595.000; -433.000
311.848;  -63.950; -380.000; -388.000
311.985;   -0.975;  270.000;   93.000
312.122; -136.325; -932.000; -762.000
312.259; -148.350; -941.000; -994.000
312.396;  -96.825; -508.000; -551.000
312.533; -115.450; -812.000; -790.000
312.670; -157.650;-1070.000; -898.000
312.807;  -64.375; -352.000; -367.000
312.944; -110.675; -513.000; -611.000
313.081;  -91.625; -150.000; -415.000
313.218; -146.175;-1111.000; -867.000
313.355;  -87.675; -531.000; -449.000
313.492;  -58.150; -455.000; -292.000
313.629;   59.600;  815.000;  735.000
313.766; -179.475;-1176.000;-1008.000
313.902;  -43.425; -186.000;   21.000
314.039;  -76.850; -372.000; -289.000
314.176;  -18.150;  286.000;  192.000
314.313; -102.625; -569.000; -473.000
314.450; -127.825; -788.000; -684.000
314.587;  -95.425; -468.000; -480.000
314.723;  -39.700;  -78.000;  130.000
314.860;  -15.625;  318.000;  332.000
314.997;  -12.225;  223.000;  142.000
315.134;  -90.300; -385.000; -368.000
315.270;  -85.875; -480.000; -496.000
315.407; -168.175;-1094.000; -967.000
315.544; -107.500; -657.000; -538.000
315.681; -115.725; -681.000; -565.000
315.817;  -44.825; -133.000; -176.000
315.954;  -95.750; -613.000; -392.000
316.091; -166.300;-1045.000;-1023.000
316.227;  -63.575;  -71.000; -179.000
316.364;  -40.775;   23.000;    6.000
316.500;  -61.500; -113.000; -300.000
316.637;  -66.250; -181.000; -302.000
316.774;  -89.275; -625.000; -358.000
316.910; -120.500; -598.000; -629.000
317.047; -103.125; -487.000; -351.000
317.183;  -90.100; -435.000; -566.000
317.320;  -85.675; -367.000; -321.000
317.456; -143.000; -733.000; -805.000
317.593; -118.550; -598.000; -641.000
317.729;  -30.650;  168.000;  -67.000
317.866; -201.775;-1434.000;-1285.000
318.002; -114.725; -708.000; -948.000
318.139; -131.575; -883.000; -867.000
318.275; -138.425;-1003.000; -738.000
318.412;  -88.325; -517.000; -336.000
318.548; -109.475; -751.000; -720.000
318.685; -151.675; -985.000; -888.000
318.821; -137.575; -762.000; -735.000
318.957;  -42.775;   34.000;  -23.000
319.094;   -6.300;  297.000;  154.000
319.230; -136.225; -756.000; -742.000
319.367;  -92.000; -471.000; -520.000
319.503;  -87.475; -538.000; -436.000
319.639; -133.000; -877.000; -793.000
319.775; -120.025; -750.000; -685.000
319.912;  -92.475; -424.000; -519.000
320.048; -177.650;-1184.000;-1184.000
320.184;  -20.250;   59.000;   70.000
320.321;  -85.650; -497.000; -467.000
320.457;   25.700;  475.000;  662.000
320.593;  -91.875; -375.000; -382.000
320.729; -130.700; -732.000; -734.000
320.866;  -91.550; -577.000; -635.000
321.002; -120.050; -759.000; -809.000
321.138;  -75.850; -135.000; -211.000
321.274;  -41.175; -148.000; -115.000
321.410;  -94.975; -585.000; -353.000
321.546; -153.775;-1011.000; -911.000
321.683;   19.625;  400.000;  185.000
321.819;  -51.725;  -48.000; -117.000
321.955; -131.025; -743.000; -722.000
322.091; -101.150; -585.000; -540.000
322.227;  -56.525; -382.000; -202.000
322.363;  -68.200; -320.000; -215.000
322.499;  -71.800; -343.000; -331.000
322.635;   25.800;  636.000;  443.000
322.771;  -50.950; -139.000;   12.000
322.907;    3.475;  129.000;  327.000
323.043;  -62.725; -115.000; -206.000
323.179;  -95.400; -394.000; -363.000
323.315;  -84.300; -401.000; -371.000
323.451;  -74.575; -328.000; -236.000
323.587;  -45.150;  -60.000;  -77.000
323.723; -116.725; -682.000; -601.000
323.859;  -43.525; -258.000;  -76.000
323.995;  -69.550; -467.000; -409.000
324.131; -145.425; -967.000; -892.000
324.267;  -58.850; -254.000; -276.000
324.402; -158.650; -960.000; -983.000
324.538;  -59.100; -279.000; -104.000
324.674;  -26.375;  164.000;   77.000
324.810;  -25.725;  226.000;  308.000
324.946;  -84.625; -810.000; -658.000
325.082; -101.700; -568.000; -475.000
325.217;  -50.625;  -62.000;   16.000
325.353; -125.250; -764.000; -659.000
325.489; -103.125; -540.000; -506.000
325.625; -104.250; -579.000; -525.000
325.760;   -1.425;  517.000;  376.000
325.896; -104.250; -515.000; -702.000
326.032;  -68.350; -403.000; -352.000
326.168;  -96.225; -462.000; -369.000
326.303;  -70.500; -352.000; -461.000
326.439;  -65.725; -336.000; -276.000
326.575;  -43.125; -190.000;  -29.000
326.710;  -46.950; -156.000;  -30.000
326.846;  -32.375;  146.000;  103.000
326.982; -121.025; -530.000; -548.000
327.117;  -93.325; -481.000; -442.000
327.253; -116.900; -745.000; -742.000
327.388; -200.525;-1137.000;-1153.000
327.524; -124.950; -811.000; -578.000
327.659;  -53.350;  -58.000;  -22.000
327.795;  -39.150;   69.000;   45.000
327.931; -114.650; -723.000; -499.000
328.066;  -65.100; -417.000; -276.000
328.202;  -37.975;   12.000; -129.000
328.337;   57.950;  957.000;  713.000
328.473;    0.000;  -12.000;  -74.000
328.608;  -67.550; -256.000; -267.000
328.743; -122.150; -799.000; -664.000
328.879;  -16.750;  214.000;  114.000
329.014;  -52.175; -102.000; -122.000
329.150; -116.975; -358.000; -483.000
329.285; -104.675; -465.000; -466.000
329.421;  -83.400; -548.000; -246.000
329.556;  -46.175;  -36.000;   85.000
329.691; -118.125; -633.000; -615.000
329.827;  -99.275; -626.000; -480.000
329.962;  -48.225;  131.000; -301.000
330.097; -115.600; -673.000; -585.000
330.233;  -77.300; -410.000; -223.000
330.368; -140.175; -839.000; -628.000
330.503;  -46.750;    3.000;   98.000
330.638;  -38.725;  -93.000; -125.000
330.774; -106.600; -609.000; -530.000
330.909;  -60.275; -434.000; -244.000
331.044; -123.225; -714.000; -708.000
331.179; -180.400;-1217.000;-1109.000
331.315;  -27.325;   77.000;   20.000
331.450;   -9.625;  157.000;  285.000
331.585; -130.700; -805.000; -706.000
331.720; -106.125; -510.000; -460.000
331.855;  -41.875;  -35.000; -102.000
331.990;  -43.450;   62.000;  138.000
332.126;  -43.900; -110.000;   71.000
332.261;  -77.800; -379.000; -265.000
332.396;  -57.150; -135.000; -242.000
332.531; -157.225;-1074.000;-1031.000
332.666;  -96.675; -519.000; -363.000
332.801; -131.550; -726.000; -807.000
332.936;  -56.425; -192.000; -122.000
333.071; -145.200; -870.000; -817.000
333.206;   -1.600;  307.000;  379.000
333.341;   -4.425;  344.000;  418.000
333.476; -114.975; -627.000; -623.000
333.611;  -51.400; -251.000; -173.000
333.746;  -64.700; -381.000; -464.000
333.881; -151.250; -973.000; -935.000
334.016; -150.875; -936.000; -917.000
334.151; -156.525; -746.000; -702.000
334.286;  -23.625;  152.000;  186.000
334.421;  -45.075; -125.000; -178.000
334.556; -102.675; -611.000; -567.000
334.690; -120.625; -631.000; -577.000
334.825;   11.075;  381.000;   83.000
334.960;  -83.725; -285.000; -413.000
335.095;  -38.200;  135.000;  -91.000
335.230; -136.350; -722.000; -738.000
335.365; -164.875;-1084.000; -990.000
335.499; -178.450;-1108.000;-1037.000
335.634;  -31.650;    9.000;  534.000
335.769; -143.575; -755.000; -720.000
335.904; -120.225; -603.000; -561.000
336.038; -124.450; -735.000; -657.000
336.173; -191.325;-1206.000;-1194.000
336.308;  -67.825; -116.000; -189.000
336.443;  -95.750; -544.000; -634.000
336.577; -142.375; -936.000; -787.000
336.712;  -32.300;   -4.000;  -12.000
336.847; -120.850; -724.000; -607.000
336.981;  -87.550; -272.000; -208.000
337.116;   29.700;  615.000;  501.000
337.250; -104.750; -434.000; -421.000
337.385;  -74.875; -297.000; -208.000
337.520; -128.425; -632.000; -603.000
337.654;  -92.025; -215.000; -126.000
337.789; -142.425; -989.000; -933.000
337.923;  -66.825; -104.000; -205.000
338.058; -136.750; -673.000; -738.000
338.192; -115.700; -611.000; -488.000
338.327;  -59.675;  -18.000; -155.000
338.461; -110.125; -299.000; -469.000
338.596; -119.725; -780.000; -638.000
338.730; -130.425; -767.000; -803.000
338.865;  -50.200;  -46.000; -140.000
338.999; -144.975; -846.000; -702.000
339.134; -119.725; -634.000; -536.000
339.268; -114.575; -741.000; -603.000
339.403; -128.625; -740.000; -775.000
339.537; -149.375; -894.000; -820.000
339.671; -161.450; -829.000; -813.000
339.806; -121.775; -556.000; -512.000
339.940;  -63.350; -261.000; -235.000
340.074; -114.875; -685.000; -510.000
340.209;  -66.775; -351.000; -230.000
340.343; -103.250; -517.000; -573.000
340.477;   94.900;  998.000; 1036.000
340.612; -147.950;-1033.000; -900.000
340.746;  -83.275; -199.000; -243.000
340.880; -135.725; -924.000; -785.000
341.014;  -47.450;  -45.000; -154.000
341.149; -127.400; -756.000; -718.000
341.283; -142.875; -839.000; -754.000
341.417; -162.550;-1124.000; -938.000
341.551; -128.100; -768.000; -708.000
341.685; -123.325; -633.000; -611.000
341.820; -115.450; -562.000; -493.000
341.954;  -91.375; -218.000; -349.000
342.088; -168.425;-1102.000;-1019.000
342.222;   25.550;  565.000;  618.000
342.356;  -99.025; -395.000; -335.000
342.490; -144.325; -880.000; -841.000
342.624;  -85.650; -339.000; -242.000
342.758;  -95.775; -364.000; -312.000
342.892; -136.050; -710.000; -585.000
343.026;  -57.850;  -58.000; -116.000
343.160;  -81.575; -426.000; -376.000
343.294; -100.625; -474.000; -337.000
343.428; -110.050; -488.000; -448.000
343.562;  -47.650; -172.000;  -23.000
343.696;  -67.800; -385.000; -314.000
343.830;  -80.250; -362.000; -356.000
343.964;  -61.425; -231.000; -168.000
344.098;  -35.750;  199.000;   70.000
344.232;  -67.375; -266.000; -127.000
344.366; -106.425; -567.000; -453.000
344.500; -129.975; -665.000; -744.000
344.634;  -69.775; -324.000; -164.000
344.768;  -99.875; -531.000; -341.000
344.902;  -22.600;  278.000;  256.000
345.035; -103.725; -556.000; -496.000
345.169; -146.775; -933.000; -656.000
345.303;  -87.775; -308.000; -482.000
345.437; -141.175; -826.000; -717.000
345.571; -124.475; -675.000; -594.000
345.704;  -86.075; -309.000; -532.000
345.838;  -75.050; -331.000; -284.000
345.972; -104.425; -543.000; -495.000
346.106;  -50.525; -179.000; -190.000
346.239;  -72.350; -312.000; -243.000
346.373;  -86.225; -343.000; -302.000
346.507; -158.200; -950.000; -962.000
346.640;  -58.100;  -30.000;   13.000
346.774; -121.025; -650.000; -797.000
346.908;  -70.650; -138.000;  -11.000
347.041; -120.475; -646.000; -593.000
347.175;  -28.150;  259.000;   27.000
347.309; -127.475; -698.000; -628.000
347.442; -146.750; -883.000; -732.000
347.576;   39.375;  670.000;  668.000
347.709;  -51.225; -123.000;  -52.000
347.843; -158.500; -933.000; -825.000
347.976;   -3.825;  235.000;  294.000
348.110; -196.425;-1268.000;-1186.000
348.243; -116.500; -679.000; -772.000
348.377;  -41.925;  -26.000;   60.000
348.510;    8.175;  403.000;  540.000
348.644;  -61.225;  -37.000; -159.000
348.777;  -32.850;  180.000;  191.000
348.911;  -79.825; -142.000; -112.000
349.044;    7.225;  471.000;  448.000
349.178; -162.075;-1069.000;-1006.000
349.311;  -25.225;  141.000;  255.000
349.444; -157.650; -927.000; -813.000
349.578;  -78.175; -347.000; -200.000
349.711; -143.775; -959.000; -862.000
349.845; -120.975; -661.000; -591.000
349.978; -189.450;-1224.000;-1137.000
350.111; -112.850; -546.000; -612.000
350.244; -120.300; -596.000; -700.000
350.378;  -85.800; -392.000; -393.000
350.511; -100.700; -393.000; -426.000
350.644; -147.225; -808.000; -806.000
350.778;  -45.175;  168.000;  104.000
350.911;  -28.725;  134.000;  140.000
351.044; -128.175; -685.000; -615.000
351.177;  -74.025; -321.000; -281.000
351.310;  -43.475;    3.000; -131.000
351.444; -136.875; -888.000; -788.000
351.577;  -18.100;  140.000;   90.000
351.710;   26.000;  593.000;  417.000
351.843;  -44.875; -165.000;  -77.000
351.976;  -41.725;  149.000;  -79.000
352.109; -121.600; -621.000; -612.000
352.242; -101.275; -464.000; -419.000
352.376; -125.600; -580.000; -636.000
352.509;  -94.375; -437.000; -356.000
352.642; -172.775; -654.000; -604.000
352.775;  -64.000; -141.000;  -98.000
352.908; -154.600; -933.000; -904.000
353.041; -139.950; -814.000; -824.000
353.174; -100.100; -551.000; -424.000
353.307; -148.025; -753.000; -764.000
353.440;   14.275;  541.000;  453.000
353.573; -165.000; -957.000;-1008.000
353.706; -122.700; -384.000; -558.000
353.839;  -72.700; -264.000; -220.000
353.971; -116.975; -657.000; -512.000
354.104; -142.025; -896.000; -835.000
354.237; -129.625; -627.000; -662.000
354.370; -148.025; -846.000; -879.000
354.503; -199.450;-1231.000;-1308.000
354.636;  -97.700; -529.000; -348.000
354.769; -168.575; -937.000; -860.000
354.902;  -77.250; -230.000; -139.000
355.034;  -56.075; -164.000; -220.000
355.167;  -78.725; -262.000; -162.000
355.300; -166.750;-1061.000; -880.000
355.433;  -41.900;  -71.000;  -14.000
355.565; -101.625; -402.000; -384.000
355.698;  -88.725; -356.000; -296.000
355.831; -149.600; -882.000; -801.000
355.964;  -78.100; -285.000; -170.000
356.096; -144.675; -856.000; -843.000
356.229; -122.000; -523.000; -530.000
356.362;  -75.350; -373.000; -266.000
356.494;  -78.625; -229.000; -162.000
356.627;  -13.700;  269.000;  377.000
356.760;  -22.000;  120.000;   53.000
356.892;  -82.750; -286.000; -601.000
357.025;   -8.600;  403.000;  389.000
357.157;  -67.900; -167.000; -179.000
357.290; -162.325; -856.000; -713.000
357.423; -124.700; -667.000; -556.000
357.555;  -59.000; -217.000; -228.000
357.688;  -96.425; -483.000; -364.000
357.820; -158.075; -870.000; -877.000
357.953; -118.600; -563.000; -589.000
358.085; -114.125; -632.000; -612.000
358.218; -185.125;-1131.000; -932.000
358.350;  -53.400;  -58.000;  312.000
358.483; -192.625;-1300.000;-1187.000
358.615; -184.700;-1182.000;-1078.000
358.747; -196.925;-1187.000;-1058.000
358.880; -149.400; -810.000; -744.000
359.012;  -84.775; -376.000; -202.000
359.145; -104.375; -480.000; -511.000
359.277; -161.325; -962.000; -913.000
359.409;   -2.775;  536.000;  231.000
359.542; -129.825; -738.000; -688.000
359.674;  -48.375;   46.000;   13.000
359.806; -109.950; -565.000; -438.000
359.939; -100.825; -617.000; -516.000
360.071; -125.025; -583.000; -579.000
360.203;  -95.250; -411.000; -364.000
360.335;  -34.225;  164.000;  -16.000
360.468;  -69.275; -249.000; -307.000
360.600; -110.175; -547.000; -454.000
360.732; -122.850; -546.000; -423.000
360.864; -183.625;-1216.000;-1044.000
360.996; -102.975; -516.000; -554.000
361.129; -111.775; -389.000; -598.000
361.261;  -66.575;  110.000; -113.000
361.393;  -78.025; -252.000; -214.000
361.525;  -28.950;   94.000;  244.000
361.657; -143.250; -821.000; -703.000
361.789;  -62.350; -139.000; -155.000
361.921; -117.300; -642.000; -593.000
362.053;   12.675;  524.000;  541.000
362.185;  -17.150;  288.000;   72.000
362.318; -137.425; -709.000; -705.000
362.450;  -20.225;  294.000;  444.000
362.582; -172.125; -913.000; -870.000
362.714;  -85.500; -353.000; -332.000
362.846; -111.175; -606.000; -490.000
362.978; -164.825; -941.000; -811.000
363.109;  -77.675; -161.000; -260.000
363.241; -131.825; -739.000; -749.000
363.373; -114.675; -649.000; -564.000
363.505;  -51.300; -186.000;  -91.000
363.637; -144.350; -787.000; -601.000
363.769; -185.375;-1067.000;-1080.000
363.901; -119.875; -596.000; -654.000
364.033; -178.900;-1103.000;-1062.000
364.165;  -77.275; -283.000; -283.000
364.296;  -92.075; -316.000; -177.000
364.428; -200.850;-1344.000;-1220.000
364.560; -133.050; -679.000; -661.000
364.692; -130.000; -738.000; -835.000
364.824; -125.275; -588.000; -456.000
364.955;  -92.200; -402.000; -564.000
365.087; -190.025;-1097.000; -852.000
365.219; -140.200; -686.000; -816.000
365.351; -115.825; -526.000; -572.000
365.482;  -27.150;  300.000;  240.000
365.614;  -89.500; -402.000; -314.000
365.746; -132.575; -729.000; -752.000
365.877; -122.875; -706.000; -672.000
366.009;  -67.950;  -35.000;  -62.000
366.141; -188.025;-1249.000;-1134.000
366.272; -141.925; -803.000; -719.000
366.404; -141.650;-1005.000; -874.000
366.535;  -53.700; -139.000;  -12.000
366.667; -141.625; -644.000; -649.000
366.799;   -9.150;  353.000;  203.000
366.930; -155.575; -862.000; -996.000
367.062; -123.325; -639.000; -613.000
367.193; -141.925; -872.000; -842.000
367.325; -120.875; -580.000; -684.000
367.456;  -84.600; -246.000;   31.000
367.588; -110.350; -371.000; -318.000
367.719;  -78.300;  -44.000;  -45.000
367.851;  -63.975; -222.000; -241.000
367.982; -150.700; -875.000; -732.000
368.113;  -88.500; -475.000; -358.000
368.245; -164.600; -960.000; -841.000
368.376;  -88.200; -254.000; -302.000
368.508;  -78.975; -188.000; -263.000
368.639; -190.625;-1166.000;-1034.000
368.770; -115.350; -670.000; -589.000
368.902; -158.825; -836.000; -926.000
369.033; -155.975; -906.000; -855.000
369.164; -107.175; -720.000; -653.000
369.296; -128.075; -452.000; -601.000
369.427;  -79.050; -209.000; -144.000
369.558; -101.325; -593.000; -377.000
369.689; -143.925; -721.000; -569.000
369.821; -164.250; -951.000; -845.000
369.952;  -41.975;   42.000; -108.000
370.083;  -73.550; -229.000; -108.000
370.214; -125.425; -735.000; -650.000
370.345;  -46.950;   65.000;   81.000
370.477; -137.250; -810.000; -790.000
370.608;  -79.300; -328.000; -264.000
370.739; -195.950;-1233.000;-1292.000
370.870; -165.425;-1102.000; -923.000
371.001; -111.175; -378.000; -467.000
371.132; -126.450; -754.000; -735.000
371.263;  -63.025;  -42.000; -148.000
371.394; -154.950; -841.000; -748.000
371.525;   -8.800;  345.000;  225.000
371.657; -146.425; -808.000; -670.000
371.788;  -30.225;  103.000;  199.000
371.919;  -85.525; -384.000; -304.000
372.050;  -50.650;  -91.000; -156.000
372.181;  -65.825; -188.000; -294.000
372.311;  -45.900;   42.000; -127.000
372.442; -116.025; -457.000; -451.000
372.573;  -86.775; -444.000; -340.000
372.704; -174.575;-1008.000; -980.000
372.835;  -82.875; -228.000; -289.000
372.966; -121.750; -646.000; -554.000
373.097; -142.250; -575.000; -711.000
373.228; -136.600; -717.000; -542.000
373.359; -135.525; -824.000; -536.000
373.490; -149.250; -881.000; -727.000
373.620; -164.475;-1001.000; -803.000
373.751;  -96.750; -332.000; -396.000
373.882; -127.900; -663.000; -733.000
374.013;  -84.275; -449.000; -262.000
374.143; -126.425; -581.000; -659.000
374.274; -165.050; -987.000; -908.000
374.405;  -89.975; -388.000; -276.000
374.536; -109.275; -526.000; -387.000
374.666; -134.900; -759.000; -807.000
374.797; -145.050; -817.000; -868.000
374.928; -128.400; -710.000; -560.000
375.058; -119.225; -535.000; -500.000
375.189;  -59.950;  -59.000;  -93.000
375.320; -159.000; -928.000;-1034.000
375.450; -121.125; -625.000; -616.000
375.581; -114.700; -526.000; -436.000
375.712;  -69.775; -574.000; -250.000
375.842; -106.250; -438.000; -415.000
375.973; -118.300; -554.000; -513.000
376.103; -137.750; -665.000; -648.000
376.234; -121.950; -531.000; -552.000
376.364; -168.125; -944.000; -867.000
376.495;   42.600;  925.000;  529.000
376.625; -122.550; -472.000; -485.000
376.756; -129.575; -709.000; -678.000
376.886; -178.775;-1178.000;-1026.000
377.017; -170.550;-1048.000;-1061.000
377.147; -156.275; -786.000; -782.000
377.278;  -24.775;  174.000;  228.000
377.408; -150.025; -801.000; -815.000
377.538; -133.575; -707.000; -693.000
377.669; -124.750; -537.000; -613.000
377.799; -144.000; -645.000; -635.000
377.929; -125.050; -610.000; -428.000
378.060; -159.875; -781.000; -847.000
378.190; -147.425; -726.000; -531.000
378.320;  -96.775; -401.000; -406.000
378.451;  -51.125; -131.000;  -22.000
378.581;  -44.000;  -67.000; -110.000
378.711;   38.950; 1035.000;  866.000
378.841; -124.425; -533.000; -675.000
378.972; -143.300; -871.000; -751.000
379.102; -132.325; -652.000; -579.000
379.232;  -80.150; -126.000;  -73.000
379.362; -179.775;-1001.000; -885.000
379.492; -107.825; -373.000; -424.000
379.623;  -36.525;    0.000;  111.000
379.753; -162.700;-1107.000; -974.000
379.883;  -37.575;   59.000;  156.000
380.013; -185.125;-1081.000;-1017.000
380.143; -197.325;-1097.000;-1056.000
380.273; -155.800; -985.000; -861.000
380.403;  -88.975; -344.000; -257.000
380.533; -142.800; -651.000; -664.000
380.663;  -25.950;  173.000;  128.000
380.793; -193.500;-1027.000;-1074.000
380.923;  -73.100; -103.000;  -34.000
381.053; -127.600; -613.000; -623.000
381.183;  -67.350; -106.000; -248.000
381.313; -134.675; -656.000; -470.000
381.443; -124.450; -692.000; -473.000
381.573;  -96.600; -402.000; -409.000
381.703; -192.025;-1249.000;-1095.000
381.833; -213.325;-1454.000;-1336.000
381.963;  -41.250; -134.000;  -87.000
382.093; -161.450; -925.000; -909.000
382.223; -125.100; -713.000; -602.000
382.353; -138.675; -801.000; -608.000
382.482; -181.200;-1091.000; -964.000
382.612; -145.100; -872.000; -644.000
382.742; -141.525; -695.000; -622.000
382.872; -111.975; -565.000; -551.000
383.002;  -45.150;  347.000; -132.000
383.131;  -87.100; -226.000; -160.000
383.261; -142.775; -706.000; -768.000
383.391; -115.700; -552.000; -377.000
383.521;  -17.075;  451.000;  263.000
383.650; -173.550; -947.000; -904.000
383.780; -131.575; -783.000; -656.000
383.910;   37.525;  880.000;  802.000
384.039; -156.975; -794.000; -656.000
384.169; -199.000;-1205.000;-1017.000
384.299; -132.025; -650.000; -662.000
384.428; -145.525; -764.000; -680.000
384.558;  -80.125; -308.000; -275.000
384.687; -108.350; -414.000; -334.000
384.817;  -61.725;   75.000;   -2.000
384.947;  -76.750; -234.000; -141.000
385.076;   74.000;  982.000;  912.000
385.206;   -4.400;  369.000;  480.000
385.335; -109.425; -549.000; -417.000
385.465; -139.375; -655.000; -663.000
385.594;  -53.575;  -53.000;  -44.000
385.724; -163.750; -868.000; -838.000
385.853;  -89.775; -296.000; -270.000
385.982; -147.250; -743.000; -787.000
386.112; -163.775;-1052.000; -871.000
386.241;  -96.775; -307.000; -312.000
386.371;  -68.100; -174.000;  -87.000
386.500; -157.250; -825.000; -789.000
386.629; -145.200; -874.000; -817.000
386.759;  -54.075;  -43.000;   68.000
386.888;  -83.850; -170.000; -250.000
387.017; -124.250; -648.000; -620.000
387.147; -145.275; -771.000; -798.000
387.276; -112.025; -410.000; -397.000
387.405; -110.300; -398.000; -342.000
387.535; -107.550; -452.000; -361.000
387.664; -125.175; -692.000; -620.000
387.793;  -73.500; -198.000; -113.000
387.922;  -31.625;  255.000;  200.000
388.052; -113.850; -576.000; -423.000
388.181; -113.350; -342.000; -472.000
388.310; -144.450; -889.000; -710.000
388.439; -143.300; -749.000; -742.000
388.568;  -31.650;  365.000;  244.000
388.697; -148.525; -756.000; -653.000
388.826; -133.700; -768.000; -666.000
388.956; -102.150; -285.000; -307.000
389.085; -100.325; -347.000; -287.000
389.214; -154.375; -842.000; -872.000
389.343; -121.350; -645.000; -413.000
389.472;  -32.450;  126.000;  149.000
389.601;  -54.600;   91.000;    0.000
389.730; -131.475; -568.000; -687.000
389.859;  -22.325;  226.000;   46.000
389.988;  -95.875; -423.000; -408.000
390.117;  -83.550; -168.000; -146.000
390.246;  -98.825; -331.000; -320.000
390.375; -135.050; -673.000; -626.000
390.504; -131.575; -703.000; -621.000
390.633; -153.775; -672.000; -726.000
390.761; -142.800; -732.000; -645.000
390.890;  -58.900;   -4.000; -130.000
391.019; -106.275; -421.000; -441.000
391.148; -155.200; -826.000; -855.000
391.277; -116.875; -576.000; -493.000
391.406; -160.825; -821.000; -805.000
391.534;  -33.750;  574.000; -301.000
391.663; -129.025; -583.000; -645.000
391.792; -146.925; -673.000; -701.000
391.921;  -57.275;   -3.000;   15.000
392.050;  -98.050; -287.000; -228.000
392.178; -185.475;-1206.000;-1061.000
392.307; -141.750; -758.000; -712.000
392.436; -128.350; -427.000; -641.000
392.564;  -43.850;  166.000;   -6.000
392.693; -153.100; -860.000; -682.000
392.822; -118.300; -529.000; -534.000
392.950; -133.050; -880.000; -714.000
393.079;  -98.025; -188.000; -328.000
393.208; -122.450; -488.000; -511.000
393.336;  -72.650; -170.000; -145.000
393.465;  -83.175; -317.000; -199.000
393.593;  -48.525;   62.000;   79.000
393.722; -178.250;-1121.000; -916.000
393.850;  -70.675; -188.000;  -61.000
393.979; -175.325; -926.000; -805.000
394.107; -134.450; -517.000; -537.000
394.236; -113.325; -570.000; -507.000
394.364;  -16.475;  383.000;  206.000
394.493; -164.075; -911.000; -767.000
394.621; -161.875; -955.000; -916.000
394.750; -152.500; -873.000; -923.000
394.878;  -83.700; -247.000; -149.000
395.007; -155.925; -721.000; -807.000
395.135; -137.000; -790.000; -721.000
395.263; -183.575;-1038.000;-1040.000
395.392;  -48.150;  -25.000; -107.000
395.520; -162.025; -818.000; -679.000
395.648; -153.825; -865.000; -915.000
395.777;  -97.375; -366.000; -405.000
395.905; -118.550; -449.000; -564.000
396.033;  -35.625;  217.000;  172.000
396.162; -106.925; -399.000; -453.000
396.290;  -88.925;  -17.000;   -2.000
396.418; -120.250; -555.000; -514.000
396.546; -127.675; -571.000; -466.000
396.674; -156.175; -850.000; -878.000
396.803;  -50.475;  -72.000;  -23.000
396.931;  -85.325; -179.000; -199.000
397.059; -175.975;-1026.000; -989.000
397.187; -164.425;-1026.000; -975.000
397.315; -149.100; -884.000; -649.000
397.443; -115.275; -592.000; -443.000
397.572; -133.000; -578.000; -424.000
397.700; -121.200; -607.000; -614.000
397.828;  -84.375;  120.000;  -90.000
397.956; -114.125; -508.000; -478.000
398.084; -129.300; -767.000; -626.000
398.212;  -39.300;  137.000;  124.000
398.340;  -61.650;  -56.000;  159.000
398.468; -102.825; -390.000; -169.000
398.596; -173.250; -993.000; -953.000
398.724; -158.550; -762.000; -767.000
398.852; -186.325;-1024.000; -976.000
398.980; -114.425; -560.000; -560.000
399.108; -150.350; -982.000; -735.000
399.236;  -63.000;   13.000;    8.000
399.363;  -37.975;  222.000;  196.000
399.491; -104.375; -404.000; -398.000
399.619; -153.750; -829.000; -800.000
399.747; -145.375; -859.000; -771.000
399.875;  -23.025;  220.000;  234.000
400.003;  -97.075; -359.000; -284.000
400.130; -105.800; -421.000; -341.000
400.258;  -60.725;  -83.000;   38.000
400.386; -101.050; -352.000; -168.000
400.514; -117.275; -526.000; -587.000
400.641; -168.425; -928.000; -802.000
400.769; -180.350; -979.000; -888.000
400.897; -152.275; -838.000; -793.000
401.025;  -64.600; -166.000; -152.000
401.152;  -37.950;  220.000;   38.000
401.280; -109.800; -430.000; -429.000
401.408; -153.775; -712.000; -576.000
401.535; -141.225; -735.000; -758.000
401.663; -200.625;-1134.000;-1054.000
401.790; -117.900; -514.000; -525.000
401.918;    5.575;  436.000;  405.000
402.046;  -59.150;  134.000;  122.000
402.173;  -68.025;  -18.000;    7.000
402.301; -114.650; -519.000; -397.000
402.428;   -0.025;  528.000;  383.000
402.556; -199.875;-1188.000; -913.000
402.683;  -77.075;  -20.000;   -1.000
402.811;  -58.650;  -37.000; -206.000
402.938;  -50.450;   20.000;   27.000
403.066; -131.175; -574.000; -558.000
403.193;  -52.200;  299.000;  239.000
403.321; -105.700; -396.000; -574.000
403.448;  -60.575;   83.000;   27.000
403.575;  -54.925;  -90.000;  -46.000
403.703; -144.775; -732.000; -557.000
403.830; -115.850; -531.000; -496.000
403.957; -178.825;-1117.000;-1023.000
404.085;  -74.900;  -61.000; -172.000
404.212;  -45.600;  -50.000;   63.000
404.339; -111.900; -566.000; -306.000
404.467; -119.900; -612.000; -524.000
404.594;  -93.600; -287.000; -227.000
404.721; -147.275; -869.000; -764.000
404.848;  -73.250; -113.000; -202.000
404.976; -168.900; -856.000; -783.000
405.103;  -64.900;  -14.000;  -82.000
405.230;  -55.750;  190.000;  226.000
405.357;  -52.775;  117.000;   44.000
405.484;  -71.550;  -49.000;    5.000
405.612; -117.400; -548.000; -563.000
405.739; -112.100; -488.000; -243.000
405.866;    6.825;  669.000;  385.000
405.993; -110.175; -398.000; -102.000
406.120; -150.325; -801.000; -887.000
406.247; -110.575; -323.000; -342.000
406.374;   20.850;  540.000;  629.000
406.501; -139.600; -632.000; -702.000
406.628; -118.750; -621.000; -589.000
406.755; -141.825; -803.000; -620.000
406.882;  -93.600; -228.000; -277.000
407.009; -144.575; -719.000; -628.000
407.136; -111.950; -480.000; -401.000
407.263; -176.575; -939.000; -829.000
407.390; -139.875; -692.000; -614.000
407.517; -199.150;-1139.000;-1187.000
407.644; -104.075; -332.000; -256.000
407.771; -181.225; -249.000; -287.000
407.898;  -47.700;  168.000;  328.000
408.025; -115.575; -421.000; -313.000
408.151;  -60.350;   82.000;  153.000
408.278;  -82.175; -267.000; -216.000
408.405; -163.925; -931.000; -899.000
408.532; -121.900; -549.000; -542.000
408.659; -144.450; -677.000; -648.000
408.785; -204.150;-1298.000;-1170.000
408.912;  -96.850; -412.000; -296.000
409.039; -122.225; -610.000; -686.000
409.166; -124.750; -591.000; -555.000
409.292; -123.950; -571.000; -534.000
409.419; -148.700; -665.000; -649.000
409.546; -109.950; -431.000; -192.000
409.672; -143.725; -713.000; -545.000
409.799;  -69.100;  -36.000;   34.000
409.926;  -80.400; -180.000; -179.000
410.052; -192.600;-1127.000;-1091.000
410.179; -102.625; -368.000; -392.000
410.305; -110.725; -375.000; -493.000
410.432;  -83.625; -220.000; -333.000
410.558; -118.175; -305.000; -380.000
410.685; -139.825; -688.000; -431.000
410.812; -123.975; -409.000; -588.000
410.938; -165.650; -964.000; -808.000
411.065; -134.150; -671.000; -645.000
411.191;  -92.075; -189.000; -174.000
411.317; -155.975; -823.000; -742.000
411.444;  -97.000; -317.000; -246.000
411.570;  -92.450; -339.000; -294.000
411.697; -143.375; -758.000; -752.000
411.823; -186.150; -989.000; -999.000
411.949;  -76.375;  -56.000;   17.000
412.076; -144.925; -539.000; -519.000
412.202; -148.750; -758.000; -757.000
412.329; -159.575; -798.000; -752.000
412.455; -140.550; -821.000; -657.000
412.581;  -52.025;  -15.000;  172.000
412.707; -123.225; -540.000; -457.000
412.834;  -39.250;  156.000;  219.000
412.960; -152.700; -785.000; -784.000
413.086; -149.800; -743.000; -701.000
413.212;    0.200;  604.000;  578.000
413.339; -149.175; -685.000; -701.000
413.465; -104.075; -364.000; -310.000
413.591; -149.425; -757.000; -474.000
413.717;  -99.850; -358.000; -366.000
413.843; -178.550; -839.000; -861.000
413.969;  -92.225;  -47.000; -292.000
414.096; -142.850; -679.000; -679.000
414.222;  -53.925;  -33.000;   85.000
414.348; -125.850; -652.000; -385.000
414.474;  -63.425;   38.000;  -52.000
414.600;  -80.175; -126.000; -144.000
414.726;  -72.600;  -96.000;  -55.000
414.852; -107.225; -365.000; -342.000
414.978;  -64.575;  104.000;  -18.000
415.104;  -69.225;   38.000;   80.000
415.230; -100.050; -329.000; -330.000
415.356; -131.300; -409.000; -514.000
415.482;  -76.325;   13.000;  -35.000
415.608;  -91.525; -247.000; -323.000
415.734;  -62.500;   67.000;   38.000
415.860; -159.400; -875.000; -767.000
415.986; -141.675; -685.000; -607.000
416.111; -148.600; -798.000; -652.000
416.237; -122.450; -424.000; -571.000
416.363; -154.750; -765.000; -733.000
416.489; -116.700; -324.000; -251.000
416.615; -150.600; -707.000; -742.000
416.741; -147.125; -677.000; -784.000
416.866; -153.775; -673.000; -736.000
416.992; -172.050; -801.000; -818.000
417.118;  -81.600;  -41.000;  -80.000
417.244; -142.650; -798.000; -531.000
417.369; -156.375; -801.000; -612.000
417.495; -102.875; -325.000; -254.000
417.621; -173.225;-1015.000; -803.000
417.746; -130.775; -579.000; -572.000
417.872;  -80.000; -254.000; -144.000
417.998; -120.100; -515.000; -530.000
418.123; -177.350;-1073.000; -845.000
418.249; -130.225; -512.000; -601.000
418.374; -168.450; -916.000; -824.000
418.500; -111.875; -383.000; -482.000
418.626;  -45.800;   70.000;  -59.000
418.751; -124.375; -549.000; -448.000
418.877; -148.025; -637.000; -643.000
419.002; -131.775; -688.000; -560.000
419.128; -171.200; -930.000; -721.000
419.253; -180.725; -967.000; -837.000
419.379; -129.125; -391.000; -338.000
419.504;  -17.950;  325.000;  415.000
419.629;  -91.550; -393.000; -212.000
419.755;  -96.575; -317.000; -254.000
419.880;  -95.450;  -98.000;   67.000
420.006; -111.050; -280.000; -221.000
420.131; -152.500; -662.000; -775.000
420.256; -107.250; -315.000; -316.000
420.382; -136.750; -665.000; -687.000
420.507; -154.675; -649.000; -778.000
420.632; -108.650; -337.000; -339.000
420.758;  -93.350; -251.000; -425.000
420.883; -150.400; -876.000; -672.000
421.008; -152.600; -775.000; -619.000
421.133; -126.725; -509.000; -467.000
421.259;  -89.900; -325.000; -259.000
421.384; -156.400; -834.000; -693.000
421.509; -176.700;-1052.000; -862.000
421.634; -179.925; -936.000; -820.000
421.759; -122.500; -359.000; -327.000
421.885; -151.500; -717.000; -656.000
422.010; -115.225; -673.000; -542.000
422.135; -170.325; -695.000; -727.000
422.260;  -21.375;  340.000;  280.000
422.385;  -71.400;   12.000;  -98.000
422.510;  -45.825;  151.000;  -26.000
422.635;  -57.725;  -87.000;  -43.000
422.760; -141.925; -766.000; -791.000
422.885;  -64.100;  -57.000;  -80.000
423.010;  -83.375; -112.000; -169.000
423.135; -135.525; -481.000; -561.000
423.260;  -81.300; -150.000; -245.000
423.385;  -43.925;  476.000;  222.000
423.510;  -41.825;   71.000;  -22.000
423.635;  -50.950;  133.000;   45.000
423.760;  -32.875;  383.000;  328.000
423.885;  -20.450;  336.000;  391.000
424.010;  -64.125;  -68.000;  -13.000
424.135;  -66.125;    5.000;  -33.000
424.259; -142.600; -654.000; -457.000
424.384; -117.350; -279.000; -272.000
424.509;  -95.225; -260.000; -186.000
424.634; -156.875; -761.000; -623.000
424.759; -132.175; -688.000; -544.000
424.883; -117.750; -506.000; -527.000
425.008; -128.700; -502.000; -410.000
425.133; -155.900; -679.000; -653.000
425.258; -140.875; -517.000; -381.000
425.382; -142.525; -867.000; -774.000
425.507; -144.600; -487.000; -543.000
425.632; -167.250; -802.000; -663.000
425.756; -107.075; -256.000; -146.000
425.881; -167.375; -831.000; -857.000
426.006; -106.475; -604.000; -355.000
426.130; -149.875; -696.000; -508.000
426.255; -128.125; -611.000; -491.000
426.379;  -79.025; -189.000; -577.000
426.504;    9.225;  660.000;  544.000
426.629; -135.800; -519.000; -466.000
426.753;  -67.250;   64.000;  -46.000
426.878;  -86.775; -252.000; -288.000
427.002; -135.925; -651.000; -668.000
427.127;  -86.350;  -35.000; -158.000
427.251;  -24.725;  372.000;  401.000
427.375; -100.050; -191.000; -173.000
427.500; -138.300; -616.000; -610.000
427.624; -115.950; -234.000; -400.000
427.749; -105.850; -216.000; -225.000
427.873; -131.900; -499.000; -412.000
427.997; -100.150; -222.000; -230.000
428.122;   19.950;  795.000;  703.000
428.246;  -16.875;  433.000;  434.000
428.371; -170.000; -869.000; -773.000
428.495; -156.775; -624.000; -646.000
428.619;  -88.350; -186.000; -117.000
428.743;  -45.700;   65.000;  132.000
428.868; -152.375; -732.000; -643.000
428.992; -105.525; -219.000; -326.000
429.116; -111.425; -329.000; -357.000
429.240;  -36.575;  419.000;  426.000
429.365; -114.750; -454.000; -574.000
429.489; -149.900; -638.000; -647.000
429.613;  -84.375; -236.000; -177.000
429.737; -138.800; -563.000; -432.000
429.861; -102.875; -247.000; -133.000
429.985; -124.025; -425.000; -305.000
430.109; -175.350; -770.000; -908.000
430.234;  -47.975;   76.000;  -50.000
430.358; -107.700; -250.000; -160.000
430.482; -143.225; -672.000; -564.000
430.606; -141.975; -655.000; -375.000
430.730; -122.275; -437.000; -388.000
430.854; -171.875; -909.000; -835.000
430.978; -168.300; -795.000; -764.000
431.102; -133.375; -499.000; -422.000
431.226; -168.700; -874.000; -815.000
431.350;  -30.700;  345.000;  422.000
431.474; -135.475; -661.000; -373.000
431.597; -203.075;-1060.000; -848.000
431.721; -113.750; -276.000; -267.000
431.845; -156.650; -704.000; -472.000
431.969; -101.675; -304.000; -349.000
432.093; -120.150; -395.000; -317.000
432.217;  -60.800;   32.000;   82.000
432.341; -123.675; -523.000; -518.000
432.464;  -83.275;   96.000;   40.000
432.588; -126.300; -401.000; -329.000
432.712;  -88.675;  -52.000;  -52.000
432.836;  -27.125;  213.000;  263.000
432.959; -113.825; -372.000; -311.000
433.083;  -79.600;   11.000;    2.000
433.207;  -10.550;  285.000;  930.000
433.330;  -91.775; -391.000; -200.000
433.454; -139.350; -654.000; -638.000
433.578;   -8.475;  583.000;  278.000
433.701; -154.450; -623.000; -675.000
433.825; -103.275; -292.000; -299.000
433.949;  -84.250;   28.000;  -72.000
434.072; -112.075; -410.000; -323.000
434.196;  -97.325; -309.000; -117.000
434.319; 3320.750;25482.000;25124.000
434.443; -157.475; -656.000; -603.000
434.566;  -52.750;  281.000;   62.000
434.690; -137.075; -637.000; -383.000
434.813; -108.325; -251.000; -173.000
434.937; -143.625; -569.000; -696.000
435.060; -123.375; -423.000; -332.000
435.184; -112.500; -492.000; -217.000
435.307;  -54.675;  159.000;  102.000
435.431;  -74.625;  -40.000;   24.000
435.554; -101.275; -399.000; -240.000
435.677; -111.700; -350.000; -258.000
435.801;  -66.500;  -25.000;   49.000
435.924;  -69.300;    1.000;  -67.000
436.048; -173.225;-1019.000; -732.000
436.171; -111.775; -240.000;  -66.000
436.294;  -96.250; -248.000; -229.000
436.417; -187.400; -963.000; -849.000
436.541; -180.500; -814.000; -840.000
436.664;  -91.900; -242.000; -316.000
436.787;  -63.650;   13.000;  113.000
436.910; -157.025; -792.000; -422.000
437.034;  -42.125;  142.000;  143.000
437.157;  -56.725;  -11.000;    0.000
437.280; -117.450; -392.000; -292.000
437.403; -177.000; -982.000; -869.000
437.526; -181.775; -903.000; -865.000
437.649; -135.950; -505.000; -332.000
437.772; -150.025; -692.000; -540.000
437.896;  -12.700;  700.000;  544.000
438.019; -145.975; -758.000; -503.000
438.142; -145.425; -596.000; -506.000
438.265; -150.950; -639.000; -670.000
438.388; -126.150; -520.000; -410.000
438.511; -142.450; -597.000; -394.000
438.634; -124.650; -247.000; -125.000
438.757; -160.050; -693.000; -619.000
438.880;  -77.450;  -34.000;  -57.000
439.003; -122.875; -417.000; -437.000
439.126; -103.300; -287.000; -167.000
439.248;  -84.700;  -98.000; -139.000
439.371;  -76.475;    9.000;  -53.000
439.494;    2.075;  510.000;  439.000
439.617;  -70.150;   65.000;  -88.000
439.740; -180.900; -968.000; -816.000
439.863; -165.700; -755.000; -595.000
439.986; -138.250; -476.000; -431.000
440.108;  -93.350; -161.000; -112.000
440.231; -193.825; -950.000; -836.000
440.354;  -92.025;  -64.000; -150.000
440.477; -158.700; -566.000; -542.000
440.599; -120.600; -200.000; -225.000
440.722; -146.500; -709.000; -586.000
440.845;   30.675;  751.000;  928.000
440.968; -107.675; -415.000; -311.000
441.090;  -89.400; -199.000;  -33.000
441.213; -187.850;-1021.000; -825.000
441.336;  -77.825; -159.000;   -5.000
441.458; -128.125; -549.000; -396.000
441.581; -153.025; -628.000; -629.000
441.703;  -84.750; -152.000;   13.000
441.826; -131.225; -557.000; -400.000
441.948;  -61.525;   56.000;   51.000
442.071;    2.525;  555.000;  424.000
442.193; -122.800; -531.000; -485.000
442.316;  -53.725;  152.000;   97.000
442.438; -106.650; -233.000;  -10.000
442.561;  -29.550;  272.000;  262.000
442.683; -169.775; -809.000; -522.000
442.806;  -67.925;   -8.000;   74.000
442.928; -172.100; -859.000; -604.000
443.051; -127.200; -577.000; -373.000
443.173; -134.825; -341.000; -339.000
443.295; -109.500; -263.000; -371.000
443.418; -105.100; -321.000;  -29.000
443.540;  -72.050; -106.000;   -4.000
443.662; -146.700; -563.000; -465.000
443.785;  -59.025;  335.000;  199.000
443.907; -120.850; -362.000; -208.000
444.029; -150.725; -767.000; -494.000
444.152; -153.800; -644.000; -554.000
444.274;  -72.050;  -18.000;  -24.000
444.396; -138.950; -461.000; -221.000
444.518; -139.575; -691.000; -454.000
444.640; -126.975; -268.000; -111.000
444.763;  -39.850;  388.000;  249.000
444.885; -125.700; -432.000; -392.000
445.007;  -61.675;   35.000;   86.000
445.129; -137.900; -610.000; -515.000
445.251; -134.625; -372.000; -439.000
445.373; -157.275; -537.000; -386.000
445.495;  -26.850;  242.000;  350.000
445.617;   18.825;  853.000;  753.000
445.739;  -94.800; -215.000;  -97.000
445.861;  -86.975; -245.000; -112.000
445.984; -107.175; -267.000; -101.000
446.105; -112.575; -418.000; -251.000
446.227;  -95.150; -176.000;  -19.000
446.349; -121.575; -358.000; -249.000
446.471; -151.350; -615.000; -448.000
446.593; -116.925; -316.000;   19.000
446.715;  -71.550;  -67.000;   41.000
446.837;   19.300;  697.000;  832.000
446.959; -136.575; -457.000; -478.000
447.081; -141.550; -628.000; -518.000
447.203;   24.700;  862.000;  834.000
447.325;  -90.000; -270.000;   42.000
447.446;  -51.325;  286.000;  530.000
447.568; -186.800; -921.000; -803.000
447.690; -120.475; -236.000; -245.000
447.812; -160.875; -798.000; -519.000
447.933;  -62.950;  155.000;  127.000
448.055; -108.725; -306.000; -261.000
448.177;  -72.475;   31.000;   79.000
448.299; -201.825; -935.000; -727.000
448.420;  -59.800;  -25.000;  159.000
448.542;  -71.400;   -3.000;   33.000
448.664;  -40.575;  109.000;  322.000
448.785;  -68.200;  265.000;   83.000
448.907; -132.200; -614.000; -353.000
449.028; -166.225; -771.000; -471.000
449.150;   -5.700;  492.000;  589.000
449.272; -203.300;-1044.000; -913.000
449.393;    0.750;  612.000;  694.000
449.515; -160.125; -634.000; -581.000
449.636; -101.475; -264.000; -155.000
449.758;    6.275;  763.000;  622.000
449.879; -121.125; -498.000; -396.000
450.001; -107.000; -149.000;  -49.000
450.122;  -89.350;  -95.000;  162.000
450.244;  -51.575;   37.000;  364.000
450.365; -140.250; -495.000; -301.000
450.486;  -81.425;   80.000;  268.000
450.608;  -42.175;  393.000;  326.000
450.729;   -2.125;  578.000;  645.000
450.850; -137.875; -574.000; -466.000
450.972; -146.100; -552.000; -389.000
451.093;  -34.300;  190.000;  588.000
451.214; -123.200; -516.000; -337.000
451.336;   20.175;  773.000;  579.000
451.457;  -39.475;  264.000;  393.000
451.578;  -86.025; -118.000;  -74.000
451.699; -148.375; -546.000; -540.000
451.821; -103.825; -284.000;  -50.000
451.942;  -32.825;  278.000;  285.000
452.063;  -35.450;  228.000;  419.000
452.184; -104.950;  -54.000;  -49.000
452.305;  -56.650;  103.000;  170.000
452.427; -126.000; -549.000; -301.000
452.548;  -91.425;   23.000;   79.000
452.669; -107.100; -257.000;  -89.000
452.790;  -98.700;    3.000;  -18.000
452.911;  -38.425;  195.000;  259.000
453.032; -101.525; -289.000;  -60.000
453.153;  -80.450;  -29.000;   81.000
453.274;   -3.975;  737.000;  868.000
453.395;  -84.650;  -51.000;  175.000
453.516;   51.625; 1317.000; 1388.000
453.637; -115.850; -205.000; -150.000
453.758;  -67.450;   15.000;   69.000
453.879; -132.450; -462.000; -250.000
454.000;   37.750; 1086.000;  948.000
454.121; -153.700; -554.000; -326.000
454.242; -152.500; -599.000; -383.000
454.362;  -78.425;  -99.000;  114.000
454.483; -101.825; -309.000; -229.000
454.604;  -19.625;  512.000;  580.000
454.725; -156.000; -627.000; -555.000
454.846; -119.850; -474.000; -406.000
454.967;  -37.400;  230.000;  539.000
455.087;  -49.275;  179.000;  153.000
455.208;   -3.850;  554.000;  856.000
455.329;  -84.775;  -22.000;   82.000
455.450;  -11.475;  473.000;  633.000
455.570; -110.775; -234.000; -211.000
455.691;  -60.800;  201.000;  407.000
455.812; -127.175; -270.000;  -92.000
455.932;  -77.625;  107.000;  -97.000
456.053;  -93.200;   36.000;   24.000
456.173; -122.800; -433.000; -355.000
456.294; -144.250; -476.000; -303.000
456.415;  -79.125;  -73.000;   70.000
456.535;  -41.050;  297.000;  273.000
456.656;  -60.175;  132.000;  240.000
456.776;  -87.125;    3.000;  298.000
456.897;  -39.775;  308.000;  513.000
457.017; -100.400; -153.000;   -3.000
457.138; -135.800; -402.000; -249.000
457.258;  -46.550;  263.000;  224.000
457.379;  -44.650;  509.000;  521.000
457.499;  -37.650;  443.000;  432.000
457.620; -133.200; -407.000; -231.000
457.740; -102.350; -132.000;  -11.000
457.860;  -79.425;   87.000;   44.000
457.981;  -86.850;  132.000;  124.000
458.101; -103.375;  -89.000;   40.000
458.221;  -34.500;  336.000;  402.000
458.342;  -75.500;   -4.000;  -37.000
458.462;  -28.125;  617.000;  352.000
458.582; -121.375; -302.000; -294.000
458.703;  -71.725;  303.000;  154.000
458.823;  -85.700;   22.000;  163.000
458.943;  -39.250;  341.000;  467.000
459.063;  -73.450; 1124.000;  192.000
459.183;  -59.025;  328.000;  313.000
459.304;  -10.100;  315.000;  517.000
459.424; -104.975; -246.000;  -89.000
459.544;  -10.650;  388.000;  764.000
459.664;  -18.300;  499.000;  506.000
459.784;   24.300; 1004.000; 1175.000
459.904;   -5.050;  867.000;  744.000
460.024;   19.425;  867.000;  684.000
460.144;  -39.325;  449.000;  554.000
460.264;  -27.025;  515.000;  327.000
460.385;  -99.375; -145.000; -119.000
460.505;   20.400;  905.000;  858.000
460.625;  -99.175;  -17.000;  -68.000
460.745;  -32.500;  396.000;  541.000
460.864;  -62.450;  153.000;  469.000
460.984;  -33.275;  499.000;  573.000
461.104;   83.525; 1656.000; 1775.000
461.224;   -6.750;  657.000;  650.000
461.344;  -54.700;  431.000;  360.000
461.464;  -58.900;  258.000;  513.000
461.584;  -55.050;  283.000;  466.000
461.704;  -89.200;   58.000;  108.000
461.824;  -73.100;  238.000;  259.000
461.943;  -65.325;  191.000;  130.000
462.063;  -72.200;    2.000;  324.000
462.183;   -3.500;  639.000;  717.000
462.303;   65.975; 1678.000; 1230.000
462.422;    5.850;  781.000;  840.000
462.542;  -72.875;  271.000;  391.000
462.662;  -42.650;  353.000;  380.000
462.782;  -26.450;  833.000;  572.000
462.901;  -17.550;  545.000;  717.000
463.021;  106.575; 1702.000; 1638.000
463.141;  -32.550;  337.000;  770.000
463.260;  -26.925;  614.000;  474.000
463.380;  -14.100;  902.000;  884.000
463.499;  -47.325;  342.000;  332.000
463.619;  -44.075;  581.000;  559.000
463.738;   77.850; 1644.000;  903.000
463.858;  -11.825;  657.000;  811.000
463.978;  -43.700;  542.000;  396.000
464.097;    4.050;  921.000; 1114.000
464.217;   38.475; 1196.000; 1143.000
464.336;   51.675; 1068.000; 1130.000
464.455;  -54.625;  328.000;  659.000
464.575;  -16.550;  597.000;  602.000
464.694;   46.875; 1204.000; 1179.000
464.814;    7.175; 1190.000; 1138.000
464.933;   24.775; 1095.000; 1027.000
465.052;   60.575; 1412.000; 1054.000
465.172;    8.900;  922.000;  799.000
465.291;   58.100; 1376.000; 1320.000
465.410;   -9.825;  462.000;  735.000
465.530;   48.200; 1355.000; 1310.000
465.649;   36.000; 1209.000; 1273.000
465.768;   90.225; 1673.000; 1508.000
465.888;   24.000;  941.000; 1174.000
466.007;   70.550; 1335.000; 1440.000
466.126;  -14.450;  721.000;  641.000
466.245;   20.975; 1176.000; 1187.000
466.364;   -3.725;  950.000; 1060.000
466.484;   19.325; 1024.000; 1213.000
466.603;   17.950; 1101.000; 1222.000
466.722;   72.275; 1490.000; 1769.000
466.841;   32.975; 1151.000; 1401.000
466.960;   20.700; 1069.000;  972.000
467.079;  115.900; 1971.000; 1786.000
467.198;   46.250; 1238.000; 1181.000
467.317;   85.575; 1768.000; 1162.000
467.436;   53.075; 1709.000; 1261.000
467.555;  118.100; 1796.000; 1746.000
467.674;   56.525; 1227.000; 1329.000
467.793;   44.900; 1376.000; 1374.000
467.912;   74.950; 1658.000; 1539.000
468.031;  114.075; 2038.000; 1930.000
468.150;   99.625; 1842.000; 1837.000
468.269;  157.875; 2313.000; 2090.000
468.388;  143.075; 2168.000; 2339.000
468.507;  237.175; 2884.000; 2903.000
468.626;  212.325; 2555.000; 2541.000
468.744;  143.450; 2018.000; 2174.000
468.863;  172.700; 2312.000; 2523.000
468.982;   87.600; 1503.000; 1555.000
469.101;  195.900; 2788.000; 2692.000
469.220;  137.800; 2333.000; 2176.000
469.338;  231.075; 2935.000; 3051.000
469.457;  177.325; 2719.000; 2545.000
469.576;  311.025; 3953.000; 3784.000
469.695;  213.950; 2877.000; 3066.000
469.813;  377.900; 4148.000; 4192.000
469.932;  358.050; 4255.000; 4485.000
470.051;  331.200; 4075.000; 4161.000
470.169;  396.075; 4470.000; 4338.000
470.288;  414.225; 4700.000; 4809.000
470.406;  455.700; 5059.000; 5194.000
470.525;  529.675; 6101.000; 5787.000
470.644;  614.775; 6847.000; 6794.000
470.762;  759.250; 8397.000; 7873.000
470.881;  816.650; 8651.000; 8464.000
470.999;  934.125; 9685.000; 9151.000
471.118; 1036.975;11174.000;10711.000

