
Integration time [ms]: 100.000
Averaging Nr. [scans]: 40
Smoothing Nr. [pixels]: 0
Data measured with spectrometer [name]: 2101012U2
Wave   ;Sample   ;Dark     ;Reference
[nm]   ;[counts] ;[counts] ;[counts] 

197.733;   59.975;  516.000;  404.000
197.879;  -79.625; -610.000; -634.000
198.025;  -32.450; -475.000; -420.000
198.171;  -68.325; -602.000; -612.000
198.317;  -30.600; -401.000; -316.000
198.463;  -65.600; -655.000; -404.000
198.609;   29.025;  181.000; -137.000
198.755;  -69.475; -644.000; -410.000
198.901;  -56.400; -505.000; -424.000
199.047;  -66.900; -615.000; -488.000
199.193;  -39.875; -230.000; -468.000
199.339;  -29.375; -222.000; -369.000
199.485;   48.150;  330.000;  271.000
199.631;   19.875;  227.000;  310.000
199.777;  -41.925; -466.000; -398.000
199.923;  -53.925; -610.000; -424.000
200.069;    8.000; -141.000;  -58.000
200.215;   70.600;  128.000;  453.000
200.361;   54.850;  243.000;  477.000
200.507;  -60.700; -600.000; -373.000
200.653;  -11.550; -371.000; -194.000
200.798;  -32.300; -215.000; -125.000
200.944;   14.000; -146.000;  -41.000
201.090;   32.800;   61.000;  222.000
201.236;  -11.325; -116.000; -158.000
201.382;  125.625;  874.000;  903.000
201.528;   10.825;  -58.000;  -48.000
201.674;  -68.325; -386.000; -293.000
201.819;  -56.550; -540.000; -439.000
201.965;  -84.050; -699.000; -447.000
202.111;   -4.950; -273.000; -226.000
202.257;  -38.250; -250.000; -238.000
202.402;   24.650;   13.000;  -36.000
202.548;  -42.200; -169.000; -116.000
202.694;   85.950;  410.000; -183.000
202.840;  -79.575; -603.000; -531.000
202.985;  -70.250; -681.000; -639.000
203.131; -120.350; -832.000; -666.000
203.277;  -20.775; -199.000; -262.000
203.423;  -45.800; -434.000; -520.000
203.568;  -26.975; -462.000; -237.000
203.714;  -70.775; -535.000; -542.000
203.860;  -83.750; -682.000; -641.000
204.005;   16.575;  112.000;  167.000
204.151;   80.750;  561.000;  556.000
204.296;  -54.375; -354.000; -221.000
204.442;  -68.225; -600.000; -547.000
204.588;  -79.050; -592.000; -579.000
204.733;   28.475;  178.000;  168.000
204.879; -128.975;-1018.000; -822.000
205.025;   21.725;  -99.000;  126.000
205.170;    5.850;  -17.000;   94.000
205.316;   84.425;  438.000;  661.000
205.461;  -79.175; -698.000; -554.000
205.607;   95.200;  609.000;  665.000
205.752;  -69.475; -626.000; -551.000
205.898;  -41.800; -501.000; -391.000
206.043;  -59.050; -578.000; -506.000
206.189;  -23.200; -243.000; -285.000
206.334;   63.525;  554.000;  606.000
206.480;   82.600;  409.000;  239.000
206.625;  -87.575; -529.000; -552.000
206.771;  -31.425; -451.000; -373.000
206.916;  -26.125; -210.000; -537.000
207.062;  -59.850; -545.000; -591.000
207.207;  -70.675; -546.000; -443.000
207.353;   75.525;  185.000;  460.000
207.498;   20.600;  196.000;   85.000
207.643;  -44.250; -501.000; -370.000
207.789; -125.775;-1069.000; -910.000
207.934;  -86.500; -665.000; -713.000
208.080;  -23.575; -154.000;   66.000
208.225;    9.725;  -22.000;  -57.000
208.370;  -89.800; -727.000; -619.000
208.516;  -60.850; -741.000; -487.000
208.661;  -23.275; -127.000;  -69.000
208.806;  -14.800; -165.000; -171.000
208.952; -116.025;-1044.000; -731.000
209.097;   71.325;  378.000;  349.000
209.242;  -47.575; -307.000; -382.000
209.387;   75.525;  392.000;  350.000
209.533;  -44.300; -321.000; -350.000
209.678;   87.550;  472.000;  543.000
209.823;  -54.750; -408.000; -310.000
209.969; -102.200; -860.000; -757.000
210.114; -105.250; -907.000; -719.000
210.259; -114.825; -939.000; -889.000
210.404;   -8.925; -171.000;  103.000
210.549;   13.250;  108.000;    3.000
210.695;  -16.875;   -3.000;  -95.000
210.840;   45.425;   94.000;   67.000
210.985;  -67.925; -484.000; -303.000
211.130;   79.950;  268.000;  406.000
211.275;   18.750;  207.000;  199.000
211.420;  -55.900; -300.000; -289.000
211.566;  -76.425; -536.000; -489.000
211.711;   32.275;  218.000;  157.000
211.856;  -69.725; -545.000; -519.000
212.001;   13.250;  151.000;   44.000
212.146;   35.900;  153.000;   49.000
212.291;   -4.100; -210.000; -186.000
212.436;  -31.500; -280.000;   -6.000
212.581;  -79.800; -685.000; -653.000
212.726;  -73.000; -487.000; -538.000
212.871;  -50.125; -552.000; -217.000
213.016; -154.500;-1172.000;-1029.000
213.161;   66.600;  406.000;  291.000
213.306;  -64.825; -435.000; -577.000
213.451;  -88.375; -778.000; -689.000
213.596;  -41.600; -455.000; -347.000
213.741;  -44.450; -448.000; -538.000
213.886;  -78.825; -498.000; -517.000
214.031;  -22.050; -294.000; -124.000
214.176;  -45.750; -408.000; -341.000
214.321;  -17.625; -296.000; -157.000
214.466;  -18.550; -163.000;  -43.000
214.611;    7.025;  -61.000;  -10.000
214.756; -123.900; -948.000; -858.000
214.901;   -8.525; -388.000; -226.000
215.046; -135.800; -797.000; -825.000
215.191;   20.075;  128.000;   35.000
215.336;  -22.500; -157.000;  -19.000
215.480;  -63.575; -684.000; -505.000
215.625;  -14.675; -175.000;  -19.000
215.770;  -87.350; -757.000; -662.000
215.915;  -29.075;   -5.000;  -97.000
216.060;   -0.975; -113.000;  -21.000
216.205; -117.925; -731.000; -779.000
216.349;  -57.950; -470.000; -533.000
216.494; -143.825; -939.000; -867.000
216.639; -111.475; -823.000; -888.000
216.784; -103.875; -577.000; -525.000
216.929;   42.675;  392.000;  281.000
217.073;   -3.925; -244.000;  -31.000
217.218;   21.400;   78.000;  -47.000
217.363;  -84.975; -656.000; -618.000
217.507;  -78.850; -623.000; -588.000
217.652; -127.275; -845.000; -874.000
217.797;  -86.125; -708.000; -659.000
217.942; -114.100; -856.000; -720.000
218.086;   71.775;  608.000;  539.000
218.231;  -24.550; -174.000;  -26.000
218.376;  -14.275; -337.000; -229.000
218.520;    7.250;  -41.000;   96.000
218.665;  -18.475; -338.000; -204.000
218.810;  -45.025; -275.000; -233.000
218.954;   29.800;  201.000;   35.000
219.099; -116.425; -713.000; -963.000
219.243;  -51.350; -589.000; -554.000
219.388;  -32.050; -264.000; -136.000
219.532;  -13.525; -116.000; -116.000
219.677;  -74.825; -564.000; -521.000
219.822;    8.700;   33.000;   89.000
219.966;    2.150;   17.000;  -99.000
220.111;  -34.200; -328.000;  -40.000
220.255; -101.625; -797.000; -750.000
220.400;   -6.175; -180.000; -146.000
220.544;  -73.125; -516.000; -450.000
220.689;  -48.925; -422.000; -451.000
220.833;  -17.600; -123.000;  -58.000
220.978;  -41.150; -393.000; -563.000
221.122;   32.525;  319.000;  307.000
221.267; -107.900; -906.000; -837.000
221.411;  -80.750; -478.000; -394.000
221.555;   -1.875; -104.000;  -23.000
221.700;  -35.900; -329.000; -222.000
221.844;   45.125;  255.000;  272.000
221.989;  -43.575; -328.000; -311.000
222.133;  -31.800; -289.000; -307.000
222.277;  -16.875;    5.000;   78.000
222.422;   34.425;  227.000;  113.000
222.566;  -43.875; -381.000; -214.000
222.711;  -62.500; -414.000; -479.000
222.855;  -78.150; -643.000; -586.000
222.999;  -83.050; -642.000; -717.000
223.144;  -40.150; -195.000; -194.000
223.288;   58.325;  423.000;  251.000
223.432;   24.700;  184.000;  230.000
223.576;   14.525;  152.000;  -21.000
223.721;   36.700;  364.000;  273.000
223.865;  -45.250; -472.000; -475.000
224.009;  254.250; 1673.000; 1631.000
224.153;  -81.825; -660.000; -671.000
224.298;  -68.825; -531.000; -489.000
224.442;  -11.700;  -74.000;  -33.000
224.586;   -1.575; -169.000; -106.000
224.730;  -95.200; -858.000; -670.000
224.875; -108.275; -739.000; -688.000
225.019;   23.525;  102.000;  188.000
225.163;   63.675;  208.000;  341.000
225.307;   27.350;   97.000;  -91.000
225.451;   48.875;  360.000;  481.000
225.595;   38.300;  264.000;  176.000
225.739;  -18.950; -170.000;  -94.000
225.884;    9.675;   86.000;    5.000
226.028;  -98.400; -760.000; -626.000
226.172;  -34.475; -260.000; -273.000
226.316; -116.775; -941.000; -902.000
226.460;  -64.825; -645.000; -493.000
226.604;  -47.825; -406.000; -400.000
226.748;  -94.925; -836.000; -733.000
226.892;  -40.550; -227.000; -181.000
227.036;  -45.450; -537.000; -447.000
227.180;  -55.250; -551.000; -375.000
227.324;  -70.075; -561.000; -580.000
227.468; -114.900; -819.000; -717.000
227.612;   24.350;  242.000;  -28.000
227.756; -107.025; -845.000; -698.000
227.900;   62.675;  342.000;  441.000
228.044;  -66.650; -509.000; -290.000
228.188;   62.300;  448.000;  568.000
228.332;  -81.300; -546.000; -472.000
228.476;  -17.475; -223.000; -149.000
228.620;  -29.925; -210.000; -150.000
228.764;   82.375;  431.000;  349.000
228.908;  -20.375; -155.000;   30.000
229.052;  -54.500; -615.000; -528.000
229.195;   -8.225; -172.000;   13.000
229.339;  -26.725; -235.000; -305.000
229.483;  -26.325;    5.000; -162.000
229.627;   -5.075; -156.000;  139.000
229.771;  -50.975; -218.000; -294.000
229.915;   14.950;  230.000;   79.000
230.059;  -89.400; -648.000; -663.000
230.202;  -25.425; -370.000; -317.000
230.346;   -8.300; -107.000;  107.000
230.490;  -53.125; -489.000; -521.000
230.634; -123.725; -736.000; -553.000
230.777;   89.450;  478.000;  509.000
230.921;  -66.675; -450.000; -359.000
231.065;  -43.775; -246.000; -286.000
231.209;   16.225;  261.000;  265.000
231.352;   29.125;   54.000;   40.000
231.496;   21.050;  568.000;  188.000
231.640;  -74.225; -693.000; -621.000
231.783;   59.650;  546.000;  525.000
231.927;  -38.325; -294.000; -365.000
232.071; -122.375; -962.000; -736.000
232.214; -115.875; -980.000; -764.000
232.358;  -91.225; -683.000; -599.000
232.502;    5.100;  -19.000;    7.000
232.645; -147.500;-1090.000; -927.000
232.789;   -6.700; -257.000; -218.000
232.933;  -52.775; -407.000; -224.000
233.076; -119.225;-1038.000; -897.000
233.220; -114.150; -752.000; -777.000
233.363;  -81.500; -669.000; -477.000
233.507;   51.725;  371.000;  129.000
233.650; -102.175; -764.000; -834.000
233.794;   52.175;  438.000;  461.000
233.938;  -56.950; -530.000; -362.000
234.081;  -18.225;  -93.000;   31.000
234.225;  -64.200; -631.000; -539.000
234.368; -112.900; -773.000; -723.000
234.512;  -35.000; -385.000; -299.000
234.655;  -93.750; -582.000; -555.000
234.798;  -52.250; -493.000; -466.000
234.942; -125.400; -884.000;-1002.000
235.085;  -60.375; -651.000; -443.000
235.229;  -75.825; -405.000; -410.000
235.372;  -47.675; -247.000; -191.000
235.516;  -69.525; -397.000; -321.000
235.659;   25.425;   92.000;  121.000
235.802;  -16.800;  -38.000;  -22.000
235.946;   23.375;  335.000;  215.000
236.089;   23.150;  126.000;  250.000
236.233;   61.575;  275.000;  298.000
236.376;  -45.175; -235.000; -378.000
236.519;  -33.675; -297.000; -319.000
236.663;  -12.225; -215.000; -117.000
236.806; -124.925;-1029.000; -999.000
236.949;   48.750;  543.000;  431.000
237.092;   74.375;  412.000;  391.000
237.236;  -87.225; -589.000; -502.000
237.379;   87.625;  352.000;  428.000
237.522; -117.275; -879.000; -768.000
237.666;   -9.525; -271.000;   18.000
237.809; -123.525; -851.000; -823.000
237.952;   34.700;  469.000;  271.000
238.095;  -70.275; -447.000; -442.000
238.238;   86.675;  688.000;  700.000
238.382;   10.650;  166.000;  103.000
238.525;  -69.375; -598.000; -511.000
238.668; -138.225;-1060.000; -985.000
238.811;  -77.400; -638.000; -643.000
238.954;  -63.550; -483.000; -334.000
239.097;  103.800;  617.000;  664.000
239.241;   28.250;  394.000;  326.000
239.384;  -21.975; -254.000; -214.000
239.527;  -50.875; -424.000; -224.000
239.670; -135.825; -994.000;-1091.000
239.813; -111.825; -696.000; -658.000
239.956;   81.900;  579.000;  473.000
240.099; -108.250; -778.000; -725.000
240.242;   63.750;  428.000;  432.000
240.385;   55.075;  466.000;  450.000
240.528;  -63.675; -706.000; -473.000
240.671;   16.775;  189.000;  134.000
240.814;  -44.300; -441.000; -158.000
240.957; -117.075; -767.000; -578.000
241.100; -101.675; -779.000; -755.000
241.243; -147.775;-1234.000; -893.000
241.386;  -59.050; -508.000; -379.000
241.529;  -88.375; -735.000; -547.000
241.672;  -60.200; -566.000; -495.000
241.815; -120.075; -832.000; -808.000
241.958;  -24.900; -125.000; -182.000
242.101;  -84.300; -545.000; -390.000
242.244;  -48.775; -270.000; -325.000
242.387;  -34.475; -304.000; -246.000
242.530;   73.725;  470.000;  134.000
242.673;  -54.900; -381.000; -309.000
242.815; -124.125; -925.000; -899.000
242.958;  -78.525; -482.000; -381.000
243.101;   17.425;  132.000;  187.000
243.244;  -86.300; -564.000; -521.000
243.387;  -37.075; -313.000; -316.000
243.530;  -97.050; -657.000; -674.000
243.672;   -0.175;   43.000;  -92.000
243.815;  -48.800; -355.000; -283.000
243.958;   -6.375;   98.000;  -26.000
244.101;    8.025;   59.000;  -16.000
244.243;   -1.100;  -47.000;  101.000
244.386; -112.500; -761.000; -630.000
244.529;  -20.125; -132.000; -139.000
244.672; -163.625;-1154.000; -951.000
244.814;  -93.025; -621.000; -794.000
244.957;  -34.100; -380.000; -304.000
245.100;  -71.975; -489.000; -489.000
245.242;  -63.975; -387.000; -374.000
245.385;    1.850;  -59.000;  -39.000
245.528; -121.050; -871.000; -705.000
245.670;   92.775;  612.000;  634.000
245.813;  -88.550; -599.000; -547.000
245.956;  -18.300; -324.000; -275.000
246.098;  -72.525; -508.000; -650.000
246.241;    2.875;  194.000;   48.000
246.383;  -20.850; -119.000;  -73.000
246.526;  -68.350; -454.000; -525.000
246.669; -125.550; -889.000; -780.000
246.811;   26.575;  172.000;   -1.000
246.954;  -64.400; -512.000; -426.000
247.096;  -13.625;  -84.000;   -6.000
247.239;  -58.075; -482.000; -445.000
247.381;  -74.100; -647.000; -488.000
247.524;   86.400;  645.000;  679.000
247.666;   -4.550;   58.000;   11.000
247.809; -115.250; -887.000; -691.000
247.951;   -8.675;  -75.000;  138.000
248.094;   27.450;  432.000;  308.000
248.236; -150.750;-1262.000;-1238.000
248.378;    4.275; -356.000;  -81.000
248.521;  -17.700; -334.000; -337.000
248.663;  -42.550; -236.000; -267.000
248.806;   -5.550; -300.000; -266.000
248.948; -100.475; -886.000; -763.000
249.090;  -44.550; -428.000; -398.000
249.233;  -47.175; -344.000; -381.000
249.375;  -56.275; -474.000; -451.000
249.518;  -18.625;  -83.000; -133.000
249.660;    6.875; -103.000;    3.000
249.802; -164.350;-1303.000;-1189.000
249.945;  -60.525; -612.000; -540.000
250.087; -111.225; -834.000; -768.000
250.229;  -60.375; -362.000; -480.000
250.371;  -68.225; -494.000; -439.000
250.514;  -42.250; -310.000; -244.000
250.656;   -6.300;   69.000;  102.000
250.798; -104.875; -849.000; -800.000
250.940;  -73.575; -322.000; -322.000
251.083;  -30.025; -335.000; -111.000
251.225;   70.425;  338.000;  310.000
251.367;  -36.000; -274.000; -373.000
251.509;  -35.025; -265.000; -210.000
251.651;  -91.050; -731.000; -671.000
251.794;   44.575;  538.000;  632.000
251.936; -104.375; -821.000; -747.000
252.078;  -82.450; -540.000; -461.000
252.220;  -71.300; -645.000; -477.000
252.362;   65.950;  344.000;  462.000
252.504;  -59.050; -677.000; -584.000
252.646; -116.400; -875.000; -722.000
252.788;   11.950;   14.000; -128.000
252.931;  -49.100; -257.000; -253.000
253.073;  -43.700; -376.000; -317.000
253.215;   -9.325;  141.000;  122.000
253.357;    2.375;   82.000; -153.000
253.499;  -64.625; -374.000; -234.000
253.641;  -72.875; -749.000; -594.000
253.783;  -91.500; -609.000; -527.000
253.925;  -89.300; -586.000; -591.000
254.067; -110.000; -744.000; -667.000
254.209;  -32.525; -391.000; -259.000
254.351; -144.975; -865.000; -883.000
254.493;  -59.725; -441.000; -417.000
254.635; -135.475; -936.000; -818.000
254.777;  -74.375; -752.000; -687.000
254.918;  -58.500; -512.000; -430.000
255.060;  -51.200; -551.000; -395.000
255.202;  -61.925; -473.000; -261.000
255.344;  -73.675; -658.000; -455.000
255.486;  -76.150; -471.000; -406.000
255.628; -111.250; -780.000; -781.000
255.770;  -86.325; -676.000; -536.000
255.912;  -68.300; -559.000; -468.000
256.053;  -95.175; -730.000; -508.000
256.195;  158.350; 1008.000;  903.000
256.337;  -93.700; -861.000; -595.000
256.479;   73.925;  532.000;  416.000
256.621;  -47.300; -394.000; -212.000
256.762;  -89.050; -789.000; -742.000
256.904;   51.950;  485.000;  487.000
257.046;  -37.775; -381.000; -271.000
257.188;  -46.100; -351.000; -264.000
257.329;  -70.625; -525.000; -464.000
257.471; -124.200; -939.000; -807.000
257.613;  -61.075; -584.000; -498.000
257.755; -163.975;-1073.000; -982.000
257.896;   38.250;  286.000;  392.000
258.038;  -78.550; -403.000; -352.000
258.180;  -39.575; -354.000; -279.000
258.321;  -88.575; -581.000; -457.000
258.463;    8.525;  -71.000;  133.000
258.605; -102.075; -562.000; -570.000
258.746;  -93.275; -886.000; -772.000
258.888; -152.625;-1026.000;-1020.000
259.029;   13.200;  121.000;   -8.000
259.171;  -90.750; -614.000; -550.000
259.313;   -0.375;  -49.000;  -47.000
259.454;  -78.575; -536.000; -414.000
259.596;  -53.450; -483.000; -390.000
259.737;  -81.825; -590.000; -474.000
259.879;   41.650;  217.000;  311.000
260.020;   85.350;  901.000;  636.000
260.162;  -11.975; -146.000; -253.000
260.303; -127.625; -768.000; -687.000
260.445;  -82.475; -609.000; -613.000
260.586;   23.050;  392.000;  157.000
260.728;  -33.775; -360.000; -248.000
260.869; -116.625; -350.000; -343.000
261.011;   86.600;  706.000;  537.000
261.152;  -62.200; -479.000; -319.000
261.293;  -71.350; -576.000; -595.000
261.435;  -35.150; -219.000; -184.000
261.576;  -45.175; -455.000; -325.000
261.718;   48.575;  420.000;  470.000
261.859; -131.400; -940.000; -949.000
262.000; -144.825; -951.000;-1016.000
262.142;  -17.175;  -52.000;  -60.000
262.283; -121.300; -808.000; -691.000
262.424;  -74.650; -666.000; -625.000
262.566; -168.800;-1161.000; -983.000
262.707; -103.300; -840.000; -830.000
262.848; -130.375; -769.000; -726.000
262.990;  -50.625; -362.000; -345.000
263.131;   83.125;  650.000;  681.000
263.272;   -5.450;  -61.000;  -41.000
263.413;  -90.150; -589.000; -561.000
263.555;  -64.975; -669.000; -143.000
263.696;  -90.200; -550.000; -641.000
263.837;  -53.800; -449.000; -551.000
263.978;    4.875;   -5.000;  -77.000
264.119;  -42.150; -283.000; -264.000
264.261; -109.800; -847.000; -630.000
264.402;    9.525;   33.000;   40.000
264.543;  -77.375; -509.000; -524.000
264.684;  -13.625;   61.000;  -50.000
264.825;  -67.900; -816.000; -538.000
264.966;    3.500;  -84.000;  -67.000
265.107; -118.225; -646.000; -670.000
265.248; -113.500; -825.000; -812.000
265.390;  -12.025;  152.000;   -9.000
265.531;  -24.325; -238.000; -107.000
265.672;  -95.350; -557.000; -630.000
265.813;   62.650;  563.000;  439.000
265.954; -140.450; -959.000; -940.000
266.095;  -19.825; -372.000; -322.000
266.236; -104.700; -686.000; -548.000
266.377;  -41.875; -243.000; -297.000
266.518;  -80.100; -619.000; -547.000
266.659;   30.050;  170.000;  268.000
266.800;    9.025;   83.000;   85.000
266.941;  -67.950; -487.000; -478.000
267.082;   25.875;  354.000;   99.000
267.223;  -47.200; -344.000; -273.000
267.364; -118.975; -892.000; -686.000
267.504;   -7.200;    3.000;  135.000
267.645;   -0.200;  160.000;   67.000
267.786;  -21.925; -147.000;  -86.000
267.927;  -79.200; -473.000; -379.000
268.068;  -24.025; -186.000;  -61.000
268.209;  -40.925; -175.000; -413.000
268.350;  -52.200; -388.000; -532.000
268.490;  -91.100; -648.000; -521.000
268.631;   40.950;  127.000;  225.000
268.772; -118.575; -874.000; -647.000
268.913;  -43.075; -328.000; -476.000
269.054;   -5.150; -117.000;   12.000
269.194;  -41.075; -418.000; -402.000
269.335; -158.275;-1137.000;-1074.000
269.476;  -26.225;   33.000;  -35.000
269.617;  -40.250; -347.000; -392.000
269.757;  -88.000; -713.000; -646.000
269.898; -103.675; -856.000; -613.000
270.039;  -54.250; -415.000; -405.000
270.180; -141.500; -952.000; -816.000
270.320;   -7.525; -190.000; -250.000
270.461;  -47.550; -277.000; -249.000
270.602;  -23.525; -186.000; -156.000
270.742; -126.725; -868.000; -943.000
270.883;  -47.450; -442.000; -390.000
271.023;  -56.625; -358.000; -357.000
271.164;  -70.075; -607.000; -528.000
271.305; -104.525; -666.000; -654.000
271.445;  -83.900; -722.000; -683.000
271.586;  -67.100; -462.000; -283.000
271.726;  -49.775; -397.000; -322.000
271.867;  -62.300; -594.000; -534.000
272.008;  187.425; -473.000; -285.000
272.148;  130.975;  462.000;  468.000
272.289;   24.100; -113.000; -181.000
272.429;   12.075;   19.000;  185.000
272.570;  -88.875; -633.000; -737.000
272.710; -104.700; -825.000; -775.000
272.851;  -11.725;  113.000; -130.000
272.991; -174.375;-1173.000;-1077.000
273.131;  -70.950; -419.000; -459.000
273.272; -113.925; -683.000; -723.000
273.412;   11.850; -143.000;  -31.000
273.553;  -47.375; -488.000; -507.000
273.693;  130.825;  913.000;  858.000
273.834;  -94.525; -894.000; -692.000
273.974;  -67.100; -664.000; -615.000
274.114;  -98.275; -772.000; -560.000
274.255;   81.250;  414.000;  373.000
274.395;   -1.400; -180.000; -125.000
274.535;   46.975;  199.000;  350.000
274.676;   24.300;  225.000;   94.000
274.816;   13.450;  110.000;   34.000
274.956;  -90.575; -624.000; -690.000
275.097;  -60.775;-1014.000; -922.000
275.237; -116.275; -913.000; -803.000
275.377;  -99.800; -778.000; -689.000
275.517; -148.975; -878.000; -937.000
275.658;  -65.550; -590.000; -555.000
275.798;  -74.875; -606.000; -413.000
275.938;   21.100;  215.000;  323.000
276.078; -101.125; -626.000; -395.000
276.218;   12.900;   99.000;  104.000
276.359; -128.325;-1026.000;-1024.000
276.499;  -68.025; -605.000; -446.000
276.639;  -45.950; -305.000; -151.000
276.779;  -47.000; -475.000; -357.000
276.919; -105.950; -783.000; -624.000
277.059;  -16.375; -261.000; -212.000
277.199;  -51.775; -357.000; -259.000
277.340;   61.375;  287.000;  175.000
277.480; -102.175; -840.000; -693.000
277.620;   31.850;  192.000;   16.000
277.760; -205.875;-1533.000;-1294.000
277.900;   31.750;  113.000;   33.000
278.040;   17.275;  137.000;  159.000
278.180;   45.525;  270.000;  170.000
278.320;   11.850;   21.000;   56.000
278.460;  -65.025; -443.000; -469.000
278.600;  -77.625; -708.000; -598.000
278.740;   60.975;  448.000;  224.000
278.880;  -67.200; -768.000; -791.000
279.020;   -4.475; -194.000; -144.000
279.160;  -80.750; -672.000; -595.000
279.300; -119.475; -926.000; -873.000
279.440;  -99.250; -709.000; -622.000
279.579;  -22.350;-1014.000; -929.000
279.719;  -50.575; -410.000; -394.000
279.859;   65.625;   -4.000;   41.000
279.999;   22.800; -208.000;  101.000
280.139;   -1.975; -435.000; -387.000
280.279;  -88.450; -708.000; -745.000
280.419;  -12.525; -229.000; -147.000
280.559;  -40.425; -259.000; -180.000
280.698;  -72.275; -790.000; -639.000
280.838; -106.575; -778.000; -800.000
280.978;  -93.275; -846.000; -790.000
281.118; -125.550; -811.000; -704.000
281.257;   12.650;   24.000;    6.000
281.397; -124.325;-1094.000; -960.000
281.537;  -74.350; -599.000; -712.000
281.677;  -14.325; -150.000; -101.000
281.816;  -76.275; -700.000; -630.000
281.956;  -40.850; -193.000; -257.000
282.096;  -50.600; -539.000; -396.000
282.235; -109.400; -672.000; -638.000
282.375;  -13.975; -243.000;  -98.000
282.515; -104.600; -715.000; -707.000
282.654;   36.300;   29.000;  106.000
282.794;   11.825;  388.000;  244.000
282.934;  -61.525; -530.000; -491.000
283.073; -145.375;-1030.000; -857.000
283.213;  -56.650; -460.000; -467.000
283.353;  -35.150; -408.000; -349.000
283.492;  -37.725; -264.000; -296.000
283.632;  -43.925; -254.000; -168.000
283.771;  -88.925; -859.000; -730.000
283.911;  -42.075; -369.000; -260.000
284.050; -104.200; -794.000; -748.000
284.190; -163.350;-1229.000;-1096.000
284.329; -144.925;-1055.000; -964.000
284.469;  -74.825; -516.000; -591.000
284.608;  -56.650; -559.000; -598.000
284.748;  -81.350; -614.000; -570.000
284.887;    9.250;  -87.000;  -20.000
285.027; -135.525; -844.000; -892.000
285.166;  -26.875; -192.000; -249.000
285.306;   -1.300; -116.000;  -33.000
285.445;  -37.275; -229.000; -343.000
285.584;  -94.575; -630.000; -494.000
285.724;  -34.500; -282.000; -322.000
285.863; -107.625; -857.000; -507.000
286.002;  -56.125; -366.000; -276.000
286.142; -100.900; -715.000; -622.000
286.281;  -67.925; -525.000; -493.000
286.420;  -85.100; -554.000; -417.000
286.560;  114.450;  653.000;  623.000
286.699; -146.150; -958.000; -912.000
286.838;  -70.775; -590.000; -591.000
286.978;  -99.925; -533.000; -537.000
287.117; -137.625;-1085.000; -950.000
287.256;  -42.150; -228.000; -211.000
287.395;  -42.650; -197.000; -378.000
287.535;  -56.750; -370.000; -298.000
287.674;  -79.350; -509.000; -484.000
287.813;   58.100;  661.000;  533.000
287.952; -129.775;-1010.000; -871.000
288.091; -151.500;-1049.000; -915.000
288.231;   10.775;   13.000;   15.000
288.370; -177.275;-1217.000;-1200.000
288.509;  -87.550; -728.000; -645.000
288.648;  -88.225; -770.000; -548.000
288.787;  -27.050; -243.000;  -87.000
288.926;  -48.975; -454.000; -475.000
289.065;  114.750;  859.000;  672.000
289.204;  -61.225; -377.000; -217.000
289.344;  -86.700; -791.000; -690.000
289.483;   24.450;  416.000;  304.000
289.622;  -22.450; -291.000; -149.000
289.761;  -15.450; -309.000; -166.000
289.900; -101.275; -785.000; -626.000
290.039;  -11.550;  -12.000;  -95.000
290.178;  -28.425; -274.000; -180.000
290.317;  -85.050; -618.000; -479.000
290.456;  -61.625; -463.000; -451.000
290.595; -154.100; -961.000; -833.000
290.734; -138.350; -904.000; -891.000
290.873;  -75.275; -456.000; -420.000
291.011;  -97.625; -833.000; -843.000
291.150; -102.175; -770.000; -682.000
291.289;  -26.425; -343.000; -110.000
291.428;  -97.225; -599.000; -480.000
291.567;  -39.000; -370.000; -442.000
291.706;   -4.475;  109.000;  154.000
291.845;  -93.975; -597.000; -505.000
291.984; -173.700;-1234.000;-1061.000
292.122;   84.125;  602.000;  582.000
292.261;   54.700;  620.000;  463.000
292.400;    4.975; -144.000;  211.000
292.539; -129.725; -959.000; -813.000
292.678;  -27.875; -325.000; -300.000
292.816; -158.125;-1136.000; -965.000
292.955;  -80.025; -844.000; -684.000
293.094;  -27.825; -173.000; -337.000
293.233;  -47.175; -556.000; -400.000
293.371;  -30.650; -225.000;  -84.000
293.510; -100.425; -866.000; -780.000
293.649; -135.700; -959.000; -924.000
293.787;  -61.150;-1083.000;-1012.000
293.926;   -9.675; -113.000;  -32.000
294.065;  -45.725; -379.000; -290.000
294.203;   44.950;  298.000;  406.000
294.342;   17.800;   74.000;  156.000
294.481; 6596.575;51180.000; -836.000
294.619;  -16.475; -425.000; -582.000
294.758; -142.525;-1230.000;-1137.000
294.896;   69.850; -125.000;    5.000
295.035; -118.325;-1040.000;-1006.000
295.174; -115.450;-1082.000; -954.000
295.312;  -36.500; -323.000; -203.000
295.451;   -8.325; -307.000; -428.000
295.589;  -60.025; -389.000; -518.000
295.728;   16.075; -292.000; -165.000
295.866;    2.075;  -36.000;  -51.000
296.005;  -45.550; -584.000; -341.000
296.143;  -78.475; -558.000; -596.000
296.282; -106.050; -957.000; -881.000
296.420;  -89.500; -657.000; -557.000
296.559;  -85.100; -892.000; -633.000
296.697;   26.500; -847.000; -665.000
296.835;   67.850;-1141.000;-1002.000
296.974;   48.425;  -23.000;   39.000
297.112;    0.225; -443.000; -504.000
297.251;  -71.975; -815.000; -755.000
297.389;   99.725; -576.000; -438.000
297.527;   28.975; -145.000;  -83.000
297.666;  -61.225; -486.000; -438.000
297.804;  -55.900; -404.000; -264.000
297.942;    3.425; -136.000; -161.000
298.081;  -15.425; -183.000;   63.000
298.219;   65.375;  -17.000;  -19.000
298.357;   39.825; -144.000;  -71.000
298.495;   25.850; -810.000; -812.000
298.634;   80.100;  245.000;  219.000
298.772;   60.425; -220.000; -338.000
298.910;  -32.975; -309.000; -182.000
299.048;   -7.875; -130.000; -153.000
299.187;  -37.375; -350.000; -250.000
299.325;    8.925;   52.000;  122.000
299.463;   52.325; -389.000; -299.000
299.601;  117.575; -327.000; -271.000
299.739; -106.325; -908.000; -883.000
299.877;  -82.700; -791.000; -703.000
300.016;  -56.550;-1095.000; -935.000
300.154;  178.275;  -19.000; -161.000
300.292;   50.900; -428.000; -348.000
300.430;   29.700; -408.000; -291.000
300.568; -110.775; -940.000; -874.000
300.706;  -50.850; -366.000; -469.000
300.844;  -77.150;-1108.000; -979.000
300.982;  140.400;  246.000;  282.000
301.120; -107.675; -965.000; -866.000
301.258;  -62.325; -812.000; -705.000
301.396;   36.675;  104.000;  -41.000
301.534;   91.725; -218.000; -293.000
301.672;   -2.250; -664.000; -521.000
301.810;   38.500; -613.000; -545.000
301.948;  115.000;   53.000;  149.000
302.086;  604.325; -250.000;  -32.000
302.224;  940.375; -610.000; -585.000
302.362;   49.900; -558.000; -622.000
302.500;  -36.925; -923.000; -893.000
302.638;  119.850;  128.000;  245.000
302.776;  -17.175; -352.000; -408.000
302.913;   37.325;  447.000;  236.000
303.051;   -0.450;  -86.000;  -23.000
303.189;   50.450;   90.000;  118.000
303.327;  -46.125; -341.000; -256.000
303.465;  -79.850; -832.000; -588.000
303.603; -104.625; -805.000; -604.000
303.740;  103.000;  417.000;  241.000
303.878;   14.575; -800.000; -759.000
304.016;  -89.575; -915.000; -790.000
304.154; -128.350;-1123.000;-1152.000
304.291;  -38.575; -505.000; -554.000
304.429;   -3.900;  102.000;   74.000
304.567; -123.100; -908.000; -893.000
304.705;  -49.600; -408.000; -515.000
304.842;  100.725; -616.000; -540.000
304.980;   48.300;  215.000;   35.000
305.118;   48.625; -367.000; -365.000
305.255;  -75.700; -945.000; -927.000
305.393;   73.450;  178.000;  239.000
305.531;  -99.275;-1173.000; -956.000
305.668;  -73.525; -663.000; -582.000
305.806;  111.500; -358.000; -439.000
305.943;  111.850; -629.000; -637.000
306.081;   55.475; -378.000; -267.000
306.219;  -88.575; -863.000; -748.000
306.356;    3.075;  158.000;   27.000
306.494;  112.700;  981.000;  761.000
306.631;   -3.350;  -11.000;  -55.000
306.769;    4.875; -613.000; -485.000
306.906;  -15.900; -284.000; -258.000
307.044;  -74.100; -473.000; -488.000
307.181;  -71.675; -410.000; -332.000
307.319;   16.150;  112.000;   87.000
307.456; -177.950;-1191.000;-1153.000
307.594;  -80.600; -980.000; -727.000
307.731;  -15.300; -371.000; -164.000
307.868;  -10.025;  -15.000;   20.000
308.006; -138.025; -961.000; -847.000
308.143;  -68.675; -618.000; -330.000
308.281;  128.950;  -37.000; -254.000
308.418;  -17.750; -748.000; -640.000
308.555;  -59.925; -400.000; -250.000
308.693;  -83.375; -577.000; -573.000
308.830; -114.975; -712.000; -657.000
308.967;   -5.025; -215.000;  -95.000
309.105;  -53.625; -507.000; -396.000
309.242;   20.575; -468.000; -367.000
309.379;  214.550; -577.000; -655.000
309.517;  -63.825; -936.000; -948.000
309.654; -124.450; -910.000; -734.000
309.791;  -62.450; -662.000; -580.000
309.928; -125.375; -977.000; -914.000
310.065;  172.750;  819.000;  697.000
310.203;  -24.175; -825.000; -850.000
310.340;   -8.750; -465.000; -321.000
310.477;  -84.725; -412.000; -516.000
310.614;  -66.025; -383.000; -473.000
310.751;  -82.675; -427.000; -518.000
310.889;  -22.825;    1.000;   11.000
311.026; -149.050;-1161.000; -939.000
311.163;  -43.575; -386.000; -380.000
311.300;  -93.350; -512.000; -479.000
311.437;  -61.225; -658.000; -619.000
311.574; -161.825;-1226.000; -985.000
311.711;  -63.675; -595.000; -433.000
311.848;  -49.200; -380.000; -388.000
311.985;    3.250;  270.000;   93.000
312.122; -118.075; -932.000; -762.000
312.259; -111.350; -941.000; -994.000
312.396;  -89.100; -508.000; -551.000
312.533;  -84.050; -812.000; -790.000
312.670; -142.000;-1070.000; -898.000
312.807;  -27.650; -352.000; -367.000
312.944;  -84.175; -513.000; -611.000
313.081;  -30.400; -150.000; -415.000
313.218; -109.150;-1111.000; -867.000
313.355;    9.725; -531.000; -449.000
313.492;   -0.850; -455.000; -292.000
313.629;  144.400;  815.000;  735.000
313.766; -163.150;-1176.000;-1008.000
313.902;  -13.100; -186.000;   21.000
314.039;  -57.950; -372.000; -289.000
314.176;   22.050;  286.000;  192.000
314.313;  -84.700; -569.000; -473.000
314.450;  -81.375; -788.000; -684.000
314.587;  -66.925; -468.000; -480.000
314.723;   12.475;  -78.000;  130.000
314.860;   25.600;  318.000;  332.000
314.997;   43.875;  223.000;  142.000
315.134;  -45.125; -385.000; -368.000
315.270;  -42.700; -480.000; -496.000
315.407; -148.125;-1094.000; -967.000
315.544;  -44.425; -657.000; -538.000
315.681;  -81.625; -681.000; -565.000
315.817;   22.500; -133.000; -176.000
315.954;   -2.350; -613.000; -392.000
316.091; -120.850;-1045.000;-1023.000
316.227;  -36.925;  -71.000; -179.000
316.364;    1.650;   23.000;    6.000
316.500;  -52.575; -113.000; -300.000
316.637;  -36.650; -181.000; -302.000
316.774;  -91.100; -625.000; -358.000
316.910;  -85.950; -598.000; -629.000
317.047;  -78.425; -487.000; -351.000
317.183;  -50.050; -435.000; -566.000
317.320;  -20.525; -367.000; -321.000
317.456;  -58.675; -733.000; -805.000
317.593;  -88.100; -598.000; -641.000
317.729;   10.925;  168.000;  -67.000
317.866; -198.850;-1434.000;-1285.000
318.002;  -91.950; -708.000; -948.000
318.139; -110.075; -883.000; -867.000
318.275; -105.800;-1003.000; -738.000
318.412;  -55.525; -517.000; -336.000
318.548;  -34.900; -751.000; -720.000
318.685; -108.050; -985.000; -888.000
318.821;  -98.375; -762.000; -735.000
318.957;  -14.300;   34.000;  -23.000
319.094;   42.825;  297.000;  154.000
319.230;  -60.450; -756.000; -742.000
319.367;  117.700; -471.000; -520.000
319.503;   62.000; -538.000; -436.000
319.639;  -79.925; -877.000; -793.000
319.775;  -65.625; -750.000; -685.000
319.912;  -54.575; -424.000; -519.000
320.048;  -99.450;-1184.000;-1184.000
320.184;   79.300;   59.000;   70.000
320.321;  -55.100; -497.000; -467.000
320.457;   73.600;  475.000;  662.000
320.593;  -57.325; -375.000; -382.000
320.729; -103.650; -732.000; -734.000
320.866;  -80.050; -577.000; -635.000
321.002;  -70.300; -759.000; -809.000
321.138;  -22.325; -135.000; -211.000
321.274;   81.700; -148.000; -115.000
321.410;  -23.150; -585.000; -353.000
321.546;  -30.775;-1011.000; -911.000
321.683;   39.225;  400.000;  185.000
321.819;    4.750;  -48.000; -117.000
321.955; -118.375; -743.000; -722.000
322.091;  -59.725; -585.000; -540.000
322.227;  -15.900; -382.000; -202.000
322.363;  -11.950; -320.000; -215.000
322.499;  -44.350; -343.000; -331.000
322.635;  165.375;  636.000;  443.000
322.771;   33.050; -139.000;   12.000
322.907;  100.825;  129.000;  327.000
323.043;  -29.300; -115.000; -206.000
323.179;  -37.275; -394.000; -363.000
323.315;   14.550; -401.000; -371.000
323.451;   73.650; -328.000; -236.000
323.587;   56.600;  -60.000;  -77.000
323.723;   -1.000; -682.000; -601.000
323.859;  -18.525; -258.000;  -76.000
323.995;  -38.825; -467.000; -409.000
324.131; -114.950; -967.000; -892.000
324.267;  -41.250; -254.000; -276.000
324.402; -133.775; -960.000; -983.000
324.538;  -14.150; -279.000; -104.000
324.674;   11.550;  164.000;   77.000
324.810;  110.500;  226.000;  308.000
324.946;  -15.025; -810.000; -658.000
325.082;  -65.600; -568.000; -475.000
325.217;  -28.775;  -62.000;   16.000
325.353;  -97.175; -764.000; -659.000
325.489; -101.900; -540.000; -506.000
325.625;  -64.075; -579.000; -525.000
325.760;   45.475;  517.000;  376.000
325.896;  -22.275; -515.000; -702.000
326.032;  -48.100; -403.000; -352.000
326.168;  -57.625; -462.000; -369.000
326.303;  -64.700; -352.000; -461.000
326.439;  -20.800; -336.000; -276.000
326.575;  -12.400; -190.000;  -29.000
326.710;  -11.650; -156.000;  -30.000
326.846;   -6.200;  146.000;  103.000
326.982;  -91.925; -530.000; -548.000
327.117;  -83.725; -481.000; -442.000
327.253;  -72.525; -745.000; -742.000
327.388; -165.775;-1137.000;-1153.000
327.524;  -59.050; -811.000; -578.000
327.659;  -18.575;  -58.000;  -22.000
327.795;  -17.125;   69.000;   45.000
327.931;  -98.550; -723.000; -499.000
328.066;  -34.050; -417.000; -276.000
328.202;  -11.650;   12.000; -129.000
328.337;  111.450;  957.000;  713.000
328.473;   31.325;  -12.000;  -74.000
328.608;  -19.800; -256.000; -267.000
328.743;  -86.725; -799.000; -664.000
328.879;   19.175;  214.000;  114.000
329.014;  -37.950; -102.000; -122.000
329.150;  -81.050; -358.000; -483.000
329.285;  -83.300; -465.000; -466.000
329.421;  -54.450; -548.000; -246.000
329.556;  -30.550;  -36.000;   85.000
329.691;  -97.400; -633.000; -615.000
329.827;  -84.075; -626.000; -480.000
329.962;  -40.025;  131.000; -301.000
330.097;  -96.150; -673.000; -585.000
330.233;  -51.975; -410.000; -223.000
330.368; -129.625; -839.000; -628.000
330.503;   -0.375;    3.000;   98.000
330.638;    9.775;  -93.000; -125.000
330.774;  -55.750; -609.000; -530.000
330.909;  -59.125; -434.000; -244.000
331.044;  -91.325; -714.000; -708.000
331.179; -174.950;-1217.000;-1109.000
331.315;   20.600;   77.000;   20.000
331.450;   14.450;  157.000;  285.000
331.585;  -88.200; -805.000; -706.000
331.720; -101.700; -510.000; -460.000
331.855;  -17.200;  -35.000; -102.000
331.990;  251.175;   62.000;  138.000
332.126;  137.525; -110.000;   71.000
332.261;  -17.200; -379.000; -265.000
332.396;   18.300; -135.000; -242.000
332.531;  -98.425;-1074.000;-1031.000
332.666;   39.900; -519.000; -363.000
332.801; -109.000; -726.000; -807.000
332.936;  -26.225; -192.000; -122.000
333.071; -135.725; -870.000; -817.000
333.206;   26.250;  307.000;  379.000
333.341;   17.625;  344.000;  418.000
333.476;  -94.825; -627.000; -623.000
333.611;  -44.975; -251.000; -173.000
333.746;  -40.975; -381.000; -464.000
333.881; -129.025; -973.000; -935.000
334.016; -132.250; -936.000; -917.000
334.151; -132.775; -746.000; -702.000
334.286;   38.025;  152.000;  186.000
334.421;  -20.700; -125.000; -178.000
334.556;  -69.400; -611.000; -567.000
334.690;  -98.025; -631.000; -577.000
334.825;   73.450;  381.000;   83.000
334.960;  -58.650; -285.000; -413.000
335.095;    4.125;  135.000;  -91.000
335.230; -108.425; -722.000; -738.000
335.365; -133.675;-1084.000; -990.000
335.499; -145.025;-1108.000;-1037.000
335.634;   35.800;    9.000;  534.000
335.769;  -93.475; -755.000; -720.000
335.904;  -53.650; -603.000; -561.000
336.038;  -64.000; -735.000; -657.000
336.173; -117.750;-1206.000;-1194.000
336.308;    7.375; -116.000; -189.000
336.443;   -5.600; -544.000; -634.000
336.577;  -80.600; -936.000; -787.000
336.712;   75.100;   -4.000;  -12.000
336.847;  -48.325; -724.000; -607.000
336.981;   58.875; -272.000; -208.000
337.116;  278.225;  615.000;  501.000
337.250;  141.350; -434.000; -421.000
337.385;  259.925; -297.000; -208.000
337.520;   87.875; -632.000; -603.000
337.654;  -38.825; -215.000; -126.000
337.789; -129.650; -989.000; -933.000
337.923;  -43.325; -104.000; -205.000
338.058;  -96.600; -673.000; -738.000
338.192;  -44.950; -611.000; -488.000
338.327;   -8.775;  -18.000; -155.000
338.461;  -70.625; -299.000; -469.000
338.596;  -97.925; -780.000; -638.000
338.730; -103.675; -767.000; -803.000
338.865;   88.375;  -46.000; -140.000
338.999;  -68.725; -846.000; -702.000
339.134;  -29.975; -634.000; -536.000
339.268;   25.300; -741.000; -603.000
339.403;  369.950; -740.000; -775.000
339.537;  104.725; -894.000; -820.000
339.671; -113.275; -829.000; -813.000
339.806;  -63.700; -556.000; -512.000
339.940;   11.775; -261.000; -235.000
340.074;  -98.100; -685.000; -510.000
340.209;  -51.725; -351.000; -230.000
340.343;  -89.425; -517.000; -573.000
340.477;  173.950;  998.000; 1036.000
340.612;  -56.900;-1033.000; -900.000
340.746;  138.325; -199.000; -243.000
340.880;  -80.625; -924.000; -785.000
341.014;  -11.575;  -45.000; -154.000
341.149; -123.775; -756.000; -718.000
341.283; -107.700; -839.000; -754.000
341.417; -103.700;-1124.000; -938.000
341.551;  122.375; -768.000; -708.000
341.685;  -44.175; -633.000; -611.000
341.820;  -50.700; -562.000; -493.000
341.954;  -51.525; -218.000; -349.000
342.088; -142.700;-1102.000;-1019.000
342.222;   53.100;  565.000;  618.000
342.356;  -66.525; -395.000; -335.000
342.490;  -90.775; -880.000; -841.000
342.624;  -35.275; -339.000; -242.000
342.758;   -4.225; -364.000; -312.000
342.892;  -62.800; -710.000; -585.000
343.026;  -42.900;  -58.000; -116.000
343.160;  -61.925; -426.000; -376.000
343.294;  -88.825; -474.000; -337.000
343.428;  -19.250; -488.000; -448.000
343.562;  -20.050; -172.000;  -23.000
343.696;  -18.500; -385.000; -314.000
343.830;  -24.900; -362.000; -356.000
343.964;   26.275; -231.000; -168.000
344.098;  903.525;  199.000;   70.000
344.232;  757.725; -266.000; -127.000
344.366;   68.650; -567.000; -453.000
344.500;   65.050; -665.000; -744.000
344.634;   16.050; -324.000; -164.000
344.768;  -20.900; -531.000; -341.000
344.902;   26.875;  278.000;  256.000
345.035;  -77.925; -556.000; -496.000
345.169; -129.475; -933.000; -656.000
345.303;  -38.100; -308.000; -482.000
345.437;  -84.300; -826.000; -717.000
345.571;  -68.275; -675.000; -594.000
345.704;  -75.425; -309.000; -532.000
345.838;   -7.375; -331.000; -284.000
345.972;  -47.400; -543.000; -495.000
346.106;  160.550; -179.000; -190.000
346.239;  400.200; -312.000; -243.000
346.373;    8.350; -343.000; -302.000
346.507; -152.100; -950.000; -962.000
346.640;  148.075;  -30.000;   13.000
346.774;  -62.625; -650.000; -797.000
346.908;  -13.675; -138.000;  -11.000
347.041;  -97.350; -646.000; -593.000
347.175;    8.125;  259.000;   27.000
347.309;  -78.500; -698.000; -628.000
347.442; -101.925; -883.000; -732.000
347.576;  274.450;  670.000;  668.000
347.709;  198.900; -123.000;  -52.000
347.843;  -96.800; -933.000; -825.000
347.976;   46.375;  235.000;  294.000
348.110; -174.750;-1268.000;-1186.000
348.243;  -95.475; -679.000; -772.000
348.377;   -8.700;  -26.000;   60.000
348.510;   54.850;  403.000;  540.000
348.644;  -30.700;  -37.000; -159.000
348.777;    7.475;  180.000;  191.000
348.911;  -52.300; -142.000; -112.000
349.044;  179.675;  471.000;  448.000
349.178;  146.050;-1069.000;-1006.000
349.311;  110.400;  141.000;  255.000
349.444;   -4.475; -927.000; -813.000
349.578;  -20.025; -347.000; -200.000
349.711; -107.200; -959.000; -862.000
349.845;    5.325; -661.000; -591.000
349.978; -146.450;-1224.000;-1137.000
350.111;  -73.650; -546.000; -612.000
350.244;  -81.400; -596.000; -700.000
350.378;    1.175; -392.000; -393.000
350.511;  -77.600; -393.000; -426.000
350.644; -117.500; -808.000; -806.000
350.778;   11.800;  168.000;  104.000
350.911;   19.425;  134.000;  140.000
351.044; -104.375; -685.000; -615.000
351.177;  -39.925; -321.000; -281.000
351.310;  -28.650;    3.000; -131.000
351.444;  -68.200; -888.000; -788.000
351.577;  117.500;  140.000;   90.000
351.710;  106.475;  593.000;  417.000
351.843;  -36.425; -165.000;  -77.000
351.976;    1.625;  149.000;  -79.000
352.109;  -90.700; -621.000; -612.000
352.242;  -19.450; -464.000; -419.000
352.376;  -70.775; -580.000; -636.000
352.509;  162.075; -437.000; -356.000
352.642;    8.525; -654.000; -604.000
352.775;   57.650; -141.000;  -98.000
352.908; -115.400; -933.000; -904.000
353.041;  -89.400; -814.000; -824.000
353.174;  -54.550; -551.000; -424.000
353.307;  -77.375; -753.000; -764.000
353.440;   56.425;  541.000;  453.000
353.573; -111.450; -957.000;-1008.000
353.706;  -66.350; -384.000; -558.000
353.839;  -20.675; -264.000; -220.000
353.971; -100.950; -657.000; -512.000
354.104;  -80.725; -896.000; -835.000
354.237;  -43.350; -627.000; -662.000
354.370;  -80.375; -846.000; -879.000
354.503; -189.600;-1231.000;-1308.000
354.636;  -34.925; -529.000; -348.000
354.769; -133.250; -937.000; -860.000
354.902;    0.375; -230.000; -139.000
355.034;  -25.900; -164.000; -220.000
355.167;  -19.925; -262.000; -162.000
355.300; -106.625;-1061.000; -880.000
355.433;  995.275;  -71.000;  -14.000
355.565; 1515.700; -402.000; -384.000
355.698;  405.925; -356.000; -296.000
355.831;  -10.850; -882.000; -801.000
355.964;   70.625; -285.000; -170.000
356.096;  -91.125; -856.000; -843.000
356.229;   -1.125; -523.000; -530.000
356.362;  331.450; -373.000; -266.000
356.494;  628.350; -229.000; -162.000
356.627;  489.150;  269.000;  377.000
356.760;  669.950;  120.000;   53.000
356.892;  939.675; -286.000; -601.000
357.025;  632.725;  403.000;  389.000
357.157;  592.550; -167.000; -179.000
357.290;  675.025; -856.000; -713.000
357.423;  203.950; -667.000; -556.000
357.555;  114.225; -217.000; -228.000
357.688;  122.900; -483.000; -364.000
357.820;  453.575; -870.000; -877.000
357.953; 3734.700; -563.000; -589.000
358.085;  783.625; -632.000; -612.000
358.218; 1077.925;-1131.000; -932.000
358.350;  201.225;  -58.000;  312.000
358.483; -128.750;-1300.000;-1187.000
358.615;  -23.500;-1182.000;-1078.000
358.747;  -62.100;-1187.000;-1058.000
358.880;   15.925; -810.000; -744.000
359.012;  -23.475; -376.000; -202.000
359.145;  -23.975; -480.000; -511.000
359.277;   61.800; -962.000; -913.000
359.409; 3054.175;  536.000;  231.000
359.542;  784.450; -738.000; -688.000
359.674;   71.600;   46.000;   13.000
359.806;  -61.900; -565.000; -438.000
359.939;  -37.275; -617.000; -516.000
360.071;  -11.325; -583.000; -579.000
360.203;  -19.450; -411.000; -364.000
360.335;   50.850;  164.000;  -16.000
360.468;  201.775; -249.000; -307.000
360.600; 2477.000; -547.000; -454.000
360.732; 2889.525; -546.000; -423.000
360.864;  384.600;-1216.000;-1044.000
360.996;  270.725; -516.000; -554.000
361.129;   28.725; -389.000; -598.000
361.261;   32.675;  110.000; -113.000
361.393;  -39.850; -252.000; -214.000
361.525;   23.125;   94.000;  244.000
361.657;  -42.550; -821.000; -703.000
361.789;   15.025; -139.000; -155.000
361.921;  202.500; -642.000; -593.000
362.053;  255.825;  524.000;  541.000
362.185;   45.950;  288.000;   72.000
362.318;  -79.050; -709.000; -705.000
362.450;  105.300;  294.000;  444.000
362.582;   85.400; -913.000; -870.000
362.714;  -51.750; -353.000; -332.000
362.846;  -73.925; -606.000; -490.000
362.978; -145.250; -941.000; -811.000
363.109;   47.150; -161.000; -260.000
363.241;  416.450; -739.000; -749.000
363.373;  451.650; -649.000; -564.000
363.505;  665.025; -186.000;  -91.000
363.637;  162.925; -787.000; -601.000
363.769; -128.650;-1067.000;-1080.000
363.901;  -66.525; -596.000; -654.000
364.033; -130.025;-1103.000;-1062.000
364.165;    4.775; -283.000; -283.000
364.296;   80.900; -316.000; -177.000
364.428;   70.900;-1344.000;-1220.000
364.560;  -88.250; -679.000; -661.000
364.692;  -58.225; -738.000; -835.000
364.824;  251.250; -588.000; -456.000
364.955;  446.825; -402.000; -564.000
365.087;  947.600;-1097.000; -852.000
365.219;   31.650; -686.000; -816.000
365.351;  -74.400; -526.000; -572.000
365.482;   57.200;  300.000;  240.000
365.614;  -45.925; -402.000; -314.000
365.746;  -91.425; -729.000; -752.000
365.877; -102.175; -706.000; -672.000
366.009;  280.600;  -35.000;  -62.000
366.141;  -92.550;-1249.000;-1134.000
366.272; -116.100; -803.000; -719.000
366.404; -118.500;-1005.000; -874.000
366.535;   -1.575; -139.000;  -12.000
366.667; -109.125; -644.000; -649.000
366.799;   30.400;  353.000;  203.000
366.930; -125.275; -862.000; -996.000
367.062;  132.125; -639.000; -613.000
367.193;  146.350; -872.000; -842.000
367.325;  -51.775; -580.000; -684.000
367.456;   51.750; -246.000;   31.000
367.588;  158.025; -371.000; -318.000
367.719;   14.525;  -44.000;  -45.000
367.851;  -19.475; -222.000; -241.000
367.982;  -64.850; -875.000; -732.000
368.113;  111.450; -475.000; -358.000
368.245; -123.800; -960.000; -841.000
368.376;  -17.000; -254.000; -302.000
368.508;  -37.500; -188.000; -263.000
368.639; -143.225;-1166.000;-1034.000
368.770;  -27.400; -670.000; -589.000
368.902;  -66.375; -836.000; -926.000
369.033; -108.150; -906.000; -855.000
369.164;  -37.775; -720.000; -653.000
369.296; -106.525; -452.000; -601.000
369.427;   -9.275; -209.000; -144.000
369.558;  -55.150; -593.000; -377.000
369.689;  -74.600; -721.000; -569.000
369.821; -147.475; -951.000; -845.000
369.952;  -15.800;   42.000; -108.000
370.083;  -53.325; -229.000; -108.000
370.214;  -87.800; -735.000; -650.000
370.345;   -7.500;   65.000;   81.000
370.477;  -87.425; -810.000; -790.000
370.608;  224.825; -328.000; -264.000
370.739;  -50.675;-1233.000;-1292.000
370.870;  -57.450;-1102.000; -923.000
371.001;   80.325; -378.000; -467.000
371.132;  -93.350; -754.000; -735.000
371.263;   -7.800;  -42.000; -148.000
371.394; -134.225; -841.000; -748.000
371.525;   31.975;  345.000;  225.000
371.657; -108.525; -808.000; -670.000
371.788;   85.425;  103.000;  199.000
371.919;  170.600; -384.000; -304.000
372.050; 3638.425;  -91.000; -156.000
372.181; 1049.975; -188.000; -294.000
372.311;  369.575;   42.000; -127.000
372.442;   40.200; -457.000; -451.000
372.573;  -21.375; -444.000; -340.000
372.704; -129.625;-1008.000; -980.000
372.835;   96.750; -228.000; -289.000
372.966;  -68.800; -646.000; -554.000
373.097;  -78.625; -575.000; -711.000
373.228;  -28.275; -717.000; -542.000
373.359;  134.350; -824.000; -536.000
373.490;  912.350; -881.000; -727.000
373.620; 1136.075;-1001.000; -803.000
373.751; 1758.650; -332.000; -396.000
373.882;  773.700; -663.000; -733.000
374.013;   49.900; -449.000; -262.000
374.143;  -38.100; -581.000; -659.000
374.274; -111.925; -987.000; -908.000
374.405;  168.625; -388.000; -276.000
374.536;  439.600; -526.000; -387.000
374.666; 1086.500; -759.000; -807.000
374.797;  211.300; -817.000; -868.000
374.928;  844.350; -710.000; -560.000
375.058;  856.525; -535.000; -500.000
375.189;   71.875;  -59.000;  -93.000
375.320; -109.250; -928.000;-1034.000
375.450;  -41.750; -625.000; -616.000
375.581;  -58.575; -526.000; -436.000
375.712;  -24.800; -574.000; -250.000
375.842;  292.300; -438.000; -415.000
375.973;  195.450; -554.000; -513.000
376.103;  -62.950; -665.000; -648.000
376.234;  -86.050; -531.000; -552.000
376.364;  -48.100; -944.000; -867.000
376.495;  318.600;  925.000;  529.000
376.625;  -17.375; -472.000; -485.000
376.756;   70.750; -709.000; -678.000
376.886;  -87.850;-1178.000;-1026.000
377.017;   70.050;-1048.000;-1061.000
377.147;  341.250; -786.000; -782.000
377.278;   72.275;  174.000;  228.000
377.408; -125.575; -801.000; -815.000
377.538; -106.075; -707.000; -693.000
377.669;  -88.800; -537.000; -613.000
377.799;  -86.050; -645.000; -635.000
377.929;  -58.650; -610.000; -428.000
378.060; -122.075; -781.000; -847.000
378.190;  -66.975; -726.000; -531.000
378.320;  -59.625; -401.000; -406.000
378.451;  -19.275; -131.000;  -22.000
378.581;  -20.050;  -67.000; -110.000
378.711;  146.825; 1035.000;  866.000
378.841;  -22.925; -533.000; -675.000
378.972;  -84.475; -871.000; -751.000
379.102;   -7.800; -652.000; -579.000
379.232;  -26.825; -126.000;  -73.000
379.362; -111.100;-1001.000; -885.000
379.492;   -6.150; -373.000; -424.000
379.623;  114.700;    0.000;  111.000
379.753; -111.425;-1107.000; -974.000
379.883;  199.725;   59.000;  156.000
380.013;   -6.325;-1081.000;-1017.000
380.143;  -89.975;-1097.000;-1056.000
380.273;  -99.850; -985.000; -861.000
380.403;   -2.225; -344.000; -257.000
380.533;  -33.400; -651.000; -664.000
380.663;   72.275;  173.000;  128.000
380.793; -101.700;-1027.000;-1074.000
380.923;  -17.325; -103.000;  -34.000
381.053; -108.750; -613.000; -623.000
381.183;  -31.075; -106.000; -248.000
381.313;   35.575; -656.000; -470.000
381.443;   31.675; -692.000; -473.000
381.573;  201.675; -402.000; -409.000
381.703;  260.800;-1249.000;-1095.000
381.833; -152.400;-1454.000;-1336.000
381.963;  106.175; -134.000;  -87.000
382.093; 1403.175; -925.000; -909.000
382.223;  408.675; -713.000; -602.000
382.353;  -40.125; -801.000; -608.000
382.482;  352.775;-1091.000; -964.000
382.612;  764.050; -872.000; -644.000
382.742;  415.575; -695.000; -622.000
382.872;  254.150; -565.000; -551.000
383.002;   73.050;  347.000; -132.000
383.131;  -36.400; -226.000; -160.000
383.261;  -51.800; -706.000; -768.000
383.391;  276.850; -552.000; -377.000
383.521; 3275.825;  451.000;  263.000
383.650;  742.700; -947.000; -904.000
383.780;   -3.675; -783.000; -656.000
383.910;  102.150;  880.000;  802.000
384.039;   19.225; -794.000; -656.000
384.169;  197.275;-1205.000;-1017.000
384.299;  -26.425; -650.000; -662.000
384.428;  -98.525; -764.000; -680.000
384.558;  -60.175; -308.000; -275.000
384.687;  -54.650; -414.000; -334.000
384.817;    0.800;   75.000;   -2.000
384.947;    6.550; -234.000; -141.000
385.076;  287.125;  982.000;  912.000
385.206;  109.425;  369.000;  480.000
385.335;  -29.750; -549.000; -417.000
385.465;  -95.100; -655.000; -663.000
385.594;  124.300;  -53.000;  -44.000
385.724;  410.500; -868.000; -838.000
385.853;  106.350; -296.000; -270.000
385.982; 1363.200; -743.000; -787.000
386.112; 2114.500;-1052.000; -871.000
386.241;  138.375; -307.000; -312.000
386.371;    4.875; -174.000;  -87.000
386.500;  -18.075; -825.000; -789.000
386.629;    9.025; -874.000; -817.000
386.759;   43.150;  -43.000;   68.000
386.888;  -10.425; -170.000; -250.000
387.017;  -90.825; -648.000; -620.000
387.147;  -95.475; -771.000; -798.000
387.276;  -12.475; -410.000; -397.000
387.405;    6.550; -398.000; -342.000
387.535;  -36.400; -452.000; -361.000
387.664;  -64.225; -692.000; -620.000
387.793;   53.300; -198.000; -113.000
387.922;  505.875;  255.000;  200.000
388.052;   14.400; -576.000; -423.000
388.181;    4.500; -342.000; -472.000
388.310;  -16.950; -889.000; -710.000
388.439;  -54.975; -749.000; -742.000
388.568;  167.775;  365.000;  244.000
388.697; 1028.300; -756.000; -653.000
388.826;  193.475; -768.000; -666.000
388.956;   56.050; -285.000; -307.000
389.085;  -39.300; -347.000; -287.000
389.214; -105.625; -842.000; -872.000
389.343;  -69.600; -645.000; -413.000
389.472;  415.650;  126.000;  149.000
389.601;  538.600;   91.000;    0.000
389.730;   13.350; -568.000; -687.000
389.859;   62.375;  226.000;   46.000
389.988;  187.625; -423.000; -408.000
390.117;  138.025; -168.000; -146.000
390.246;   -7.175; -331.000; -320.000
390.375;   86.900; -673.000; -626.000
390.504;  -65.000; -703.000; -621.000
390.633; -107.875; -672.000; -726.000
390.761;  -64.025; -732.000; -645.000
390.890;   17.250;   -4.000; -130.000
391.019;  -26.650; -421.000; -441.000
391.148; -132.050; -826.000; -855.000
391.277;  -64.975; -576.000; -493.000
391.406; -102.650; -821.000; -805.000
391.534;   20.050;  574.000; -301.000
391.663;  -70.225; -583.000; -645.000
391.792;  -81.375; -673.000; -701.000
391.921;   91.125;   -3.000;   15.000
392.050;  179.450; -287.000; -228.000
392.178;  -60.125;-1206.000;-1061.000
392.307;  118.550; -758.000; -712.000
392.436;   68.450; -427.000; -641.000
392.564;   26.150;  166.000;   -6.000
392.693; -100.900; -860.000; -682.000
392.822;  180.275; -529.000; -534.000
392.950;   72.100; -880.000; -714.000
393.079;  319.000; -188.000; -328.000
393.208;   30.050; -488.000; -511.000
393.336;  -18.425; -170.000; -145.000
393.465;  -46.775; -317.000; -199.000
393.593;   11.725;   62.000;   79.000
393.722; -154.425;-1121.000; -916.000
393.850;  -42.475; -188.000;  -61.000
393.979; -157.650; -926.000; -805.000
394.107;  -63.725; -517.000; -537.000
394.236;  -33.775; -570.000; -507.000
394.364;  188.400;  383.000;  206.000
394.493;  256.475; -911.000; -767.000
394.621;  -35.425; -955.000; -916.000
394.750;  733.650; -873.000; -923.000
394.878; 2996.225; -247.000; -149.000
395.007; 3973.575; -721.000; -807.000
395.135;  304.225; -790.000; -721.000
395.263;  -86.775;-1038.000;-1040.000
395.392;    1.475;  -25.000; -107.000
395.520; -134.375; -818.000; -679.000
395.648;  -93.725; -865.000; -915.000
395.777;  -21.325; -366.000; -405.000
395.905;  -47.950; -449.000; -564.000
396.033;    9.500;  217.000;  172.000
396.162;  453.425; -399.000; -453.000
396.290;  386.800;  -17.000;   -2.000
396.418;   92.075; -555.000; -514.000
396.546;  -80.925; -571.000; -466.000
396.674; -105.850; -850.000; -878.000
396.803;   10.750;  -72.000;  -23.000
396.931;   75.300; -179.000; -199.000
397.059;   23.225;-1026.000; -989.000
397.187; -107.050;-1026.000; -975.000
397.315; -140.325; -884.000; -649.000
397.443;  -93.950; -592.000; -443.000
397.572;  -91.425; -578.000; -424.000
397.700;  -13.100; -607.000; -614.000
397.828;   -5.875;  120.000;  -90.000
397.956;  -47.175; -508.000; -478.000
398.084;  -72.925; -767.000; -626.000
398.212;   23.400;  137.000;  124.000
398.340;   -1.175;  -56.000;  159.000
398.468;   27.350; -390.000; -169.000
398.596; -147.525; -993.000; -953.000
398.724; -128.175; -762.000; -767.000
398.852; -162.300;-1024.000; -976.000
398.980;  -67.400; -560.000; -560.000
399.108;  -58.775; -982.000; -735.000
399.236;   36.425;   13.000;    8.000
399.363;    2.675;  222.000;  196.000
399.491;  -77.050; -404.000; -398.000
399.619; -130.600; -829.000; -800.000
399.747; -101.025; -859.000; -771.000
399.875;   81.700;  220.000;  234.000
400.003;  -51.450; -359.000; -284.000
400.130; -101.000; -421.000; -341.000
400.258;  -13.825;  -83.000;   38.000
400.386;  -74.150; -352.000; -168.000
400.514;  -53.175; -526.000; -587.000
400.641; -112.900; -928.000; -802.000
400.769; -129.550; -979.000; -888.000
400.897; -132.950; -838.000; -793.000
401.025;  -28.175; -166.000; -152.000
401.152;  -12.525;  220.000;   38.000
401.280;  -90.125; -430.000; -429.000
401.408; -132.500; -712.000; -576.000
401.535; -103.300; -735.000; -758.000
401.663; -196.425;-1134.000;-1054.000
401.790;  -98.475; -514.000; -525.000
401.918;   26.275;  436.000;  405.000
402.046;   -1.725;  134.000;  122.000
402.173;  -50.250;  -18.000;    7.000
402.301;  -66.475; -519.000; -397.000
402.428;   23.000;  528.000;  383.000
402.556; -141.150;-1188.000; -913.000
402.683;  -33.325;  -20.000;   -1.000
402.811;  -13.050;  -37.000; -206.000
402.938;  -20.250;   20.000;   27.000
403.066;  193.225; -574.000; -558.000
403.193;  326.475;  299.000;  239.000
403.321;  256.425; -396.000; -574.000
403.448;  315.850;   83.000;   27.000
403.575;  141.000;  -90.000;  -46.000
403.703; -102.150; -732.000; -557.000
403.830;  -52.525; -531.000; -496.000
403.957; -152.150;-1117.000;-1023.000
404.085;   -1.275;  -61.000; -172.000
404.212;   96.400;  -50.000;   63.000
404.339;  259.125; -566.000; -306.000
404.467; 5947.575; -612.000; -524.000
404.594; 3794.325; -287.000; -227.000
404.721;  870.900; -869.000; -764.000
404.848;   76.050; -113.000; -202.000
404.976; -119.550; -856.000; -783.000
405.103;   -2.950;  -14.000;  -82.000
405.230;   -0.700;  190.000;  226.000
405.357;   23.800;  117.000;   44.000
405.484;  257.425;  -49.000;    5.000
405.612;   42.350; -548.000; -563.000
405.739;  -68.575; -488.000; -243.000
405.866;   80.650;  669.000;  385.000
405.993;  -53.650; -398.000; -102.000
406.120; -140.175; -801.000; -887.000
406.247;  -65.100; -323.000; -342.000
406.374;  418.075;  540.000;  629.000
406.501;   71.300; -632.000; -702.000
406.628;  -83.325; -621.000; -589.000
406.755; -104.375; -803.000; -620.000
406.882;  -35.625; -228.000; -277.000
407.009; -116.000; -719.000; -628.000
407.136;   40.675; -480.000; -401.000
407.263;  106.125; -939.000; -829.000
407.390;  -88.725; -692.000; -614.000
407.517; -178.100;-1139.000;-1187.000
407.644;  -62.675; -332.000; -256.000
407.771;  -59.800; -249.000; -287.000
407.898;    7.100;  168.000;  328.000
408.025;  -90.325; -421.000; -313.000
408.151;  -11.150;   82.000;  153.000
408.278;  -71.150; -267.000; -216.000
408.405; -113.350; -931.000; -899.000
408.532;  -63.500; -549.000; -542.000
408.659; -132.475; -677.000; -648.000
408.785; -194.625;-1298.000;-1170.000
408.912;  -65.300; -412.000; -296.000
409.039; -121.025; -610.000; -686.000
409.166; -104.075; -591.000; -555.000
409.292; -116.100; -571.000; -534.000
409.419; -117.025; -665.000; -649.000
409.546;  -94.875; -431.000; -192.000
409.672; -102.975; -713.000; -545.000
409.799;  -19.600;  -36.000;   34.000
409.926;  -34.300; -180.000; -179.000
410.052; -177.675;-1127.000;-1091.000
410.179;  -54.325; -368.000; -392.000
410.305;  -94.400; -375.000; -493.000
410.432;  -49.100; -220.000; -333.000
410.558;  -95.400; -305.000; -380.000
410.685; -115.700; -688.000; -431.000
410.812; -101.425; -409.000; -588.000
410.938; -142.150; -964.000; -808.000
411.065; -100.775; -671.000; -645.000
411.191;   -6.775; -189.000; -174.000
411.317; -114.075; -823.000; -742.000
411.444;  -59.175; -317.000; -246.000
411.570;  -81.050; -339.000; -294.000
411.697; -134.350; -758.000; -752.000
411.823; -179.075; -989.000; -999.000
411.949;  -24.850;  -56.000;   17.000
412.076; -118.325; -539.000; -519.000
412.202;  -95.900; -758.000; -757.000
412.329; -141.925; -798.000; -752.000
412.455; -110.325; -821.000; -657.000
412.581;  -30.150;  -15.000;  172.000
412.707;  -73.575; -540.000; -457.000
412.834;    7.825;  156.000;  219.000
412.960;  -91.175; -785.000; -784.000
413.086; -106.375; -743.000; -701.000
413.212;  131.925;  604.000;  578.000
413.339;  -80.350; -685.000; -701.000
413.465;    8.150; -364.000; -310.000
413.591; -101.700; -757.000; -474.000
413.717;  -49.450; -358.000; -366.000
413.843; -152.400; -839.000; -861.000
413.969;  -53.400;  -47.000; -292.000
414.096; -108.850; -679.000; -679.000
414.222;   -5.250;  -33.000;   85.000
414.348;  -39.350; -652.000; -385.000
414.474;   91.475;   38.000;  -52.000
414.600;  -13.925; -126.000; -144.000
414.726;  -23.200;  -96.000;  -55.000
414.852;  -64.600; -365.000; -342.000
414.978;   44.125;  104.000;  -18.000
415.104;   34.750;   38.000;   80.000
415.230;   13.250; -329.000; -330.000
415.356;   47.275; -409.000; -514.000
415.482;  195.900;   13.000;  -35.000
415.608;  269.075; -247.000; -323.000
415.734;  999.625;   67.000;   38.000
415.860;20412.125; -875.000; -767.000
415.986;14335.650; -685.000; -607.000
416.111; 1201.800; -798.000; -652.000
416.237;  256.025; -424.000; -571.000
416.363; 1194.650; -765.000; -733.000
416.489; 4225.900; -324.000; -251.000
416.615;  441.425; -707.000; -742.000
416.741;  -32.400; -677.000; -784.000
416.866; -106.775; -673.000; -736.000
416.992; -109.950; -801.000; -818.000
417.118;  -31.525;  -41.000;  -80.000
417.244;  -74.325; -798.000; -531.000
417.369;  -87.900; -801.000; -612.000
417.495;  -16.550; -325.000; -254.000
417.621; -102.650;-1015.000; -803.000
417.746;   -7.450; -579.000; -572.000
417.872;   42.425; -254.000; -144.000
417.998;   58.050; -515.000; -530.000
418.123; 1125.825;-1073.000; -845.000
418.249; 5547.900; -512.000; -601.000
418.374;  728.300; -916.000; -824.000
418.500;  110.300; -383.000; -482.000
418.626;  102.500;   70.000;  -59.000
418.751;  114.825; -549.000; -448.000
418.877;  187.650; -637.000; -643.000
419.002; 1895.600; -688.000; -560.000
419.128;12878.875; -930.000; -721.000
419.253; 3054.400; -967.000; -837.000
419.379;  401.725; -391.000; -338.000
419.504;  390.500;  325.000;  415.000
419.629;  511.650; -393.000; -212.000
419.755; 3727.275; -317.000; -254.000
419.880;21655.400;  -98.000;   67.000
420.006;11686.950; -280.000; -221.000
420.131;29733.675; -662.000; -775.000
420.256; 4152.925; -315.000; -316.000
420.382;  541.350; -665.000; -687.000
420.507;   65.850; -649.000; -778.000
420.632;  128.850; -337.000; -339.000
420.758;  230.200; -251.000; -425.000
420.883;  -84.150; -876.000; -672.000
421.008; -108.675; -775.000; -619.000
421.133;  -86.375; -509.000; -467.000
421.259;  -64.275; -325.000; -259.000
421.384; -127.925; -834.000; -693.000
421.509;  -56.325;-1052.000; -862.000
421.634; 1100.125; -936.000; -820.000
421.759;  466.050; -359.000; -327.000
421.885;  -63.375; -717.000; -656.000
422.010;  -82.150; -673.000; -542.000
422.135; -150.750; -695.000; -727.000
422.260;   31.575;  340.000;  280.000
422.385;  -42.125;   12.000;  -98.000
422.510;    7.000;  151.000;  -26.000
422.635;   13.675;  -87.000;  -43.000
422.760;   99.400; -766.000; -791.000
422.885;   59.075;  -57.000;  -80.000
423.010;  -42.725; -112.000; -169.000
423.135; -106.125; -481.000; -561.000
423.260;  -26.375; -150.000; -245.000
423.385;   67.250;  476.000;  222.000
423.510;   34.000;   71.000;  -22.000
423.635;   75.325;  133.000;   45.000
423.760;   67.725;  383.000;  328.000
423.885;   49.200;  336.000;  391.000
424.010;    3.575;  -68.000;  -13.000
424.135;  -24.325;    5.000;  -33.000
424.259;  -77.650; -654.000; -457.000
424.384;  -66.175; -279.000; -272.000
424.509;  -24.675; -260.000; -186.000
424.634; -103.225; -761.000; -623.000
424.759;  -17.725; -688.000; -544.000
424.883;  -24.425; -506.000; -527.000
425.008;  175.950; -502.000; -410.000
425.133; 2047.000; -679.000; -653.000
425.258;  944.750; -517.000; -381.000
425.382; 1062.575; -867.000; -774.000
425.507; 2596.375; -487.000; -543.000
425.632;  421.150; -802.000; -663.000
425.756;  472.250; -256.000; -146.000
425.881; 6968.200; -831.000; -857.000
426.006;18167.400; -604.000; -355.000
426.130; 2764.450; -696.000; -508.000
426.255;  359.325; -611.000; -491.000
426.379;  145.625; -189.000; -577.000
426.504;  387.225;  660.000;  544.000
426.629; 4123.025; -519.000; -466.000
426.753; 2728.900;   64.000;  -46.000
426.878;  303.625; -252.000; -288.000
427.002;  182.350; -651.000; -668.000
427.127; 1652.425;  -35.000; -158.000
427.251;11651.900;  372.000;  401.000
427.375; 3256.150; -191.000; -173.000
427.500; 2289.700; -616.000; -610.000
427.624;  767.575; -234.000; -400.000
427.749;   83.725; -216.000; -225.000
427.873;  -45.200; -499.000; -412.000
427.997;  -39.175; -222.000; -230.000
428.122;   65.950;  795.000;  703.000
428.246;   70.075;  433.000;  434.000
428.371; -129.225; -869.000; -773.000
428.495; -104.125; -624.000; -646.000
428.619;  -43.750; -186.000; -117.000
428.743;   10.950;   65.000;  132.000
428.868;    9.525; -732.000; -643.000
428.992; 1405.025; -219.000; -326.000
429.116;  545.600; -329.000; -357.000
429.240;  255.175;  419.000;  426.000
429.365;  -28.475; -454.000; -574.000
429.489;  -53.725; -638.000; -647.000
429.613;   30.425; -236.000; -177.000
429.737;   46.875; -563.000; -432.000
429.861;  251.150; -247.000; -133.000
429.985; 5737.975; -425.000; -305.000
430.109; 6132.175; -770.000; -908.000
430.234;  694.975;   76.000;  -50.000
430.358;   51.200; -250.000; -160.000
430.482;  -74.925; -672.000; -564.000
430.606;  -85.025; -655.000; -375.000
430.730;    5.700; -437.000; -388.000
430.854;  104.150; -909.000; -835.000
430.978;  -78.775; -795.000; -764.000
431.102;  -88.375; -499.000; -422.000
431.226; -118.425; -874.000; -815.000
431.350;   19.100;  345.000;  422.000
431.474;  -87.225; -661.000; -373.000
431.597; -163.375;-1060.000; -848.000
431.721;  -80.825; -276.000; -267.000
431.845; -129.075; -704.000; -472.000
431.969;  -78.500; -304.000; -349.000
432.093; -116.825; -395.000; -317.000
432.217;   -1.275;   32.000;   82.000
432.341;  -91.875; -523.000; -518.000
432.464;   -5.250;   96.000;   40.000
432.588;  175.350; -401.000; -329.000
432.712;   85.900;  -52.000;  -52.000
432.836;   36.325;  213.000;  263.000
432.959;  -25.675; -372.000; -311.000
433.083;   82.950;   11.000;    2.000
433.207;  367.400;  285.000;  930.000
433.330; 5246.925; -391.000; -200.000
433.454; 6331.150; -654.000; -638.000
433.578; 3656.350;  583.000;  278.000
433.701;  649.750; -623.000; -675.000
433.825;  136.000; -292.000; -299.000
433.949;  159.625;   28.000;  -72.000
434.072;   48.650; -410.000; -323.000
434.196;   -7.700; -309.000; -117.000
434.319; 3780.625;25482.000;25124.000
434.443;  737.475; -656.000; -603.000
434.566; 2691.975;  281.000;   62.000
434.690;  427.025; -637.000; -383.000
434.813;   31.925; -251.000; -173.000
434.937;  -88.000; -569.000; -696.000
435.060;  -54.300; -423.000; -332.000
435.184;  276.625; -492.000; -217.000
435.307;  141.150;  159.000;  102.000
435.431;  -20.125;  -40.000;   24.000
435.554;  -69.900; -399.000; -240.000
435.677;  -88.475; -350.000; -258.000
435.801;  -40.075;  -25.000;   49.000
435.924;  -11.525;    1.000;  -67.000
436.048; -122.925;-1019.000; -732.000
436.171;  -71.600; -240.000;  -66.000
436.294;  -36.875; -248.000; -229.000
436.417;   85.475; -963.000; -849.000
436.541;  -93.075; -814.000; -840.000
436.664;  -53.875; -242.000; -316.000
436.787;  -32.225;   13.000;  113.000
436.910; -120.050; -792.000; -422.000
437.034;   -8.225;  142.000;  143.000
437.157;   46.675;  -11.000;    0.000
437.280;  -63.700; -392.000; -292.000
437.403;  -91.050; -982.000; -869.000
437.526;  586.425; -903.000; -865.000
437.649; 2132.175; -505.000; -332.000
437.772;  297.100; -692.000; -540.000
437.896;  122.700;  700.000;  544.000
438.019; -107.825; -758.000; -503.000
438.142;  -82.825; -596.000; -506.000
438.265;  -25.650; -639.000; -670.000
438.388;  532.425; -520.000; -410.000
438.511;   69.725; -597.000; -394.000
438.634;  -56.175; -247.000; -125.000
438.757; -142.225; -693.000; -619.000
438.880;  -25.725;  -34.000;  -57.000
439.003;  -87.225; -417.000; -437.000
439.126;  -60.350; -287.000; -167.000
439.248;  -80.750;  -98.000; -139.000
439.371;  -33.150;    9.000;  -53.000
439.494;   25.675;  510.000;  439.000
439.617;  -38.075;   65.000;  -88.000
439.740; -182.425; -968.000; -816.000
439.863; -148.950; -755.000; -595.000
439.986; -132.825; -476.000; -431.000
440.108;  -48.175; -161.000; -112.000
440.231; -167.625; -950.000; -836.000
440.354;  -56.575;  -64.000; -150.000
440.477;   18.275; -566.000; -542.000
440.599;  -13.225; -200.000; -225.000
440.722; -124.025; -709.000; -586.000
440.845;   65.025;  751.000;  928.000
440.968; -118.675; -415.000; -311.000
441.090;  -54.150; -199.000;  -33.000
441.213; -174.025;-1021.000; -825.000
441.336;  -58.425; -159.000;   -5.000
441.458;  -90.875; -549.000; -396.000
441.581;  -80.050; -628.000; -629.000
441.703;  -75.375; -152.000;   13.000
441.826; -114.425; -557.000; -400.000
441.948;  -59.600;   56.000;   51.000
442.071;   23.775;  555.000;  424.000
442.193; -130.050; -531.000; -485.000
442.316;    7.775;  152.000;   97.000
442.438;   37.500; -233.000;  -10.000
442.561;   66.625;  272.000;  262.000
442.683;  515.725; -809.000; -522.000
442.806; 1119.950;   -8.000;   74.000
442.928;    6.200; -859.000; -604.000
443.051;  -70.300; -577.000; -373.000
443.173;  -99.425; -341.000; -339.000
443.295;  -88.600; -263.000; -371.000
443.418;  -83.325; -321.000;  -29.000
443.540;  -13.600; -106.000;   -4.000
443.662; -113.925; -563.000; -465.000
443.785;   -9.625;  335.000;  199.000
443.907; -111.675; -362.000; -208.000
444.029; -131.650; -767.000; -494.000
444.152; -142.050; -644.000; -554.000
444.274;  -31.825;  -18.000;  -24.000
444.396; -123.075; -461.000; -221.000
444.518; -129.400; -691.000; -454.000
444.640; -109.975; -268.000; -111.000
444.763;  -27.500;  388.000;  249.000
444.885; -119.900; -432.000; -392.000
445.007;  -31.525;   35.000;   86.000
445.129; -127.150; -610.000; -515.000
445.251;  -97.225; -372.000; -439.000
445.373; -143.175; -537.000; -386.000
445.495;   -0.200;  242.000;  350.000
445.617;   45.750;  853.000;  753.000
445.739;  -62.125; -215.000;  -97.000
445.861;  -40.950; -245.000; -112.000
445.984;  -36.250; -267.000; -101.000
446.105;  177.200; -418.000; -251.000
446.227;  594.275; -176.000;  -19.000
446.349;   -1.050; -358.000; -249.000
446.471; -110.200; -615.000; -448.000
446.593;  -59.350; -316.000;   19.000
446.715;  -18.875;  -67.000;   41.000
446.837;   57.050;  697.000;  832.000
446.959;  -91.300; -457.000; -478.000
447.081; -138.300; -628.000; -518.000
447.203;   57.950;  862.000;  834.000
447.325;  -92.225; -270.000;   42.000
447.446;  -17.075;  286.000;  530.000
447.568; -173.425; -921.000; -803.000
447.690;  -82.800; -236.000; -245.000
447.812; -160.325; -798.000; -519.000
447.933;  -43.675;  155.000;  127.000
448.055;  -89.675; -306.000; -261.000
448.177;  134.700;   31.000;   79.000
448.299;   69.450; -935.000; -727.000
448.420;   10.050;  -25.000;  159.000
448.542;  -52.725;   -3.000;   33.000
448.664;  -21.800;  109.000;  322.000
448.785;  -40.500;  265.000;   83.000
448.907;  -83.525; -614.000; -353.000
449.028;  -55.625; -771.000; -471.000
449.150;   60.350;  492.000;  589.000
449.272; -177.200;-1044.000; -913.000
449.393;   29.625;  612.000;  694.000
449.515; -152.075; -634.000; -581.000
449.636;  -50.650; -264.000; -155.000
449.758;   64.550;  763.000;  622.000
449.879;  -97.250; -498.000; -396.000
450.001;  -95.300; -149.000;  -49.000
450.122;  -32.475;  -95.000;  162.000
450.244;  -27.500;   37.000;  364.000
450.365;  -93.825; -495.000; -301.000
450.486;  -27.475;   80.000;  268.000
450.608;   16.650;  393.000;  326.000
450.729;   73.800;  578.000;  645.000
450.850;    0.925; -574.000; -466.000
450.972;  779.000; -552.000; -389.000
451.093; 5070.175;  190.000;  588.000
451.214; 2129.650; -516.000; -337.000
451.336;  357.650;  773.000;  579.000
451.457;   61.425;  264.000;  393.000
451.578;  -39.250; -118.000;  -74.000
451.699; -122.550; -546.000; -540.000
451.821;  -63.950; -284.000;  -50.000
451.942;   -0.550;  278.000;  285.000
452.063;   29.400;  228.000;  419.000
452.184;  560.650;  -54.000;  -49.000
452.305; 1093.200;  103.000;  170.000
452.427;  111.000; -549.000; -301.000
452.548;  -13.275;   23.000;   79.000
452.669;  -61.825; -257.000;  -89.000
452.790;  -34.975;    3.000;  -18.000
452.911;  -15.075;  195.000;  259.000
453.032;  -81.275; -289.000;  -60.000
453.153;  -51.075;  -29.000;   81.000
453.274;   67.000;  737.000;  868.000
453.395;  -54.650;  -51.000;  175.000
453.516;  141.050; 1317.000; 1388.000
453.637;  -83.825; -205.000; -150.000
453.758;  -41.425;   15.000;   69.000
453.879; -116.650; -462.000; -250.000
454.000;   81.000; 1086.000;  948.000
454.121; -113.225; -554.000; -326.000
454.242; -112.400; -599.000; -383.000
454.362;  -60.875;  -99.000;  114.000
454.483;  -40.125; -309.000; -229.000
454.604;   47.425;  512.000;  580.000
454.725; -120.400; -627.000; -555.000
454.846; -132.075; -474.000; -406.000
454.967;  -25.500;  230.000;  539.000
455.087;  -52.575;  179.000;  153.000
455.208;   28.725;  554.000;  856.000
455.329;  -63.600;  -22.000;   82.000
455.450;   46.075;  473.000;  633.000
455.570;  -89.225; -234.000; -211.000
455.691;  -43.600;  201.000;  407.000
455.812; -120.775; -270.000;  -92.000
455.932;  -71.275;  107.000;  -97.000
456.053;  -91.000;   36.000;   24.000
456.173; -110.575; -433.000; -355.000
456.294; -132.300; -476.000; -303.000
456.415;  -66.575;  -73.000;   70.000
456.535;  -47.025;  297.000;  273.000
456.656;  -41.425;  132.000;  240.000
456.776;  -73.925;    3.000;  298.000
456.897;   -1.000;  308.000;  513.000
457.017;  -78.250; -153.000;   -3.000
457.138; -112.400; -402.000; -249.000
457.258;  -26.750;  263.000;  224.000
457.379;   -7.975;  509.000;  521.000
457.499;  -44.525;  443.000;  432.000
457.620; -124.175; -407.000; -231.000
457.740; -112.100; -132.000;  -11.000
457.860;  -62.450;   87.000;   44.000
457.981;  -61.025;  132.000;  124.000
458.101;  -71.300;  -89.000;   40.000
458.221;  -34.475;  336.000;  402.000
458.342;  -61.450;   -4.000;  -37.000
458.462;   18.525;  617.000;  352.000
458.582;  -41.500; -302.000; -294.000
458.703;    5.875;  303.000;  154.000
458.823;  -37.700;   22.000;  163.000
458.943;   14.050;  341.000;  467.000
459.063;  -14.125; 1124.000;  192.000
459.183;  -36.275;  328.000;  313.000
459.304;   -4.725;  315.000;  517.000
459.424;  -81.325; -246.000;  -89.000
459.544;  344.575;  388.000;  764.000
459.664;  856.700;  499.000;  506.000
459.784;  311.925; 1004.000; 1175.000
459.904;   62.425;  867.000;  744.000
460.024;   77.875;  867.000;  684.000
460.144;    7.700;  449.000;  554.000
460.264;   -7.525;  515.000;  327.000
460.385; -111.100; -145.000; -119.000
460.505;   35.075;  905.000;  858.000
460.625;  -93.175;  -17.000;  -68.000
460.745;  -18.800;  396.000;  541.000
460.864;  -53.900;  153.000;  469.000
460.984;    0.925;  499.000;  573.000
461.104;  135.450; 1656.000; 1775.000
461.224;   16.875;  657.000;  650.000
461.344;  -17.550;  431.000;  360.000
461.464;  -38.675;  258.000;  513.000
461.584;  -30.325;  283.000;  466.000
461.704;  -54.450;   58.000;  108.000
461.824;  -71.100;  238.000;  259.000
461.943;  -48.275;  191.000;  130.000
462.063;  -69.525;    2.000;  324.000
462.183;   22.900;  639.000;  717.000
462.303;   96.450; 1678.000; 1230.000
462.422;   30.500;  781.000;  840.000
462.542;  -39.775;  271.000;  391.000
462.662;   34.675;  353.000;  380.000
462.782;  231.800;  833.000;  572.000
462.901;  478.950;  545.000;  717.000
463.021;  296.800; 1702.000; 1638.000
463.141;  -17.775;  337.000;  770.000
463.260;  -19.125;  614.000;  474.000
463.380;   -2.750;  902.000;  884.000
463.499;  -35.950;  342.000;  332.000
463.619;  -27.600;  581.000;  559.000
463.738;   94.125; 1644.000;  903.000
463.858;   28.425;  657.000;  811.000
463.978;  -59.750;  542.000;  396.000
464.097;   54.225;  921.000; 1114.000
464.217;  122.775; 1196.000; 1143.000
464.336;  113.400; 1068.000; 1130.000
464.455;  -35.550;  328.000;  659.000
464.575;   39.200;  597.000;  602.000
464.694;  167.500; 1204.000; 1179.000
464.814;  129.600; 1190.000; 1138.000
464.933;   62.450; 1095.000; 1027.000
465.052;   90.825; 1412.000; 1054.000
465.172;   63.750;  922.000;  799.000
465.291;  127.475; 1376.000; 1320.000
465.410;    7.475;  462.000;  735.000
465.530;   87.425; 1355.000; 1310.000
465.649;   50.350; 1209.000; 1273.000
465.768;  149.825; 1673.000; 1508.000
465.888;   52.150;  941.000; 1174.000
466.007;  103.100; 1335.000; 1440.000
466.126;    1.150;  721.000;  641.000
466.245;   53.375; 1176.000; 1187.000
466.364;   14.600;  950.000; 1060.000
466.484;   60.325; 1024.000; 1213.000
466.603;   25.875; 1101.000; 1222.000
466.722;  121.300; 1490.000; 1769.000
466.841;   68.025; 1151.000; 1401.000
466.960;   54.350; 1069.000;  972.000
467.079;  134.800; 1971.000; 1786.000
467.198;   49.775; 1238.000; 1181.000
467.317;   90.475; 1768.000; 1162.000
467.436;   68.700; 1709.000; 1261.000
467.555;  121.425; 1796.000; 1746.000
467.674;   74.625; 1227.000; 1329.000
467.793;   57.325; 1376.000; 1374.000
467.912;   91.525; 1658.000; 1539.000
468.031;  140.775; 2038.000; 1930.000
468.150;  145.025; 1842.000; 1837.000
468.269;  189.600; 2313.000; 2090.000
468.388;  201.000; 2168.000; 2339.000
468.507;  241.150; 2884.000; 2903.000
468.626;  244.050; 2555.000; 2541.000
468.744;  119.050; 2018.000; 2174.000
468.863;  203.225; 2312.000; 2523.000
468.982;   70.625; 1503.000; 1555.000
469.101;  231.375; 2788.000; 2692.000
469.220;  144.975; 2333.000; 2176.000
469.338;  244.450; 2935.000; 3051.000
469.457;  184.725; 2719.000; 2545.000
469.576;  339.825; 3953.000; 3784.000
469.695;  237.025; 2877.000; 3066.000
469.813;  422.050; 4148.000; 4192.000
469.932;  395.500; 4255.000; 4485.000
470.051;  426.500; 4075.000; 4161.000
470.169;  859.525; 4470.000; 4338.000
470.288; 1518.650; 4700.000; 4809.000
470.406;  861.400; 5059.000; 5194.000
470.525;  633.750; 6101.000; 5787.000
470.644;  650.475; 6847.000; 6794.000
470.762;  819.900; 8397.000; 7873.000
470.881;  903.900; 8651.000; 8464.000
470.999; 1033.525; 9685.000; 9151.000
471.118; 1101.550;11174.000;10711.000

