
Integration time [ms]: 100.000
Averaging Nr. [scans]: 40
Smoothing Nr. [pixels]: 0
Data measured with spectrometer [name]: 2101012U2
Wave   ;Sample   ;Dark     ;Reference
[nm]   ;[counts] ;[counts] ;[counts] 

197.733;   59.900;  516.000;  404.000
197.879;  -83.875; -610.000; -634.000
198.025;  -51.300; -475.000; -420.000
198.171;  -71.600; -602.000; -612.000
198.317;   -9.325; -401.000; -316.000
198.463;  -68.000; -655.000; -404.000
198.609;   27.025;  181.000; -137.000
198.755;  -73.225; -644.000; -410.000
198.901;  -66.725; -505.000; -424.000
199.047;  -64.500; -615.000; -488.000
199.193;  -37.400; -230.000; -468.000
199.339;  -40.075; -222.000; -369.000
199.485;   31.900;  330.000;  271.000
199.631;    6.450;  227.000;  310.000
199.777;  -55.600; -466.000; -398.000
199.923;  -49.700; -610.000; -424.000
200.069;    0.950; -141.000;  -58.000
200.215;   48.250;  128.000;  453.000
200.361;   47.900;  243.000;  477.000
200.507;  -66.050; -600.000; -373.000
200.653;  -25.400; -371.000; -194.000
200.798;  -46.925; -215.000; -125.000
200.944;    3.650; -146.000;  -41.000
201.090;   39.450;   61.000;  222.000
201.236;  -12.075; -116.000; -158.000
201.382;  124.300;  874.000;  903.000
201.528;   -7.075;  -58.000;  -48.000
201.674;  -46.450; -386.000; -293.000
201.819;  -72.600; -540.000; -439.000
201.965;  -85.900; -699.000; -447.000
202.111;  -31.900; -273.000; -226.000
202.257;  -33.875; -250.000; -238.000
202.402;    4.850;   13.000;  -36.000
202.548;  -26.900; -169.000; -116.000
202.694;   88.825;  410.000; -183.000
202.840;  -74.350; -603.000; -531.000
202.985;  -74.750; -681.000; -639.000
203.131; -108.600; -832.000; -666.000
203.277;  -25.525; -199.000; -262.000
203.423;  -46.450; -434.000; -520.000
203.568;  -36.775; -462.000; -237.000
203.714;  -70.100; -535.000; -542.000
203.860;  -77.175; -682.000; -641.000
204.005;   10.175;  112.000;  167.000
204.151;   85.025;  561.000;  556.000
204.296;  -43.700; -354.000; -221.000
204.442;  -69.325; -600.000; -547.000
204.588;  -71.950; -592.000; -579.000
204.733;   28.250;  178.000;  168.000
204.879; -127.375;-1018.000; -822.000
205.025;   11.175;  -99.000;  126.000
205.170;    3.475;  -17.000;   94.000
205.316;   87.475;  438.000;  661.000
205.461;  -97.475; -698.000; -554.000
205.607;   83.475;  609.000;  665.000
205.752;  -75.250; -626.000; -551.000
205.898;  -55.675; -501.000; -391.000
206.043;  -75.650; -578.000; -506.000
206.189;  -47.575; -243.000; -285.000
206.334;   84.325;  554.000;  606.000
206.480;   84.650;  409.000;  239.000
206.625;  -94.550; -529.000; -552.000
206.771;  -32.650; -451.000; -373.000
206.916;  -30.775; -210.000; -537.000
207.062;  -66.250; -545.000; -591.000
207.207;  -53.450; -546.000; -443.000
207.353;   60.100;  185.000;  460.000
207.498;    9.025;  196.000;   85.000
207.643;  -70.275; -501.000; -370.000
207.789; -122.225;-1069.000; -910.000
207.934;  -89.725; -665.000; -713.000
208.080;  -35.500; -154.000;   66.000
208.225;   -0.900;  -22.000;  -57.000
208.370;  -90.625; -727.000; -619.000
208.516;  -88.675; -741.000; -487.000
208.661;  -41.150; -127.000;  -69.000
208.806;  -37.025; -165.000; -171.000
208.952; -130.025;-1044.000; -731.000
209.097;   90.425;  378.000;  349.000
209.242;  -53.125; -307.000; -382.000
209.387;   69.350;  392.000;  350.000
209.533;  -49.500; -321.000; -350.000
209.678;   68.925;  472.000;  543.000
209.823;  -58.275; -408.000; -310.000
209.969; -108.250; -860.000; -757.000
210.114;  -94.775; -907.000; -719.000
210.259; -111.575; -939.000; -889.000
210.404;    6.450; -171.000;  103.000
210.549;    4.500;  108.000;    3.000
210.695;  -12.925;   -3.000;  -95.000
210.840;   30.000;   94.000;   67.000
210.985;  -60.475; -484.000; -303.000
211.130;   77.225;  268.000;  406.000
211.275;   14.625;  207.000;  199.000
211.420;  -54.750; -300.000; -289.000
211.566;  -82.050; -536.000; -489.000
211.711;   35.500;  218.000;  157.000
211.856;  -65.200; -545.000; -519.000
212.001;   10.375;  151.000;   44.000
212.146;    8.400;  153.000;   49.000
212.291;  -24.500; -210.000; -186.000
212.436;  -30.950; -280.000;   -6.000
212.581;  -84.200; -685.000; -653.000
212.726;  -83.775; -487.000; -538.000
212.871;  -44.125; -552.000; -217.000
213.016; -149.725;-1172.000;-1029.000
213.161;   63.175;  406.000;  291.000
213.306;  -72.000; -435.000; -577.000
213.451;  -94.625; -778.000; -689.000
213.596;  -48.550; -455.000; -347.000
213.741;  -50.600; -448.000; -538.000
213.886;  -71.100; -498.000; -517.000
214.031;  -23.925; -294.000; -124.000
214.176;  -46.025; -408.000; -341.000
214.321;  -13.325; -296.000; -157.000
214.466;  -32.025; -163.000;  -43.000
214.611;  -12.200;  -61.000;  -10.000
214.756; -112.125; -948.000; -858.000
214.901;  -32.050; -388.000; -226.000
215.046; -124.850; -797.000; -825.000
215.191;   15.650;  128.000;   35.000
215.336;  -16.000; -157.000;  -19.000
215.480;  -78.825; -684.000; -505.000
215.625;  -17.275; -175.000;  -19.000
215.770;  -86.625; -757.000; -662.000
215.915;   -2.775;   -5.000;  -97.000
216.060;   -0.650; -113.000;  -21.000
216.205; -107.225; -731.000; -779.000
216.349;  -69.925; -470.000; -533.000
216.494; -137.225; -939.000; -867.000
216.639; -126.275; -823.000; -888.000
216.784;  -84.725; -577.000; -525.000
216.929;   42.575;  392.000;  281.000
217.073;   -9.425; -244.000;  -31.000
217.218;    6.450;   78.000;  -47.000
217.363;  -82.575; -656.000; -618.000
217.507;  -87.400; -623.000; -588.000
217.652; -123.550; -845.000; -874.000
217.797;  -90.650; -708.000; -659.000
217.942; -105.200; -856.000; -720.000
218.086;   66.200;  608.000;  539.000
218.231;  -17.100; -174.000;  -26.000
218.376;  -27.500; -337.000; -229.000
218.520;   -4.300;  -41.000;   96.000
218.665;  -22.500; -338.000; -204.000
218.810;  -46.475; -275.000; -233.000
218.954;   20.750;  201.000;   35.000
219.099; -120.000; -713.000; -963.000
219.243;  -80.300; -589.000; -554.000
219.388;  -28.150; -264.000; -136.000
219.532;   -8.575; -116.000; -116.000
219.677;  -63.175; -564.000; -521.000
219.822;    3.625;   33.000;   89.000
219.966;    6.800;   17.000;  -99.000
220.111;  -31.275; -328.000;  -40.000
220.255;  -92.750; -797.000; -750.000
220.400;  -28.800; -180.000; -146.000
220.544;  -72.800; -516.000; -450.000
220.689;  -52.850; -422.000; -451.000
220.833;  -19.050; -123.000;  -58.000
220.978;  -47.300; -393.000; -563.000
221.122;   35.050;  319.000;  307.000
221.267; -122.625; -906.000; -837.000
221.411;  -60.850; -478.000; -394.000
221.555;  -12.625; -104.000;  -23.000
221.700;  -55.450; -329.000; -222.000
221.844;   31.075;  255.000;  272.000
221.989;  -62.325; -328.000; -311.000
222.133;  -42.925; -289.000; -307.000
222.277;   -3.900;    5.000;   78.000
222.422;   11.150;  227.000;  113.000
222.566;  -47.650; -381.000; -214.000
222.711;  -49.500; -414.000; -479.000
222.855;  -73.025; -643.000; -586.000
222.999;  -86.400; -642.000; -717.000
223.144;  -29.425; -195.000; -194.000
223.288;   37.275;  423.000;  251.000
223.432;   27.475;  184.000;  230.000
223.576;   20.075;  152.000;  -21.000
223.721;   35.525;  364.000;  273.000
223.865;  -66.275; -472.000; -475.000
224.009;  222.650; 1673.000; 1631.000
224.153;  -76.225; -660.000; -671.000
224.298;  -69.600; -531.000; -489.000
224.442;  -12.800;  -74.000;  -33.000
224.586;  -16.250; -169.000; -106.000
224.730; -100.350; -858.000; -670.000
224.875;  -94.475; -739.000; -688.000
225.019;    9.650;  102.000;  188.000
225.163;   48.950;  208.000;  341.000
225.307;   13.500;   97.000;  -91.000
225.451;   38.275;  360.000;  481.000
225.595;   22.200;  264.000;  176.000
225.739;   -4.675; -170.000;  -94.000
225.884;    0.575;   86.000;    5.000
226.028;  -97.075; -760.000; -626.000
226.172;  -43.325; -260.000; -273.000
226.316; -128.025; -941.000; -902.000
226.460;  -60.575; -645.000; -493.000
226.604;  -54.425; -406.000; -400.000
226.748;  -97.875; -836.000; -733.000
226.892;  -36.250; -227.000; -181.000
227.036;  -42.925; -537.000; -447.000
227.180;  -51.075; -551.000; -375.000
227.324;  -62.675; -561.000; -580.000
227.468; -112.375; -819.000; -717.000
227.612;   19.425;  242.000;  -28.000
227.756;  -99.425; -845.000; -698.000
227.900;   53.825;  342.000;  441.000
228.044;  -62.625; -509.000; -290.000
228.188;   50.825;  448.000;  568.000
228.332;  -90.700; -546.000; -472.000
228.476;  -27.100; -223.000; -149.000
228.620;  -25.875; -210.000; -150.000
228.764;   64.425;  431.000;  349.000
228.908;  -13.625; -155.000;   30.000
229.052;  -79.125; -615.000; -528.000
229.195;  -25.825; -172.000;   13.000
229.339;  -29.825; -235.000; -305.000
229.483;  -27.350;    5.000; -162.000
229.627;   -1.275; -156.000;  139.000
229.771;  -50.500; -218.000; -294.000
229.915;    0.975;  230.000;   79.000
230.059;  -89.625; -648.000; -663.000
230.202;  -37.575; -370.000; -317.000
230.346;  -18.850; -107.000;  107.000
230.490;  -57.850; -489.000; -521.000
230.634; -113.000; -736.000; -553.000
230.777;   90.525;  478.000;  509.000
230.921;  -55.550; -450.000; -359.000
231.065;  -62.525; -246.000; -286.000
231.209;   16.000;  261.000;  265.000
231.352;   20.275;   54.000;   40.000
231.496;   27.575;  568.000;  188.000
231.640;  -77.300; -693.000; -621.000
231.783;   59.750;  546.000;  525.000
231.927;  -41.500; -294.000; -365.000
232.071; -121.975; -962.000; -736.000
232.214; -117.475; -980.000; -764.000
232.358;  -93.950; -683.000; -599.000
232.502;    1.325;  -19.000;    7.000
232.645; -129.725;-1090.000; -927.000
232.789;  -23.975; -257.000; -218.000
232.933;  -40.625; -407.000; -224.000
233.076; -123.400;-1038.000; -897.000
233.220; -102.950; -752.000; -777.000
233.363;  -60.000; -669.000; -477.000
233.507;   65.825;  371.000;  129.000
233.650;  -98.450; -764.000; -834.000
233.794;   51.425;  438.000;  461.000
233.938;  -63.000; -530.000; -362.000
234.081;  -24.750;  -93.000;   31.000
234.225;  -76.750; -631.000; -539.000
234.368; -111.525; -773.000; -723.000
234.512;  -38.250; -385.000; -299.000
234.655;  -85.650; -582.000; -555.000
234.798;  -70.925; -493.000; -466.000
234.942; -120.925; -884.000;-1002.000
235.085;  -71.050; -651.000; -443.000
235.229;  -72.175; -405.000; -410.000
235.372;  -48.800; -247.000; -191.000
235.516;  -65.250; -397.000; -321.000
235.659;   18.625;   92.000;  121.000
235.802;  -24.050;  -38.000;  -22.000
235.946;   24.750;  335.000;  215.000
236.089;   27.400;  126.000;  250.000
236.233;   60.800;  275.000;  298.000
236.376;  -53.375; -235.000; -378.000
236.519;  -44.500; -297.000; -319.000
236.663;  -29.025; -215.000; -117.000
236.806; -142.375;-1029.000; -999.000
236.949;   60.625;  543.000;  431.000
237.092;   57.600;  412.000;  391.000
237.236;  -82.950; -589.000; -502.000
237.379;   61.250;  352.000;  428.000
237.522; -104.825; -879.000; -768.000
237.666;  -23.025; -271.000;   18.000
237.809; -123.650; -851.000; -823.000
237.952;   36.375;  469.000;  271.000
238.095;  -60.125; -447.000; -442.000
238.238;   85.925;  688.000;  700.000
238.382;  -18.950;  166.000;  103.000
238.525;  -75.800; -598.000; -511.000
238.668; -129.950;-1060.000; -985.000
238.811;  -90.975; -638.000; -643.000
238.954;  -72.350; -483.000; -334.000
239.097;   92.925;  617.000;  664.000
239.241;   14.625;  394.000;  326.000
239.384;  -29.325; -254.000; -214.000
239.527;  -53.925; -424.000; -224.000
239.670; -140.125; -994.000;-1091.000
239.813; -116.225; -696.000; -658.000
239.956;   88.825;  579.000;  473.000
240.099; -114.425; -778.000; -725.000
240.242;   60.300;  428.000;  432.000
240.385;   35.125;  466.000;  450.000
240.528;  -65.150; -706.000; -473.000
240.671;   15.225;  189.000;  134.000
240.814;  -52.650; -441.000; -158.000
240.957; -102.000; -767.000; -578.000
241.100;  -94.925; -779.000; -755.000
241.243; -135.200;-1234.000; -893.000
241.386;  -64.950; -508.000; -379.000
241.529;  -91.425; -735.000; -547.000
241.672;  -63.900; -566.000; -495.000
241.815; -127.525; -832.000; -808.000
241.958;  -17.350; -125.000; -182.000
242.101;  -71.300; -545.000; -390.000
242.244;  -31.050; -270.000; -325.000
242.387;  -41.900; -304.000; -246.000
242.530;   51.950;  470.000;  134.000
242.673;  -43.650; -381.000; -309.000
242.815; -115.825; -925.000; -899.000
242.958;  -77.450; -482.000; -381.000
243.101;    7.125;  132.000;  187.000
243.244;  -78.750; -564.000; -521.000
243.387;  -51.600; -313.000; -316.000
243.530;  -94.500; -657.000; -674.000
243.672;   -3.400;   43.000;  -92.000
243.815;  -56.925; -355.000; -283.000
243.958;  -11.600;   98.000;  -26.000
244.101;   -5.150;   59.000;  -16.000
244.243;  -15.325;  -47.000;  101.000
244.386; -112.300; -761.000; -630.000
244.529;  -26.625; -132.000; -139.000
244.672; -158.200;-1154.000; -951.000
244.814; -101.225; -621.000; -794.000
244.957;  -40.675; -380.000; -304.000
245.100;  -90.150; -489.000; -489.000
245.242;  -60.200; -387.000; -374.000
245.385;    5.250;  -59.000;  -39.000
245.528; -129.900; -871.000; -705.000
245.670;   97.225;  612.000;  634.000
245.813;  -92.500; -599.000; -547.000
245.956;  -42.500; -324.000; -275.000
246.098;  -82.050; -508.000; -650.000
246.241;    7.150;  194.000;   48.000
246.383;  -31.725; -119.000;  -73.000
246.526;  -82.925; -454.000; -525.000
246.669; -116.475; -889.000; -780.000
246.811;    8.475;  172.000;   -1.000
246.954;  -59.175; -512.000; -426.000
247.096;   -8.725;  -84.000;   -6.000
247.239;  -70.100; -482.000; -445.000
247.381;  -67.275; -647.000; -488.000
247.524;   80.200;  645.000;  679.000
247.666;  -19.650;   58.000;   11.000
247.809; -118.525; -887.000; -691.000
247.951;  -15.050;  -75.000;  138.000
248.094;   25.450;  432.000;  308.000
248.236; -167.375;-1262.000;-1238.000
248.378;   -7.425; -356.000;  -81.000
248.521;  -21.350; -334.000; -337.000
248.663;  -43.300; -236.000; -267.000
248.806;  -17.150; -300.000; -266.000
248.948;  -97.200; -886.000; -763.000
249.090;  -46.625; -428.000; -398.000
249.233;  -56.025; -344.000; -381.000
249.375;  -63.775; -474.000; -451.000
249.518;  -25.825;  -83.000; -133.000
249.660;   -7.000; -103.000;    3.000
249.802; -162.375;-1303.000;-1189.000
249.945;  -79.375; -612.000; -540.000
250.087; -119.400; -834.000; -768.000
250.229;  -35.825; -362.000; -480.000
250.371;  -64.325; -494.000; -439.000
250.514;  -57.175; -310.000; -244.000
250.656;  -71.725;   69.000;  102.000
250.798; -124.675; -849.000; -800.000
250.940;  -54.050; -322.000; -322.000
251.083;  -21.825; -335.000; -111.000
251.225;   54.800;  338.000;  310.000
251.367;  -34.025; -274.000; -373.000
251.509;  -28.625; -265.000; -210.000
251.651; -105.175; -731.000; -671.000
251.794;   50.275;  538.000;  632.000
251.936; -103.800; -821.000; -747.000
252.078;  -84.900; -540.000; -461.000
252.220;  -79.900; -645.000; -477.000
252.362;   84.125;  344.000;  462.000
252.504;  -77.400; -677.000; -584.000
252.646; -118.200; -875.000; -722.000
252.788;   -0.300;   14.000; -128.000
252.931;  -45.100; -257.000; -253.000
253.073;  -34.975; -376.000; -317.000
253.215;   -1.800;  141.000;  122.000
253.357;  -13.075;   82.000; -153.000
253.499;  -46.650; -374.000; -234.000
253.641;  -89.800; -749.000; -594.000
253.783;  -87.950; -609.000; -527.000
253.925;  -83.925; -586.000; -591.000
254.067; -126.325; -744.000; -667.000
254.209;  -35.425; -391.000; -259.000
254.351; -143.475; -865.000; -883.000
254.493;  -72.250; -441.000; -417.000
254.635; -133.100; -936.000; -818.000
254.777;  -92.150; -752.000; -687.000
254.918;  -70.600; -512.000; -430.000
255.060;  -53.800; -551.000; -395.000
255.202;  -57.275; -473.000; -261.000
255.344;  -77.300; -658.000; -455.000
255.486;  -77.525; -471.000; -406.000
255.628; -113.025; -780.000; -781.000
255.770;  -95.850; -676.000; -536.000
255.912;  -62.750; -559.000; -468.000
256.053;  -87.650; -730.000; -508.000
256.195;  152.050; 1008.000;  903.000
256.337;  -84.300; -861.000; -595.000
256.479;   58.800;  532.000;  416.000
256.621;  -50.425; -394.000; -212.000
256.762;  -96.225; -789.000; -742.000
256.904;   37.775;  485.000;  487.000
257.046;  -43.000; -381.000; -271.000
257.188;  -50.025; -351.000; -264.000
257.329;  -76.900; -525.000; -464.000
257.471; -101.700; -939.000; -807.000
257.613;  -76.000; -584.000; -498.000
257.755; -162.475;-1073.000; -982.000
257.896;   24.400;  286.000;  392.000
258.038;  -84.850; -403.000; -352.000
258.180;  -35.725; -354.000; -279.000
258.321;  -86.325; -581.000; -457.000
258.463;  -10.575;  -71.000;  133.000
258.605; -111.725; -562.000; -570.000
258.746; -111.425; -886.000; -772.000
258.888; -152.150;-1026.000;-1020.000
259.029;   12.600;  121.000;   -8.000
259.171;  -81.775; -614.000; -550.000
259.313;   -5.325;  -49.000;  -47.000
259.454;  -83.250; -536.000; -414.000
259.596;  -60.425; -483.000; -390.000
259.737;  -72.075; -590.000; -474.000
259.879;   33.600;  217.000;  311.000
260.020;   97.875;  901.000;  636.000
260.162;  -34.100; -146.000; -253.000
260.303; -124.650; -768.000; -687.000
260.445;  -79.650; -609.000; -613.000
260.586;   27.550;  392.000;  157.000
260.728;  -51.600; -360.000; -248.000
260.869;  -65.925; -350.000; -343.000
261.011;   68.025;  706.000;  537.000
261.152;  -60.700; -479.000; -319.000
261.293;  -92.775; -576.000; -595.000
261.435;  -28.575; -219.000; -184.000
261.576;  -55.900; -455.000; -325.000
261.718;   45.600;  420.000;  470.000
261.859; -129.675; -940.000; -949.000
262.000; -125.875; -951.000;-1016.000
262.142;  -14.300;  -52.000;  -60.000
262.283; -124.550; -808.000; -691.000
262.424;  -77.500; -666.000; -625.000
262.566; -159.900;-1161.000; -983.000
262.707; -121.125; -840.000; -830.000
262.848; -124.300; -769.000; -726.000
262.990;  -48.925; -362.000; -345.000
263.131;   88.450;  650.000;  681.000
263.272;   -7.100;  -61.000;  -41.000
263.413; -101.250; -589.000; -561.000
263.555;  -64.450; -669.000; -143.000
263.696;  -92.600; -550.000; -641.000
263.837;  -61.975; -449.000; -551.000
263.978;   10.025;   -5.000;  -77.000
264.119;  -56.500; -283.000; -264.000
264.261; -120.150; -847.000; -630.000
264.402;  -10.575;   33.000;   40.000
264.543;  -68.150; -509.000; -524.000
264.684;  -20.225;   61.000;  -50.000
264.825;  -81.675; -816.000; -538.000
264.966;   -9.025;  -84.000;  -67.000
265.107; -114.025; -646.000; -670.000
265.248; -117.575; -825.000; -812.000
265.390;  -20.075;  152.000;   -9.000
265.531;  -37.200; -238.000; -107.000
265.672;  -97.550; -557.000; -630.000
265.813;   55.600;  563.000;  439.000
265.954; -161.050; -959.000; -940.000
266.095;  -14.700; -372.000; -322.000
266.236;  -92.325; -686.000; -548.000
266.377;  -34.025; -243.000; -297.000
266.518;  -77.125; -619.000; -547.000
266.659;   13.325;  170.000;  268.000
266.800;    1.900;   83.000;   85.000
266.941;  -83.600; -487.000; -478.000
267.082;   28.375;  354.000;   99.000
267.223;  -41.475; -344.000; -273.000
267.364; -122.725; -892.000; -686.000
267.504;  -19.975;    3.000;  135.000
267.645;   -0.650;  160.000;   67.000
267.786;  -42.600; -147.000;  -86.000
267.927;  -76.350; -473.000; -379.000
268.068;  -30.800; -186.000;  -61.000
268.209;  -41.900; -175.000; -413.000
268.350;  -51.025; -388.000; -532.000
268.490;  -90.850; -648.000; -521.000
268.631;   27.050;  127.000;  225.000
268.772; -118.025; -874.000; -647.000
268.913;  -49.000; -328.000; -476.000
269.054;  -13.300; -117.000;   12.000
269.194;  -52.275; -418.000; -402.000
269.335; -156.425;-1137.000;-1074.000
269.476;  -27.700;   33.000;  -35.000
269.617;  -50.175; -347.000; -392.000
269.757;  -91.125; -713.000; -646.000
269.898; -108.675; -856.000; -613.000
270.039;  -67.950; -415.000; -405.000
270.180; -130.600; -952.000; -816.000
270.320;  -34.600; -190.000; -250.000
270.461;  -44.475; -277.000; -249.000
270.602;   -8.375; -186.000; -156.000
270.742; -126.175; -868.000; -943.000
270.883;  -66.200; -442.000; -390.000
271.023;  -48.875; -358.000; -357.000
271.164;  -97.775; -607.000; -528.000
271.305;  -99.400; -666.000; -654.000
271.445;  -94.900; -722.000; -683.000
271.586;  -72.550; -462.000; -283.000
271.726;  -58.575; -397.000; -322.000
271.867;  -65.000; -594.000; -534.000
272.008;  155.025; -473.000; -285.000
272.148;  117.900;  462.000;  468.000
272.289;    9.225; -113.000; -181.000
272.429;   12.875;   19.000;  185.000
272.570; -109.175; -633.000; -737.000
272.710; -105.250; -825.000; -775.000
272.851;  -37.025;  113.000; -130.000
272.991; -174.925;-1173.000;-1077.000
273.131;  -60.700; -419.000; -459.000
273.272;  -95.875; -683.000; -723.000
273.412;    4.850; -143.000;  -31.000
273.553;  -68.825; -488.000; -507.000
273.693;  136.850;  913.000;  858.000
273.834;  -97.125; -894.000; -692.000
273.974;  -86.600; -664.000; -615.000
274.114; -108.200; -772.000; -560.000
274.255;   61.875;  414.000;  373.000
274.395;    4.300; -180.000; -125.000
274.535;   31.350;  199.000;  350.000
274.676;   24.425;  225.000;   94.000
274.816;   -4.050;  110.000;   34.000
274.956;  -95.200; -624.000; -690.000
275.097;  -83.600;-1014.000; -922.000
275.237; -122.025; -913.000; -803.000
275.377;  -98.200; -778.000; -689.000
275.517; -162.350; -878.000; -937.000
275.658;  -59.900; -590.000; -555.000
275.798;  -70.875; -606.000; -413.000
275.938;   12.175;  215.000;  323.000
276.078; -100.350; -626.000; -395.000
276.218;    2.275;   99.000;  104.000
276.359; -138.650;-1026.000;-1024.000
276.499;  -85.700; -605.000; -446.000
276.639;  -34.425; -305.000; -151.000
276.779;  -58.300; -475.000; -357.000
276.919;  -96.025; -783.000; -624.000
277.059;  -32.250; -261.000; -212.000
277.199;  -29.200; -357.000; -259.000
277.340;   48.775;  287.000;  175.000
277.480; -113.200; -840.000; -693.000
277.620;   25.675;  192.000;   16.000
277.760; -195.400;-1533.000;-1294.000
277.900;   23.675;  113.000;   33.000
278.040;    9.750;  137.000;  159.000
278.180;   39.300;  270.000;  170.000
278.320;    2.875;   21.000;   56.000
278.460;  -73.875; -443.000; -469.000
278.600;  -85.550; -708.000; -598.000
278.740;   47.050;  448.000;  224.000
278.880;  -64.125; -768.000; -791.000
279.020;   -3.350; -194.000; -144.000
279.160;  -92.600; -672.000; -595.000
279.300; -114.225; -926.000; -873.000
279.440; -100.875; -709.000; -622.000
279.579;  -33.025;-1014.000; -929.000
279.719;  -60.800; -410.000; -394.000
279.859;   68.075;   -4.000;   41.000
279.999;   24.025; -208.000;  101.000
280.139;  -29.450; -435.000; -387.000
280.279;  -88.450; -708.000; -745.000
280.419;  -20.225; -229.000; -147.000
280.559;  -27.050; -259.000; -180.000
280.698;  -86.700; -790.000; -639.000
280.838;  -95.925; -778.000; -800.000
280.978;  -98.000; -846.000; -790.000
281.118; -120.625; -811.000; -704.000
281.257;  -11.625;   24.000;    6.000
281.397; -117.050;-1094.000; -960.000
281.537;  -94.550; -599.000; -712.000
281.677;  -23.750; -150.000; -101.000
281.816;  -90.050; -700.000; -630.000
281.956;  -24.650; -193.000; -257.000
282.096;  -60.675; -539.000; -396.000
282.235; -111.500; -672.000; -638.000
282.375;  -20.275; -243.000;  -98.000
282.515; -109.125; -715.000; -707.000
282.654;   20.500;   29.000;  106.000
282.794;   12.075;  388.000;  244.000
282.934;  -65.275; -530.000; -491.000
283.073; -137.950;-1030.000; -857.000
283.213;  -56.425; -460.000; -467.000
283.353;  -37.125; -408.000; -349.000
283.492;  -31.425; -264.000; -296.000
283.632;  -49.200; -254.000; -168.000
283.771; -104.675; -859.000; -730.000
283.911;  -63.050; -369.000; -260.000
284.050; -105.475; -794.000; -748.000
284.190; -168.375;-1229.000;-1096.000
284.329; -128.525;-1055.000; -964.000
284.469;  -80.350; -516.000; -591.000
284.608;  -63.500; -559.000; -598.000
284.748;  -84.075; -614.000; -570.000
284.887;  -10.125;  -87.000;  -20.000
285.027; -130.950; -844.000; -892.000
285.166;  -37.350; -192.000; -249.000
285.306;   -2.950; -116.000;  -33.000
285.445;  -49.750; -229.000; -343.000
285.584;  -93.850; -630.000; -494.000
285.724;  -60.175; -282.000; -322.000
285.863; -121.850; -857.000; -507.000
286.002;  -60.625; -366.000; -276.000
286.142; -117.000; -715.000; -622.000
286.281;  -70.075; -525.000; -493.000
286.420;  -78.850; -554.000; -417.000
286.560;  101.400;  653.000;  623.000
286.699; -147.325; -958.000; -912.000
286.838;  -87.525; -590.000; -591.000
286.978;  -94.275; -533.000; -537.000
287.117; -146.350;-1085.000; -950.000
287.256;  -37.350; -228.000; -211.000
287.395;  -60.550; -197.000; -378.000
287.535;  -57.225; -370.000; -298.000
287.674;  -82.900; -509.000; -484.000
287.813;   53.300;  661.000;  533.000
287.952; -131.350;-1010.000; -871.000
288.091; -161.050;-1049.000; -915.000
288.231;   -2.400;   13.000;   15.000
288.370; -176.025;-1217.000;-1200.000
288.509;  -89.975; -728.000; -645.000
288.648;  -94.600; -770.000; -548.000
288.787;  -28.950; -243.000;  -87.000
288.926;  -54.800; -454.000; -475.000
289.065;  109.200;  859.000;  672.000
289.204;  -71.825; -377.000; -217.000
289.344;  -92.850; -791.000; -690.000
289.483;   21.275;  416.000;  304.000
289.622;  -37.875; -291.000; -149.000
289.761;   -6.600; -309.000; -166.000
289.900; -118.050; -785.000; -626.000
290.039;  -19.275;  -12.000;  -95.000
290.178;  -44.600; -274.000; -180.000
290.317;  -83.675; -618.000; -479.000
290.456;  -75.500; -463.000; -451.000
290.595; -152.675; -961.000; -833.000
290.734; -136.525; -904.000; -891.000
290.873;  -69.150; -456.000; -420.000
291.011; -127.700; -833.000; -843.000
291.150; -115.800; -770.000; -682.000
291.289;  -37.075; -343.000; -110.000
291.428; -101.525; -599.000; -480.000
291.567;  -62.550; -370.000; -442.000
291.706;   -7.650;  109.000;  154.000
291.845; -103.750; -597.000; -505.000
291.984; -172.575;-1234.000;-1061.000
292.122;   62.575;  602.000;  582.000
292.261;   43.325;  620.000;  463.000
292.400;   10.675; -144.000;  211.000
292.539; -118.275; -959.000; -813.000
292.678;  -52.725; -325.000; -300.000
292.816; -164.300;-1136.000; -965.000
292.955;  -90.650; -844.000; -684.000
293.094;  -23.300; -173.000; -337.000
293.233;  -53.225; -556.000; -400.000
293.371;  -28.475; -225.000;  -84.000
293.510; -122.200; -866.000; -780.000
293.649; -123.275; -959.000; -924.000
293.787; -100.975;-1083.000;-1012.000
293.926;    0.250; -113.000;  -32.000
294.065;  -52.800; -379.000; -290.000
294.203;   58.775;  298.000;  406.000
294.342;   21.850;   74.000;  156.000
294.481; 6539.675;51180.000; -836.000
294.619;  -42.525; -425.000; -582.000
294.758; -159.525;-1230.000;-1137.000
294.896;   56.150; -125.000;    5.000
295.035; -133.225;-1040.000;-1006.000
295.174; -115.550;-1082.000; -954.000
295.312;  -59.375; -323.000; -203.000
295.451;  -14.775; -307.000; -428.000
295.589;  -54.100; -389.000; -518.000
295.728;   20.575; -292.000; -165.000
295.866;    5.275;  -36.000;  -51.000
296.005;  -69.200; -584.000; -341.000
296.143;  -83.025; -558.000; -596.000
296.282; -100.500; -957.000; -881.000
296.420;  -90.175; -657.000; -557.000
296.559; -103.825; -892.000; -633.000
296.697;   -7.000; -847.000; -665.000
296.835;   32.375;-1141.000;-1002.000
296.974;   29.350;  -23.000;   39.000
297.112;   -5.450; -443.000; -504.000
297.251;  -76.450; -815.000; -755.000
297.389;   52.925; -576.000; -438.000
297.527;   22.575; -145.000;  -83.000
297.666;  -59.125; -486.000; -438.000
297.804;  -54.925; -404.000; -264.000
297.942;   -5.050; -136.000; -161.000
298.081;   -2.950; -183.000;   63.000
298.219;   49.450;  -17.000;  -19.000
298.357;   41.525; -144.000;  -71.000
298.495;   11.425; -810.000; -812.000
298.634;   74.350;  245.000;  219.000
298.772;   39.875; -220.000; -338.000
298.910;  -50.250; -309.000; -182.000
299.048;  -25.075; -130.000; -153.000
299.187;  -45.850; -350.000; -250.000
299.325;   14.450;   52.000;  122.000
299.463;   37.625; -389.000; -299.000
299.601;   87.875; -327.000; -271.000
299.739; -111.200; -908.000; -883.000
299.877;  -89.725; -791.000; -703.000
300.016;  -69.025;-1095.000; -935.000
300.154;  111.125;  -19.000; -161.000
300.292;   33.425; -428.000; -348.000
300.430;   13.500; -408.000; -291.000
300.568; -114.575; -940.000; -874.000
300.706;  -50.400; -366.000; -469.000
300.844; -102.150;-1108.000; -979.000
300.982;  101.850;  246.000;  282.000
301.120; -113.575; -965.000; -866.000
301.258;  -75.900; -812.000; -705.000
301.396;   24.125;  104.000;  -41.000
301.534;   52.500; -218.000; -293.000
301.672;  -35.350; -664.000; -521.000
301.810;   -1.425; -613.000; -545.000
301.948;   88.375;   53.000;  149.000
302.086;  531.600; -250.000;  -32.000
302.224;  821.225; -610.000; -585.000
302.362;   15.725; -558.000; -622.000
302.500;  -34.000; -923.000; -893.000
302.638;   77.550;  128.000;  245.000
302.776;  -15.350; -352.000; -408.000
302.913;   63.225;  447.000;  236.000
303.051;  -12.700;  -86.000;  -23.000
303.189;   35.450;   90.000;  118.000
303.327;  -40.350; -341.000; -256.000
303.465;  -84.250; -832.000; -588.000
303.603; -100.850; -805.000; -604.000
303.740;   86.500;  417.000;  241.000
303.878;  -12.000; -800.000; -759.000
304.016;  -88.600; -915.000; -790.000
304.154; -142.225;-1123.000;-1152.000
304.291;  -37.975; -505.000; -554.000
304.429;    6.325;  102.000;   74.000
304.567; -129.800; -908.000; -893.000
304.705;  -59.400; -408.000; -515.000
304.842;   59.425; -616.000; -540.000
304.980;   38.725;  215.000;   35.000
305.118;   28.175; -367.000; -365.000
305.255;  -74.600; -945.000; -927.000
305.393;   41.525;  178.000;  239.000
305.531; -115.000;-1173.000; -956.000
305.668;  -68.750; -663.000; -582.000
305.806;   67.925; -358.000; -439.000
305.943;   85.900; -629.000; -637.000
306.081;   37.500; -378.000; -267.000
306.219; -102.175; -863.000; -748.000
306.356;   10.425;  158.000;   27.000
306.494;  107.975;  981.000;  761.000
306.631;   -8.550;  -11.000;  -55.000
306.769;  -17.975; -613.000; -485.000
306.906;  -31.850; -284.000; -258.000
307.044;  -64.825; -473.000; -488.000
307.181;  -78.925; -410.000; -332.000
307.319;   15.250;  112.000;   87.000
307.456; -179.175;-1191.000;-1153.000
307.594; -109.600; -980.000; -727.000
307.731;  -15.175; -371.000; -164.000
307.868;  -16.875;  -15.000;   20.000
308.006; -144.875; -961.000; -847.000
308.143;  -71.000; -618.000; -330.000
308.281;  106.475;  -37.000; -254.000
308.418;  -33.525; -748.000; -640.000
308.555;  -78.675; -400.000; -250.000
308.693;  -80.275; -577.000; -573.000
308.830; -109.250; -712.000; -657.000
308.967;   -9.175; -215.000;  -95.000
309.105;  -45.200; -507.000; -396.000
309.242;    7.375; -468.000; -367.000
309.379;  206.475; -577.000; -655.000
309.517;  -91.900; -936.000; -948.000
309.654; -110.375; -910.000; -734.000
309.791;  -77.025; -662.000; -580.000
309.928; -118.975; -977.000; -914.000
310.065;  168.700;  819.000;  697.000
310.203;  -22.300; -825.000; -850.000
310.340;  -22.975; -465.000; -321.000
310.477; -101.200; -412.000; -516.000
310.614;  -61.850; -383.000; -473.000
310.751;  -79.025; -427.000; -518.000
310.889;  -14.875;    1.000;   11.000
311.026; -160.025;-1161.000; -939.000
311.163;  -47.700; -386.000; -380.000
311.300;  -73.250; -512.000; -479.000
311.437;  -79.025; -658.000; -619.000
311.574; -155.625;-1226.000; -985.000
311.711;  -64.425; -595.000; -433.000
311.848;  -47.425; -380.000; -388.000
311.985;    7.275;  270.000;   93.000
312.122; -125.975; -932.000; -762.000
312.259; -122.600; -941.000; -994.000
312.396;  -75.100; -508.000; -551.000
312.533;  -89.425; -812.000; -790.000
312.670; -129.350;-1070.000; -898.000
312.807;  -49.175; -352.000; -367.000
312.944;  -83.675; -513.000; -611.000
313.081;  -33.100; -150.000; -415.000
313.218; -112.225;-1111.000; -867.000
313.355;    6.725; -531.000; -449.000
313.492;  -11.300; -455.000; -292.000
313.629;  136.025;  815.000;  735.000
313.766; -156.650;-1176.000;-1008.000
313.902;  -19.700; -186.000;   21.000
314.039;  -46.325; -372.000; -289.000
314.176;   36.400;  286.000;  192.000
314.313;  -82.825; -569.000; -473.000
314.450;  -97.475; -788.000; -684.000
314.587;  -59.675; -468.000; -480.000
314.723;    3.550;  -78.000;  130.000
314.860;   21.750;  318.000;  332.000
314.997;   16.475;  223.000;  142.000
315.134;  -42.600; -385.000; -368.000
315.270;  -35.900; -480.000; -496.000
315.407; -149.925;-1094.000; -967.000
315.544;  -55.375; -657.000; -538.000
315.681;  -77.700; -681.000; -565.000
315.817;   18.700; -133.000; -176.000
315.954;    6.650; -613.000; -392.000
316.091; -121.375;-1045.000;-1023.000
316.227;  -36.600;  -71.000; -179.000
316.364;    2.425;   23.000;    6.000
316.500;  -47.500; -113.000; -300.000
316.637;  -41.475; -181.000; -302.000
316.774; -100.675; -625.000; -358.000
316.910;  -94.775; -598.000; -629.000
317.047;  -71.750; -487.000; -351.000
317.183;  -47.975; -435.000; -566.000
317.320;  -12.825; -367.000; -321.000
317.456;  -69.025; -733.000; -805.000
317.593;  -99.725; -598.000; -641.000
317.729;    0.550;  168.000;  -67.000
317.866; -201.625;-1434.000;-1285.000
318.002;  -94.275; -708.000; -948.000
318.139;  -99.600; -883.000; -867.000
318.275; -110.925;-1003.000; -738.000
318.412;  -63.500; -517.000; -336.000
318.548;  -46.450; -751.000; -720.000
318.685; -107.400; -985.000; -888.000
318.821;  -96.950; -762.000; -735.000
318.957;  -25.325;   34.000;  -23.000
319.094;   38.150;  297.000;  154.000
319.230;  -71.050; -756.000; -742.000
319.367;   97.450; -471.000; -520.000
319.503;   19.775; -538.000; -436.000
319.639; -109.300; -877.000; -793.000
319.775;  -63.650; -750.000; -685.000
319.912;  -46.450; -424.000; -519.000
320.048;  -91.125;-1184.000;-1184.000
320.184;   70.075;   59.000;   70.000
320.321;  -65.100; -497.000; -467.000
320.457;   44.550;  475.000;  662.000
320.593;  -68.300; -375.000; -382.000
320.729; -110.500; -732.000; -734.000
320.866;  -81.750; -577.000; -635.000
321.002;  -94.275; -759.000; -809.000
321.138;  -13.650; -135.000; -211.000
321.274;   62.025; -148.000; -115.000
321.410;  -21.575; -585.000; -353.000
321.546;  -50.125;-1011.000; -911.000
321.683;   52.925;  400.000;  185.000
321.819;   -4.725;  -48.000; -117.000
321.955; -116.675; -743.000; -722.000
322.091;  -46.325; -585.000; -540.000
322.227;  -16.350; -382.000; -202.000
322.363;  -28.100; -320.000; -215.000
322.499;  -55.425; -343.000; -331.000
322.635;  150.325;  636.000;  443.000
322.771;   20.850; -139.000;   12.000
322.907;   80.200;  129.000;  327.000
323.043;  -25.725; -115.000; -206.000
323.179;  -48.400; -394.000; -363.000
323.315;   -5.000; -401.000; -371.000
323.451;   74.350; -328.000; -236.000
323.587;   55.825;  -60.000;  -77.000
323.723;   -0.275; -682.000; -601.000
323.859;  -14.300; -258.000;  -76.000
323.995;  -45.150; -467.000; -409.000
324.131; -123.950; -967.000; -892.000
324.267;  -40.800; -254.000; -276.000
324.402; -136.450; -960.000; -983.000
324.538;  -22.450; -279.000; -104.000
324.674;    7.600;  164.000;   77.000
324.810;  100.825;  226.000;  308.000
324.946;  -19.100; -810.000; -658.000
325.082;  -73.725; -568.000; -475.000
325.217;  -20.775;  -62.000;   16.000
325.353;  -96.800; -764.000; -659.000
325.489;  -92.800; -540.000; -506.000
325.625;  -85.300; -579.000; -525.000
325.760;   54.250;  517.000;  376.000
325.896;  -24.500; -515.000; -702.000
326.032;  -61.300; -403.000; -352.000
326.168;  -81.925; -462.000; -369.000
326.303;  -72.150; -352.000; -461.000
326.439;  -18.250; -336.000; -276.000
326.575;  -20.975; -190.000;  -29.000
326.710;  -16.750; -156.000;  -30.000
326.846;  -22.500;  146.000;  103.000
326.982;  -99.250; -530.000; -548.000
327.117;  -82.375; -481.000; -442.000
327.253;  -89.275; -745.000; -742.000
327.388; -157.400;-1137.000;-1153.000
327.524;  -58.375; -811.000; -578.000
327.659;  -30.100;  -58.000;  -22.000
327.795;  -27.950;   69.000;   45.000
327.931;  -79.750; -723.000; -499.000
328.066;  -30.650; -417.000; -276.000
328.202;  -31.150;   12.000; -129.000
328.337;  115.975;  957.000;  713.000
328.473;   46.075;  -12.000;  -74.000
328.608;  -26.900; -256.000; -267.000
328.743; -100.350; -799.000; -664.000
328.879;   23.275;  214.000;  114.000
329.014;  -37.750; -102.000; -122.000
329.150;  -81.450; -358.000; -483.000
329.285;  -96.350; -465.000; -466.000
329.421;  -55.425; -548.000; -246.000
329.556;  -31.000;  -36.000;   85.000
329.691;  -95.425; -633.000; -615.000
329.827;  -73.150; -626.000; -480.000
329.962;  -49.400;  131.000; -301.000
330.097;  -92.825; -673.000; -585.000
330.233;  -44.250; -410.000; -223.000
330.368; -128.250; -839.000; -628.000
330.503;   -9.625;    3.000;   98.000
330.638;   -2.825;  -93.000; -125.000
330.774;  -77.025; -609.000; -530.000
330.909;  -56.125; -434.000; -244.000
331.044; -101.075; -714.000; -708.000
331.179; -169.600;-1217.000;-1109.000
331.315;    1.500;   77.000;   20.000
331.450;    4.725;  157.000;  285.000
331.585;  -95.775; -805.000; -706.000
331.720;  -78.225; -510.000; -460.000
331.855;  -23.325;  -35.000; -102.000
331.990;  246.900;   62.000;  138.000
332.126;  124.125; -110.000;   71.000
332.261;  -26.625; -379.000; -265.000
332.396;   -6.750; -135.000; -242.000
332.531; -106.300;-1074.000;-1031.000
332.666;   40.250; -519.000; -363.000
332.801; -103.875; -726.000; -807.000
332.936;  -30.675; -192.000; -122.000
333.071; -135.800; -870.000; -817.000
333.206;    7.925;  307.000;  379.000
333.341;   22.650;  344.000;  418.000
333.476;  -87.475; -627.000; -623.000
333.611;  -55.275; -251.000; -173.000
333.746;  -58.600; -381.000; -464.000
333.881; -127.350; -973.000; -935.000
334.016; -137.825; -936.000; -917.000
334.151; -122.025; -746.000; -702.000
334.286;    4.050;  152.000;  186.000
334.421;  -11.850; -125.000; -178.000
334.556;  -96.750; -611.000; -567.000
334.690;  -85.025; -631.000; -577.000
334.825;   42.175;  381.000;   83.000
334.960;  -65.125; -285.000; -413.000
335.095;   -0.875;  135.000;  -91.000
335.230; -104.550; -722.000; -738.000
335.365; -147.625;-1084.000; -990.000
335.499; -132.425;-1108.000;-1037.000
335.634;   20.250;    9.000;  534.000
335.769; -106.775; -755.000; -720.000
335.904;  -72.850; -603.000; -561.000
336.038;  -48.650; -735.000; -657.000
336.173; -123.025;-1206.000;-1194.000
336.308;    3.525; -116.000; -189.000
336.443;    0.500; -544.000; -634.000
336.577;  -81.150; -936.000; -787.000
336.712;   52.925;   -4.000;  -12.000
336.847;  -47.575; -724.000; -607.000
336.981;   58.425; -272.000; -208.000
337.116;  251.225;  615.000;  501.000
337.250;  121.025; -434.000; -421.000
337.385;  238.125; -297.000; -208.000
337.520;   87.500; -632.000; -603.000
337.654;  -32.225; -215.000; -126.000
337.789; -130.750; -989.000; -933.000
337.923;  -41.675; -104.000; -205.000
338.058;  -92.575; -673.000; -738.000
338.192;  -51.925; -611.000; -488.000
338.327;  -15.225;  -18.000; -155.000
338.461;  -68.750; -299.000; -469.000
338.596; -104.775; -780.000; -638.000
338.730; -107.250; -767.000; -803.000
338.865;   79.050;  -46.000; -140.000
338.999;  -52.450; -846.000; -702.000
339.134;  -27.575; -634.000; -536.000
339.268;    5.125; -741.000; -603.000
339.403;  351.825; -740.000; -775.000
339.537;  121.625; -894.000; -820.000
339.671; -116.675; -829.000; -813.000
339.806;  -65.525; -556.000; -512.000
339.940;    2.650; -261.000; -235.000
340.074;  -97.700; -685.000; -510.000
340.209;  -48.875; -351.000; -230.000
340.343;  -93.900; -517.000; -573.000
340.477;  149.050;  998.000; 1036.000
340.612;  -51.450;-1033.000; -900.000
340.746;  128.600; -199.000; -243.000
340.880;  -78.025; -924.000; -785.000
341.014;  -24.325;  -45.000; -154.000
341.149; -120.575; -756.000; -718.000
341.283; -121.275; -839.000; -754.000
341.417; -114.925;-1124.000; -938.000
341.551;   82.575; -768.000; -708.000
341.685;  -44.375; -633.000; -611.000
341.820;  -64.625; -562.000; -493.000
341.954;  -51.675; -218.000; -349.000
342.088; -157.350;-1102.000;-1019.000
342.222;   59.025;  565.000;  618.000
342.356;  -60.350; -395.000; -335.000
342.490; -101.000; -880.000; -841.000
342.624;  -48.675; -339.000; -242.000
342.758;  -23.900; -364.000; -312.000
342.892;  -83.350; -710.000; -585.000
343.026;  -52.225;  -58.000; -116.000
343.160;  -71.725; -426.000; -376.000
343.294;  -91.100; -474.000; -337.000
343.428;  -39.175; -488.000; -448.000
343.562;  -23.075; -172.000;  -23.000
343.696;  -29.975; -385.000; -314.000
343.830;  -31.425; -362.000; -356.000
343.964;    6.150; -231.000; -168.000
344.098;  780.125;  199.000;   70.000
344.232;  628.675; -266.000; -127.000
344.366;   71.650; -567.000; -453.000
344.500;   17.975; -665.000; -744.000
344.634;    9.400; -324.000; -164.000
344.768;  -32.475; -531.000; -341.000
344.902;    6.400;  278.000;  256.000
345.035;  -84.950; -556.000; -496.000
345.169; -132.600; -933.000; -656.000
345.303;  -62.900; -308.000; -482.000
345.437;  -78.200; -826.000; -717.000
345.571;  -86.275; -675.000; -594.000
345.704;  -67.000; -309.000; -532.000
345.838;  -23.775; -331.000; -284.000
345.972;  -42.800; -543.000; -495.000
346.106;  163.050; -179.000; -190.000
346.239;  398.100; -312.000; -243.000
346.373;   -2.675; -343.000; -302.000
346.507; -144.900; -950.000; -962.000
346.640;  115.800;  -30.000;   13.000
346.774;  -53.250; -650.000; -797.000
346.908;  -32.850; -138.000;  -11.000
347.041; -100.800; -646.000; -593.000
347.175;   -6.975;  259.000;   27.000
347.309;  -86.800; -698.000; -628.000
347.442; -102.375; -883.000; -732.000
347.576;  242.125;  670.000;  668.000
347.709;  160.750; -123.000;  -52.000
347.843; -107.675; -933.000; -825.000
347.976;   23.025;  235.000;  294.000
348.110; -188.725;-1268.000;-1186.000
348.243; -102.325; -679.000; -772.000
348.377;  -13.750;  -26.000;   60.000
348.510;   42.700;  403.000;  540.000
348.644;  -44.000;  -37.000; -159.000
348.777;    9.800;  180.000;  191.000
348.911;  -51.425; -142.000; -112.000
349.044;  143.875;  471.000;  448.000
349.178;  115.825;-1069.000;-1006.000
349.311;  105.250;  141.000;  255.000
349.444;  -26.450; -927.000; -813.000
349.578;  -25.675; -347.000; -200.000
349.711; -115.275; -959.000; -862.000
349.845;  -21.225; -661.000; -591.000
349.978; -160.450;-1224.000;-1137.000
350.111;  -89.750; -546.000; -612.000
350.244;  -87.800; -596.000; -700.000
350.378;   -2.850; -392.000; -393.000
350.511;  -67.750; -393.000; -426.000
350.644; -107.125; -808.000; -806.000
350.778;    6.200;  168.000;  104.000
350.911;   -5.125;  134.000;  140.000
351.044; -111.525; -685.000; -615.000
351.177;  -46.975; -321.000; -281.000
351.310;  -35.825;    3.000; -131.000
351.444;  -90.100; -888.000; -788.000
351.577;   98.575;  140.000;   90.000
351.710;   81.675;  593.000;  417.000
351.843;  -43.525; -165.000;  -77.000
351.976;   -2.650;  149.000;  -79.000
352.109;  -96.975; -621.000; -612.000
352.242;  -43.050; -464.000; -419.000
352.376;  -72.475; -580.000; -636.000
352.509;  131.175; -437.000; -356.000
352.642;  -23.325; -654.000; -604.000
352.775;   46.100; -141.000;  -98.000
352.908; -119.875; -933.000; -904.000
353.041; -106.750; -814.000; -824.000
353.174;  -58.125; -551.000; -424.000
353.307;  -87.775; -753.000; -764.000
353.440;   64.350;  541.000;  453.000
353.573; -113.700; -957.000;-1008.000
353.706;  -64.400; -384.000; -558.000
353.839;  -26.100; -264.000; -220.000
353.971;  -85.400; -657.000; -512.000
354.104;  -96.700; -896.000; -835.000
354.237;  -60.050; -627.000; -662.000
354.370;  -82.850; -846.000; -879.000
354.503; -180.350;-1231.000;-1308.000
354.636;  -48.225; -529.000; -348.000
354.769; -127.375; -937.000; -860.000
354.902;  -15.050; -230.000; -139.000
355.034;  -23.150; -164.000; -220.000
355.167;  -22.500; -262.000; -162.000
355.300;  -96.025;-1061.000; -880.000
355.433;  990.725;  -71.000;  -14.000
355.565; 1530.175; -402.000; -384.000
355.698;  374.450; -356.000; -296.000
355.831;   -9.050; -882.000; -801.000
355.964;   61.550; -285.000; -170.000
356.096; -104.375; -856.000; -843.000
356.229;   -9.375; -523.000; -530.000
356.362;  320.800; -373.000; -266.000
356.494;  581.450; -229.000; -162.000
356.627;  437.925;  269.000;  377.000
356.760;  651.875;  120.000;   53.000
356.892;  965.000; -286.000; -601.000
357.025;  591.625;  403.000;  389.000
357.157;  509.250; -167.000; -179.000
357.290;  704.075; -856.000; -713.000
357.423;  189.300; -667.000; -556.000
357.555;   90.550; -217.000; -228.000
357.688;   87.075; -483.000; -364.000
357.820;  388.775; -870.000; -877.000
357.953; 3279.875; -563.000; -589.000
358.085;  673.650; -632.000; -612.000
358.218;  935.625;-1131.000; -932.000
358.350;  158.200;  -58.000;  312.000
358.483; -138.025;-1300.000;-1187.000
358.615;  -47.400;-1182.000;-1078.000
358.747;  -76.375;-1187.000;-1058.000
358.880;  -13.100; -810.000; -744.000
359.012;  -25.375; -376.000; -202.000
359.145;  -49.900; -480.000; -511.000
359.277;   32.750; -962.000; -913.000
359.409; 2716.800;  536.000;  231.000
359.542;  679.350; -738.000; -688.000
359.674;   73.100;   46.000;   13.000
359.806;  -65.650; -565.000; -438.000
359.939;  -50.525; -617.000; -516.000
360.071;  -16.275; -583.000; -579.000
360.203;  -27.150; -411.000; -364.000
360.335;   35.375;  164.000;  -16.000
360.468;  163.275; -249.000; -307.000
360.600; 2237.300; -547.000; -454.000
360.732; 2857.250; -546.000; -423.000
360.864;  369.975;-1216.000;-1044.000
360.996;  218.200; -516.000; -554.000
361.129;   20.450; -389.000; -598.000
361.261;   21.350;  110.000; -113.000
361.393;  -38.875; -252.000; -214.000
361.525;   22.950;   94.000;  244.000
361.657;  -58.825; -821.000; -703.000
361.789;   -9.800; -139.000; -155.000
361.921;  182.125; -642.000; -593.000
362.053;  223.300;  524.000;  541.000
362.185;   42.600;  288.000;   72.000
362.318;  -91.750; -709.000; -705.000
362.450;   88.900;  294.000;  444.000
362.582;   58.975; -913.000; -870.000
362.714;  -50.350; -353.000; -332.000
362.846;  -95.200; -606.000; -490.000
362.978; -144.625; -941.000; -811.000
363.109;   19.275; -161.000; -260.000
363.241;  357.400; -739.000; -749.000
363.373;  424.625; -649.000; -564.000
363.505;  678.100; -186.000;  -91.000
363.637;  137.450; -787.000; -601.000
363.769; -134.750;-1067.000;-1080.000
363.901;  -75.525; -596.000; -654.000
364.033; -126.550;-1103.000;-1062.000
364.165;  -14.050; -283.000; -283.000
364.296;   63.725; -316.000; -177.000
364.428;   59.075;-1344.000;-1220.000
364.560;  -82.525; -679.000; -661.000
364.692;  -63.200; -738.000; -835.000
364.824;  206.675; -588.000; -456.000
364.955;  413.750; -402.000; -564.000
365.087;  946.000;-1097.000; -852.000
365.219;   25.750; -686.000; -816.000
365.351;  -69.550; -526.000; -572.000
365.482;   43.000;  300.000;  240.000
365.614;  -44.750; -402.000; -314.000
365.746; -107.675; -729.000; -752.000
365.877; -107.800; -706.000; -672.000
366.009;  267.350;  -35.000;  -62.000
366.141;  -87.700;-1249.000;-1134.000
366.272; -106.175; -803.000; -719.000
366.404; -127.125;-1005.000; -874.000
366.535;  -12.775; -139.000;  -12.000
366.667; -114.025; -644.000; -649.000
366.799;   30.850;  353.000;  203.000
366.930; -144.550; -862.000; -996.000
367.062;  105.425; -639.000; -613.000
367.193;  156.350; -872.000; -842.000
367.325;  -75.200; -580.000; -684.000
367.456;   21.025; -246.000;   31.000
367.588;  164.150; -371.000; -318.000
367.719;   13.350;  -44.000;  -45.000
367.851;  -33.100; -222.000; -241.000
367.982;  -65.800; -875.000; -732.000
368.113;   81.650; -475.000; -358.000
368.245; -133.500; -960.000; -841.000
368.376;  -39.375; -254.000; -302.000
368.508;  -45.450; -188.000; -263.000
368.639; -139.650;-1166.000;-1034.000
368.770;  -45.000; -670.000; -589.000
368.902;  -83.575; -836.000; -926.000
369.033; -114.825; -906.000; -855.000
369.164;  -56.150; -720.000; -653.000
369.296; -123.125; -452.000; -601.000
369.427;  -29.200; -209.000; -144.000
369.558;  -62.000; -593.000; -377.000
369.689;  -83.000; -721.000; -569.000
369.821; -126.275; -951.000; -845.000
369.952;  -16.675;   42.000; -108.000
370.083;  -55.500; -229.000; -108.000
370.214;  -87.625; -735.000; -650.000
370.345;  -17.450;   65.000;   81.000
370.477;  -90.025; -810.000; -790.000
370.608;  190.800; -328.000; -264.000
370.739;  -77.700;-1233.000;-1292.000
370.870;  -48.600;-1102.000; -923.000
371.001;   68.925; -378.000; -467.000
371.132;  -84.700; -754.000; -735.000
371.263;  -28.650;  -42.000; -148.000
371.394; -148.400; -841.000; -748.000
371.525;   17.325;  345.000;  225.000
371.657; -103.075; -808.000; -670.000
371.788;   54.550;  103.000;  199.000
371.919;  111.675; -384.000; -304.000
372.050; 3151.875;  -91.000; -156.000
372.181;  910.250; -188.000; -294.000
372.311;  310.200;   42.000; -127.000
372.442;    1.900; -457.000; -451.000
372.573;  -21.000; -444.000; -340.000
372.704; -139.675;-1008.000; -980.000
372.835;   64.750; -228.000; -289.000
372.966;  -63.700; -646.000; -554.000
373.097;  -71.975; -575.000; -711.000
373.228;  -68.775; -717.000; -542.000
373.359;   91.550; -824.000; -536.000
373.490;  778.375; -881.000; -727.000
373.620;  979.625;-1001.000; -803.000
373.751; 1536.125; -332.000; -396.000
373.882;  674.850; -663.000; -733.000
374.013;   28.600; -449.000; -262.000
374.143;  -58.125; -581.000; -659.000
374.274; -102.875; -987.000; -908.000
374.405;  125.950; -388.000; -276.000
374.536;  362.725; -526.000; -387.000
374.666;  945.975; -759.000; -807.000
374.797;  164.250; -817.000; -868.000
374.928;  709.075; -710.000; -560.000
375.058;  743.350; -535.000; -500.000
375.189;   61.400;  -59.000;  -93.000
375.320; -106.475; -928.000;-1034.000
375.450;  -40.625; -625.000; -616.000
375.581;  -63.975; -526.000; -436.000
375.712;  -37.475; -574.000; -250.000
375.842;  250.450; -438.000; -415.000
375.973;  174.525; -554.000; -513.000
376.103;  -56.625; -665.000; -648.000
376.234;  -93.125; -531.000; -552.000
376.364;  -53.000; -944.000; -867.000
376.495;  284.475;  925.000;  529.000
376.625;  -16.625; -472.000; -485.000
376.756;   19.900; -709.000; -678.000
376.886;  -91.625;-1178.000;-1026.000
377.017;   51.425;-1048.000;-1061.000
377.147;  355.225; -786.000; -782.000
377.278;   55.075;  174.000;  228.000
377.408; -130.000; -801.000; -815.000
377.538; -115.125; -707.000; -693.000
377.669;  -83.750; -537.000; -613.000
377.799;  -99.075; -645.000; -635.000
377.929;  -70.375; -610.000; -428.000
378.060; -141.725; -781.000; -847.000
378.190;  -76.750; -726.000; -531.000
378.320;  -51.800; -401.000; -406.000
378.451;  -21.975; -131.000;  -22.000
378.581;  -16.275;  -67.000; -110.000
378.711;  134.775; 1035.000;  866.000
378.841;  -33.775; -533.000; -675.000
378.972;  -79.850; -871.000; -751.000
379.102;  -23.550; -652.000; -579.000
379.232;  -25.425; -126.000;  -73.000
379.362; -114.975;-1001.000; -885.000
379.492;   -5.400; -373.000; -424.000
379.623;   84.125;    0.000;  111.000
379.753; -103.450;-1107.000; -974.000
379.883;  172.675;   59.000;  156.000
380.013;  -24.875;-1081.000;-1017.000
380.143; -119.825;-1097.000;-1056.000
380.273; -108.275; -985.000; -861.000
380.403;   -9.175; -344.000; -257.000
380.533;  -31.225; -651.000; -664.000
380.663;   57.250;  173.000;  128.000
380.793; -114.850;-1027.000;-1074.000
380.923;  -24.250; -103.000;  -34.000
381.053;  -95.725; -613.000; -623.000
381.183;  -39.250; -106.000; -248.000
381.313;   -0.850; -656.000; -470.000
381.443;   18.600; -692.000; -473.000
381.573;  153.875; -402.000; -409.000
381.703;  181.975;-1249.000;-1095.000
381.833; -148.375;-1454.000;-1336.000
381.963;   93.050; -134.000;  -87.000
382.093; 1225.000; -925.000; -909.000
382.223;  353.900; -713.000; -602.000
382.353;  -29.000; -801.000; -608.000
382.482;  271.425;-1091.000; -964.000
382.612;  648.675; -872.000; -644.000
382.742;  365.250; -695.000; -622.000
382.872;  182.900; -565.000; -551.000
383.002;   68.300;  347.000; -132.000
383.131;  -27.450; -226.000; -160.000
383.261;  -67.025; -706.000; -768.000
383.391;  286.500; -552.000; -377.000
383.521; 3288.600;  451.000;  263.000
383.650;  761.575; -947.000; -904.000
383.780;  -23.000; -783.000; -656.000
383.910;   99.475;  880.000;  802.000
384.039;   -7.775; -794.000; -656.000
384.169;  150.250;-1205.000;-1017.000
384.299;  -45.000; -650.000; -662.000
384.428; -101.625; -764.000; -680.000
384.558;  -42.750; -308.000; -275.000
384.687;  -61.375; -414.000; -334.000
384.817;    1.250;   75.000;   -2.000
384.947;   -2.125; -234.000; -141.000
385.076;  253.150;  982.000;  912.000
385.206;  101.350;  369.000;  480.000
385.335;  -55.850; -549.000; -417.000
385.465;  -87.325; -655.000; -663.000
385.594;  110.775;  -53.000;  -44.000
385.724;  333.825; -868.000; -838.000
385.853;   96.750; -296.000; -270.000
385.982; 1162.300; -743.000; -787.000
386.112; 1833.650;-1052.000; -871.000
386.241;  117.950; -307.000; -312.000
386.371;    1.275; -174.000;  -87.000
386.500;  -21.500; -825.000; -789.000
386.629;    9.675; -874.000; -817.000
386.759;   67.825;  -43.000;   68.000
386.888;  -19.375; -170.000; -250.000
387.017;  -81.400; -648.000; -620.000
387.147;  -87.100; -771.000; -798.000
387.276;   -7.450; -410.000; -397.000
387.405;  -10.925; -398.000; -342.000
387.535;  -65.575; -452.000; -361.000
387.664;  -69.900; -692.000; -620.000
387.793;   56.775; -198.000; -113.000
387.922;  447.650;  255.000;  200.000
388.052;   -4.550; -576.000; -423.000
388.181;   -4.700; -342.000; -472.000
388.310;  -25.525; -889.000; -710.000
388.439;  -65.750; -749.000; -742.000
388.568;  153.475;  365.000;  244.000
388.697;  875.400; -756.000; -653.000
388.826;  151.525; -768.000; -666.000
388.956;   16.100; -285.000; -307.000
389.085;  -44.350; -347.000; -287.000
389.214; -116.100; -842.000; -872.000
389.343;  -75.600; -645.000; -413.000
389.472;  398.700;  126.000;  149.000
389.601;  475.600;   91.000;    0.000
389.730;    3.850; -568.000; -687.000
389.859;   55.175;  226.000;   46.000
389.988;  153.200; -423.000; -408.000
390.117;  112.875; -168.000; -146.000
390.246;  -13.250; -331.000; -320.000
390.375;   57.125; -673.000; -626.000
390.504;  -77.675; -703.000; -621.000
390.633; -109.700; -672.000; -726.000
390.761;  -86.000; -732.000; -645.000
390.890;    0.300;   -4.000; -130.000
391.019;  -47.900; -421.000; -441.000
391.148; -127.075; -826.000; -855.000
391.277;  -90.825; -576.000; -493.000
391.406; -102.375; -821.000; -805.000
391.534;   13.050;  574.000; -301.000
391.663;  -85.425; -583.000; -645.000
391.792;  -93.700; -673.000; -701.000
391.921;   71.500;   -3.000;   15.000
392.050;  140.050; -287.000; -228.000
392.178;  -67.650;-1206.000;-1061.000
392.307;  103.525; -758.000; -712.000
392.436;   46.950; -427.000; -641.000
392.564;   13.525;  166.000;   -6.000
392.693;  -99.975; -860.000; -682.000
392.822;  136.275; -529.000; -534.000
392.950;   53.675; -880.000; -714.000
393.079;  246.550; -188.000; -328.000
393.208;   -3.425; -488.000; -511.000
393.336;  -27.725; -170.000; -145.000
393.465;  -58.600; -317.000; -199.000
393.593;   -7.000;   62.000;   79.000
393.722; -154.675;-1121.000; -916.000
393.850;  -43.875; -188.000;  -61.000
393.979; -166.925; -926.000; -805.000
394.107;  -58.650; -517.000; -537.000
394.236;  -41.775; -570.000; -507.000
394.364;  163.700;  383.000;  206.000
394.493;  237.350; -911.000; -767.000
394.621;  -40.450; -955.000; -916.000
394.750;  727.000; -873.000; -923.000
394.878; 3000.400; -247.000; -149.000
395.007; 4106.500; -721.000; -807.000
395.135;  289.100; -790.000; -721.000
395.263;  -91.150;-1038.000;-1040.000
395.392;  -13.750;  -25.000; -107.000
395.520; -142.250; -818.000; -679.000
395.648; -105.750; -865.000; -915.000
395.777;  -18.850; -366.000; -405.000
395.905;  -58.800; -449.000; -564.000
396.033;    0.650;  217.000;  172.000
396.162;  402.925; -399.000; -453.000
396.290;  373.500;  -17.000;   -2.000
396.418;   53.400; -555.000; -514.000
396.546;  -88.200; -571.000; -466.000
396.674; -105.350; -850.000; -878.000
396.803;    1.575;  -72.000;  -23.000
396.931;   66.800; -179.000; -199.000
397.059;    2.000;-1026.000; -989.000
397.187; -128.150;-1026.000; -975.000
397.315; -147.050; -884.000; -649.000
397.443;  -99.500; -592.000; -443.000
397.572; -111.050; -578.000; -424.000
397.700;  -30.825; -607.000; -614.000
397.828;  -15.600;  120.000;  -90.000
397.956;  -37.975; -508.000; -478.000
398.084;  -64.200; -767.000; -626.000
398.212;   35.225;  137.000;  124.000
398.340;    4.500;  -56.000;  159.000
398.468;   13.425; -390.000; -169.000
398.596; -148.050; -993.000; -953.000
398.724; -114.875; -762.000; -767.000
398.852; -170.150;-1024.000; -976.000
398.980;  -72.250; -560.000; -560.000
399.108;  -78.400; -982.000; -735.000
399.236;   12.325;   13.000;    8.000
399.363;    5.475;  222.000;  196.000
399.491;  -70.875; -404.000; -398.000
399.619; -125.025; -829.000; -800.000
399.747; -102.425; -859.000; -771.000
399.875;   68.600;  220.000;  234.000
400.003;  -60.900; -359.000; -284.000
400.130; -101.300; -421.000; -341.000
400.258;  -42.625;  -83.000;   38.000
400.386;  -68.650; -352.000; -168.000
400.514;  -59.550; -526.000; -587.000
400.641; -108.150; -928.000; -802.000
400.769; -137.300; -979.000; -888.000
400.897; -133.475; -838.000; -793.000
401.025;  -17.300; -166.000; -152.000
401.152;  -13.375;  220.000;   38.000
401.280;  -87.350; -430.000; -429.000
401.408; -116.875; -712.000; -576.000
401.535; -117.450; -735.000; -758.000
401.663; -190.575;-1134.000;-1054.000
401.790;  -91.475; -514.000; -525.000
401.918;   32.625;  436.000;  405.000
402.046;  -26.700;  134.000;  122.000
402.173;  -50.725;  -18.000;    7.000
402.301;  -77.600; -519.000; -397.000
402.428;   28.350;  528.000;  383.000
402.556; -143.725;-1188.000; -913.000
402.683;  -42.975;  -20.000;   -1.000
402.811;  -31.150;  -37.000; -206.000
402.938;   -6.425;   20.000;   27.000
403.066;  157.450; -574.000; -558.000
403.193;  293.350;  299.000;  239.000
403.321;  210.525; -396.000; -574.000
403.448;  279.725;   83.000;   27.000
403.575;  124.225;  -90.000;  -46.000
403.703; -104.075; -732.000; -557.000
403.830;  -73.775; -531.000; -496.000
403.957; -143.975;-1117.000;-1023.000
404.085;    5.600;  -61.000; -172.000
404.212;   99.975;  -50.000;   63.000
404.339;  262.200; -566.000; -306.000
404.467; 5925.275; -612.000; -524.000
404.594; 3753.425; -287.000; -227.000
404.721;  830.275; -869.000; -764.000
404.848;   67.800; -113.000; -202.000
404.976; -110.550; -856.000; -783.000
405.103;  -11.600;  -14.000;  -82.000
405.230;  -18.850;  190.000;  226.000
405.357;   13.175;  117.000;   44.000
405.484;  262.025;  -49.000;    5.000
405.612;   44.525; -548.000; -563.000
405.739;  -68.650; -488.000; -243.000
405.866;   62.600;  669.000;  385.000
405.993;  -63.600; -398.000; -102.000
406.120; -144.225; -801.000; -887.000
406.247;  -72.025; -323.000; -342.000
406.374;  353.850;  540.000;  629.000
406.501;   62.300; -632.000; -702.000
406.628;  -84.075; -621.000; -589.000
406.755; -111.300; -803.000; -620.000
406.882;  -51.000; -228.000; -277.000
407.009; -108.500; -719.000; -628.000
407.136;   27.750; -480.000; -401.000
407.263;   80.375; -939.000; -829.000
407.390;  -77.725; -692.000; -614.000
407.517; -192.375;-1139.000;-1187.000
407.644;  -62.750; -332.000; -256.000
407.771;  -81.775; -249.000; -287.000
407.898;    1.000;  168.000;  328.000
408.025;  -67.800; -421.000; -313.000
408.151;   -7.300;   82.000;  153.000
408.278;  -77.525; -267.000; -216.000
408.405; -123.800; -931.000; -899.000
408.532;  -82.525; -549.000; -542.000
408.659; -126.950; -677.000; -648.000
408.785; -206.675;-1298.000;-1170.000
408.912;  -70.400; -412.000; -296.000
409.039; -127.175; -610.000; -686.000
409.166; -110.225; -591.000; -555.000
409.292; -120.325; -571.000; -534.000
409.419; -121.525; -665.000; -649.000
409.546;  -87.400; -431.000; -192.000
409.672; -116.325; -713.000; -545.000
409.799;  -26.025;  -36.000;   34.000
409.926;  -41.075; -180.000; -179.000
410.052; -168.725;-1127.000;-1091.000
410.179;  -79.550; -368.000; -392.000
410.305;  -83.075; -375.000; -493.000
410.432;  -48.300; -220.000; -333.000
410.558;  -92.150; -305.000; -380.000
410.685; -110.800; -688.000; -431.000
410.812; -114.700; -409.000; -588.000
410.938; -152.750; -964.000; -808.000
411.065; -105.675; -671.000; -645.000
411.191;  -34.325; -189.000; -174.000
411.317; -136.725; -823.000; -742.000
411.444;  -72.350; -317.000; -246.000
411.570;  -83.325; -339.000; -294.000
411.697; -139.100; -758.000; -752.000
411.823; -183.525; -989.000; -999.000
411.949;  -41.575;  -56.000;   17.000
412.076; -120.225; -539.000; -519.000
412.202; -128.425; -758.000; -757.000
412.329; -139.525; -798.000; -752.000
412.455; -126.175; -821.000; -657.000
412.581;  -31.650;  -15.000;  172.000
412.707;  -72.150; -540.000; -457.000
412.834;    9.950;  156.000;  219.000
412.960;  -96.250; -785.000; -784.000
413.086; -119.700; -743.000; -701.000
413.212;  101.450;  604.000;  578.000
413.339;  -87.250; -685.000; -701.000
413.465;  -20.900; -364.000; -310.000
413.591;  -94.900; -757.000; -474.000
413.717;  -62.875; -358.000; -366.000
413.843; -142.675; -839.000; -861.000
413.969;  -54.100;  -47.000; -292.000
414.096; -102.025; -679.000; -679.000
414.222;  -24.900;  -33.000;   85.000
414.348;  -41.800; -652.000; -385.000
414.474;   67.050;   38.000;  -52.000
414.600;  -25.225; -126.000; -144.000
414.726;  -15.225;  -96.000;  -55.000
414.852;  -59.825; -365.000; -342.000
414.978;   30.025;  104.000;  -18.000
415.104;   35.100;   38.000;   80.000
415.230;   24.425; -329.000; -330.000
415.356;   19.675; -409.000; -514.000
415.482;  186.050;   13.000;  -35.000
415.608;  257.175; -247.000; -323.000
415.734;  964.475;   67.000;   38.000
415.860;20172.200; -875.000; -767.000
415.986;14545.975; -685.000; -607.000
416.111; 1256.600; -798.000; -652.000
416.237;  258.325; -424.000; -571.000
416.363; 1156.800; -765.000; -733.000
416.489; 4273.500; -324.000; -251.000
416.615;  446.575; -707.000; -742.000
416.741;  -27.675; -677.000; -784.000
416.866;  -95.050; -673.000; -736.000
416.992; -130.400; -801.000; -818.000
417.118;  -40.200;  -41.000;  -80.000
417.244;  -82.650; -798.000; -531.000
417.369;  -92.325; -801.000; -612.000
417.495;  -23.950; -325.000; -254.000
417.621; -101.225;-1015.000; -803.000
417.746;  -21.975; -579.000; -572.000
417.872;   48.325; -254.000; -144.000
417.998;   34.425; -515.000; -530.000
418.123; 1060.350;-1073.000; -845.000
418.249; 5498.725; -512.000; -601.000
418.374;  759.650; -916.000; -824.000
418.500;  103.225; -383.000; -482.000
418.626;  116.500;   70.000;  -59.000
418.751;  108.025; -549.000; -448.000
418.877;  197.675; -637.000; -643.000
419.002; 1857.350; -688.000; -560.000
419.128;12930.675; -930.000; -721.000
419.253; 3140.975; -967.000; -837.000
419.379;  409.700; -391.000; -338.000
419.504;  404.100;  325.000;  415.000
419.629;  525.250; -393.000; -212.000
419.755; 3674.200; -317.000; -254.000
419.880;21837.375;  -98.000;   67.000
420.006;11666.375; -280.000; -221.000
420.131;29906.225; -662.000; -775.000
420.256; 4271.975; -315.000; -316.000
420.382;  546.925; -665.000; -687.000
420.507;   71.275; -649.000; -778.000
420.632;  112.525; -337.000; -339.000
420.758;  183.025; -251.000; -425.000
420.883;  -97.325; -876.000; -672.000
421.008;  -98.175; -775.000; -619.000
421.133; -100.825; -509.000; -467.000
421.259;  -56.600; -325.000; -259.000
421.384; -124.475; -834.000; -693.000
421.509;  -51.200;-1052.000; -862.000
421.634;  925.800; -936.000; -820.000
421.759;  401.475; -359.000; -327.000
421.885;  -68.750; -717.000; -656.000
422.010;  -79.875; -673.000; -542.000
422.135; -155.900; -695.000; -727.000
422.260;   27.400;  340.000;  280.000
422.385;  -56.325;   12.000;  -98.000
422.510;    2.225;  151.000;  -26.000
422.635;    5.425;  -87.000;  -43.000
422.760;   76.250; -766.000; -791.000
422.885;   41.625;  -57.000;  -80.000
423.010;  -37.075; -112.000; -169.000
423.135; -108.000; -481.000; -561.000
423.260;  -29.975; -150.000; -245.000
423.385;   58.300;  476.000;  222.000
423.510;   25.825;   71.000;  -22.000
423.635;   61.850;  133.000;   45.000
423.760;   52.575;  383.000;  328.000
423.885;   52.750;  336.000;  391.000
424.010;    2.150;  -68.000;  -13.000
424.135;  -20.500;    5.000;  -33.000
424.259;  -84.750; -654.000; -457.000
424.384;  -86.100; -279.000; -272.000
424.509;  -30.025; -260.000; -186.000
424.634; -106.650; -761.000; -623.000
424.759;  -27.750; -688.000; -544.000
424.883;  -40.375; -506.000; -527.000
425.008;  156.075; -502.000; -410.000
425.133; 2027.200; -679.000; -653.000
425.258;  947.500; -517.000; -381.000
425.382;  895.525; -867.000; -774.000
425.507; 2283.450; -487.000; -543.000
425.632;  404.000; -802.000; -663.000
425.756;  456.775; -256.000; -146.000
425.881; 6810.400; -831.000; -857.000
426.006;18482.875; -604.000; -355.000
426.130; 2810.225; -696.000; -508.000
426.255;  362.600; -611.000; -491.000
426.379;  152.525; -189.000; -577.000
426.504;  358.000;  660.000;  544.000
426.629; 4092.325; -519.000; -466.000
426.753; 2792.825;   64.000;  -46.000
426.878;  315.625; -252.000; -288.000
427.002;  135.525; -651.000; -668.000
427.127; 1614.700;  -35.000; -158.000
427.251;11663.800;  372.000;  401.000
427.375; 3264.100; -191.000; -173.000
427.500; 2024.675; -616.000; -610.000
427.624;  684.350; -234.000; -400.000
427.749;   61.100; -216.000; -225.000
427.873;  -60.700; -499.000; -412.000
427.997;  -53.050; -222.000; -230.000
428.122;   71.600;  795.000;  703.000
428.246;   64.125;  433.000;  434.000
428.371; -128.600; -869.000; -773.000
428.495; -111.825; -624.000; -646.000
428.619;  -53.450; -186.000; -117.000
428.743;   19.750;   65.000;  132.000
428.868;   -5.500; -732.000; -643.000
428.992; 1187.575; -219.000; -326.000
429.116;  459.350; -329.000; -357.000
429.240;  222.650;  419.000;  426.000
429.365;  -27.825; -454.000; -574.000
429.489;  -57.675; -638.000; -647.000
429.613;   18.825; -236.000; -177.000
429.737;   42.525; -563.000; -432.000
429.861;  274.725; -247.000; -133.000
429.985; 5643.400; -425.000; -305.000
430.109; 6189.025; -770.000; -908.000
430.234;  704.100;   76.000;  -50.000
430.358;   51.650; -250.000; -160.000
430.482;  -83.975; -672.000; -564.000
430.606;  -84.675; -655.000; -375.000
430.730;  -14.825; -437.000; -388.000
430.854;   78.700; -909.000; -835.000
430.978;  -77.150; -795.000; -764.000
431.102;  -98.300; -499.000; -422.000
431.226; -118.150; -874.000; -815.000
431.350;    6.925;  345.000;  422.000
431.474;  -95.275; -661.000; -373.000
431.597; -161.525;-1060.000; -848.000
431.721;  -82.650; -276.000; -267.000
431.845; -143.850; -704.000; -472.000
431.969;  -83.775; -304.000; -349.000
432.093;  -82.850; -395.000; -317.000
432.217;  -33.300;   32.000;   82.000
432.341;  -88.625; -523.000; -518.000
432.464;   -3.275;   96.000;   40.000
432.588;  148.900; -401.000; -329.000
432.712;   74.200;  -52.000;  -52.000
432.836;   28.500;  213.000;  263.000
432.959;  -24.200; -372.000; -311.000
433.083;   78.650;   11.000;    2.000
433.207;  366.075;  285.000;  930.000
433.330; 5200.625; -391.000; -200.000
433.454; 6370.700; -654.000; -638.000
433.578; 3661.175;  583.000;  278.000
433.701;  663.750; -623.000; -675.000
433.825;  106.275; -292.000; -299.000
433.949;  121.525;   28.000;  -72.000
434.072;   31.025; -410.000; -323.000
434.196;  -23.200; -309.000; -117.000
434.319; 3687.525;25482.000;25124.000
434.443;  689.400; -656.000; -603.000
434.566; 2711.875;  281.000;   62.000
434.690;  453.075; -637.000; -383.000
434.813;   59.050; -251.000; -173.000
434.937;  -80.175; -569.000; -696.000
435.060;  -68.950; -423.000; -332.000
435.184;  228.700; -492.000; -217.000
435.307;  124.650;  159.000;  102.000
435.431;  -26.600;  -40.000;   24.000
435.554;  -81.025; -399.000; -240.000
435.677; -100.625; -350.000; -258.000
435.801;  -50.750;  -25.000;   49.000
435.924;  -28.200;    1.000;  -67.000
436.048; -130.625;-1019.000; -732.000
436.171;  -80.375; -240.000;  -66.000
436.294;  -41.800; -248.000; -229.000
436.417;   73.950; -963.000; -849.000
436.541;  -81.525; -814.000; -840.000
436.664;  -58.175; -242.000; -316.000
436.787;  -34.225;   13.000;  113.000
436.910; -131.300; -792.000; -422.000
437.034;    5.900;  142.000;  143.000
437.157;   16.950;  -11.000;    0.000
437.280;  -58.625; -392.000; -292.000
437.403; -110.125; -982.000; -869.000
437.526;  481.200; -903.000; -865.000
437.649; 1802.075; -505.000; -332.000
437.772;  234.375; -692.000; -540.000
437.896;  111.225;  700.000;  544.000
438.019; -113.325; -758.000; -503.000
438.142;  -87.375; -596.000; -506.000
438.265;  -42.125; -639.000; -670.000
438.388;  427.450; -520.000; -410.000
438.511;   42.250; -597.000; -394.000
438.634;  -58.200; -247.000; -125.000
438.757; -149.550; -693.000; -619.000
438.880;  -34.150;  -34.000;  -57.000
439.003;  -80.400; -417.000; -437.000
439.126;  -59.250; -287.000; -167.000
439.248;  -64.750;  -98.000; -139.000
439.371;  -40.600;    9.000;  -53.000
439.494;   20.475;  510.000;  439.000
439.617;  -61.850;   65.000;  -88.000
439.740; -185.025; -968.000; -816.000
439.863; -154.700; -755.000; -595.000
439.986; -125.425; -476.000; -431.000
440.108;  -47.500; -161.000; -112.000
440.231; -171.000; -950.000; -836.000
440.354;  -47.825;  -64.000; -150.000
440.477;  -11.500; -566.000; -542.000
440.599;  -32.900; -200.000; -225.000
440.722; -133.300; -709.000; -586.000
440.845;   69.875;  751.000;  928.000
440.968; -108.300; -415.000; -311.000
441.090;  -73.450; -199.000;  -33.000
441.213; -175.475;-1021.000; -825.000
441.336;  -65.900; -159.000;   -5.000
441.458;  -79.150; -549.000; -396.000
441.581; -104.025; -628.000; -629.000
441.703;  -82.000; -152.000;   13.000
441.826; -118.675; -557.000; -400.000
441.948;  -46.350;   56.000;   51.000
442.071;   30.625;  555.000;  424.000
442.193; -124.725; -531.000; -485.000
442.316;    6.825;  152.000;   97.000
442.438;   27.325; -233.000;  -10.000
442.561;   48.050;  272.000;  262.000
442.683;  417.125; -809.000; -522.000
442.806;  938.050;   -8.000;   74.000
442.928;  -16.650; -859.000; -604.000
443.051;  -95.275; -577.000; -373.000
443.173;  -98.750; -341.000; -339.000
443.295;  -95.175; -263.000; -371.000
443.418;  -82.975; -321.000;  -29.000
443.540;  -14.050; -106.000;   -4.000
443.662; -125.750; -563.000; -465.000
443.785;  -20.175;  335.000;  199.000
443.907; -102.400; -362.000; -208.000
444.029; -137.825; -767.000; -494.000
444.152; -145.200; -644.000; -554.000
444.274;  -49.225;  -18.000;  -24.000
444.396; -122.750; -461.000; -221.000
444.518; -133.000; -691.000; -454.000
444.640; -114.175; -268.000; -111.000
444.763;  -32.600;  388.000;  249.000
444.885; -126.400; -432.000; -392.000
445.007;  -38.350;   35.000;   86.000
445.129; -122.250; -610.000; -515.000
445.251; -107.250; -372.000; -439.000
445.373; -153.250; -537.000; -386.000
445.495;   -9.700;  242.000;  350.000
445.617;   45.950;  853.000;  753.000
445.739;  -74.925; -215.000;  -97.000
445.861;  -41.200; -245.000; -112.000
445.984;  -36.400; -267.000; -101.000
446.105;  129.950; -418.000; -251.000
446.227;  461.925; -176.000;  -19.000
446.349;  -21.475; -358.000; -249.000
446.471;  -94.525; -615.000; -448.000
446.593;  -66.900; -316.000;   19.000
446.715;  -26.850;  -67.000;   41.000
446.837;   56.825;  697.000;  832.000
446.959; -109.450; -457.000; -478.000
447.081; -130.575; -628.000; -518.000
447.203;   36.225;  862.000;  834.000
447.325;  -95.950; -270.000;   42.000
447.446;  -31.725;  286.000;  530.000
447.568; -170.000; -921.000; -803.000
447.690;  -85.000; -236.000; -245.000
447.812; -157.700; -798.000; -519.000
447.933;  -34.975;  155.000;  127.000
448.055;  -80.800; -306.000; -261.000
448.177;  119.325;   31.000;   79.000
448.299;   32.000; -935.000; -727.000
448.420;   19.000;  -25.000;  159.000
448.542;  -59.100;   -3.000;   33.000
448.664;  -24.775;  109.000;  322.000
448.785;  -54.325;  265.000;   83.000
448.907;  -98.300; -614.000; -353.000
449.028;  -60.075; -771.000; -471.000
449.150;   34.500;  492.000;  589.000
449.272; -180.725;-1044.000; -913.000
449.393;   18.900;  612.000;  694.000
449.515; -144.350; -634.000; -581.000
449.636;  -69.475; -264.000; -155.000
449.758;   60.875;  763.000;  622.000
449.879;  -99.575; -498.000; -396.000
450.001;  -85.050; -149.000;  -49.000
450.122;  -38.775;  -95.000;  162.000
450.244;  -37.775;   37.000;  364.000
450.365;  -95.225; -495.000; -301.000
450.486;  -42.575;   80.000;  268.000
450.608;   15.050;  393.000;  326.000
450.729;   76.450;  578.000;  645.000
450.850;    6.800; -574.000; -466.000
450.972;  782.325; -552.000; -389.000
451.093; 5093.975;  190.000;  588.000
451.214; 2170.675; -516.000; -337.000
451.336;  399.900;  773.000;  579.000
451.457;   52.325;  264.000;  393.000
451.578;  -41.775; -118.000;  -74.000
451.699; -129.200; -546.000; -540.000
451.821;  -83.200; -284.000;  -50.000
451.942;   -5.975;  278.000;  285.000
452.063;   25.350;  228.000;  419.000
452.184;  552.600;  -54.000;  -49.000
452.305; 1129.725;  103.000;  170.000
452.427;  128.575; -549.000; -301.000
452.548;  -26.600;   23.000;   79.000
452.669;  -59.275; -257.000;  -89.000
452.790;  -50.475;    3.000;  -18.000
452.911;  -25.450;  195.000;  259.000
453.032;  -84.500; -289.000;  -60.000
453.153;  -40.800;  -29.000;   81.000
453.274;   39.950;  737.000;  868.000
453.395;  -59.675;  -51.000;  175.000
453.516;  113.450; 1317.000; 1388.000
453.637;  -65.575; -205.000; -150.000
453.758;  -65.850;   15.000;   69.000
453.879; -130.975; -462.000; -250.000
454.000;   77.600; 1086.000;  948.000
454.121; -127.800; -554.000; -326.000
454.242; -130.775; -599.000; -383.000
454.362;  -59.950;  -99.000;  114.000
454.483;  -41.950; -309.000; -229.000
454.604;   49.050;  512.000;  580.000
454.725; -141.575; -627.000; -555.000
454.846; -130.550; -474.000; -406.000
454.967;  -27.475;  230.000;  539.000
455.087;  -58.625;  179.000;  153.000
455.208;    5.225;  554.000;  856.000
455.329;  -64.550;  -22.000;   82.000
455.450;   35.125;  473.000;  633.000
455.570;  -88.150; -234.000; -211.000
455.691;  -63.950;  201.000;  407.000
455.812; -118.825; -270.000;  -92.000
455.932;  -63.825;  107.000;  -97.000
456.053;  -82.725;   36.000;   24.000
456.173; -118.925; -433.000; -355.000
456.294; -135.925; -476.000; -303.000
456.415;  -57.950;  -73.000;   70.000
456.535;  -47.075;  297.000;  273.000
456.656;  -48.600;  132.000;  240.000
456.776;  -79.800;    3.000;  298.000
456.897;  -22.625;  308.000;  513.000
457.017;  -62.000; -153.000;   -3.000
457.138; -114.925; -402.000; -249.000
457.258;  -47.975;  263.000;  224.000
457.379;  -20.300;  509.000;  521.000
457.499;  -24.850;  443.000;  432.000
457.620; -120.650; -407.000; -231.000
457.740;  -99.300; -132.000;  -11.000
457.860;  -60.800;   87.000;   44.000
457.981;  -58.775;  132.000;  124.000
458.101;  -74.525;  -89.000;   40.000
458.221;  -11.575;  336.000;  402.000
458.342;  -55.075;   -4.000;  -37.000
458.462;   14.050;  617.000;  352.000
458.582;  -44.750; -302.000; -294.000
458.703;    0.725;  303.000;  154.000
458.823;  -34.075;   22.000;  163.000
458.943;   26.950;  341.000;  467.000
459.063;   -6.200; 1124.000;  192.000
459.183;  -19.650;  328.000;  313.000
459.304;   -3.650;  315.000;  517.000
459.424;  -71.700; -246.000;  -89.000
459.544;  346.675;  388.000;  764.000
459.664;  844.000;  499.000;  506.000
459.784;  325.800; 1004.000; 1175.000
459.904;   60.700;  867.000;  744.000
460.024;   61.675;  867.000;  684.000
460.144;   10.675;  449.000;  554.000
460.264;  -11.050;  515.000;  327.000
460.385; -101.350; -145.000; -119.000
460.505;   35.325;  905.000;  858.000
460.625; -108.275;  -17.000;  -68.000
460.745;  -30.350;  396.000;  541.000
460.864;  -44.375;  153.000;  469.000
460.984;   16.625;  499.000;  573.000
461.104;  122.925; 1656.000; 1775.000
461.224;    5.650;  657.000;  650.000
461.344;  -30.700;  431.000;  360.000
461.464;  -39.650;  258.000;  513.000
461.584;  -30.450;  283.000;  466.000
461.704;  -47.100;   58.000;  108.000
461.824;  -70.375;  238.000;  259.000
461.943;  -50.125;  191.000;  130.000
462.063;  -75.800;    2.000;  324.000
462.183;   23.400;  639.000;  717.000
462.303;   91.650; 1678.000; 1230.000
462.422;   20.575;  781.000;  840.000
462.542;  -31.275;  271.000;  391.000
462.662;   34.400;  353.000;  380.000
462.782;  242.025;  833.000;  572.000
462.901;  486.175;  545.000;  717.000
463.021;  264.625; 1702.000; 1638.000
463.141;    2.925;  337.000;  770.000
463.260;  -20.325;  614.000;  474.000
463.380;   -8.325;  902.000;  884.000
463.499;  -52.000;  342.000;  332.000
463.619;  -51.975;  581.000;  559.000
463.738;   97.875; 1644.000;  903.000
463.858;    7.950;  657.000;  811.000
463.978;  -42.675;  542.000;  396.000
464.097;   39.400;  921.000; 1114.000
464.217;  113.500; 1196.000; 1143.000
464.336;  110.475; 1068.000; 1130.000
464.455;  -48.175;  328.000;  659.000
464.575;   27.000;  597.000;  602.000
464.694;  154.500; 1204.000; 1179.000
464.814;  113.350; 1190.000; 1138.000
464.933;   64.375; 1095.000; 1027.000
465.052;   94.450; 1412.000; 1054.000
465.172;   69.625;  922.000;  799.000
465.291;  148.175; 1376.000; 1320.000
465.410;    2.500;  462.000;  735.000
465.530;   83.125; 1355.000; 1310.000
465.649;   70.775; 1209.000; 1273.000
465.768;  138.475; 1673.000; 1508.000
465.888;   61.000;  941.000; 1174.000
466.007;   89.425; 1335.000; 1440.000
466.126;  -18.025;  721.000;  641.000
466.245;   52.125; 1176.000; 1187.000
466.364;    5.500;  950.000; 1060.000
466.484;   42.475; 1024.000; 1213.000
466.603;   21.300; 1101.000; 1222.000
466.722;  114.800; 1490.000; 1769.000
466.841;   65.550; 1151.000; 1401.000
466.960;   41.425; 1069.000;  972.000
467.079;  142.375; 1971.000; 1786.000
467.198;   40.925; 1238.000; 1181.000
467.317;   86.575; 1768.000; 1162.000
467.436;   71.300; 1709.000; 1261.000
467.555;  121.925; 1796.000; 1746.000
467.674;   64.925; 1227.000; 1329.000
467.793;   51.775; 1376.000; 1374.000
467.912;   96.425; 1658.000; 1539.000
468.031;  137.150; 2038.000; 1930.000
468.150;  137.725; 1842.000; 1837.000
468.269;  184.800; 2313.000; 2090.000
468.388;  180.500; 2168.000; 2339.000
468.507;  252.375; 2884.000; 2903.000
468.626;  221.775; 2555.000; 2541.000
468.744;  134.450; 2018.000; 2174.000
468.863;  196.400; 2312.000; 2523.000
468.982;   85.425; 1503.000; 1555.000
469.101;  213.275; 2788.000; 2692.000
469.220;  148.275; 2333.000; 2176.000
469.338;  254.325; 2935.000; 3051.000
469.457;  200.575; 2719.000; 2545.000
469.576;  334.750; 3953.000; 3784.000
469.695;  242.725; 2877.000; 3066.000
469.813;  430.750; 4148.000; 4192.000
469.932;  405.550; 4255.000; 4485.000
470.051;  431.150; 4075.000; 4161.000
470.169;  852.600; 4470.000; 4338.000
470.288; 1481.825; 4700.000; 4809.000
470.406;  880.425; 5059.000; 5194.000
470.525;  622.325; 6101.000; 5787.000
470.644;  636.725; 6847.000; 6794.000
470.762;  818.125; 8397.000; 7873.000
470.881;  905.125; 8651.000; 8464.000
470.999; 1037.475; 9685.000; 9151.000
471.118; 1110.550;11174.000;10711.000

