
Integration time [ms]: 200.000
Averaging Nr. [scans]: 10
Smoothing Nr. [pixels]: 0
Data measured with spectrometer [name]: 2101012U2
Wave   ;Sample   ;Dark     ;Reference
[nm]   ;[counts] ;[counts] ;[counts] 

197.733;  141.400;  516.000;  404.000
197.879; -175.500; -610.000; -634.000
198.025;  -82.000; -475.000; -420.000
198.171; -146.700; -602.000; -612.000
198.317;  -68.100; -401.000; -316.000
198.463; -126.400; -655.000; -404.000
198.609;   61.400;  181.000; -137.000
198.755; -166.800; -644.000; -410.000
198.901; -139.400; -505.000; -424.000
199.047; -160.100; -615.000; -488.000
199.193;  -57.800; -230.000; -468.000
199.339;  -84.600; -222.000; -369.000
199.485;  113.200;  330.000;  271.000
199.631;   50.200;  227.000;  310.000
199.777; -110.900; -466.000; -398.000
199.923; -131.700; -610.000; -424.000
200.069;    9.100; -141.000;  -58.000
200.215;  137.600;  128.000;  453.000
200.361;  106.500;  243.000;  477.000
200.507; -102.200; -600.000; -373.000
200.653;  -20.700; -371.000; -194.000
200.798;  -64.100; -215.000; -125.000
200.944;   25.200; -146.000;  -41.000
201.090;   68.600;   61.000;  222.000
201.236;   17.900; -116.000; -158.000
201.382;  266.200;  874.000;  903.000
201.528;   -5.900;  -58.000;  -48.000
201.674; -131.300; -386.000; -293.000
201.819; -133.400; -540.000; -439.000
201.965; -175.400; -699.000; -447.000
202.111;  -29.100; -273.000; -226.000
202.257;  -78.000; -250.000; -238.000
202.402;   31.100;   13.000;  -36.000
202.548;  -38.500; -169.000; -116.000
202.694;  202.600;  410.000; -183.000
202.840; -167.900; -603.000; -531.000
202.985; -154.000; -681.000; -639.000
203.131; -225.800; -832.000; -666.000
203.277;  -29.400; -199.000; -262.000
203.423; -100.200; -434.000; -520.000
203.568; -116.300; -462.000; -237.000
203.714; -118.800; -535.000; -542.000
203.860; -154.400; -682.000; -641.000
204.005;   17.100;  112.000;  167.000
204.151;  162.300;  561.000;  556.000
204.296;  -91.000; -354.000; -221.000
204.442; -104.100; -600.000; -547.000
204.588; -136.300; -592.000; -579.000
204.733;   84.600;  178.000;  168.000
204.879; -247.500;-1018.000; -822.000
205.025;   46.500;  -99.000;  126.000
205.170;   10.200;  -17.000;   94.000
205.316;  156.100;  438.000;  661.000
205.461; -197.100; -698.000; -554.000
205.607;  209.800;  609.000;  665.000
205.752; -151.300; -626.000; -551.000
205.898;  -92.900; -501.000; -391.000
206.043; -125.500; -578.000; -506.000
206.189;  -64.800; -243.000; -285.000
206.334;  149.300;  554.000;  606.000
206.480;  162.000;  409.000;  239.000
206.625; -140.100; -529.000; -552.000
206.771;  -87.400; -451.000; -373.000
206.916;  -75.500; -210.000; -537.000
207.062; -125.300; -545.000; -591.000
207.207; -115.300; -546.000; -443.000
207.353;  125.200;  185.000;  460.000
207.498;   49.900;  196.000;   85.000
207.643; -102.500; -501.000; -370.000
207.789; -287.700;-1069.000; -910.000
207.934; -178.700; -665.000; -713.000
208.080;  -62.100; -154.000;   66.000
208.225;   14.900;  -22.000;  -57.000
208.370; -170.700; -727.000; -619.000
208.516; -159.300; -741.000; -487.000
208.661;  -70.700; -127.000;  -69.000
208.806;    0.700; -165.000; -171.000
208.952; -261.900;-1044.000; -731.000
209.097;  192.900;  378.000;  349.000
209.242;  -90.400; -307.000; -382.000
209.387;  135.200;  392.000;  350.000
209.533; -115.900; -321.000; -350.000
209.678;  210.400;  472.000;  543.000
209.823;  -98.800; -408.000; -310.000
209.969; -191.000; -860.000; -757.000
210.114; -220.000; -907.000; -719.000
210.259; -223.700; -939.000; -889.000
210.404;  -37.200; -171.000;  103.000
210.549;   63.800;  108.000;    3.000
210.695;  -50.900;   -3.000;  -95.000
210.840;   68.300;   94.000;   67.000
210.985; -121.200; -484.000; -303.000
211.130;  160.100;  268.000;  406.000
211.275;   72.700;  207.000;  199.000
211.420;  -75.300; -300.000; -289.000
211.566; -137.300; -536.000; -489.000
211.711;   65.500;  218.000;  157.000
211.856; -150.300; -545.000; -519.000
212.001;   24.900;  151.000;   44.000
212.146;   30.300;  153.000;   49.000
212.291;  -16.100; -210.000; -186.000
212.436;  -50.600; -280.000;   -6.000
212.581; -141.200; -685.000; -653.000
212.726; -160.900; -487.000; -538.000
212.871; -105.500; -552.000; -217.000
213.016; -299.300;-1172.000;-1029.000
213.161;  154.600;  406.000;  291.000
213.306; -148.500; -435.000; -577.000
213.451; -181.800; -778.000; -689.000
213.596;  -96.100; -455.000; -347.000
213.741;  -81.500; -448.000; -538.000
213.886; -139.900; -498.000; -517.000
214.031;  -34.000; -294.000; -124.000
214.176;  -91.900; -408.000; -341.000
214.321;  -30.100; -296.000; -157.000
214.466;  -40.900; -163.000;  -43.000
214.611;   46.200;  -61.000;  -10.000
214.756; -268.300; -948.000; -858.000
214.901;  -19.900; -388.000; -226.000
215.046; -259.700; -797.000; -825.000
215.191;   44.700;  128.000;   35.000
215.336;  -17.900; -157.000;  -19.000
215.480; -137.700; -684.000; -505.000
215.625;  -28.400; -175.000;  -19.000
215.770; -179.400; -757.000; -662.000
215.915;  -11.500;   -5.000;  -97.000
216.060;   21.200; -113.000;  -21.000
216.205; -224.200; -731.000; -779.000
216.349; -140.400; -470.000; -533.000
216.494; -283.300; -939.000; -867.000
216.639; -232.400; -823.000; -888.000
216.784; -165.000; -577.000; -525.000
216.929;  109.700;  392.000;  281.000
217.073;  -18.200; -244.000;  -31.000
217.218;   46.800;   78.000;  -47.000
217.363; -191.900; -656.000; -618.000
217.507; -102.500; -623.000; -588.000
217.652; -274.400; -845.000; -874.000
217.797; -191.800; -708.000; -659.000
217.942; -218.700; -856.000; -720.000
218.086;  198.900;  608.000;  539.000
218.231;  -54.800; -174.000;  -26.000
218.376;  -71.900; -337.000; -229.000
218.520;  -16.900;  -41.000;   96.000
218.665;  -49.900; -338.000; -204.000
218.810;  -99.600; -275.000; -233.000
218.954;   38.200;  201.000;   35.000
219.099; -218.900; -713.000; -963.000
219.243; -152.300; -589.000; -554.000
219.388;  -87.300; -264.000; -136.000
219.532;   -3.200; -116.000; -116.000
219.677; -143.600; -564.000; -521.000
219.822;   55.700;   33.000;   89.000
219.966;   14.900;   17.000;  -99.000
220.111;  -43.900; -328.000;  -40.000
220.255; -197.500; -797.000; -750.000
220.400;  -27.500; -180.000; -146.000
220.544; -116.700; -516.000; -450.000
220.689;  -65.200; -422.000; -451.000
220.833;  -43.700; -123.000;  -58.000
220.978;  -76.800; -393.000; -563.000
221.122;   56.500;  319.000;  307.000
221.267; -207.000; -906.000; -837.000
221.411; -159.500; -478.000; -394.000
221.555;   14.300; -104.000;  -23.000
221.700; -107.300; -329.000; -222.000
221.844;  104.600;  255.000;  272.000
221.989;  -92.800; -328.000; -311.000
222.133;  -70.000; -289.000; -307.000
222.277;    0.700;    5.000;   78.000
222.422;   66.000;  227.000;  113.000
222.566;  -80.600; -381.000; -214.000
222.711;  -91.400; -414.000; -479.000
222.855; -148.600; -643.000; -586.000
222.999; -180.700; -642.000; -717.000
223.144;  -61.200; -195.000; -194.000
223.288;  138.800;  423.000;  251.000
223.432;   42.100;  184.000;  230.000
223.576;   78.900;  152.000;  -21.000
223.721;  115.900;  364.000;  273.000
223.865; -115.800; -472.000; -475.000
224.009;  614.100; 1673.000; 1631.000
224.153; -147.800; -660.000; -671.000
224.298; -163.600; -531.000; -489.000
224.442;    0.800;  -74.000;  -33.000
224.586;  -12.200; -169.000; -106.000
224.730; -184.500; -858.000; -670.000
224.875; -210.000; -739.000; -688.000
225.019;   63.200;  102.000;  188.000
225.163;  107.600;  208.000;  341.000
225.307;   58.400;   97.000;  -91.000
225.451;  109.600;  360.000;  481.000
225.595;   85.900;  264.000;  176.000
225.739;  -28.500; -170.000;  -94.000
225.884;   55.400;   86.000;    5.000
226.028; -229.300; -760.000; -626.000
226.172;  -71.800; -260.000; -273.000
226.316; -247.900; -941.000; -902.000
226.460; -110.100; -645.000; -493.000
226.604; -109.700; -406.000; -400.000
226.748; -193.000; -836.000; -733.000
226.892;  -49.600; -227.000; -181.000
227.036;  -81.600; -537.000; -447.000
227.180; -112.900; -551.000; -375.000
227.324; -127.800; -561.000; -580.000
227.468; -238.300; -819.000; -717.000
227.612;   54.200;  242.000;  -28.000
227.756; -220.900; -845.000; -698.000
227.900;  127.600;  342.000;  441.000
228.044;  -84.900; -509.000; -290.000
228.188;  152.500;  448.000;  568.000
228.332; -156.200; -546.000; -472.000
228.476;  -20.300; -223.000; -149.000
228.620;  -57.100; -210.000; -150.000
228.764;  159.000;  431.000;  349.000
228.908;   -4.800; -155.000;   30.000
229.052; -120.300; -615.000; -528.000
229.195;  -17.700; -172.000;   13.000
229.339;  -11.000; -235.000; -305.000
229.483;  -48.600;    5.000; -162.000
229.627;   20.700; -156.000;  139.000
229.771;  -94.400; -218.000; -294.000
229.915;   29.000;  230.000;   79.000
230.059; -178.200; -648.000; -663.000
230.202;  -88.400; -370.000; -317.000
230.346;   -6.600; -107.000;  107.000
230.490; -128.300; -489.000; -521.000
230.634; -207.600; -736.000; -553.000
230.777;  178.600;  478.000;  509.000
230.921; -116.200; -450.000; -359.000
231.065;  -53.800; -246.000; -286.000
231.209;   70.000;  261.000;  265.000
231.352;   61.900;   54.000;   40.000
231.496;   46.100;  568.000;  188.000
231.640; -137.100; -693.000; -621.000
231.783;  134.300;  546.000;  525.000
231.927;  -68.700; -294.000; -365.000
232.071; -258.800; -962.000; -736.000
232.214; -212.700; -980.000; -764.000
232.358; -220.600; -683.000; -599.000
232.502;   39.500;  -19.000;    7.000
232.645; -285.200;-1090.000; -927.000
232.789;  -15.700; -257.000; -218.000
232.933;  -76.300; -407.000; -224.000
233.076; -227.900;-1038.000; -897.000
233.220; -206.800; -752.000; -777.000
233.363; -145.300; -669.000; -477.000
233.507;  124.100;  371.000;  129.000
233.650; -173.200; -764.000; -834.000
233.794;  117.500;  438.000;  461.000
233.938; -122.100; -530.000; -362.000
234.081;  -35.000;  -93.000;   31.000
234.225; -128.500; -631.000; -539.000
234.368; -232.500; -773.000; -723.000
234.512;  -70.800; -385.000; -299.000
234.655; -160.400; -582.000; -555.000
234.798; -122.000; -493.000; -466.000
234.942; -237.900; -884.000;-1002.000
235.085; -130.500; -651.000; -443.000
235.229; -157.000; -405.000; -410.000
235.372;  -74.100; -247.000; -191.000
235.516; -117.400; -397.000; -321.000
235.659;   49.800;   92.000;  121.000
235.802;   -2.000;  -38.000;  -22.000
235.946;   84.400;  335.000;  215.000
236.089;   64.300;  126.000;  250.000
236.233;  129.400;  275.000;  298.000
236.376; -103.200; -235.000; -378.000
236.519;  -80.700; -297.000; -319.000
236.663;  -46.300; -215.000; -117.000
236.806; -263.900;-1029.000; -999.000
236.949;  115.100;  543.000;  431.000
237.092;  155.100;  412.000;  391.000
237.236; -148.100; -589.000; -502.000
237.379;  176.900;  352.000;  428.000
237.522; -234.100; -879.000; -768.000
237.666;  -15.100; -271.000;   18.000
237.809; -251.200; -851.000; -823.000
237.952;   61.800;  469.000;  271.000
238.095; -123.000; -447.000; -442.000
238.238;  204.200;  688.000;  700.000
238.382;   15.900;  166.000;  103.000
238.525; -120.700; -598.000; -511.000
238.668; -276.200;-1060.000; -985.000
238.811; -150.100; -638.000; -643.000
238.954; -126.400; -483.000; -334.000
239.097;  199.100;  617.000;  664.000
239.241;   92.800;  394.000;  326.000
239.384;  -28.900; -254.000; -214.000
239.527; -117.300; -424.000; -224.000
239.670; -280.300; -994.000;-1091.000
239.813; -226.000; -696.000; -658.000
239.956;  200.400;  579.000;  473.000
240.099; -230.300; -778.000; -725.000
240.242;  144.500;  428.000;  432.000
240.385;  114.500;  466.000;  450.000
240.528; -159.900; -706.000; -473.000
240.671;   52.500;  189.000;  134.000
240.814;  -32.700; -441.000; -158.000
240.957; -206.000; -767.000; -578.000
241.100; -169.600; -779.000; -755.000
241.243; -292.000;-1234.000; -893.000
241.386; -101.100; -508.000; -379.000
241.529; -192.200; -735.000; -547.000
241.672; -143.000; -566.000; -495.000
241.815; -250.500; -832.000; -808.000
241.958;  -23.100; -125.000; -182.000
242.101; -136.400; -545.000; -390.000
242.244;  -60.400; -270.000; -325.000
242.387;  -82.200; -304.000; -246.000
242.530;  179.400;  470.000;  134.000
242.673; -102.700; -381.000; -309.000
242.815; -240.400; -925.000; -899.000
242.958; -125.200; -482.000; -381.000
243.101;   43.000;  132.000;  187.000
243.244; -142.100; -564.000; -521.000
243.387;  -68.400; -313.000; -316.000
243.530; -165.000; -657.000; -674.000
243.672;   44.500;   43.000;  -92.000
243.815; -101.300; -355.000; -283.000
243.958;   12.100;   98.000;  -26.000
244.101;   37.200;   59.000;  -16.000
244.243;   -0.600;  -47.000;  101.000
244.386; -215.000; -761.000; -630.000
244.529;   -9.400; -132.000; -139.000
244.672; -316.900;-1154.000; -951.000
244.814; -167.700; -621.000; -794.000
244.957;  -98.500; -380.000; -304.000
245.100; -124.800; -489.000; -489.000
245.242; -125.500; -387.000; -374.000
245.385;    7.000;  -59.000;  -39.000
245.528; -249.000; -871.000; -705.000
245.670;  214.900;  612.000;  634.000
245.813; -181.600; -599.000; -547.000
245.956;  -20.700; -324.000; -275.000
246.098; -156.100; -508.000; -650.000
246.241;   21.800;  194.000;   48.000
246.383;    1.000; -119.000;  -73.000
246.526; -142.100; -454.000; -525.000
246.669; -223.300; -889.000; -780.000
246.811;   39.700;  172.000;   -1.000
246.954;  -86.400; -512.000; -426.000
247.096;  -31.800;  -84.000;   -6.000
247.239; -135.600; -482.000; -445.000
247.381; -130.000; -647.000; -488.000
247.524;  174.400;  645.000;  679.000
247.666;    6.900;   58.000;   11.000
247.809; -226.200; -887.000; -691.000
247.951;   -3.600;  -75.000;  138.000
248.094;   69.000;  432.000;  308.000
248.236; -305.000;-1262.000;-1238.000
248.378;   -4.300; -356.000;  -81.000
248.521;  -47.400; -334.000; -337.000
248.663;  -64.100; -236.000; -267.000
248.806;  -11.700; -300.000; -266.000
248.948; -184.500; -886.000; -763.000
249.090;  -93.200; -428.000; -398.000
249.233;  -95.700; -344.000; -381.000
249.375; -124.300; -474.000; -451.000
249.518;  -40.800;  -83.000; -133.000
249.660;   37.300; -103.000;    3.000
249.802; -339.400;-1303.000;-1189.000
249.945; -116.400; -612.000; -540.000
250.087; -211.800; -834.000; -768.000
250.229;  -63.000; -362.000; -480.000
250.371; -129.200; -494.000; -439.000
250.514; -107.700; -310.000; -244.000
250.656;   -6.500;   69.000;  102.000
250.798; -226.400; -849.000; -800.000
250.940; -138.100; -322.000; -322.000
251.083;  -33.700; -335.000; -111.000
251.225;  147.400;  338.000;  310.000
251.367;  -47.900; -274.000; -373.000
251.509;  -79.200; -265.000; -210.000
251.651; -171.300; -731.000; -671.000
251.794;  109.400;  538.000;  632.000
251.936; -201.500; -821.000; -747.000
252.078; -142.800; -540.000; -461.000
252.220; -124.400; -645.000; -477.000
252.362;  189.700;  344.000;  462.000
252.504; -127.100; -677.000; -584.000
252.646; -226.300; -875.000; -722.000
252.788;   44.500;   14.000; -128.000
252.931;  -50.400; -257.000; -253.000
253.073;  -41.500; -376.000; -317.000
253.215;   -7.200;  141.000;  122.000
253.357;  -34.100;   82.000; -153.000
253.499; -102.100; -374.000; -234.000
253.641; -179.600; -749.000; -594.000
253.783; -143.400; -609.000; -527.000
253.925; -155.300; -586.000; -591.000
254.067; -209.100; -744.000; -667.000
254.209;  -20.700; -391.000; -259.000
254.351; -285.500; -865.000; -883.000
254.493; -123.300; -441.000; -417.000
254.635; -232.600; -936.000; -818.000
254.777; -172.000; -752.000; -687.000
254.918; -156.200; -512.000; -430.000
255.060;  -81.200; -551.000; -395.000
255.202; -108.000; -473.000; -261.000
255.344; -123.300; -658.000; -455.000
255.486; -132.300; -471.000; -406.000
255.628; -184.400; -780.000; -781.000
255.770; -194.800; -676.000; -536.000
255.912; -128.700; -559.000; -468.000
256.053; -182.800; -730.000; -508.000
256.195;  346.100; 1008.000;  903.000
256.337; -215.600; -861.000; -595.000
256.479;  176.000;  532.000;  416.000
256.621;  -95.300; -394.000; -212.000
256.762; -184.300; -789.000; -742.000
256.904;  110.400;  485.000;  487.000
257.046;  -76.900; -381.000; -271.000
257.188; -103.600; -351.000; -264.000
257.329; -137.800; -525.000; -464.000
257.471; -237.300; -939.000; -807.000
257.613; -113.700; -584.000; -498.000
257.755; -302.200;-1073.000; -982.000
257.896;  112.400;  286.000;  392.000
258.038; -151.400; -403.000; -352.000
258.180;  -81.100; -354.000; -279.000
258.321; -161.900; -581.000; -457.000
258.463;   14.600;  -71.000;  133.000
258.605; -188.400; -562.000; -570.000
258.746; -191.100; -886.000; -772.000
258.888; -329.600;-1026.000;-1020.000
259.029;   97.100;  121.000;   -8.000
259.171; -181.900; -614.000; -550.000
259.313;   61.000;  -49.000;  -47.000
259.454; -145.000; -536.000; -414.000
259.596;  -88.300; -483.000; -390.000
259.737; -145.700; -590.000; -474.000
259.879;  121.400;  217.000;  311.000
260.020;  225.700;  901.000;  636.000
260.162;  -59.700; -146.000; -253.000
260.303; -235.000; -768.000; -687.000
260.445; -139.300; -609.000; -613.000
260.586;   80.100;  392.000;  157.000
260.728;  -54.800; -360.000; -248.000
260.869; -151.500; -350.000; -343.000
261.011;  204.000;  706.000;  537.000
261.152;  -93.000; -479.000; -319.000
261.293; -151.800; -576.000; -595.000
261.435;  -24.000; -219.000; -184.000
261.576;  -83.500; -455.000; -325.000
261.718;  142.600;  420.000;  470.000
261.859; -246.900; -940.000; -949.000
262.000; -267.700; -951.000;-1016.000
262.142;  -11.600;  -52.000;  -60.000
262.283; -238.100; -808.000; -691.000
262.424; -164.700; -666.000; -625.000
262.566; -315.200;-1161.000; -983.000
262.707; -206.700; -840.000; -830.000
262.848; -265.800; -769.000; -726.000
262.990;  -83.300; -362.000; -345.000
263.131;  190.300;  650.000;  681.000
263.272;   23.300;  -61.000;  -41.000
263.413; -183.300; -589.000; -561.000
263.555; -118.500; -669.000; -143.000
263.696; -138.900; -550.000; -641.000
263.837; -111.500; -449.000; -551.000
263.978;   33.900;   -5.000;  -77.000
264.119;  -60.200; -283.000; -264.000
264.261; -236.100; -847.000; -630.000
264.402;   18.400;   33.000;   40.000
264.543; -145.500; -509.000; -524.000
264.684;    7.800;   61.000;  -50.000
264.825; -139.500; -816.000; -538.000
264.966;   24.200;  -84.000;  -67.000
265.107; -231.700; -646.000; -670.000
265.248; -210.300; -825.000; -812.000
265.390;   -1.100;  152.000;   -9.000
265.531;  -13.700; -238.000; -107.000
265.672; -174.900; -557.000; -630.000
265.813;  156.500;  563.000;  439.000
265.954; -315.000; -959.000; -940.000
266.095;  -22.600; -372.000; -322.000
266.236; -173.300; -686.000; -548.000
266.377;  -67.600; -243.000; -297.000
266.518; -152.700; -619.000; -547.000
266.659;   91.500;  170.000;  268.000
266.800;    5.900;   83.000;   85.000
266.941; -124.700; -487.000; -478.000
267.082;   32.700;  354.000;   99.000
267.223;  -73.800; -344.000; -273.000
267.364; -252.300; -892.000; -686.000
267.504;   10.000;    3.000;  135.000
267.645;   20.400;  160.000;   67.000
267.786;  -31.400; -147.000;  -86.000
267.927; -160.800; -473.000; -379.000
268.068;   -7.800; -186.000;  -61.000
268.209;  -86.200; -175.000; -413.000
268.350;  -94.300; -388.000; -532.000
268.490; -167.800; -648.000; -521.000
268.631;   98.300;  127.000;  225.000
268.772; -240.100; -874.000; -647.000
268.913;  -80.300; -328.000; -476.000
269.054;  -30.400; -117.000;   12.000
269.194;  -82.000; -418.000; -402.000
269.335; -294.700;-1137.000;-1074.000
269.476;   -3.900;   33.000;  -35.000
269.617;  -64.600; -347.000; -392.000
269.757; -164.500; -713.000; -646.000
269.898; -202.000; -856.000; -613.000
270.039;  -78.300; -415.000; -405.000
270.180; -307.500; -952.000; -816.000
270.320;  -15.800; -190.000; -250.000
270.461;  -60.900; -277.000; -249.000
270.602;   -5.400; -186.000; -156.000
270.742; -239.500; -868.000; -943.000
270.883; -101.200; -442.000; -390.000
271.023; -111.100; -358.000; -357.000
271.164;  -99.300; -607.000; -528.000
271.305; -217.500; -666.000; -654.000
271.445; -149.200; -722.000; -683.000
271.586; -145.100; -462.000; -283.000
271.726;  -51.000; -397.000; -322.000
271.867; -130.300; -594.000; -534.000
272.008;  352.000; -473.000; -285.000
272.148;  268.200;  462.000;  468.000
272.289;   62.200; -113.000; -181.000
272.429;   37.700;   19.000;  185.000
272.570; -175.000; -633.000; -737.000
272.710; -187.100; -825.000; -775.000
272.851;  -18.700;  113.000; -130.000
272.991; -317.400;-1173.000;-1077.000
273.131;  -76.400; -419.000; -459.000
273.272; -200.100; -683.000; -723.000
273.412;   26.100; -143.000;  -31.000
273.553;  -88.500; -488.000; -507.000
273.693;  322.200;  913.000;  858.000
273.834; -189.000; -894.000; -692.000
273.974; -115.600; -664.000; -615.000
274.114; -190.400; -772.000; -560.000
274.255;  180.900;  414.000;  373.000
274.395;   20.800; -180.000; -125.000
274.535;  119.600;  199.000;  350.000
274.676;   53.700;  225.000;   94.000
274.816;   26.800;  110.000;   34.000
274.956; -162.600; -624.000; -690.000
275.097; -148.600;-1014.000; -922.000
275.237; -234.700; -913.000; -803.000
275.377; -163.800; -778.000; -689.000
275.517; -288.400; -878.000; -937.000
275.658; -118.100; -590.000; -555.000
275.798; -152.200; -606.000; -413.000
275.938;   81.700;  215.000;  323.000
276.078; -165.300; -626.000; -395.000
276.218;   63.200;   99.000;  104.000
276.359; -256.100;-1026.000;-1024.000
276.499; -127.800; -605.000; -446.000
276.639;  -44.400; -305.000; -151.000
276.779;  -51.800; -475.000; -357.000
276.919; -199.200; -783.000; -624.000
277.059;   -3.800; -261.000; -212.000
277.199;  -70.900; -357.000; -259.000
277.340;  155.800;  287.000;  175.000
277.480; -193.900; -840.000; -693.000
277.620;  119.300;  192.000;   16.000
277.760; -410.100;-1533.000;-1294.000
277.900;   51.700;  113.000;   33.000
278.040;   57.700;  137.000;  159.000
278.180;  125.200;  270.000;  170.000
278.320;    0.200;   21.000;   56.000
278.460; -131.100; -443.000; -469.000
278.600; -183.700; -708.000; -598.000
278.740;  123.700;  448.000;  224.000
278.880; -139.300; -768.000; -791.000
279.020;   52.200; -194.000; -144.000
279.160; -166.900; -672.000; -595.000
279.300; -208.500; -926.000; -873.000
279.440; -156.900; -709.000; -622.000
279.579;  -63.200;-1014.000; -929.000
279.719;  -80.700; -410.000; -394.000
279.859;  159.400;   -4.000;   41.000
279.999;   43.500; -208.000;  101.000
280.139;  -45.300; -435.000; -387.000
280.279; -154.800; -708.000; -745.000
280.419;    6.700; -229.000; -147.000
280.559;  -46.800; -259.000; -180.000
280.698; -152.500; -790.000; -639.000
280.838; -229.800; -778.000; -800.000
280.978; -183.900; -846.000; -790.000
281.118; -225.300; -811.000; -704.000
281.257;   53.000;   24.000;    6.000
281.397; -241.400;-1094.000; -960.000
281.537; -130.700; -599.000; -712.000
281.677;  -33.400; -150.000; -101.000
281.816; -164.400; -700.000; -630.000
281.956;  -15.900; -193.000; -257.000
282.096;  -95.800; -539.000; -396.000
282.235; -175.900; -672.000; -638.000
282.375;    3.100; -243.000;  -98.000
282.515; -216.200; -715.000; -707.000
282.654;  102.800;   29.000;  106.000
282.794;   80.700;  388.000;  244.000
282.934;  -61.200; -530.000; -491.000
283.073; -256.200;-1030.000; -857.000
283.213;  -87.500; -460.000; -467.000
283.353;  -70.700; -408.000; -349.000
283.492;   -5.100; -264.000; -296.000
283.632;  -99.200; -254.000; -168.000
283.771; -177.600; -859.000; -730.000
283.911;  -87.200; -369.000; -260.000
284.050; -198.200; -794.000; -748.000
284.190; -290.300;-1229.000;-1096.000
284.329; -273.900;-1055.000; -964.000
284.469; -144.000; -516.000; -591.000
284.608; -101.100; -559.000; -598.000
284.748; -159.900; -614.000; -570.000
284.887;    6.500;  -87.000;  -20.000
285.027; -244.100; -844.000; -892.000
285.166;  -34.700; -192.000; -249.000
285.306;   26.800; -116.000;  -33.000
285.445;  -57.900; -229.000; -343.000
285.584; -171.900; -630.000; -494.000
285.724;  -63.400; -282.000; -322.000
285.863; -234.700; -857.000; -507.000
286.002;  -50.900; -366.000; -276.000
286.142; -190.900; -715.000; -622.000
286.281; -122.700; -525.000; -493.000
286.420; -134.400; -554.000; -417.000
286.560;  242.400;  653.000;  623.000
286.699; -290.400; -958.000; -912.000
286.838; -127.800; -590.000; -591.000
286.978; -177.600; -533.000; -537.000
287.117; -233.700;-1085.000; -950.000
287.256;  -45.200; -228.000; -211.000
287.395;  -56.200; -197.000; -378.000
287.535; -102.100; -370.000; -298.000
287.674; -108.900; -509.000; -484.000
287.813;  111.900;  661.000;  533.000
287.952; -238.600;-1010.000; -871.000
288.091; -303.900;-1049.000; -915.000
288.231;   63.300;   13.000;   15.000
288.370; -326.600;-1217.000;-1200.000
288.509; -138.900; -728.000; -645.000
288.648; -205.300; -770.000; -548.000
288.787;  -49.100; -243.000;  -87.000
288.926; -120.900; -454.000; -475.000
289.065;  275.500;  859.000;  672.000
289.204;  -86.800; -377.000; -217.000
289.344; -194.500; -791.000; -690.000
289.483;   94.000;  416.000;  304.000
289.622;  -28.200; -291.000; -149.000
289.761;  -40.200; -309.000; -166.000
289.900; -189.300; -785.000; -626.000
290.039;   23.700;  -12.000;  -95.000
290.178;  -69.400; -274.000; -180.000
290.317; -159.500; -618.000; -479.000
290.456;  -84.100; -463.000; -451.000
290.595; -286.300; -961.000; -833.000
290.734; -233.200; -904.000; -891.000
290.873; -112.000; -456.000; -420.000
291.011; -213.800; -833.000; -843.000
291.150; -200.500; -770.000; -682.000
291.289;  -23.500; -343.000; -110.000
291.428; -187.500; -599.000; -480.000
291.567;  -56.900; -370.000; -442.000
291.706;   14.700;  109.000;  154.000
291.845; -137.200; -597.000; -505.000
291.984; -348.700;-1234.000;-1061.000
292.122;  200.900;  602.000;  582.000
292.261;  113.200;  620.000;  463.000
292.400;   35.900; -144.000;  211.000
292.539; -245.200; -959.000; -813.000
292.678;  -56.100; -325.000; -300.000
292.816; -310.200;-1136.000; -965.000
292.955; -175.800; -844.000; -684.000
293.094;  -12.400; -173.000; -337.000
293.233;  -85.900; -556.000; -400.000
293.371;  -32.500; -225.000;  -84.000
293.510; -180.700; -866.000; -780.000
293.649; -260.200; -959.000; -924.000
293.787; -138.200;-1083.000;-1012.000
293.926;   24.800; -113.000;  -32.000
294.065;  -71.600; -379.000; -290.000
294.203;  129.200;  298.000;  406.000
294.342;   90.600;   74.000;  156.000
294.481;13932.600;51180.000; -836.000
294.619;  -32.300; -425.000; -582.000
294.758; -292.300;-1230.000;-1137.000
294.896;  122.600; -125.000;    5.000
295.035; -255.900;-1040.000;-1006.000
295.174; -215.700;-1082.000; -954.000
295.312;  -52.300; -323.000; -203.000
295.451;    4.100; -307.000; -428.000
295.589;  -80.200; -389.000; -518.000
295.728;   69.400; -292.000; -165.000
295.866;   51.600;  -36.000;  -51.000
296.005; -104.700; -584.000; -341.000
296.143; -113.400; -558.000; -596.000
296.282; -170.000; -957.000; -881.000
296.420; -188.200; -657.000; -557.000
296.559; -167.000; -892.000; -633.000
296.697;  -10.800; -847.000; -665.000
296.835;   45.000;-1141.000;-1002.000
296.974;   99.200;  -23.000;   39.000
297.112;  -21.500; -443.000; -504.000
297.251; -182.700; -815.000; -755.000
297.389;  139.700; -576.000; -438.000
297.527;   76.700; -145.000;  -83.000
297.666;  -65.800; -486.000; -438.000
297.804;  -65.000; -404.000; -264.000
297.942;   -8.300; -136.000; -161.000
298.081;  -19.100; -183.000;   63.000
298.219;  112.100;  -17.000;  -19.000
298.357;   87.800; -144.000;  -71.000
298.495;    2.900; -810.000; -812.000
298.634;  122.200;  245.000;  219.000
298.772;  111.000; -220.000; -338.000
298.910;  -64.400; -309.000; -182.000
299.048;    2.800; -130.000; -153.000
299.187;  -46.900; -350.000; -250.000
299.325;   61.500;   52.000;  122.000
299.463;   85.200; -389.000; -299.000
299.601;  192.500; -327.000; -271.000
299.739; -216.300; -908.000; -883.000
299.877; -133.700; -791.000; -703.000
300.016; -142.100;-1095.000; -935.000
300.154;  292.000;  -19.000; -161.000
300.292;   62.600; -428.000; -348.000
300.430;   56.400; -408.000; -291.000
300.568; -198.500; -940.000; -874.000
300.706;  -63.200; -366.000; -469.000
300.844; -205.200;-1108.000; -979.000
300.982;  245.900;  246.000;  282.000
301.120; -238.400; -965.000; -866.000
301.258; -118.200; -812.000; -705.000
301.396;   55.600;  104.000;  -41.000
301.534;  139.100; -218.000; -293.000
301.672;  -30.800; -664.000; -521.000
301.810;   29.700; -613.000; -545.000
301.948;  244.200;   53.000;  149.000
302.086;  942.900; -250.000;  -32.000
302.224; 1430.400; -610.000; -585.000
302.362;   32.800; -558.000; -622.000
302.500;  -90.100; -923.000; -893.000
302.638;  228.700;  128.000;  245.000
302.776;   24.300; -352.000; -408.000
302.913;  166.200;  447.000;  236.000
303.051;    4.500;  -86.000;  -23.000
303.189;  153.200;   90.000;  118.000
303.327;  -60.600; -341.000; -256.000
303.465; -140.600; -832.000; -588.000
303.603; -156.800; -805.000; -604.000
303.740;  230.300;  417.000;  241.000
303.878;  -42.900; -800.000; -759.000
304.016; -174.700; -915.000; -790.000
304.154; -284.500;-1123.000;-1152.000
304.291;  -83.300; -505.000; -554.000
304.429;   51.800;  102.000;   74.000
304.567; -246.400; -908.000; -893.000
304.705;  -88.500; -408.000; -515.000
304.842;  140.000; -616.000; -540.000
304.980;  117.200;  215.000;   35.000
305.118;   53.000; -367.000; -365.000
305.255; -142.600; -945.000; -927.000
305.393;  156.100;  178.000;  239.000
305.531; -209.100;-1173.000; -956.000
305.668; -126.000; -663.000; -582.000
305.806;  151.000; -358.000; -439.000
305.943;  146.000; -629.000; -637.000
306.081;   95.500; -378.000; -267.000
306.219; -185.400; -863.000; -748.000
306.356;   25.900;  158.000;   27.000
306.494;  278.200;  981.000;  761.000
306.631;   41.900;  -11.000;  -55.000
306.769;   26.600; -613.000; -485.000
306.906;   -4.600; -284.000; -258.000
307.044;  -58.600; -473.000; -488.000
307.181; -115.900; -410.000; -332.000
307.319;   94.100;  112.000;   87.000
307.456; -327.800;-1191.000;-1153.000
307.594; -167.000; -980.000; -727.000
307.731;  -28.700; -371.000; -164.000
307.868;   52.700;  -15.000;   20.000
308.006; -257.100; -961.000; -847.000
308.143; -105.000; -618.000; -330.000
308.281;  354.900;  -37.000; -254.000
308.418;   24.200; -748.000; -640.000
308.555; -108.400; -400.000; -250.000
308.693; -120.700; -577.000; -573.000
308.830; -185.000; -712.000; -657.000
308.967;   47.400; -215.000;  -95.000
309.105;  -57.600; -507.000; -396.000
309.242;  122.900; -468.000; -367.000
309.379;  680.000; -577.000; -655.000
309.517;  -82.400; -936.000; -948.000
309.654; -171.000; -910.000; -734.000
309.791; -112.800; -662.000; -580.000
309.928; -219.300; -977.000; -914.000
310.065;  378.600;  819.000;  697.000
310.203;  -42.400; -825.000; -850.000
310.340;    8.200; -465.000; -321.000
310.477; -146.900; -412.000; -516.000
310.614; -107.000; -383.000; -473.000
310.751; -116.500; -427.000; -518.000
310.889;   27.800;    1.000;   11.000
311.026; -279.400;-1161.000; -939.000
311.163;  -37.400; -386.000; -380.000
311.300; -123.900; -512.000; -479.000
311.437; -112.200; -658.000; -619.000
311.574; -297.100;-1226.000; -985.000
311.711;  -99.500; -595.000; -433.000
311.848;  -54.700; -380.000; -388.000
311.985;  109.900;  270.000;   93.000
312.122; -231.600; -932.000; -762.000
312.259; -193.200; -941.000; -994.000
312.396; -122.700; -508.000; -551.000
312.533; -132.500; -812.000; -790.000
312.670; -253.800;-1070.000; -898.000
312.807;  -15.100; -352.000; -367.000
312.944; -123.000; -513.000; -611.000
313.081;  -38.300; -150.000; -415.000
313.218; -189.300;-1111.000; -867.000
313.355;   10.800; -531.000; -449.000
313.492;   12.600; -455.000; -292.000
313.629;  339.300;  815.000;  735.000
313.766; -281.400;-1176.000;-1008.000
313.902;  -13.200; -186.000;   21.000
314.039; -104.500; -372.000; -289.000
314.176;  108.800;  286.000;  192.000
314.313; -137.800; -569.000; -473.000
314.450; -135.300; -788.000; -684.000
314.587; -108.600; -468.000; -480.000
314.723;   46.500;  -78.000;  130.000
314.860;   81.000;  318.000;  332.000
314.997;   58.500;  223.000;  142.000
315.134;  -67.000; -385.000; -368.000
315.270;  -37.200; -480.000; -496.000
315.407; -235.300;-1094.000; -967.000
315.544;  -69.400; -657.000; -538.000
315.681; -126.300; -681.000; -565.000
315.817;   89.100; -133.000; -176.000
315.954;    8.800; -613.000; -392.000
316.091; -227.000;-1045.000;-1023.000
316.227;   -9.300;  -71.000; -179.000
316.364;   54.900;   23.000;    6.000
316.500;  -71.600; -113.000; -300.000
316.637;  -66.100; -181.000; -302.000
316.774; -148.100; -625.000; -358.000
316.910; -148.300; -598.000; -629.000
317.047; -111.900; -487.000; -351.000
317.183;  -64.300; -435.000; -566.000
317.320;  -18.300; -367.000; -321.000
317.456;  -96.500; -733.000; -805.000
317.593; -150.300; -598.000; -641.000
317.729;   31.400;  168.000;  -67.000
317.866; -400.600;-1434.000;-1285.000
318.002; -159.000; -708.000; -948.000
318.139; -182.800; -883.000; -867.000
318.275; -181.300;-1003.000; -738.000
318.412; -127.500; -517.000; -336.000
318.548;  -73.500; -751.000; -720.000
318.685; -190.400; -985.000; -888.000
318.821; -162.900; -762.000; -735.000
318.957;  -27.700;   34.000;  -23.000
319.094;  135.800;  297.000;  154.000
319.230; -137.300; -756.000; -742.000
319.367;  178.000; -471.000; -520.000
319.503;   74.700; -538.000; -436.000
319.639; -164.900; -877.000; -793.000
319.775; -172.900; -750.000; -685.000
319.912;  -63.200; -424.000; -519.000
320.048; -182.500;-1184.000;-1184.000
320.184;  237.100;   59.000;   70.000
320.321;  -88.300; -497.000; -467.000
320.457;  192.500;  475.000;  662.000
320.593; -122.700; -375.000; -382.000
320.729; -171.000; -732.000; -734.000
320.866; -141.600; -577.000; -635.000
321.002; -156.200; -759.000; -809.000
321.138;  -49.700; -135.000; -211.000
321.274;  166.400; -148.000; -115.000
321.410;  -37.000; -585.000; -353.000
321.546; -116.600;-1011.000; -911.000
321.683;  103.800;  400.000;  185.000
321.819;   45.100;  -48.000; -117.000
321.955; -210.500; -743.000; -722.000
322.091;  -70.500; -585.000; -540.000
322.227;   19.300; -382.000; -202.000
322.363;  -13.200; -320.000; -215.000
322.499;  -68.800; -343.000; -331.000
322.635;  330.100;  636.000;  443.000
322.771;   68.400; -139.000;   12.000
322.907;  222.600;  129.000;  327.000
323.043;  -43.300; -115.000; -206.000
323.179;  -79.900; -394.000; -363.000
323.315;  -42.400; -401.000; -371.000
323.451;  136.500; -328.000; -236.000
323.587;  140.100;  -60.000;  -77.000
323.723;    8.000; -682.000; -601.000
323.859;  -17.200; -258.000;  -76.000
323.995;  -31.000; -467.000; -409.000
324.131; -217.200; -967.000; -892.000
324.267;  -35.900; -254.000; -276.000
324.402; -268.300; -960.000; -983.000
324.538;   15.000; -279.000; -104.000
324.674;   64.300;  164.000;   77.000
324.810;  271.800;  226.000;  308.000
324.946;    3.600; -810.000; -658.000
325.082; -100.800; -568.000; -475.000
325.217;   -8.900;  -62.000;   16.000
325.353; -182.400; -764.000; -659.000
325.489; -143.400; -540.000; -506.000
325.625; -123.100; -579.000; -525.000
325.760;  150.500;  517.000;  376.000
325.896;    2.100; -515.000; -702.000
326.032;  -58.500; -403.000; -352.000
326.168;  -75.800; -462.000; -369.000
326.303;  -91.900; -352.000; -461.000
326.439;   10.700; -336.000; -276.000
326.575;   57.300; -190.000;  -29.000
326.710;   44.500; -156.000;  -30.000
326.846;   15.600;  146.000;  103.000
326.982; -164.800; -530.000; -548.000
327.117; -158.300; -481.000; -442.000
327.253; -136.800; -745.000; -742.000
327.388; -252.000;-1137.000;-1153.000
327.524;  -80.700; -811.000; -578.000
327.659;  -30.900;  -58.000;  -22.000
327.795;   47.600;   69.000;   45.000
327.931; -148.900; -723.000; -499.000
328.066;  -17.000; -417.000; -276.000
328.202;   22.800;   12.000; -129.000
328.337;  256.100;  957.000;  713.000
328.473;  -16.700;  -12.000;  -74.000
328.608;   -1.700; -256.000; -267.000
328.743; -171.600; -799.000; -664.000
328.879;   77.800;  214.000;  114.000
329.014; -102.100; -102.000; -122.000
329.150; -104.000; -358.000; -483.000
329.285; -125.500; -465.000; -466.000
329.421;  -41.700; -548.000; -246.000
329.556;    3.400;  -36.000;   85.000
329.691; -134.700; -633.000; -615.000
329.827; -130.800; -626.000; -480.000
329.962;  -33.200;  131.000; -301.000
330.097; -153.700; -673.000; -585.000
330.233;  -71.300; -410.000; -223.000
330.368; -220.500; -839.000; -628.000
330.503;   12.500;    3.000;   98.000
330.638;    5.200;  -93.000; -125.000
330.774;  -94.300; -609.000; -530.000
330.909;  -83.500; -434.000; -244.000
331.044; -166.600; -714.000; -708.000
331.179; -314.700;-1217.000;-1109.000
331.315;   65.900;   77.000;   20.000
331.450;   41.000;  157.000;  285.000
331.585; -121.200; -805.000; -706.000
331.720; -150.200; -510.000; -460.000
331.855;   56.200;  -35.000; -102.000
331.990;  569.300;   62.000;  138.000
332.126;  311.700; -110.000;   71.000
332.261;   -7.600; -379.000; -265.000
332.396;   38.100; -135.000; -242.000
332.531; -171.500;-1074.000;-1031.000
332.666;  118.900; -519.000; -363.000
332.801; -180.000; -726.000; -807.000
332.936;   21.100; -192.000; -122.000
333.071; -243.100; -870.000; -817.000
333.206;  109.600;  307.000;  379.000
333.341;  112.400;  344.000;  418.000
333.476; -124.900; -627.000; -623.000
333.611;  -45.200; -251.000; -173.000
333.746;  -79.100; -381.000; -464.000
333.881; -241.500; -973.000; -935.000
334.016; -239.700; -936.000; -917.000
334.151; -238.100; -746.000; -702.000
334.286;  110.100;  152.000;  186.000
334.421;   -6.300; -125.000; -178.000
334.556; -132.600; -611.000; -567.000
334.690; -155.400; -631.000; -577.000
334.825;  196.500;  381.000;   83.000
334.960;  -90.000; -285.000; -413.000
335.095;   49.600;  135.000;  -91.000
335.230; -187.300; -722.000; -738.000
335.365; -279.500;-1084.000; -990.000
335.499; -263.500;-1108.000;-1037.000
335.634;   71.200;    9.000;  534.000
335.769; -179.600; -755.000; -720.000
335.904; -110.900; -603.000; -561.000
336.038;  -92.500; -735.000; -657.000
336.173; -207.900;-1206.000;-1194.000
336.308;   17.600; -116.000; -189.000
336.443;   66.700; -544.000; -634.000
336.577; -121.300; -936.000; -787.000
336.712;  159.800;   -4.000;  -12.000
336.847; -109.100; -724.000; -607.000
336.981;  128.000; -272.000; -208.000
337.116;  509.100;  615.000;  501.000
337.250;  250.900; -434.000; -421.000
337.385;  585.100; -297.000; -208.000
337.520;  241.400; -632.000; -603.000
337.654;  -56.600; -215.000; -126.000
337.789; -214.100; -989.000; -933.000
337.923;  -49.300; -104.000; -205.000
338.058; -137.100; -673.000; -738.000
338.192;  -49.500; -611.000; -488.000
338.327;   11.600;  -18.000; -155.000
338.461;  -92.000; -299.000; -469.000
338.596; -117.600; -780.000; -638.000
338.730; -191.000; -767.000; -803.000
338.865;  248.300;  -46.000; -140.000
338.999;  -57.800; -846.000; -702.000
339.134;  -36.400; -634.000; -536.000
339.268;   19.400; -741.000; -603.000
339.403;  792.900; -740.000; -775.000
339.537;  279.100; -894.000; -820.000
339.671; -171.700; -829.000; -813.000
339.806;  -96.700; -556.000; -512.000
339.940;   85.200; -261.000; -235.000
340.074; -185.200; -685.000; -510.000
340.209;  -20.500; -351.000; -230.000
340.343; -158.000; -517.000; -573.000
340.477;  358.000;  998.000; 1036.000
340.612;  -43.000;-1033.000; -900.000
340.746;  347.500; -199.000; -243.000
340.880; -160.200; -924.000; -785.000
341.014;    0.200;  -45.000; -154.000
341.149; -201.300; -756.000; -718.000
341.283; -178.800; -839.000; -754.000
341.417; -230.400;-1124.000; -938.000
341.551;  172.200; -768.000; -708.000
341.685;  -43.700; -633.000; -611.000
341.820;  -67.600; -562.000; -493.000
341.954;  -70.700; -218.000; -349.000
342.088; -261.100;-1102.000;-1019.000
342.222;  114.800;  565.000;  618.000
342.356;  -66.800; -395.000; -335.000
342.490; -186.200; -880.000; -841.000
342.624;  -50.400; -339.000; -242.000
342.758;    5.700; -364.000; -312.000
342.892; -102.600; -710.000; -585.000
343.026;  -43.200;  -58.000; -116.000
343.160;  -44.700; -426.000; -376.000
343.294; -140.100; -474.000; -337.000
343.428;  -51.900; -488.000; -448.000
343.562;   16.800; -172.000;  -23.000
343.696;  -25.400; -385.000; -314.000
343.830;   -7.300; -362.000; -356.000
343.964;   45.900; -231.000; -168.000
344.098; 1409.100;  199.000;   70.000
344.232; 1172.300; -266.000; -127.000
344.366;  173.500; -567.000; -453.000
344.500;   90.600; -665.000; -744.000
344.634;   62.400; -324.000; -164.000
344.768;    7.500; -531.000; -341.000
344.902;   60.400;  278.000;  256.000
345.035;  -70.500; -556.000; -496.000
345.169; -231.700; -933.000; -656.000
345.303;  -32.400; -308.000; -482.000
345.437; -149.200; -826.000; -717.000
345.571; -102.500; -675.000; -594.000
345.704; -114.800; -309.000; -532.000
345.838;   -3.100; -331.000; -284.000
345.972;  -95.100; -543.000; -495.000
346.106;  426.100; -179.000; -190.000
346.239;  798.000; -312.000; -243.000
346.373;   51.800; -343.000; -302.000
346.507; -282.600; -950.000; -962.000
346.640;  246.000;  -30.000;   13.000
346.774; -112.100; -650.000; -797.000
346.908;   15.600; -138.000;  -11.000
347.041; -160.800; -646.000; -593.000
347.175;   54.500;  259.000;   27.000
347.309; -114.900; -698.000; -628.000
347.442; -177.400; -883.000; -732.000
347.576;  499.200;  670.000;  668.000
347.709;  322.100; -123.000;  -52.000
347.843; -189.500; -933.000; -825.000
347.976;  113.200;  235.000;  294.000
348.110; -339.300;-1268.000;-1186.000
348.243; -170.500; -679.000; -772.000
348.377;   46.000;  -26.000;   60.000
348.510;  207.900;  403.000;  540.000
348.644;  -76.300;  -37.000; -159.000
348.777;   47.400;  180.000;  191.000
348.911;  -29.500; -142.000; -112.000
349.044;  362.400;  471.000;  448.000
349.178;  151.800;-1069.000;-1006.000
349.311;  273.200;  141.000;  255.000
349.444;   24.200; -927.000; -813.000
349.578;   29.700; -347.000; -200.000
349.711; -198.600; -959.000; -862.000
349.845;   -2.300; -661.000; -591.000
349.978; -321.100;-1224.000;-1137.000
350.111;  -97.300; -546.000; -612.000
350.244; -155.400; -596.000; -700.000
350.378;    3.700; -392.000; -393.000
350.511;  -92.200; -393.000; -426.000
350.644; -161.100; -808.000; -806.000
350.778;   88.000;  168.000;  104.000
350.911;   35.300;  134.000;  140.000
351.044; -186.100; -685.000; -615.000
351.177;  -12.300; -321.000; -281.000
351.310;   16.500;    3.000; -131.000
351.444; -135.300; -888.000; -788.000
351.577;  243.300;  140.000;   90.000
351.710;  257.100;  593.000;  417.000
351.843;  -28.300; -165.000;  -77.000
351.976;   37.600;  149.000;  -79.000
352.109; -169.700; -621.000; -612.000
352.242;  -26.000; -464.000; -419.000
352.376; -128.700; -580.000; -636.000
352.509;  258.200; -437.000; -356.000
352.642;  -71.500; -654.000; -604.000
352.775;  124.400; -141.000;  -98.000
352.908; -204.300; -933.000; -904.000
353.041; -191.200; -814.000; -824.000
353.174;  -97.200; -551.000; -424.000
353.307; -125.300; -753.000; -764.000
353.440;  165.200;  541.000;  453.000
353.573; -173.000; -957.000;-1008.000
353.706; -115.200; -384.000; -558.000
353.839;   12.000; -264.000; -220.000
353.971; -196.100; -657.000; -512.000
354.104; -168.400; -896.000; -835.000
354.237;  -81.300; -627.000; -662.000
354.370; -144.500; -846.000; -879.000
354.503; -366.900;-1231.000;-1308.000
354.636;  -13.500; -529.000; -348.000
354.769; -218.300; -937.000; -860.000
354.902;   24.200; -230.000; -139.000
355.034;  -21.500; -164.000; -220.000
355.167;   20.000; -262.000; -162.000
355.300; -174.800;-1061.000; -880.000
355.433; 2099.800;  -71.000;  -14.000
355.565; 3181.400; -402.000; -384.000
355.698;  830.800; -356.000; -296.000
355.831;  -24.000; -882.000; -801.000
355.964;  159.600; -285.000; -170.000
356.096; -158.100; -856.000; -843.000
356.229;   17.900; -523.000; -530.000
356.362;  673.300; -373.000; -266.000
356.494; 1310.300; -229.000; -162.000
356.627;  818.000;  269.000;  377.000
356.760; 1392.500;  120.000;   53.000
356.892; 2086.600; -286.000; -601.000
357.025; 1163.900;  403.000;  389.000
357.157;  952.600; -167.000; -179.000
357.290; 1548.500; -856.000; -713.000
357.423;  421.800; -667.000; -556.000
357.555;  203.900; -217.000; -228.000
357.688;  208.700; -483.000; -364.000
357.820;  674.000; -870.000; -877.000
357.953; 5786.900; -563.000; -589.000
358.085; 1197.800; -632.000; -612.000
358.218; 1531.300;-1131.000; -932.000
358.350;  355.000;  -58.000;  312.000
358.483; -259.900;-1300.000;-1187.000
358.615;  -81.100;-1182.000;-1078.000
358.747; -154.700;-1187.000;-1058.000
358.880;  -12.300; -810.000; -744.000
359.012;   15.400; -376.000; -202.000
359.145;  -43.800; -480.000; -511.000
359.277;   70.200; -962.000; -913.000
359.409; 4869.900;  536.000;  231.000
359.542; 1179.600; -738.000; -688.000
359.674;  174.500;   46.000;   13.000
359.806;  -63.400; -565.000; -438.000
359.939;  -44.400; -617.000; -516.000
360.071;   20.600; -583.000; -579.000
360.203;  -23.800; -411.000; -364.000
360.335;  132.200;  164.000;  -16.000
360.468;  343.800; -249.000; -307.000
360.600; 4057.700; -547.000; -454.000
360.732; 6029.900; -546.000; -423.000
360.864;  795.100;-1216.000;-1044.000
360.996;  434.200; -516.000; -554.000
361.129;   67.000; -389.000; -598.000
361.261;   99.800;  110.000; -113.000
361.393;  -20.000; -252.000; -214.000
361.525;   91.500;   94.000;  244.000
361.657;  -74.000; -821.000; -703.000
361.789;   53.700; -139.000; -155.000
361.921;  318.000; -642.000; -593.000
362.053;  484.400;  524.000;  541.000
362.185;  131.000;  288.000;   72.000
362.318; -167.000; -709.000; -705.000
362.450;  207.900;  294.000;  444.000
362.582;  108.200; -913.000; -870.000
362.714;  -54.600; -353.000; -332.000
362.846; -144.300; -606.000; -490.000
362.978; -277.400; -941.000; -811.000
363.109;   99.300; -161.000; -260.000
363.241;  698.900; -739.000; -749.000
363.373;  936.500; -649.000; -564.000
363.505; 1488.800; -186.000;  -91.000
363.637;  334.200; -787.000; -601.000
363.769; -240.000;-1067.000;-1080.000
363.901;  -84.000; -596.000; -654.000
364.033; -245.400;-1103.000;-1062.000
364.165;   50.600; -283.000; -283.000
364.296;  175.300; -316.000; -177.000
364.428;  198.000;-1344.000;-1220.000
364.560; -114.300; -679.000; -661.000
364.692;  -90.400; -738.000; -835.000
364.824;  378.200; -588.000; -456.000
364.955;  934.700; -402.000; -564.000
365.087; 2145.000;-1097.000; -852.000
365.219;  137.500; -686.000; -816.000
365.351;  -96.000; -526.000; -572.000
365.482;  163.300;  300.000;  240.000
365.614;  -50.300; -402.000; -314.000
365.746; -161.700; -729.000; -752.000
365.877; -146.700; -706.000; -672.000
366.009;  625.200;  -35.000;  -62.000
366.141; -151.300;-1249.000;-1134.000
366.272; -139.200; -803.000; -719.000
366.404; -210.800;-1005.000; -874.000
366.535;   34.600; -139.000;  -12.000
366.667; -151.200; -644.000; -649.000
366.799;  137.900;  353.000;  203.000
366.930; -222.900; -862.000; -996.000
367.062;  293.700; -639.000; -613.000
367.193;  392.600; -872.000; -842.000
367.325;  -59.700; -580.000; -684.000
367.456;  102.200; -246.000;   31.000
367.588;  401.600; -371.000; -318.000
367.719;   94.300;  -44.000;  -45.000
367.851;  -25.500; -222.000; -241.000
367.982;  -94.500; -875.000; -732.000
368.113;  185.600; -475.000; -358.000
368.245; -213.200; -960.000; -841.000
368.376;   42.400; -254.000; -302.000
368.508;  -66.700; -188.000; -263.000
368.639; -238.800;-1166.000;-1034.000
368.770;  -67.300; -670.000; -589.000
368.902; -108.000; -836.000; -926.000
369.033; -205.300; -906.000; -855.000
369.164;  -39.200; -720.000; -653.000
369.296; -174.900; -452.000; -601.000
369.427;   27.000; -209.000; -144.000
369.558;  -87.900; -593.000; -377.000
369.689; -126.000; -721.000; -569.000
369.821; -251.000; -951.000; -845.000
369.952;   34.600;   42.000; -108.000
370.083;  -91.600; -229.000; -108.000
370.214; -124.500; -735.000; -650.000
370.345;   41.200;   65.000;   81.000
370.477; -122.500; -810.000; -790.000
370.608;  375.900; -328.000; -264.000
370.739; -128.000;-1233.000;-1292.000
370.870; -109.800;-1102.000; -923.000
371.001;  165.000; -378.000; -467.000
371.132; -160.000; -754.000; -735.000
371.263;   19.000;  -42.000; -148.000
371.394; -228.600; -841.000; -748.000
371.525;  104.700;  345.000;  225.000
371.657; -163.400; -808.000; -670.000
371.788;  148.600;  103.000;  199.000
371.919;  233.600; -384.000; -304.000
372.050; 5568.400;  -91.000; -156.000
372.181; 1582.800; -188.000; -294.000
372.311;  596.800;   42.000; -127.000
372.442;   43.600; -457.000; -451.000
372.573;  -18.600; -444.000; -340.000
372.704; -221.700;-1008.000; -980.000
372.835;  140.200; -228.000; -289.000
372.966; -124.900; -646.000; -554.000
373.097; -132.000; -575.000; -711.000
373.228;  -74.100; -717.000; -542.000
373.359;  196.600; -824.000; -536.000
373.490; 1365.900; -881.000; -727.000
373.620; 1721.100;-1001.000; -803.000
373.751; 2717.200; -332.000; -396.000
373.882; 1126.600; -663.000; -733.000
374.013;  100.300; -449.000; -262.000
374.143;  -61.700; -581.000; -659.000
374.274; -199.100; -987.000; -908.000
374.405;  314.200; -388.000; -276.000
374.536;  656.900; -526.000; -387.000
374.666; 1615.900; -759.000; -807.000
374.797;  264.800; -817.000; -868.000
374.928; 1252.700; -710.000; -560.000
375.058; 1227.500; -535.000; -500.000
375.189;  151.900;  -59.000;  -93.000
375.320; -213.700; -928.000;-1034.000
375.450;  -27.700; -625.000; -616.000
375.581;  -84.800; -526.000; -436.000
375.712;  -17.500; -574.000; -250.000
375.842;  442.400; -438.000; -415.000
375.973;  339.200; -554.000; -513.000
376.103; -123.800; -665.000; -648.000
376.234; -115.600; -531.000; -552.000
376.364; -102.200; -944.000; -867.000
376.495;  631.500;  925.000;  529.000
376.625;  -41.700; -472.000; -485.000
376.756;   81.600; -709.000; -678.000
376.886; -167.700;-1178.000;-1026.000
377.017;  196.400;-1048.000;-1061.000
377.147;  784.200; -786.000; -782.000
377.278;  195.200;  174.000;  228.000
377.408; -227.700; -801.000; -815.000
377.538; -162.700; -707.000; -693.000
377.669; -138.300; -537.000; -613.000
377.799; -164.100; -645.000; -635.000
377.929; -130.500; -610.000; -428.000
378.060; -207.200; -781.000; -847.000
378.190;  -93.300; -726.000; -531.000
378.320;  -63.100; -401.000; -406.000
378.451;   39.800; -131.000;  -22.000
378.581;   29.500;  -67.000; -110.000
378.711;  312.200; 1035.000;  866.000
378.841;  -17.500; -533.000; -675.000
378.972; -173.400; -871.000; -751.000
379.102;    5.900; -652.000; -579.000
379.232;   -0.900; -126.000;  -73.000
379.362; -186.000;-1001.000; -885.000
379.492;   11.200; -373.000; -424.000
379.623;  233.900;    0.000;  111.000
379.753; -193.300;-1107.000; -974.000
379.883;  373.600;   59.000;  156.000
380.013;  -51.500;-1081.000;-1017.000
380.143; -210.400;-1097.000;-1056.000
380.273; -181.000; -985.000; -861.000
380.403;   10.600; -344.000; -257.000
380.533;  -62.400; -651.000; -664.000
380.663;  164.100;  173.000;  128.000
380.793; -213.500;-1027.000;-1074.000
380.923;  -11.000; -103.000;  -34.000
381.053; -149.700; -613.000; -623.000
381.183;   -7.500; -106.000; -248.000
381.313;   65.900; -656.000; -470.000
381.443;   62.500; -692.000; -473.000
381.573;  303.200; -402.000; -409.000
381.703;  348.400;-1249.000;-1095.000
381.833; -286.200;-1454.000;-1336.000
381.963;  221.400; -134.000;  -87.000
382.093; 2213.100; -925.000; -909.000
382.223;  647.300; -713.000; -602.000
382.353;  -61.200; -801.000; -608.000
382.482;  553.300;-1091.000; -964.000
382.612; 1142.600; -872.000; -644.000
382.742;  643.700; -695.000; -622.000
382.872;  378.900; -565.000; -551.000
383.002;  131.000;  347.000; -132.000
383.131;  -35.300; -226.000; -160.000
383.261;  -41.600; -706.000; -768.000
383.391;  580.700; -552.000; -377.000
383.521; 7132.400;  451.000;  263.000
383.650; 1634.600; -947.000; -904.000
383.780;   37.500; -783.000; -656.000
383.910;  279.700;  880.000;  802.000
384.039;   30.900; -794.000; -656.000
384.169;  263.800;-1205.000;-1017.000
384.299;  -39.900; -650.000; -662.000
384.428; -165.600; -764.000; -680.000
384.558;  -11.000; -308.000; -275.000
384.687;  -46.000; -414.000; -334.000
384.817;   66.100;   75.000;   -2.000
384.947;   31.600; -234.000; -141.000
385.076;  579.200;  982.000;  912.000
385.206;  265.500;  369.000;  480.000
385.335;  -37.300; -549.000; -417.000
385.465; -148.400; -655.000; -663.000
385.594;  243.600;  -53.000;  -44.000
385.724;  532.500; -868.000; -838.000
385.853;  197.900; -296.000; -270.000
385.982; 2136.100; -743.000; -787.000
386.112; 3099.400;-1052.000; -871.000
386.241;  210.000; -307.000; -312.000
386.371;   82.600; -174.000;  -87.000
386.500;  -31.700; -825.000; -789.000
386.629;   77.100; -874.000; -817.000
386.759;  156.800;  -43.000;   68.000
386.888;   46.400; -170.000; -250.000
387.017; -121.000; -648.000; -620.000
387.147; -136.300; -771.000; -798.000
387.276;    4.400; -410.000; -397.000
387.405;   79.100; -398.000; -342.000
387.535;  -45.400; -452.000; -361.000
387.664;  -69.000; -692.000; -620.000
387.793;  132.900; -198.000; -113.000
387.922;  838.100;  255.000;  200.000
388.052;   -4.500; -576.000; -423.000
388.181;   30.600; -342.000; -472.000
388.310;  -66.500; -889.000; -710.000
388.439;  -78.000; -749.000; -742.000
388.568;  305.100;  365.000;  244.000
388.697; 1540.200; -756.000; -653.000
388.826;  277.800; -768.000; -666.000
388.956;  120.800; -285.000; -307.000
389.085;  -65.400; -347.000; -287.000
389.214; -165.200; -842.000; -872.000
389.343;  -85.000; -645.000; -413.000
389.472;  965.400;  126.000;  149.000
389.601; 1076.900;   91.000;    0.000
389.730;   50.000; -568.000; -687.000
389.859;  152.800;  226.000;   46.000
389.988;  339.200; -423.000; -408.000
390.117;  237.300; -168.000; -146.000
390.246;   10.600; -331.000; -320.000
390.375;  123.200; -673.000; -626.000
390.504;  -88.700; -703.000; -621.000
390.633; -206.700; -672.000; -726.000
390.761; -133.600; -732.000; -645.000
390.890;   34.800;   -4.000; -130.000
391.019;  -27.800; -421.000; -441.000
391.148; -230.700; -826.000; -855.000
391.277;  -98.600; -576.000; -493.000
391.406; -166.600; -821.000; -805.000
391.534;  123.800;  574.000; -301.000
391.663;  -87.300; -583.000; -645.000
391.792; -151.600; -673.000; -701.000
391.921;  157.300;   -3.000;   15.000
392.050;  308.900; -287.000; -228.000
392.178; -129.700;-1206.000;-1061.000
392.307;  243.300; -758.000; -712.000
392.436;   88.000; -427.000; -641.000
392.564;   86.300;  166.000;   -6.000
392.693; -178.100; -860.000; -682.000
392.822;  311.600; -529.000; -534.000
392.950;   95.600; -880.000; -714.000
393.079;  495.500; -188.000; -328.000
393.208;   21.100; -488.000; -511.000
393.336;   52.300; -170.000; -145.000
393.465;  -48.400; -317.000; -199.000
393.593;   77.100;   62.000;   79.000
393.722; -271.600;-1121.000; -916.000
393.850;   -0.200; -188.000;  -61.000
393.979; -258.600; -926.000; -805.000
394.107;  -65.500; -517.000; -537.000
394.236;  -28.100; -570.000; -507.000
394.364;  541.200;  383.000;  206.000
394.493;  816.000; -911.000; -767.000
394.621;   39.100; -955.000; -916.000
394.750; 1682.400; -873.000; -923.000
394.878; 6744.700; -247.000; -149.000
395.007; 8543.000; -721.000; -807.000
395.135;  664.700; -790.000; -721.000
395.263; -150.000;-1038.000;-1040.000
395.392;   47.100;  -25.000; -107.000
395.520; -250.300; -818.000; -679.000
395.648; -139.100; -865.000; -915.000
395.777;  -14.800; -366.000; -405.000
395.905;  -59.700; -449.000; -564.000
396.033;   70.600;  217.000;  172.000
396.162; 1335.200; -399.000; -453.000
396.290; 1090.800;  -17.000;   -2.000
396.418;  181.900; -555.000; -514.000
396.546; -178.200; -571.000; -466.000
396.674; -165.900; -850.000; -878.000
396.803;   43.600;  -72.000;  -23.000
396.931;  182.400; -179.000; -199.000
397.059;  -26.000;-1026.000; -989.000
397.187; -189.300;-1026.000; -975.000
397.315; -197.800; -884.000; -649.000
397.443; -145.500; -592.000; -443.000
397.572; -172.300; -578.000; -424.000
397.700;  -39.400; -607.000; -614.000
397.828;   27.600;  120.000;  -90.000
397.956;  -26.200; -508.000; -478.000
398.084;  -99.400; -767.000; -626.000
398.212;  134.400;  137.000;  124.000
398.340;   66.900;  -56.000;  159.000
398.468;   90.800; -390.000; -169.000
398.596; -258.000; -993.000; -953.000
398.724; -183.300; -762.000; -767.000
398.852; -296.600;-1024.000; -976.000
398.980;  -89.500; -560.000; -560.000
399.108;  -87.600; -982.000; -735.000
399.236;   87.200;   13.000;    8.000
399.363;   58.100;  222.000;  196.000
399.491;  -77.400; -404.000; -398.000
399.619; -213.400; -829.000; -800.000
399.747; -164.500; -859.000; -771.000
399.875;  188.200;  220.000;  234.000
400.003;  -61.200; -359.000; -284.000
400.130; -160.700; -421.000; -341.000
400.258;    3.200;  -83.000;   38.000
400.386;  -66.700; -352.000; -168.000
400.514;  -15.500; -526.000; -587.000
400.641; -156.600; -928.000; -802.000
400.769; -235.400; -979.000; -888.000
400.897; -203.100; -838.000; -793.000
401.025;   12.700; -166.000; -152.000
401.152;   50.400;  220.000;   38.000
401.280; -103.300; -430.000; -429.000
401.408; -172.700; -712.000; -576.000
401.535; -147.300; -735.000; -758.000
401.663; -335.900;-1134.000;-1054.000
401.790; -105.400; -514.000; -525.000
401.918;  132.200;  436.000;  405.000
402.046;   69.300;  134.000;  122.000
402.173;  -41.100;  -18.000;    7.000
402.301;  -61.700; -519.000; -397.000
402.428;  155.300;  528.000;  383.000
402.556; -249.700;-1188.000; -913.000
402.683;   -9.500;  -20.000;   -1.000
402.811;   29.300;  -37.000; -206.000
402.938;   19.300;   20.000;   27.000
403.066;  303.100; -574.000; -558.000
403.193;  518.400;  299.000;  239.000
403.321;  389.100; -396.000; -574.000
403.448;  541.100;   83.000;   27.000
403.575;  253.600;  -90.000;  -46.000
403.703; -135.700; -732.000; -557.000
403.830;  -64.000; -531.000; -496.000
403.957; -272.500;-1117.000;-1023.000
404.085;   98.100;  -61.000; -172.000
404.212;  244.900;  -50.000;   63.000
404.339;  659.200; -566.000; -306.000
404.467;13161.300; -612.000; -524.000
404.594; 7433.600; -287.000; -227.000
404.721; 1618.600; -869.000; -764.000
404.848;  216.300; -113.000; -202.000
404.976; -161.400; -856.000; -783.000
405.103;    4.800;  -14.000;  -82.000
405.230;   63.100;  190.000;  226.000
405.357;  130.100;  117.000;   44.000
405.484;  660.700;  -49.000;    5.000
405.612;  131.300; -548.000; -563.000
405.739;  -73.500; -488.000; -243.000
405.866;  256.700;  669.000;  385.000
405.993;  -62.400; -398.000; -102.000
406.120; -224.100; -801.000; -887.000
406.247;  -54.500; -323.000; -342.000
406.374;  781.700;  540.000;  629.000
406.501;  100.300; -632.000; -702.000
406.628; -124.000; -621.000; -589.000
406.755; -169.800; -803.000; -620.000
406.882;   -4.500; -228.000; -277.000
407.009; -167.800; -719.000; -628.000
407.136;  121.800; -480.000; -401.000
407.263;  149.700; -939.000; -829.000
407.390; -106.000; -692.000; -614.000
407.517; -296.500;-1139.000;-1187.000
407.644;  -42.900; -332.000; -256.000
407.771; -105.500; -249.000; -287.000
407.898;   82.300;  168.000;  328.000
408.025; -129.500; -421.000; -313.000
408.151;   49.600;   82.000;  153.000
408.278;  -29.600; -267.000; -216.000
408.405; -183.700; -931.000; -899.000
408.532; -113.700; -549.000; -542.000
408.659; -189.900; -677.000; -648.000
408.785; -337.000;-1298.000;-1170.000
408.912;  -43.300; -412.000; -296.000
409.039; -155.900; -610.000; -686.000
409.166; -130.800; -591.000; -555.000
409.292; -187.500; -571.000; -534.000
409.419; -164.600; -665.000; -649.000
409.546; -115.000; -431.000; -192.000
409.672; -169.500; -713.000; -545.000
409.799;  -15.700;  -36.000;   34.000
409.926;   -7.300; -180.000; -179.000
410.052; -311.700;-1127.000;-1091.000
410.179;  -71.100; -368.000; -392.000
410.305; -133.600; -375.000; -493.000
410.432;  -36.500; -220.000; -333.000
410.558; -125.400; -305.000; -380.000
410.685; -136.700; -688.000; -431.000
410.812; -136.300; -409.000; -588.000
410.938; -214.800; -964.000; -808.000
411.065; -149.800; -671.000; -645.000
411.191;   -5.700; -189.000; -174.000
411.317; -207.000; -823.000; -742.000
411.444;  -58.800; -317.000; -246.000
411.570; -118.400; -339.000; -294.000
411.697; -169.300; -758.000; -752.000
411.823; -342.700; -989.000; -999.000
411.949;  -46.500;  -56.000;   17.000
412.076; -146.300; -539.000; -519.000
412.202; -185.400; -758.000; -757.000
412.329; -222.500; -798.000; -752.000
412.455; -207.300; -821.000; -657.000
412.581;    2.400;  -15.000;  172.000
412.707;  -76.600; -540.000; -457.000
412.834;   73.500;  156.000;  219.000
412.960; -131.700; -785.000; -784.000
413.086; -164.200; -743.000; -701.000
413.212;  359.100;  604.000;  578.000
413.339; -120.000; -685.000; -701.000
413.465;   22.800; -364.000; -310.000
413.591; -197.100; -757.000; -474.000
413.717;  -36.700; -358.000; -366.000
413.843; -223.800; -839.000; -861.000
413.969;  -48.900;  -47.000; -292.000
414.096; -170.700; -679.000; -679.000
414.222;   68.900;  -33.000;   85.000
414.348;  -84.800; -652.000; -385.000
414.474;  210.800;   38.000;  -52.000
414.600;   37.400; -126.000; -144.000
414.726;   93.000;  -96.000;  -55.000
414.852;  -65.700; -365.000; -342.000
414.978;  159.200;  104.000;  -18.000
415.104;  151.100;   38.000;   80.000
415.230;  123.300; -329.000; -330.000
415.356;  144.300; -409.000; -514.000
415.482;  452.200;   13.000;  -35.000
415.608;  641.500; -247.000; -323.000
415.734; 2196.000;   67.000;   38.000
415.860;44104.700; -875.000; -767.000
415.986;28755.500; -685.000; -607.000
416.111; 2387.200; -798.000; -652.000
416.237;  572.700; -424.000; -571.000
416.363; 2772.500; -765.000; -733.000
416.489; 9113.200; -324.000; -251.000
416.615;  910.100; -707.000; -742.000
416.741;    7.100; -677.000; -784.000
416.866; -122.100; -673.000; -736.000
416.992; -201.600; -801.000; -818.000
417.118;    2.200;  -41.000;  -80.000
417.244;  -62.200; -798.000; -531.000
417.369; -128.600; -801.000; -612.000
417.495;   62.900; -325.000; -254.000
417.621; -117.000;-1015.000; -803.000
417.746;   58.500; -579.000; -572.000
417.872;  144.000; -254.000; -144.000
417.998;  192.900; -515.000; -530.000
418.123; 2704.800;-1073.000; -845.000
418.249;11825.200; -512.000; -601.000
418.374; 1481.700; -916.000; -824.000
418.500;  303.800; -383.000; -482.000
418.626;  308.200;   70.000;  -59.000
418.751;  315.900; -549.000; -448.000
418.877;  487.300; -637.000; -643.000
419.002; 4507.700; -688.000; -560.000
419.128;27834.900; -930.000; -721.000
419.253; 6081.500; -967.000; -837.000
419.379;  869.700; -391.000; -338.000
419.504;  933.900;  325.000;  415.000
419.629; 1190.800; -393.000; -212.000
419.755; 8952.200; -317.000; -254.000
419.880;46733.400;  -98.000;   67.000
420.006;25526.200; -280.000; -221.000
420.131;60507.900; -662.000; -775.000
420.256; 7839.200; -315.000; -316.000
420.382; 1163.900; -665.000; -687.000
420.507;  175.200; -649.000; -778.000
420.632;  205.800; -337.000; -339.000
420.758;  349.600; -251.000; -425.000
420.883; -129.800; -876.000; -672.000
421.008; -154.900; -775.000; -619.000
421.133; -121.500; -509.000; -467.000
421.259;  -30.300; -325.000; -259.000
421.384; -190.300; -834.000; -693.000
421.509;  -62.300;-1052.000; -862.000
421.634; 1554.000; -936.000; -820.000
421.759;  627.800; -359.000; -327.000
421.885;  -72.300; -717.000; -656.000
422.010;  -98.900; -673.000; -542.000
422.135; -239.300; -695.000; -727.000
422.260;   83.100;  340.000;  280.000
422.385;  -11.800;   12.000;  -98.000
422.510;  120.400;  151.000;  -26.000
422.635;   97.200;  -87.000;  -43.000
422.760;  189.900; -766.000; -791.000
422.885;  127.600;  -57.000;  -80.000
423.010;  -26.100; -112.000; -169.000
423.135; -114.800; -481.000; -561.000
423.260;   24.200; -150.000; -245.000
423.385;  186.300;  476.000;  222.000
423.510;  120.000;   71.000;  -22.000
423.635;  184.100;  133.000;   45.000
423.760;  201.800;  383.000;  328.000
423.885;  161.600;  336.000;  391.000
424.010;   80.600;  -68.000;  -13.000
424.135;   31.500;    5.000;  -33.000
424.259; -110.700; -654.000; -457.000
424.384;  -63.200; -279.000; -272.000
424.509;   22.800; -260.000; -186.000
424.634; -144.100; -761.000; -623.000
424.759;   44.600; -688.000; -544.000
424.883;   54.600; -506.000; -527.000
425.008;  379.100; -502.000; -410.000
425.133; 4536.800; -679.000; -653.000
425.258; 1929.800; -517.000; -381.000
425.382; 1780.400; -867.000; -774.000
425.507; 3957.000; -487.000; -543.000
425.632;  735.700; -802.000; -663.000
425.756; 1110.200; -256.000; -146.000
425.881;16492.800; -831.000; -857.000
426.006;39551.300; -604.000; -355.000
426.130; 5444.300; -696.000; -508.000
426.255;  806.100; -611.000; -491.000
426.379;  376.400; -189.000; -577.000
426.504;  899.800;  660.000;  544.000
426.629; 9012.500; -519.000; -466.000
426.753; 5626.600;   64.000;  -46.000
426.878;  654.200; -252.000; -288.000
427.002;  475.600; -651.000; -668.000
427.127; 3815.300;  -35.000; -158.000
427.251;25588.600;  372.000;  401.000
427.375; 6274.300; -191.000; -173.000
427.500; 3785.300; -616.000; -610.000
427.624; 1100.500; -234.000; -400.000
427.749;  233.900; -216.000; -225.000
427.873;  -51.900; -499.000; -412.000
427.997;   -1.500; -222.000; -230.000
428.122;  246.400;  795.000;  703.000
428.246;  214.300;  433.000;  434.000
428.371; -196.000; -869.000; -773.000
428.495; -159.300; -624.000; -646.000
428.619;  -13.700; -186.000; -117.000
428.743;  129.100;   65.000;  132.000
428.868;   21.400; -732.000; -643.000
428.992; 2248.000; -219.000; -326.000
429.116;  788.400; -329.000; -357.000
429.240;  431.400;  419.000;  426.000
429.365;   -0.100; -454.000; -574.000
429.489;  -23.700; -638.000; -647.000
429.613;   97.500; -236.000; -177.000
429.737;  171.400; -563.000; -432.000
429.861;  634.800; -247.000; -133.000
429.985;13051.500; -425.000; -305.000
430.109;12710.600; -770.000; -908.000
430.234; 1434.100;   76.000;  -50.000
430.358;  139.000; -250.000; -160.000
430.482;  -40.500; -672.000; -564.000
430.606;  -68.500; -655.000; -375.000
430.730;   52.900; -437.000; -388.000
430.854;  153.400; -909.000; -835.000
430.978; -140.100; -795.000; -764.000
431.102; -127.800; -499.000; -422.000
431.226; -183.600; -874.000; -815.000
431.350;  100.500;  345.000;  422.000
431.474;  -83.200; -661.000; -373.000
431.597; -272.800;-1060.000; -848.000
431.721;  -77.800; -276.000; -267.000
431.845; -213.800; -704.000; -472.000
431.969;  -85.100; -304.000; -349.000
432.093; -104.600; -395.000; -317.000
432.217;   69.600;   32.000;   82.000
432.341; -112.400; -523.000; -518.000
432.464;   96.600;   96.000;   40.000
432.588;  309.000; -401.000; -329.000
432.712;  205.900;  -52.000;  -52.000
432.836;  152.500;  213.000;  263.000
432.959;   48.400; -372.000; -311.000
433.083;  238.800;   11.000;    2.000
433.207;  929.600;  285.000;  930.000
433.330;11966.300; -391.000; -200.000
433.454;13368.600; -654.000; -638.000
433.578; 7943.000;  583.000;  278.000
433.701; 1343.500; -623.000; -675.000
433.825;  246.400; -292.000; -299.000
433.949;  277.100;   28.000;  -72.000
434.072;   82.100; -410.000; -323.000
434.196;   33.300; -309.000; -117.000
434.319; 7942.900;25482.000;25124.000
434.443; 1699.000; -656.000; -603.000
434.566; 5857.300;  281.000;   62.000
434.690;  883.000; -637.000; -383.000
434.813;  180.700; -251.000; -173.000
434.937;  -76.300; -569.000; -696.000
435.060;  -47.400; -423.000; -332.000
435.184;  419.900; -492.000; -217.000
435.307;  223.100;  159.000;  102.000
435.431;   37.800;  -40.000;   24.000
435.554;  -71.000; -399.000; -240.000
435.677; -139.700; -350.000; -258.000
435.801;  -18.400;  -25.000;   49.000
435.924;   24.000;    1.000;  -67.000
436.048; -240.000;-1019.000; -732.000
436.171;  -64.300; -240.000;  -66.000
436.294;   14.100; -248.000; -229.000
436.417;  323.900; -963.000; -849.000
436.541; -107.100; -814.000; -840.000
436.664;  -56.400; -242.000; -316.000
436.787;   48.500;   13.000;  113.000
436.910; -146.800; -792.000; -422.000
437.034;   69.500;  142.000;  143.000
437.157;  126.600;  -11.000;    0.000
437.280;  -64.300; -392.000; -292.000
437.403; -169.000; -982.000; -869.000
437.526;  859.600; -903.000; -865.000
437.649; 2856.300; -505.000; -332.000
437.772;  299.300; -692.000; -540.000
437.896;  260.700;  700.000;  544.000
438.019; -166.100; -758.000; -503.000
438.142; -114.500; -596.000; -506.000
438.265;  -12.200; -639.000; -670.000
438.388;  840.900; -520.000; -410.000
438.511;   96.700; -597.000; -394.000
438.634;  -46.900; -247.000; -125.000
438.757; -213.600; -693.000; -619.000
438.880;   22.200;  -34.000;  -57.000
439.003; -124.000; -417.000; -437.000
439.126;  -67.200; -287.000; -167.000
439.248;  -59.500;  -98.000; -139.000
439.371;   -2.600;    9.000;  -53.000
439.494;  144.500;  510.000;  439.000
439.617;  -27.400;   65.000;  -88.000
439.740; -339.400; -968.000; -816.000
439.863; -222.200; -755.000; -595.000
439.986; -155.000; -476.000; -431.000
440.108;  -52.400; -161.000; -112.000
440.231; -267.700; -950.000; -836.000
440.354;  -24.700;  -64.000; -150.000
440.477;   14.400; -566.000; -542.000
440.599;   39.600; -200.000; -225.000
440.722; -205.900; -709.000; -586.000
440.845;  201.300;  751.000;  928.000
440.968; -182.200; -415.000; -311.000
441.090;  -41.100; -199.000;  -33.000
441.213; -276.900;-1021.000; -825.000
441.336;  -25.400; -159.000;   -5.000
441.458; -121.800; -549.000; -396.000
441.581;  -83.000; -628.000; -629.000
441.703; -119.800; -152.000;   13.000
441.826; -135.900; -557.000; -400.000
441.948;  -30.400;   56.000;   51.000
442.071;  108.900;  555.000;  424.000
442.193; -157.400; -531.000; -485.000
442.316;   97.600;  152.000;   97.000
442.438;  111.300; -233.000;  -10.000
442.561;  199.000;  272.000;  262.000
442.683;  726.900; -809.000; -522.000
442.806; 1494.700;   -8.000;   74.000
442.928;  -49.400; -859.000; -604.000
443.051;  -67.600; -577.000; -373.000
443.173; -127.700; -341.000; -339.000
443.295; -114.200; -263.000; -371.000
443.418;  -67.700; -321.000;  -29.000
443.540;   21.000; -106.000;   -4.000
443.662; -184.500; -563.000; -465.000
443.785;   28.300;  335.000;  199.000
443.907; -165.300; -362.000; -208.000
444.029; -193.900; -767.000; -494.000
444.152; -219.000; -644.000; -554.000
444.274;    2.200;  -18.000;  -24.000
444.396; -176.500; -461.000; -221.000
444.518; -179.000; -691.000; -454.000
444.640; -143.500; -268.000; -111.000
444.763;   15.200;  388.000;  249.000
444.885; -172.200; -432.000; -392.000
445.007;    2.100;   35.000;   86.000
445.129; -178.700; -610.000; -515.000
445.251; -127.900; -372.000; -439.000
445.373; -238.400; -537.000; -386.000
445.495;   88.900;  242.000;  350.000
445.617;  208.900;  853.000;  753.000
445.739;  -48.400; -215.000;  -97.000
445.861;  -47.100; -245.000; -112.000
445.984;  -32.500; -267.000; -101.000
446.105;  304.200; -418.000; -251.000
446.227;  872.200; -176.000;  -19.000
446.349;  -39.400; -358.000; -249.000
446.471; -160.500; -615.000; -448.000
446.593;  -79.600; -316.000;   19.000
446.715;   45.100;  -67.000;   41.000
446.837;  183.400;  697.000;  832.000
446.959; -149.400; -457.000; -478.000
447.081; -212.100; -628.000; -518.000
447.203;  201.300;  862.000;  834.000
447.325;  -81.400; -270.000;   42.000
447.446;  107.400;  286.000;  530.000
447.568; -292.100; -921.000; -803.000
447.690;  -87.500; -236.000; -245.000
447.812; -275.200; -798.000; -519.000
447.933;    9.400;  155.000;  127.000
448.055;  -87.000; -306.000; -261.000
448.177;  261.100;   31.000;   79.000
448.299;   31.300; -935.000; -727.000
448.420;   80.700;  -25.000;  159.000
448.542;  -53.500;   -3.000;   33.000
448.664;   37.700;  109.000;  322.000
448.785;   -2.100;  265.000;   83.000
448.907; -120.600; -614.000; -353.000
449.028;  -68.800; -771.000; -471.000
449.150;  201.400;  492.000;  589.000
449.272; -323.300;-1044.000; -913.000
449.393;  136.200;  612.000;  694.000
449.515; -248.800; -634.000; -581.000
449.636;  -57.500; -264.000; -155.000
449.758;  213.700;  763.000;  622.000
449.879;  -96.200; -498.000; -396.000
450.001;  -59.300; -149.000;  -49.000
450.122;   16.400;  -95.000;  162.000
450.244;    6.100;   37.000;  364.000
450.365; -101.600; -495.000; -301.000
450.486;   28.700;   80.000;  268.000
450.608;  161.600;  393.000;  326.000
450.729;  227.000;  578.000;  645.000
450.850;  129.200; -574.000; -466.000
450.972; 1967.800; -552.000; -389.000
451.093;11578.200;  190.000;  588.000
451.214; 4397.100; -516.000; -337.000
451.336;  884.500;  773.000;  579.000
451.457;  200.100;  264.000;  393.000
451.578;   -6.000; -118.000;  -74.000
451.699; -171.200; -546.000; -540.000
451.821;  -86.800; -284.000;  -50.000
451.942;   35.000;  278.000;  285.000
452.063;  171.100;  228.000;  419.000
452.184; 1404.100;  -54.000;  -49.000
452.305; 2428.300;  103.000;  170.000
452.427;  304.800; -549.000; -301.000
452.548;   41.900;   23.000;   79.000
452.669;  -67.100; -257.000;  -89.000
452.790;   17.400;    3.000;  -18.000
452.911;    7.400;  195.000;  259.000
453.032;  -57.800; -289.000;  -60.000
453.153;  -27.400;  -29.000;   81.000
453.274;  208.600;  737.000;  868.000
453.395;  -47.700;  -51.000;  175.000
453.516;  327.600; 1317.000; 1388.000
453.637;  -81.100; -205.000; -150.000
453.758;  -20.900;   15.000;   69.000
453.879; -203.600; -462.000; -250.000
454.000;  270.200; 1086.000;  948.000
454.121; -161.400; -554.000; -326.000
454.242; -142.400; -599.000; -383.000
454.362;  -36.000;  -99.000;  114.000
454.483;   15.600; -309.000; -229.000
454.604;  162.300;  512.000;  580.000
454.725; -203.000; -627.000; -555.000
454.846; -214.800; -474.000; -406.000
454.967;   48.600;  230.000;  539.000
455.087;  -18.400;  179.000;  153.000
455.208;  132.100;  554.000;  856.000
455.329;  -41.700;  -22.000;   82.000
455.450;  188.500;  473.000;  633.000
455.570;  -77.600; -234.000; -211.000
455.691;    4.000;  201.000;  407.000
455.812; -143.100; -270.000;  -92.000
455.932;  -62.700;  107.000;  -97.000
456.053; -111.400;   36.000;   24.000
456.173; -145.700; -433.000; -355.000
456.294; -229.600; -476.000; -303.000
456.415;  -53.500;  -73.000;   70.000
456.535;  -11.500;  297.000;  273.000
456.656;  -47.600;  132.000;  240.000
456.776;  -55.200;    3.000;  298.000
456.897;   96.700;  308.000;  513.000
457.017;  -75.300; -153.000;   -3.000
457.138; -130.700; -402.000; -249.000
457.258;    9.000;  263.000;  224.000
457.379;   59.700;  509.000;  521.000
457.499;    3.900;  443.000;  432.000
457.620; -180.000; -407.000; -231.000
457.740; -115.700; -132.000;  -11.000
457.860;    0.200;   87.000;   44.000
457.981;  -48.400;  132.000;  124.000
458.101;  -62.200;  -89.000;   40.000
458.221;   44.800;  336.000;  402.000
458.342;  -32.000;   -4.000;  -37.000
458.462;  144.100;  617.000;  352.000
458.582;   25.000; -302.000; -294.000
458.703;   81.700;  303.000;  154.000
458.823;    8.700;   22.000;  163.000
458.943;  123.600;  341.000;  467.000
459.063;   42.400; 1124.000;  192.000
459.183;   -3.700;  328.000;  313.000
459.304;   69.100;  315.000;  517.000
459.424;  -44.200; -246.000;  -89.000
459.544;  852.500;  388.000;  764.000
459.664; 1905.800;  499.000;  506.000
459.784;  718.600; 1004.000; 1175.000
459.904;  186.600;  867.000;  744.000
460.024;  215.900;  867.000;  684.000
460.144;   68.700;  449.000;  554.000
460.264;   69.100;  515.000;  327.000
460.385; -134.700; -145.000; -119.000
460.505;  166.600;  905.000;  858.000
460.625; -129.300;  -17.000;  -68.000
460.745;   28.200;  396.000;  541.000
460.864;  -26.100;  153.000;  469.000
460.984;  152.100;  499.000;  573.000
461.104;  375.400; 1656.000; 1775.000
461.224;  107.900;  657.000;  650.000
461.344;   -4.800;  431.000;  360.000
461.464;   13.300;  258.000;  513.000
461.584;   54.100;  283.000;  466.000
461.704;  -59.200;   58.000;  108.000
461.824;  -51.100;  238.000;  259.000
461.943;   -2.600;  191.000;  130.000
462.063;  -92.300;    2.000;  324.000
462.183;  136.100;  639.000;  717.000
462.303;  292.400; 1678.000; 1230.000
462.422;  116.100;  781.000;  840.000
462.542;  -28.800;  271.000;  391.000
462.662;  144.200;  353.000;  380.000
462.782;  618.200;  833.000;  572.000
462.901; 1140.600;  545.000;  717.000
463.021;  656.100; 1702.000; 1638.000
463.141;   46.400;  337.000;  770.000
463.260;   27.900;  614.000;  474.000
463.380;  113.600;  902.000;  884.000
463.499;  -41.200;  342.000;  332.000
463.619;   23.300;  581.000;  559.000
463.738;  304.100; 1644.000;  903.000
463.858;   92.700;  657.000;  811.000
463.978;    7.200;  542.000;  396.000
464.097;  216.600;  921.000; 1114.000
464.217;  368.900; 1196.000; 1143.000
464.336;  367.100; 1068.000; 1130.000
464.455;   -5.500;  328.000;  659.000
464.575;  148.400;  597.000;  602.000
464.694;  398.400; 1204.000; 1179.000
464.814;  346.700; 1190.000; 1138.000
464.933;  240.900; 1095.000; 1027.000
465.052;  286.700; 1412.000; 1054.000
465.172;  230.600;  922.000;  799.000
465.291;  352.500; 1376.000; 1320.000
465.410;   58.200;  462.000;  735.000
465.530;  252.700; 1355.000; 1310.000
465.649;  193.400; 1209.000; 1273.000
465.768;  400.900; 1673.000; 1508.000
465.888;  181.800;  941.000; 1174.000
466.007;  310.200; 1335.000; 1440.000
466.126;  100.700;  721.000;  641.000
466.245;  209.500; 1176.000; 1187.000
466.364;  138.400;  950.000; 1060.000
466.484;  187.200; 1024.000; 1213.000
466.603;  104.400; 1101.000; 1222.000
466.722;  324.400; 1490.000; 1769.000
466.841;  218.900; 1151.000; 1401.000
466.960;  177.200; 1069.000;  972.000
467.079;  338.000; 1971.000; 1786.000
467.198;  197.400; 1238.000; 1181.000
467.317;  251.800; 1768.000; 1162.000
467.436;  251.100; 1709.000; 1261.000
467.555;  329.200; 1796.000; 1746.000
467.674;  209.400; 1227.000; 1329.000
467.793;  169.400; 1376.000; 1374.000
467.912;  274.100; 1658.000; 1539.000
468.031;  360.400; 2038.000; 1930.000
468.150;  356.400; 1842.000; 1837.000
468.269;  433.200; 2313.000; 2090.000
468.388;  457.400; 2168.000; 2339.000
468.507;  610.800; 2884.000; 2903.000
468.626;  664.500; 2555.000; 2541.000
468.744;  378.300; 2018.000; 2174.000
468.863;  568.600; 2312.000; 2523.000
468.982;  251.500; 1503.000; 1555.000
469.101;  557.200; 2788.000; 2692.000
469.220;  392.000; 2333.000; 2176.000
469.338;  588.500; 2935.000; 3051.000
469.457;  484.200; 2719.000; 2545.000
469.576;  784.100; 3953.000; 3784.000
469.695;  552.900; 2877.000; 3066.000
469.813;  932.200; 4148.000; 4192.000
469.932;  912.900; 4255.000; 4485.000
470.051;  958.000; 4075.000; 4161.000
470.169; 1938.100; 4470.000; 4338.000
470.288; 3315.900; 4700.000; 4809.000
470.406; 1839.400; 5059.000; 5194.000
470.525; 1356.200; 6101.000; 5787.000
470.644; 1456.500; 6847.000; 6794.000
470.762; 1744.900; 8397.000; 7873.000
470.881; 1964.800; 8651.000; 8464.000
470.999; 2257.300; 9685.000; 9151.000
471.118; 2351.500;11174.000;10711.000

