
Integration time [ms]: 200.000
Averaging Nr. [scans]: 10
Smoothing Nr. [pixels]: 0
Data measured with spectrometer [name]: 2101012U2
Wave   ;Sample   ;Dark     ;Reference
[nm]   ;[counts] ;[counts] ;[counts] 

197.733;  113.800;  516.000;  404.000
197.879; -186.900; -610.000; -634.000
198.025; -104.400; -475.000; -420.000
198.171; -173.000; -602.000; -612.000
198.317;  -77.500; -401.000; -316.000
198.463; -121.800; -655.000; -404.000
198.609;   96.900;  181.000; -137.000
198.755; -144.500; -644.000; -410.000
198.901; -129.700; -505.000; -424.000
199.047; -128.700; -615.000; -488.000
199.193;  -73.600; -230.000; -468.000
199.339;  -78.600; -222.000; -369.000
199.485;   96.600;  330.000;  271.000
199.631;   33.700;  227.000;  310.000
199.777; -110.400; -466.000; -398.000
199.923; -116.800; -610.000; -424.000
200.069;  -13.500; -141.000;  -58.000
200.215;  143.000;  128.000;  453.000
200.361;   74.500;  243.000;  477.000
200.507; -116.500; -600.000; -373.000
200.653;  -62.400; -371.000; -194.000
200.798;  -87.900; -215.000; -125.000
200.944;   -6.500; -146.000;  -41.000
201.090;  115.600;   61.000;  222.000
201.236;  -12.800; -116.000; -158.000
201.382;  293.800;  874.000;  903.000
201.528;    0.500;  -58.000;  -48.000
201.674; -121.800; -386.000; -293.000
201.819; -130.600; -540.000; -439.000
201.965; -146.000; -699.000; -447.000
202.111;  -37.200; -273.000; -226.000
202.257;  -62.800; -250.000; -238.000
202.402;   53.000;   13.000;  -36.000
202.548;  -61.700; -169.000; -116.000
202.694;  199.000;  410.000; -183.000
202.840; -146.100; -603.000; -531.000
202.985; -144.700; -681.000; -639.000
203.131; -210.600; -832.000; -666.000
203.277;  -64.300; -199.000; -262.000
203.423; -140.400; -434.000; -520.000
203.568;  -64.000; -462.000; -237.000
203.714; -121.600; -535.000; -542.000
203.860; -174.300; -682.000; -641.000
204.005;   45.000;  112.000;  167.000
204.151;  156.300;  561.000;  556.000
204.296;  -95.000; -354.000; -221.000
204.442; -166.000; -600.000; -547.000
204.588; -155.500; -592.000; -579.000
204.733;   11.200;  178.000;  168.000
204.879; -280.600;-1018.000; -822.000
205.025;   38.100;  -99.000;  126.000
205.170;    9.500;  -17.000;   94.000
205.316;  186.100;  438.000;  661.000
205.461; -165.000; -698.000; -554.000
205.607;  189.100;  609.000;  665.000
205.752; -133.500; -626.000; -551.000
205.898;  -85.900; -501.000; -391.000
206.043; -145.300; -578.000; -506.000
206.189;  -93.500; -243.000; -285.000
206.334;  198.000;  554.000;  606.000
206.480;  157.300;  409.000;  239.000
206.625; -162.900; -529.000; -552.000
206.771;  -93.300; -451.000; -373.000
206.916;  -63.100; -210.000; -537.000
207.062; -154.800; -545.000; -591.000
207.207; -119.400; -546.000; -443.000
207.353;  137.800;  185.000;  460.000
207.498;   52.100;  196.000;   85.000
207.643; -114.500; -501.000; -370.000
207.789; -269.400;-1069.000; -910.000
207.934; -178.500; -665.000; -713.000
208.080;  -45.200; -154.000;   66.000
208.225;  -30.500;  -22.000;  -57.000
208.370; -183.900; -727.000; -619.000
208.516; -175.200; -741.000; -487.000
208.661;  -34.700; -127.000;  -69.000
208.806;  -38.900; -165.000; -171.000
208.952; -248.000;-1044.000; -731.000
209.097;  174.400;  378.000;  349.000
209.242;  -54.800; -307.000; -382.000
209.387;  102.700;  392.000;  350.000
209.533; -101.500; -321.000; -350.000
209.678;  148.100;  472.000;  543.000
209.823; -105.200; -408.000; -310.000
209.969; -204.200; -860.000; -757.000
210.114; -232.200; -907.000; -719.000
210.259; -241.600; -939.000; -889.000
210.404;   -4.100; -171.000;  103.000
210.549;    9.800;  108.000;    3.000
210.695;  -26.100;   -3.000;  -95.000
210.840;   35.000;   94.000;   67.000
210.985; -104.400; -484.000; -303.000
211.130;  135.500;  268.000;  406.000
211.275;   87.500;  207.000;  199.000
211.420; -104.600; -300.000; -289.000
211.566; -133.200; -536.000; -489.000
211.711;   49.300;  218.000;  157.000
211.856; -127.600; -545.000; -519.000
212.001;   -6.700;  151.000;   44.000
212.146;   19.800;  153.000;   49.000
212.291;  -54.400; -210.000; -186.000
212.436;  -31.100; -280.000;   -6.000
212.581; -168.400; -685.000; -653.000
212.726; -146.900; -487.000; -538.000
212.871;  -90.000; -552.000; -217.000
213.016; -287.900;-1172.000;-1029.000
213.161;  134.800;  406.000;  291.000
213.306; -151.900; -435.000; -577.000
213.451; -206.900; -778.000; -689.000
213.596;  -98.700; -455.000; -347.000
213.741; -140.700; -448.000; -538.000
213.886; -144.700; -498.000; -517.000
214.031;  -49.200; -294.000; -124.000
214.176; -107.400; -408.000; -341.000
214.321;  -58.700; -296.000; -157.000
214.466;  -45.900; -163.000;  -43.000
214.611;   -1.100;  -61.000;  -10.000
214.756; -243.500; -948.000; -858.000
214.901;  -37.100; -388.000; -226.000
215.046; -236.400; -797.000; -825.000
215.191;   62.200;  128.000;   35.000
215.336;   -8.300; -157.000;  -19.000
215.480; -127.900; -684.000; -505.000
215.625;    1.000; -175.000;  -19.000
215.770; -164.900; -757.000; -662.000
215.915;    5.900;   -5.000;  -97.000
216.060;  -19.400; -113.000;  -21.000
216.205; -240.700; -731.000; -779.000
216.349; -137.200; -470.000; -533.000
216.494; -262.300; -939.000; -867.000
216.639; -244.900; -823.000; -888.000
216.784; -165.900; -577.000; -525.000
216.929;  115.300;  392.000;  281.000
217.073;  -13.400; -244.000;  -31.000
217.218;   20.200;   78.000;  -47.000
217.363; -168.700; -656.000; -618.000
217.507; -158.500; -623.000; -588.000
217.652; -251.900; -845.000; -874.000
217.797; -185.600; -708.000; -659.000
217.942; -214.200; -856.000; -720.000
218.086;  145.900;  608.000;  539.000
218.231;  -28.300; -174.000;  -26.000
218.376;  -71.000; -337.000; -229.000
218.520;    4.800;  -41.000;   96.000
218.665;  -67.800; -338.000; -204.000
218.810;  -70.000; -275.000; -233.000
218.954;   37.900;  201.000;   35.000
219.099; -226.400; -713.000; -963.000
219.243; -117.700; -589.000; -554.000
219.388;  -46.800; -264.000; -136.000
219.532;   -9.000; -116.000; -116.000
219.677; -165.100; -564.000; -521.000
219.822;   37.500;   33.000;   89.000
219.966;  -18.900;   17.000;  -99.000
220.111;  -63.900; -328.000;  -40.000
220.255; -222.700; -797.000; -750.000
220.400;  -35.400; -180.000; -146.000
220.544; -130.200; -516.000; -450.000
220.689; -107.600; -422.000; -451.000
220.833;  -39.300; -123.000;  -58.000
220.978;  -99.200; -393.000; -563.000
221.122;   70.300;  319.000;  307.000
221.267; -251.500; -906.000; -837.000
221.411; -117.900; -478.000; -394.000
221.555;    3.500; -104.000;  -23.000
221.700;  -82.700; -329.000; -222.000
221.844;   77.600;  255.000;  272.000
221.989;  -70.200; -328.000; -311.000
222.133;  -49.400; -289.000; -307.000
222.277;   19.000;    5.000;   78.000
222.422;   48.000;  227.000;  113.000
222.566;  -60.500; -381.000; -214.000
222.711; -110.300; -414.000; -479.000
222.855; -146.800; -643.000; -586.000
222.999; -202.600; -642.000; -717.000
223.144;  -35.300; -195.000; -194.000
223.288;  140.700;  423.000;  251.000
223.432;   63.200;  184.000;  230.000
223.576;   69.200;  152.000;  -21.000
223.721;   85.700;  364.000;  273.000
223.865; -137.400; -472.000; -475.000
224.009;  485.700; 1673.000; 1631.000
224.153; -160.500; -660.000; -671.000
224.298; -154.500; -531.000; -489.000
224.442;  -18.100;  -74.000;  -33.000
224.586;    5.500; -169.000; -106.000
224.730; -187.100; -858.000; -670.000
224.875; -234.200; -739.000; -688.000
225.019;   35.800;  102.000;  188.000
225.163;  137.700;  208.000;  341.000
225.307;   59.400;   97.000;  -91.000
225.451;   91.000;  360.000;  481.000
225.595;   86.700;  264.000;  176.000
225.739;  -22.500; -170.000;  -94.000
225.884;   34.000;   86.000;    5.000
226.028; -194.800; -760.000; -626.000
226.172;  -87.200; -260.000; -273.000
226.316; -232.000; -941.000; -902.000
226.460; -136.000; -645.000; -493.000
226.604;  -89.000; -406.000; -400.000
226.748; -188.600; -836.000; -733.000
226.892;  -23.400; -227.000; -181.000
227.036;  -84.500; -537.000; -447.000
227.180; -111.500; -551.000; -375.000
227.324; -128.500; -561.000; -580.000
227.468; -214.100; -819.000; -717.000
227.612;   40.900;  242.000;  -28.000
227.756; -205.400; -845.000; -698.000
227.900;   92.300;  342.000;  441.000
228.044; -100.100; -509.000; -290.000
228.188;  162.600;  448.000;  568.000
228.332; -153.800; -546.000; -472.000
228.476;  -38.100; -223.000; -149.000
228.620;  -46.600; -210.000; -150.000
228.764;  148.100;  431.000;  349.000
228.908;   -5.300; -155.000;   30.000
229.052; -110.100; -615.000; -528.000
229.195;   24.500; -172.000;   13.000
229.339;  -40.600; -235.000; -305.000
229.483;  -46.800;    5.000; -162.000
229.627;   -3.100; -156.000;  139.000
229.771;  -86.600; -218.000; -294.000
229.915;   15.700;  230.000;   79.000
230.059; -163.000; -648.000; -663.000
230.202;  -69.800; -370.000; -317.000
230.346;  -49.100; -107.000;  107.000
230.490; -132.000; -489.000; -521.000
230.634; -198.200; -736.000; -553.000
230.777;  178.900;  478.000;  509.000
230.921; -115.500; -450.000; -359.000
231.065;  -73.700; -246.000; -286.000
231.209;   58.000;  261.000;  265.000
231.352;   61.500;   54.000;   40.000
231.496;   48.900;  568.000;  188.000
231.640; -179.500; -693.000; -621.000
231.783;  175.400;  546.000;  525.000
231.927;  -93.800; -294.000; -365.000
232.071; -244.400; -962.000; -736.000
232.214; -212.800; -980.000; -764.000
232.358; -155.400; -683.000; -599.000
232.502;   18.200;  -19.000;    7.000
232.645; -258.100;-1090.000; -927.000
232.789;  -54.900; -257.000; -218.000
232.933;  -58.200; -407.000; -224.000
233.076; -242.400;-1038.000; -897.000
233.220; -213.500; -752.000; -777.000
233.363; -162.100; -669.000; -477.000
233.507;  103.600;  371.000;  129.000
233.650; -188.900; -764.000; -834.000
233.794;  112.200;  438.000;  461.000
233.938; -119.500; -530.000; -362.000
234.081;   -5.100;  -93.000;   31.000
234.225; -140.200; -631.000; -539.000
234.368; -231.300; -773.000; -723.000
234.512;  -92.100; -385.000; -299.000
234.655; -176.600; -582.000; -555.000
234.798; -134.800; -493.000; -466.000
234.942; -257.300; -884.000;-1002.000
235.085; -138.800; -651.000; -443.000
235.229; -137.300; -405.000; -410.000
235.372;  -79.500; -247.000; -191.000
235.516; -139.000; -397.000; -321.000
235.659;   62.100;   92.000;  121.000
235.802;   -6.300;  -38.000;  -22.000
235.946;   84.000;  335.000;  215.000
236.089;   82.800;  126.000;  250.000
236.233;  134.200;  275.000;  298.000
236.376;  -91.600; -235.000; -378.000
236.519;  -58.400; -297.000; -319.000
236.663;  -20.000; -215.000; -117.000
236.806; -304.500;-1029.000; -999.000
236.949;  138.300;  543.000;  431.000
237.092;  153.200;  412.000;  391.000
237.236; -179.600; -589.000; -502.000
237.379;   96.900;  352.000;  428.000
237.522; -238.000; -879.000; -768.000
237.666;    4.500; -271.000;   18.000
237.809; -233.400; -851.000; -823.000
237.952;   81.200;  469.000;  271.000
238.095; -118.600; -447.000; -442.000
238.238;  178.500;  688.000;  700.000
238.382;   10.900;  166.000;  103.000
238.525; -125.700; -598.000; -511.000
238.668; -263.000;-1060.000; -985.000
238.811; -142.100; -638.000; -643.000
238.954; -115.800; -483.000; -334.000
239.097;  213.500;  617.000;  664.000
239.241;   71.900;  394.000;  326.000
239.384;  -63.800; -254.000; -214.000
239.527; -115.000; -424.000; -224.000
239.670; -272.900; -994.000;-1091.000
239.813; -172.400; -696.000; -658.000
239.956;  176.600;  579.000;  473.000
240.099; -228.900; -778.000; -725.000
240.242;  151.500;  428.000;  432.000
240.385;  159.100;  466.000;  450.000
240.528; -124.700; -706.000; -473.000
240.671;   46.200;  189.000;  134.000
240.814;  -92.000; -441.000; -158.000
240.957; -175.700; -767.000; -578.000
241.100; -196.500; -779.000; -755.000
241.243; -296.700;-1234.000; -893.000
241.386; -113.400; -508.000; -379.000
241.529; -169.900; -735.000; -547.000
241.672; -101.800; -566.000; -495.000
241.815; -205.500; -832.000; -808.000
241.958;  -48.900; -125.000; -182.000
242.101; -167.100; -545.000; -390.000
242.244;  -66.400; -270.000; -325.000
242.387;  -50.400; -304.000; -246.000
242.530;  123.900;  470.000;  134.000
242.673;  -86.700; -381.000; -309.000
242.815; -217.700; -925.000; -899.000
242.958; -122.800; -482.000; -381.000
243.101;   34.300;  132.000;  187.000
243.244; -142.800; -564.000; -521.000
243.387;  -90.800; -313.000; -316.000
243.530; -205.900; -657.000; -674.000
243.672;   29.900;   43.000;  -92.000
243.815; -100.300; -355.000; -283.000
243.958;   13.000;   98.000;  -26.000
244.101;    4.000;   59.000;  -16.000
244.243;  -17.800;  -47.000;  101.000
244.386; -211.100; -761.000; -630.000
244.529;  -30.400; -132.000; -139.000
244.672; -338.000;-1154.000; -951.000
244.814; -212.200; -621.000; -794.000
244.957;  -53.700; -380.000; -304.000
245.100; -150.900; -489.000; -489.000
245.242;  -96.500; -387.000; -374.000
245.385;   -6.600;  -59.000;  -39.000
245.528; -244.100; -871.000; -705.000
245.670;  201.700;  612.000;  634.000
245.813; -160.100; -599.000; -547.000
245.956;  -54.600; -324.000; -275.000
246.098; -153.500; -508.000; -650.000
246.241;   35.900;  194.000;   48.000
246.383;    1.900; -119.000;  -73.000
246.526; -149.500; -454.000; -525.000
246.669; -237.600; -889.000; -780.000
246.811;   43.000;  172.000;   -1.000
246.954; -106.700; -512.000; -426.000
247.096;   -4.200;  -84.000;   -6.000
247.239; -139.100; -482.000; -445.000
247.381; -128.800; -647.000; -488.000
247.524;  203.700;  645.000;  679.000
247.666;   28.100;   58.000;   11.000
247.809; -233.600; -887.000; -691.000
247.951;  -31.400;  -75.000;  138.000
248.094;   66.900;  432.000;  308.000
248.236; -325.400;-1262.000;-1238.000
248.378;  -20.500; -356.000;  -81.000
248.521;    0.600; -334.000; -337.000
248.663;  -84.800; -236.000; -267.000
248.806;  -53.300; -300.000; -266.000
248.948; -172.500; -886.000; -763.000
249.090;  -44.000; -428.000; -398.000
249.233;  -99.800; -344.000; -381.000
249.375; -128.900; -474.000; -451.000
249.518;  -28.300;  -83.000; -133.000
249.660;  -12.100; -103.000;    3.000
249.802; -362.900;-1303.000;-1189.000
249.945; -121.200; -612.000; -540.000
250.087; -213.200; -834.000; -768.000
250.229;  -86.900; -362.000; -480.000
250.371; -126.700; -494.000; -439.000
250.514;  -88.400; -310.000; -244.000
250.656;   -5.500;   69.000;  102.000
250.798; -217.500; -849.000; -800.000
250.940; -117.400; -322.000; -322.000
251.083;  -44.800; -335.000; -111.000
251.225;  131.800;  338.000;  310.000
251.367;  -78.900; -274.000; -373.000
251.509;  -44.700; -265.000; -210.000
251.651; -195.000; -731.000; -671.000
251.794;  148.800;  538.000;  632.000
251.936; -203.700; -821.000; -747.000
252.078; -148.300; -540.000; -461.000
252.220; -120.500; -645.000; -477.000
252.362;  203.300;  344.000;  462.000
252.504; -118.300; -677.000; -584.000
252.646; -226.100; -875.000; -722.000
252.788;   -4.400;   14.000; -128.000
252.931;  -79.000; -257.000; -253.000
253.073;  -59.400; -376.000; -317.000
253.215;   28.500;  141.000;  122.000
253.357;    5.100;   82.000; -153.000
253.499;  -89.500; -374.000; -234.000
253.641; -155.300; -749.000; -594.000
253.783; -151.800; -609.000; -527.000
253.925; -200.300; -586.000; -591.000
254.067; -219.200; -744.000; -667.000
254.209;  -67.200; -391.000; -259.000
254.351; -243.100; -865.000; -883.000
254.493; -110.800; -441.000; -417.000
254.635; -207.300; -936.000; -818.000
254.777; -170.900; -752.000; -687.000
254.918; -149.100; -512.000; -430.000
255.060; -108.500; -551.000; -395.000
255.202;  -71.100; -473.000; -261.000
255.344; -133.000; -658.000; -455.000
255.486; -136.000; -471.000; -406.000
255.628; -210.300; -780.000; -781.000
255.770; -172.200; -676.000; -536.000
255.912; -144.000; -559.000; -468.000
256.053; -167.900; -730.000; -508.000
256.195;  346.600; 1008.000;  903.000
256.337; -199.100; -861.000; -595.000
256.479;  110.400;  532.000;  416.000
256.621;  -59.900; -394.000; -212.000
256.762; -183.900; -789.000; -742.000
256.904;  126.500;  485.000;  487.000
257.046;  -42.700; -381.000; -271.000
257.188;  -81.500; -351.000; -264.000
257.329; -145.500; -525.000; -464.000
257.471; -198.800; -939.000; -807.000
257.613; -124.500; -584.000; -498.000
257.755; -301.300;-1073.000; -982.000
257.896;  106.500;  286.000;  392.000
258.038; -111.700; -403.000; -352.000
258.180;  -65.900; -354.000; -279.000
258.321; -130.600; -581.000; -457.000
258.463;   20.400;  -71.000;  133.000
258.605; -160.900; -562.000; -570.000
258.746; -165.100; -886.000; -772.000
258.888; -302.400;-1026.000;-1020.000
259.029;   53.300;  121.000;   -8.000
259.171; -131.600; -614.000; -550.000
259.313;  -12.500;  -49.000;  -47.000
259.454; -109.500; -536.000; -414.000
259.596;  -98.200; -483.000; -390.000
259.737; -139.300; -590.000; -474.000
259.879;  107.300;  217.000;  311.000
260.020;  207.900;  901.000;  636.000
260.162;   -8.700; -146.000; -253.000
260.303; -218.400; -768.000; -687.000
260.445; -178.500; -609.000; -613.000
260.586;   96.300;  392.000;  157.000
260.728;  -75.700; -360.000; -248.000
260.869; -113.200; -350.000; -343.000
261.011;  172.000;  706.000;  537.000
261.152;  -88.400; -479.000; -319.000
261.293; -140.900; -576.000; -595.000
261.435;  -67.900; -219.000; -184.000
261.576;  -58.600; -455.000; -325.000
261.718;  147.800;  420.000;  470.000
261.859; -231.600; -940.000; -949.000
262.000; -238.200; -951.000;-1016.000
262.142;   -4.100;  -52.000;  -60.000
262.283; -222.700; -808.000; -691.000
262.424; -157.600; -666.000; -625.000
262.566; -298.800;-1161.000; -983.000
262.707; -248.500; -840.000; -830.000
262.848; -222.600; -769.000; -726.000
262.990;  -98.500; -362.000; -345.000
263.131;  217.500;  650.000;  681.000
263.272;   10.500;  -61.000;  -41.000
263.413; -148.900; -589.000; -561.000
263.555; -142.100; -669.000; -143.000
263.696; -170.800; -550.000; -641.000
263.837;  -89.600; -449.000; -551.000
263.978;   48.700;   -5.000;  -77.000
264.119;  -70.600; -283.000; -264.000
264.261; -223.100; -847.000; -630.000
264.402;   38.200;   33.000;   40.000
264.543; -131.300; -509.000; -524.000
264.684;   -2.300;   61.000;  -50.000
264.825; -134.100; -816.000; -538.000
264.966;   24.200;  -84.000;  -67.000
265.107; -194.400; -646.000; -670.000
265.248; -208.400; -825.000; -812.000
265.390;   -8.500;  152.000;   -9.000
265.531;  -18.100; -238.000; -107.000
265.672; -139.900; -557.000; -630.000
265.813;  164.500;  563.000;  439.000
265.954; -257.600; -959.000; -940.000
266.095;    3.000; -372.000; -322.000
266.236; -165.200; -686.000; -548.000
266.377;  -78.600; -243.000; -297.000
266.518; -114.800; -619.000; -547.000
266.659;   81.300;  170.000;  268.000
266.800;   60.100;   83.000;   85.000
266.941; -125.000; -487.000; -478.000
267.082;   73.600;  354.000;   99.000
267.223;  -86.300; -344.000; -273.000
267.364; -228.300; -892.000; -686.000
267.504;   -3.000;    3.000;  135.000
267.645;  -19.500;  160.000;   67.000
267.786;  -47.300; -147.000;  -86.000
267.927;  -96.700; -473.000; -379.000
268.068;    6.000; -186.000;  -61.000
268.209;  -64.700; -175.000; -413.000
268.350;  -92.200; -388.000; -532.000
268.490; -128.900; -648.000; -521.000
268.631;   79.400;  127.000;  225.000
268.772; -214.700; -874.000; -647.000
268.913;  -73.300; -328.000; -476.000
269.054;    5.900; -117.000;   12.000
269.194;  -76.000; -418.000; -402.000
269.335; -304.900;-1137.000;-1074.000
269.476;  -10.500;   33.000;  -35.000
269.617;  -46.600; -347.000; -392.000
269.757; -146.800; -713.000; -646.000
269.898; -184.500; -856.000; -613.000
270.039;  -57.700; -415.000; -405.000
270.180; -224.100; -952.000; -816.000
270.320;  -31.100; -190.000; -250.000
270.461;  -51.300; -277.000; -249.000
270.602;  -12.900; -186.000; -156.000
270.742; -230.200; -868.000; -943.000
270.883;  -90.900; -442.000; -390.000
271.023; -103.100; -358.000; -357.000
271.164; -132.600; -607.000; -528.000
271.305; -164.200; -666.000; -654.000
271.445; -166.400; -722.000; -683.000
271.586; -117.500; -462.000; -283.000
271.726; -106.600; -397.000; -322.000
271.867; -122.100; -594.000; -534.000
272.008;  328.100; -473.000; -285.000
272.148;  260.700;  462.000;  468.000
272.289;   43.000; -113.000; -181.000
272.429;   50.000;   19.000;  185.000
272.570; -186.700; -633.000; -737.000
272.710; -186.200; -825.000; -775.000
272.851;  -37.200;  113.000; -130.000
272.991; -290.400;-1173.000;-1077.000
273.131; -107.800; -419.000; -459.000
273.272; -163.500; -683.000; -723.000
273.412;   22.700; -143.000;  -31.000
273.553;  -74.200; -488.000; -507.000
273.693;  300.700;  913.000;  858.000
273.834; -170.900; -894.000; -692.000
273.974; -140.300; -664.000; -615.000
274.114; -171.800; -772.000; -560.000
274.255;  172.700;  414.000;  373.000
274.395;   27.900; -180.000; -125.000
274.535;   89.400;  199.000;  350.000
274.676;   73.300;  225.000;   94.000
274.816;   43.900;  110.000;   34.000
274.956; -140.300; -624.000; -690.000
275.097; -109.700;-1014.000; -922.000
275.237; -191.700; -913.000; -803.000
275.377; -152.000; -778.000; -689.000
275.517; -275.500; -878.000; -937.000
275.658;  -84.900; -590.000; -555.000
275.798; -106.000; -606.000; -413.000
275.938;   68.300;  215.000;  323.000
276.078; -132.900; -626.000; -395.000
276.218;   39.100;   99.000;  104.000
276.359; -240.900;-1026.000;-1024.000
276.499; -116.000; -605.000; -446.000
276.639;  -13.200; -305.000; -151.000
276.779;  -92.500; -475.000; -357.000
276.919; -182.200; -783.000; -624.000
277.059;  -23.200; -261.000; -212.000
277.199;  -65.300; -357.000; -259.000
277.340;  124.500;  287.000;  175.000
277.480; -198.600; -840.000; -693.000
277.620;  100.900;  192.000;   16.000
277.760; -373.600;-1533.000;-1294.000
277.900;   41.300;  113.000;   33.000
278.040;   68.300;  137.000;  159.000
278.180;  110.100;  270.000;  170.000
278.320;   37.600;   21.000;   56.000
278.460; -113.000; -443.000; -469.000
278.600; -168.800; -708.000; -598.000
278.740;  140.900;  448.000;  224.000
278.880; -102.400; -768.000; -791.000
279.020;   61.100; -194.000; -144.000
279.160; -158.000; -672.000; -595.000
279.300; -214.000; -926.000; -873.000
279.440; -171.000; -709.000; -622.000
279.579;  -68.400;-1014.000; -929.000
279.719;  -86.100; -410.000; -394.000
279.859;  133.900;   -4.000;   41.000
279.999;   73.800; -208.000;  101.000
280.139;  -40.300; -435.000; -387.000
280.279; -119.600; -708.000; -745.000
280.419;   10.000; -229.000; -147.000
280.559;  -28.200; -259.000; -180.000
280.698; -176.500; -790.000; -639.000
280.838; -182.700; -778.000; -800.000
280.978; -195.000; -846.000; -790.000
281.118; -203.000; -811.000; -704.000
281.257;   62.200;   24.000;    6.000
281.397; -204.100;-1094.000; -960.000
281.537; -141.800; -599.000; -712.000
281.677;   -0.900; -150.000; -101.000
281.816; -180.200; -700.000; -630.000
281.956;  -42.000; -193.000; -257.000
282.096; -101.000; -539.000; -396.000
282.235; -162.300; -672.000; -638.000
282.375;   -2.300; -243.000;  -98.000
282.515; -183.700; -715.000; -707.000
282.654;   96.500;   29.000;  106.000
282.794;   84.700;  388.000;  244.000
282.934;  -92.800; -530.000; -491.000
283.073; -236.200;-1030.000; -857.000
283.213; -113.300; -460.000; -467.000
283.353;  -30.300; -408.000; -349.000
283.492;  -13.100; -264.000; -296.000
283.632;  -64.900; -254.000; -168.000
283.771; -163.200; -859.000; -730.000
283.911;  -57.500; -369.000; -260.000
284.050; -217.500; -794.000; -748.000
284.190; -285.700;-1229.000;-1096.000
284.329; -285.000;-1055.000; -964.000
284.469;  -77.300; -516.000; -591.000
284.608; -102.300; -559.000; -598.000
284.748; -135.300; -614.000; -570.000
284.887;    3.200;  -87.000;  -20.000
285.027; -232.800; -844.000; -892.000
285.166;  -52.200; -192.000; -249.000
285.306;   41.500; -116.000;  -33.000
285.445;  -58.800; -229.000; -343.000
285.584; -149.900; -630.000; -494.000
285.724;  -69.100; -282.000; -322.000
285.863; -217.800; -857.000; -507.000
286.002;  -58.600; -366.000; -276.000
286.142; -175.500; -715.000; -622.000
286.281; -110.300; -525.000; -493.000
286.420; -129.900; -554.000; -417.000
286.560;  249.800;  653.000;  623.000
286.699; -252.200; -958.000; -912.000
286.838; -149.000; -590.000; -591.000
286.978; -150.400; -533.000; -537.000
287.117; -249.300;-1085.000; -950.000
287.256;  -69.900; -228.000; -211.000
287.395;  -93.800; -197.000; -378.000
287.535;  -54.000; -370.000; -298.000
287.674; -141.500; -509.000; -484.000
287.813;  151.900;  661.000;  533.000
287.952; -239.000;-1010.000; -871.000
288.091; -274.700;-1049.000; -915.000
288.231;   79.000;   13.000;   15.000
288.370; -312.900;-1217.000;-1200.000
288.509; -147.700; -728.000; -645.000
288.648; -156.300; -770.000; -548.000
288.787;  -20.900; -243.000;  -87.000
288.926;  -95.600; -454.000; -475.000
289.065;  284.600;  859.000;  672.000
289.204;  -42.600; -377.000; -217.000
289.344; -169.200; -791.000; -690.000
289.483;  107.700;  416.000;  304.000
289.622;    2.800; -291.000; -149.000
289.761;    0.300; -309.000; -166.000
289.900; -184.600; -785.000; -626.000
290.039;   14.400;  -12.000;  -95.000
290.178;  -32.200; -274.000; -180.000
290.317; -114.100; -618.000; -479.000
290.456;  -88.500; -463.000; -451.000
290.595; -241.900; -961.000; -833.000
290.734; -255.500; -904.000; -891.000
290.873;  -86.700; -456.000; -420.000
291.011; -173.300; -833.000; -843.000
291.150; -181.000; -770.000; -682.000
291.289;   15.000; -343.000; -110.000
291.428; -158.100; -599.000; -480.000
291.567;  -84.500; -370.000; -442.000
291.706;   37.300;  109.000;  154.000
291.845; -135.700; -597.000; -505.000
291.984; -328.700;-1234.000;-1061.000
292.122;  197.400;  602.000;  582.000
292.261;  136.500;  620.000;  463.000
292.400;   48.500; -144.000;  211.000
292.539; -229.300; -959.000; -813.000
292.678;  -21.500; -325.000; -300.000
292.816; -271.500;-1136.000; -965.000
292.955; -162.200; -844.000; -684.000
293.094;   31.400; -173.000; -337.000
293.233;  -77.400; -556.000; -400.000
293.371;  -32.300; -225.000;  -84.000
293.510; -190.400; -866.000; -780.000
293.649; -221.300; -959.000; -924.000
293.787; -106.700;-1083.000;-1012.000
293.926;   19.600; -113.000;  -32.000
294.065;  -59.900; -379.000; -290.000
294.203;  175.300;  298.000;  406.000
294.342;   87.200;   74.000;  156.000
294.481;11581.200;51180.000; -836.000
294.619;  -17.800; -425.000; -582.000
294.758; -252.100;-1230.000;-1137.000
294.896;  176.900; -125.000;    5.000
295.035; -220.800;-1040.000;-1006.000
295.174; -218.800;-1082.000; -954.000
295.312;  -24.400; -323.000; -203.000
295.451;   -5.500; -307.000; -428.000
295.589;  -21.100; -389.000; -518.000
295.728;   80.700; -292.000; -165.000
295.866;   45.800;  -36.000;  -51.000
296.005; -127.400; -584.000; -341.000
296.143; -108.100; -558.000; -596.000
296.282; -175.600; -957.000; -881.000
296.420; -127.500; -657.000; -557.000
296.559; -135.900; -892.000; -633.000
296.697;   56.100; -847.000; -665.000
296.835;  144.500;-1141.000;-1002.000
296.974;  154.600;  -23.000;   39.000
297.112;   73.300; -443.000; -504.000
297.251;  -74.000; -815.000; -755.000
297.389;  177.500; -576.000; -438.000
297.527;  142.300; -145.000;  -83.000
297.666;  -74.000; -486.000; -438.000
297.804;  -28.900; -404.000; -264.000
297.942;   37.800; -136.000; -161.000
298.081;   75.600; -183.000;   63.000
298.219;  164.400;  -17.000;  -19.000
298.357;  143.900; -144.000;  -71.000
298.495;   69.400; -810.000; -812.000
298.634;  245.500;  245.000;  219.000
298.772;  135.600; -220.000; -338.000
298.910;   13.300; -309.000; -182.000
299.048;   27.400; -130.000; -153.000
299.187;  -33.000; -350.000; -250.000
299.325;   84.300;   52.000;  122.000
299.463;  130.300; -389.000; -299.000
299.601;  296.100; -327.000; -271.000
299.739; -188.100; -908.000; -883.000
299.877; -135.700; -791.000; -703.000
300.016; -117.900;-1095.000; -935.000
300.154;  370.300;  -19.000; -161.000
300.292;  149.500; -428.000; -348.000
300.430;  106.400; -408.000; -291.000
300.568; -182.000; -940.000; -874.000
300.706;  -88.500; -366.000; -469.000
300.844; -136.600;-1108.000; -979.000
300.982;  256.000;  246.000;  282.000
301.120; -191.000; -965.000; -866.000
301.258;  -67.600; -812.000; -705.000
301.396;  108.900;  104.000;  -41.000
301.534;  181.700; -218.000; -293.000
301.672;   54.100; -664.000; -521.000
301.810;  106.800; -613.000; -545.000
301.948;  351.100;   53.000;  149.000
302.086; 1114.200; -250.000;  -32.000
302.224; 1819.800; -610.000; -585.000
302.362;  139.900; -558.000; -622.000
302.500;  -16.500; -923.000; -893.000
302.638;  295.400;  128.000;  245.000
302.776;   54.000; -352.000; -408.000
302.913;  155.900;  447.000;  236.000
303.051;   19.600;  -86.000;  -23.000
303.189;  167.500;   90.000;  118.000
303.327;   -6.800; -341.000; -256.000
303.465; -131.000; -832.000; -588.000
303.603; -146.300; -805.000; -604.000
303.740;  210.300;  417.000;  241.000
303.878;   58.400; -800.000; -759.000
304.016; -145.100; -915.000; -790.000
304.154; -238.900;-1123.000;-1152.000
304.291;  -52.900; -505.000; -554.000
304.429;   62.700;  102.000;   74.000
304.567; -229.800; -908.000; -893.000
304.705;  -63.100; -408.000; -515.000
304.842;  185.200; -616.000; -540.000
304.980;  156.200;  215.000;   35.000
305.118;  134.600; -367.000; -365.000
305.255;  -73.600; -945.000; -927.000
305.393;  170.300;  178.000;  239.000
305.531; -164.700;-1173.000; -956.000
305.668; -122.900; -663.000; -582.000
305.806;  185.700; -358.000; -439.000
305.943;  204.100; -629.000; -637.000
306.081;  179.000; -378.000; -267.000
306.219; -169.600; -863.000; -748.000
306.356;  101.300;  158.000;   27.000
306.494;  292.700;  981.000;  761.000
306.631;   50.000;  -11.000;  -55.000
306.769;   62.400; -613.000; -485.000
306.906;   50.000; -284.000; -258.000
307.044;  -70.900; -473.000; -488.000
307.181; -101.000; -410.000; -332.000
307.319;  161.600;  112.000;   87.000
307.456; -313.800;-1191.000;-1153.000
307.594; -165.000; -980.000; -727.000
307.731;   31.400; -371.000; -164.000
307.868;   77.000;  -15.000;   20.000
308.006; -209.600; -961.000; -847.000
308.143;  -73.600; -618.000; -330.000
308.281;  435.800;  -37.000; -254.000
308.418;   71.600; -748.000; -640.000
308.555;  -77.900; -400.000; -250.000
308.693;  -61.800; -577.000; -573.000
308.830; -155.400; -712.000; -657.000
308.967;   28.100; -215.000;  -95.000
309.105;   15.700; -507.000; -396.000
309.242;  139.200; -468.000; -367.000
309.379;  766.800; -577.000; -655.000
309.517;  -71.200; -936.000; -948.000
309.654; -151.400; -910.000; -734.000
309.791;  -73.200; -662.000; -580.000
309.928; -191.900; -977.000; -914.000
310.065;  438.600;  819.000;  697.000
310.203;   13.800; -825.000; -850.000
310.340;   88.300; -465.000; -321.000
310.477; -120.300; -412.000; -516.000
310.614;  -87.500; -383.000; -473.000
310.751;  -64.800; -427.000; -518.000
310.889;   12.300;    1.000;   11.000
311.026; -231.000;-1161.000; -939.000
311.163;  -23.100; -386.000; -380.000
311.300;  -92.800; -512.000; -479.000
311.437;  -76.100; -658.000; -619.000
311.574; -279.300;-1226.000; -985.000
311.711;  -88.900; -595.000; -433.000
311.848;    3.800; -380.000; -388.000
311.985;   71.500;  270.000;   93.000
312.122; -155.700; -932.000; -762.000
312.259; -171.300; -941.000; -994.000
312.396;  -81.500; -508.000; -551.000
312.533; -111.400; -812.000; -790.000
312.670; -184.800;-1070.000; -898.000
312.807;  -13.900; -352.000; -367.000
312.944;  -67.300; -513.000; -611.000
313.081;    3.900; -150.000; -415.000
313.218; -151.400;-1111.000; -867.000
313.355;   63.100; -531.000; -449.000
313.492;   98.900; -455.000; -292.000
313.629;  350.800;  815.000;  735.000
313.766; -248.500;-1176.000;-1008.000
313.902;   23.100; -186.000;   21.000
314.039;  -38.700; -372.000; -289.000
314.176;  110.600;  286.000;  192.000
314.313; -101.700; -569.000; -473.000
314.450;  -88.400; -788.000; -684.000
314.587;  -28.400; -468.000; -480.000
314.723;   85.600;  -78.000;  130.000
314.860;  123.700;  318.000;  332.000
314.997;   86.300;  223.000;  142.000
315.134;   -3.600; -385.000; -368.000
315.270;    7.000; -480.000; -496.000
315.407; -218.000;-1094.000; -967.000
315.544;  -63.200; -657.000; -538.000
315.681;  -83.100; -681.000; -565.000
315.817;   94.500; -133.000; -176.000
315.954;   80.900; -613.000; -392.000
316.091; -190.200;-1045.000;-1023.000
316.227;   33.500;  -71.000; -179.000
316.364;   62.100;   23.000;    6.000
316.500;  -43.200; -113.000; -300.000
316.637;  -13.100; -181.000; -302.000
316.774; -118.600; -625.000; -358.000
316.910; -121.700; -598.000; -629.000
317.047;  -90.900; -487.000; -351.000
317.183;  -10.200; -435.000; -566.000
317.320;  -14.800; -367.000; -321.000
317.456; -105.200; -733.000; -805.000
317.593; -122.400; -598.000; -641.000
317.729;   60.400;  168.000;  -67.000
317.866; -356.500;-1434.000;-1285.000
318.002; -149.600; -708.000; -948.000
318.139; -142.800; -883.000; -867.000
318.275; -161.600;-1003.000; -738.000
318.412;  -78.500; -517.000; -336.000
318.548;  -17.500; -751.000; -720.000
318.685; -159.300; -985.000; -888.000
318.821; -155.400; -762.000; -735.000
318.957;   -3.900;   34.000;  -23.000
319.094;  151.200;  297.000;  154.000
319.230;  -93.200; -756.000; -742.000
319.367;  254.900; -471.000; -520.000
319.503;  163.000; -538.000; -436.000
319.639; -140.700; -877.000; -793.000
319.775;  -68.900; -750.000; -685.000
319.912;  -48.200; -424.000; -519.000
320.048; -133.400;-1184.000;-1184.000
320.184;  207.700;   59.000;   70.000
320.321;  -94.100; -497.000; -467.000
320.457;  186.000;  475.000;  662.000
320.593;  -83.000; -375.000; -382.000
320.729; -163.900; -732.000; -734.000
320.866; -108.100; -577.000; -635.000
321.002; -118.900; -759.000; -809.000
321.138;   42.600; -135.000; -211.000
321.274;  138.400; -148.000; -115.000
321.410;  -39.500; -585.000; -353.000
321.546;  -36.600;-1011.000; -911.000
321.683;  158.700;  400.000;  185.000
321.819;   55.400;  -48.000; -117.000
321.955; -168.000; -743.000; -722.000
322.091;  -36.400; -585.000; -540.000
322.227;  -15.200; -382.000; -202.000
322.363;   15.900; -320.000; -215.000
322.499;  -54.000; -343.000; -331.000
322.635;  379.400;  636.000;  443.000
322.771;   78.800; -139.000;   12.000
322.907;  232.500;  129.000;  327.000
323.043;   12.500; -115.000; -206.000
323.179;  -28.300; -394.000; -363.000
323.315;  125.100; -401.000; -371.000
323.451;  260.500; -328.000; -236.000
323.587;  176.700;  -60.000;  -77.000
323.723;   28.300; -682.000; -601.000
323.859;    6.700; -258.000;  -76.000
323.995;  -70.400; -467.000; -409.000
324.131; -239.900; -967.000; -892.000
324.267;  -37.000; -254.000; -276.000
324.402; -210.400; -960.000; -983.000
324.538;   23.900; -279.000; -104.000
324.674;   94.700;  164.000;   77.000
324.810;  383.000;  226.000;  308.000
324.946;   83.600; -810.000; -658.000
325.082; -100.600; -568.000; -475.000
325.217;    7.200;  -62.000;   16.000
325.353; -156.600; -764.000; -659.000
325.489; -128.400; -540.000; -506.000
325.625; -126.700; -579.000; -525.000
325.760;  163.500;  517.000;  376.000
325.896;  -52.800; -515.000; -702.000
326.032;  -80.500; -403.000; -352.000
326.168;  -60.200; -462.000; -369.000
326.303;  -79.600; -352.000; -461.000
326.439;   -3.900; -336.000; -276.000
326.575;   61.600; -190.000;  -29.000
326.710;   57.700; -156.000;  -30.000
326.846;   28.400;  146.000;  103.000
326.982; -132.600; -530.000; -548.000
327.117; -115.800; -481.000; -442.000
327.253; -125.400; -745.000; -742.000
327.388; -194.400;-1137.000;-1153.000
327.524;  -43.300; -811.000; -578.000
327.659;   -7.300;  -58.000;  -22.000
327.795;  -11.100;   69.000;   45.000
327.931; -111.300; -723.000; -499.000
328.066;   15.800; -417.000; -276.000
328.202;   72.800;   12.000; -129.000
328.337;  253.700;  957.000;  713.000
328.473;   40.200;  -12.000;  -74.000
328.608;  -12.000; -256.000; -267.000
328.743; -106.700; -799.000; -664.000
328.879;   88.900;  214.000;  114.000
329.014;  -95.800; -102.000; -122.000
329.150; -110.400; -358.000; -483.000
329.285; -104.600; -465.000; -466.000
329.421;  -63.700; -548.000; -246.000
329.556;   17.400;  -36.000;   85.000
329.691; -120.800; -633.000; -615.000
329.827; -114.300; -626.000; -480.000
329.962;  -56.300;  131.000; -301.000
330.097; -141.500; -673.000; -585.000
330.233;  -42.100; -410.000; -223.000
330.368; -195.400; -839.000; -628.000
330.503;   30.800;    3.000;   98.000
330.638;   98.500;  -93.000; -125.000
330.774;  -70.800; -609.000; -530.000
330.909;  -48.600; -434.000; -244.000
331.044; -151.800; -714.000; -708.000
331.179; -308.700;-1217.000;-1109.000
331.315;   47.700;   77.000;   20.000
331.450;   92.800;  157.000;  285.000
331.585; -142.100; -805.000; -706.000
331.720; -103.000; -510.000; -460.000
331.855;   30.000;  -35.000; -102.000
331.990;  438.200;   62.000;  138.000
332.126;  241.800; -110.000;   71.000
332.261;   20.100; -379.000; -265.000
332.396;   42.600; -135.000; -242.000
332.531; -198.200;-1074.000;-1031.000
332.666;   74.900; -519.000; -363.000
332.801; -163.000; -726.000; -807.000
332.936;   19.800; -192.000; -122.000
333.071; -246.700; -870.000; -817.000
333.206;   71.300;  307.000;  379.000
333.341;  158.500;  344.000;  418.000
333.476; -113.600; -627.000; -623.000
333.611;  -28.200; -251.000; -173.000
333.746;  -58.300; -381.000; -464.000
333.881; -205.000; -973.000; -935.000
334.016; -213.400; -936.000; -917.000
334.151; -198.100; -746.000; -702.000
334.286;   94.800;  152.000;  186.000
334.421;   31.400; -125.000; -178.000
334.556; -112.500; -611.000; -567.000
334.690; -106.500; -631.000; -577.000
334.825;  188.900;  381.000;   83.000
334.960;  -80.700; -285.000; -413.000
335.095;   66.300;  135.000;  -91.000
335.230; -149.900; -722.000; -738.000
335.365; -229.700;-1084.000; -990.000
335.499; -218.400;-1108.000;-1037.000
335.634;   94.100;    9.000;  534.000
335.769; -161.200; -755.000; -720.000
335.904;  -63.500; -603.000; -561.000
336.038;  -71.600; -735.000; -657.000
336.173; -185.800;-1206.000;-1194.000
336.308;   76.300; -116.000; -189.000
336.443;   35.800; -544.000; -634.000
336.577;  -96.100; -936.000; -787.000
336.712;  179.100;   -4.000;  -12.000
336.847;   -6.600; -724.000; -607.000
336.981;  193.700; -272.000; -208.000
337.116;  630.000;  615.000;  501.000
337.250;  319.300; -434.000; -421.000
337.385;  418.400; -297.000; -208.000
337.520;  126.700; -632.000; -603.000
337.654;  -18.900; -215.000; -126.000
337.789; -233.200; -989.000; -933.000
337.923;   -9.800; -104.000; -205.000
338.058; -113.300; -673.000; -738.000
338.192;   -3.600; -611.000; -488.000
338.327;   67.100;  -18.000; -155.000
338.461;  -56.500; -299.000; -469.000
338.596; -139.300; -780.000; -638.000
338.730; -142.100; -767.000; -803.000
338.865;  190.400;  -46.000; -140.000
338.999;  -91.900; -846.000; -702.000
339.134;  -19.300; -634.000; -536.000
339.268;   10.000; -741.000; -603.000
339.403;  582.500; -740.000; -775.000
339.537;  186.700; -894.000; -820.000
339.671; -203.900; -829.000; -813.000
339.806;  -92.000; -556.000; -512.000
339.940;  105.500; -261.000; -235.000
340.074; -162.300; -685.000; -510.000
340.209;  -60.000; -351.000; -230.000
340.343; -131.300; -517.000; -573.000
340.477;  351.200;  998.000; 1036.000
340.612;  -91.800;-1033.000; -900.000
340.746;  212.100; -199.000; -243.000
340.880;  -83.500; -924.000; -785.000
341.014;  -13.700;  -45.000; -154.000
341.149; -183.800; -756.000; -718.000
341.283; -168.000; -839.000; -754.000
341.417; -140.800;-1124.000; -938.000
341.551;  325.800; -768.000; -708.000
341.685;   11.800; -633.000; -611.000
341.820;  -68.800; -562.000; -493.000
341.954;  -63.800; -218.000; -349.000
342.088; -258.700;-1102.000;-1019.000
342.222;  135.800;  565.000;  618.000
342.356;  -66.500; -395.000; -335.000
342.490; -155.800; -880.000; -841.000
342.624;  -80.400; -339.000; -242.000
342.758;   49.300; -364.000; -312.000
342.892; -108.500; -710.000; -585.000
343.026;   -6.200;  -58.000; -116.000
343.160;  -56.300; -426.000; -376.000
343.294; -113.200; -474.000; -337.000
343.428;    9.000; -488.000; -448.000
343.562;   39.000; -172.000;  -23.000
343.696;   -0.500; -385.000; -314.000
343.830;   14.500; -362.000; -356.000
343.964;   95.800; -231.000; -168.000
344.098; 1792.300;  199.000;   70.000
344.232; 1503.600; -266.000; -127.000
344.366;  188.100; -567.000; -453.000
344.500;  196.900; -665.000; -744.000
344.634;  121.200; -324.000; -164.000
344.768;   31.100; -531.000; -341.000
344.902;   76.400;  278.000;  256.000
345.035; -104.400; -556.000; -496.000
345.169; -234.200; -933.000; -656.000
345.303;   13.400; -308.000; -482.000
345.437; -100.900; -826.000; -717.000
345.571; -120.300; -675.000; -594.000
345.704;  -71.800; -309.000; -532.000
345.838;   32.400; -331.000; -284.000
345.972;  -48.000; -543.000; -495.000
346.106;  301.700; -179.000; -190.000
346.239;  771.700; -312.000; -243.000
346.373;   63.300; -343.000; -302.000
346.507; -248.100; -950.000; -962.000
346.640;  338.400;  -30.000;   13.000
346.774;  -20.100; -650.000; -797.000
346.908;   32.300; -138.000;  -11.000
347.041; -139.000; -646.000; -593.000
347.175;   94.200;  259.000;   27.000
347.309; -107.100; -698.000; -628.000
347.442; -177.900; -883.000; -732.000
347.576;  620.600;  670.000;  668.000
347.709;  417.300; -123.000;  -52.000
347.843; -143.700; -933.000; -825.000
347.976;  130.700;  235.000;  294.000
348.110; -314.500;-1268.000;-1186.000
348.243; -184.300; -679.000; -772.000
348.377;   81.500;  -26.000;   60.000
348.510;  144.400;  403.000;  540.000
348.644;  -14.000;  -37.000; -159.000
348.777;   60.400;  180.000;  191.000
348.911;  -48.500; -142.000; -112.000
349.044;  401.800;  471.000;  448.000
349.178;  322.100;-1069.000;-1006.000
349.311;  273.000;  141.000;  255.000
349.444;   18.400; -927.000; -813.000
349.578;   21.000; -347.000; -200.000
349.711; -174.800; -959.000; -862.000
349.845;   22.500; -661.000; -591.000
349.978; -251.600;-1224.000;-1137.000
350.111; -128.400; -546.000; -612.000
350.244;  -78.400; -596.000; -700.000
350.378;   41.000; -392.000; -393.000
350.511; -103.400; -393.000; -426.000
350.644; -186.500; -808.000; -806.000
350.778;   73.200;  168.000;  104.000
350.911;   56.400;  134.000;  140.000
351.044; -125.000; -685.000; -615.000
351.177;   -7.300; -321.000; -281.000
351.310;   39.000;    3.000; -131.000
351.444;  -95.000; -888.000; -788.000
351.577;  331.300;  140.000;   90.000
351.710;  250.600;  593.000;  417.000
351.843;  -12.700; -165.000;  -77.000
351.976;   59.900;  149.000;  -79.000
352.109; -121.700; -621.000; -612.000
352.242;   24.000; -464.000; -419.000
352.376;  -63.600; -580.000; -636.000
352.509;  420.000; -437.000; -356.000
352.642;  100.000; -654.000; -604.000
352.775;  191.400; -141.000;  -98.000
352.908; -170.800; -933.000; -904.000
353.041; -154.700; -814.000; -824.000
353.174;  -57.500; -551.000; -424.000
353.307; -120.100; -753.000; -764.000
353.440;  217.400;  541.000;  453.000
353.573; -195.000; -957.000;-1008.000
353.706;  -55.200; -384.000; -558.000
353.839;   19.900; -264.000; -220.000
353.971; -110.300; -657.000; -512.000
354.104; -149.200; -896.000; -835.000
354.237;  -16.400; -627.000; -662.000
354.370; -133.900; -846.000; -879.000
354.503; -321.400;-1231.000;-1308.000
354.636;  -17.100; -529.000; -348.000
354.769; -201.900; -937.000; -860.000
354.902;   51.900; -230.000; -139.000
355.034;   18.300; -164.000; -220.000
355.167;    2.400; -262.000; -162.000
355.300; -135.500;-1061.000; -880.000
355.433; 1615.000;  -71.000;  -14.000
355.565; 2453.400; -402.000; -384.000
355.698;  631.500; -356.000; -296.000
355.831;   38.000; -882.000; -801.000
355.964;  225.000; -285.000; -170.000
356.096; -124.100; -856.000; -843.000
356.229;   48.200; -523.000; -530.000
356.362;  549.500; -373.000; -266.000
356.494; 1005.800; -229.000; -162.000
356.627;  954.300;  269.000;  377.000
356.760; 1168.000;  120.000;   53.000
356.892; 1510.300; -286.000; -601.000
357.025; 1350.900;  403.000;  389.000
357.157; 1209.100; -167.000; -179.000
357.290;  988.900; -856.000; -713.000
357.423;  282.800; -667.000; -556.000
357.555;  262.000; -217.000; -228.000
357.688;  292.800; -483.000; -364.000
357.820;  772.800; -870.000; -877.000
357.953; 6586.600; -563.000; -589.000
358.085; 1471.000; -632.000; -612.000
358.218; 2434.800;-1131.000; -932.000
358.350;  487.600;  -58.000;  312.000
358.483; -173.200;-1300.000;-1187.000
358.615;   32.100;-1182.000;-1078.000
358.747;  -63.200;-1187.000;-1058.000
358.880;  118.700; -810.000; -744.000
359.012;   59.400; -376.000; -202.000
359.145;  -25.100; -480.000; -511.000
359.277;   98.300; -962.000; -913.000
359.409; 5461.400;  536.000;  231.000
359.542; 1361.100; -738.000; -688.000
359.674;  191.600;   46.000;   13.000
359.806;  -83.100; -565.000; -438.000
359.939;  -68.100; -617.000; -516.000
360.071;   -6.900; -583.000; -579.000
360.203;    5.700; -411.000; -364.000
360.335;  144.300;  164.000;  -16.000
360.468;  366.400; -249.000; -307.000
360.600; 4287.900; -547.000; -454.000
360.732; 4352.300; -546.000; -423.000
360.864;  522.200;-1216.000;-1044.000
360.996;  662.100; -516.000; -554.000
361.129;  139.600; -389.000; -598.000
361.261;   89.300;  110.000; -113.000
361.393;   -1.400; -252.000; -214.000
361.525;  110.400;   94.000;  244.000
361.657;  -40.000; -821.000; -703.000
361.789;   90.200; -139.000; -155.000
361.921;  531.300; -642.000; -593.000
362.053;  592.000;  524.000;  541.000
362.185;  174.600;  288.000;   72.000
362.318; -116.100; -709.000; -705.000
362.450;  356.000;  294.000;  444.000
362.582;  379.800; -913.000; -870.000
362.714;    5.500; -353.000; -332.000
362.846; -146.700; -606.000; -490.000
362.978; -218.700; -941.000; -811.000
363.109;  125.700; -161.000; -260.000
363.241;  922.200; -739.000; -749.000
363.373;  683.800; -649.000; -564.000
363.505; 1079.600; -186.000;  -91.000
363.637;  265.300; -787.000; -601.000
363.769; -171.400;-1067.000;-1080.000
363.901; -101.300; -596.000; -654.000
364.033; -159.300;-1103.000;-1062.000
364.165;   58.200; -283.000; -283.000
364.296;  174.700; -316.000; -177.000
364.428;   87.900;-1344.000;-1220.000
364.560;  -77.700; -679.000; -661.000
364.692;  -74.500; -738.000; -835.000
364.824;  581.700; -588.000; -456.000
364.955;  806.900; -402.000; -564.000
365.087; 1300.800;-1097.000; -852.000
365.219;   30.900; -686.000; -816.000
365.351;  -87.600; -526.000; -572.000
365.482;  168.700;  300.000;  240.000
365.614;  -41.400; -402.000; -314.000
365.746; -147.800; -729.000; -752.000
365.877; -147.900; -706.000; -672.000
366.009;  454.100;  -35.000;  -62.000
366.141; -157.300;-1249.000;-1134.000
366.272; -148.600; -803.000; -719.000
366.404; -194.300;-1005.000; -874.000
366.535;   57.600; -139.000;  -12.000
366.667; -126.000; -644.000; -649.000
366.799;  160.200;  353.000;  203.000
366.930; -163.800; -862.000; -996.000
367.062;  272.300; -639.000; -613.000
367.193;  237.000; -872.000; -842.000
367.325; -105.100; -580.000; -684.000
367.456;  216.900; -246.000;   31.000
367.588;  332.500; -371.000; -318.000
367.719;   95.200;  -44.000;  -45.000
367.851;   14.500; -222.000; -241.000
367.982;  -28.900; -875.000; -732.000
368.113;  255.100; -475.000; -358.000
368.245; -162.300; -960.000; -841.000
368.376;   34.200; -254.000; -302.000
368.508;   -8.900; -188.000; -263.000
368.639; -231.500;-1166.000;-1034.000
368.770;   22.000; -670.000; -589.000
368.902;  -77.800; -836.000; -926.000
369.033; -146.900; -906.000; -855.000
369.164;  -58.600; -720.000; -653.000
369.296; -159.400; -452.000; -601.000
369.427;   76.200; -209.000; -144.000
369.558;  -26.800; -593.000; -377.000
369.689; -109.000; -721.000; -569.000
369.821; -218.800; -951.000; -845.000
369.952;   30.800;   42.000; -108.000
370.083;  -28.600; -229.000; -108.000
370.214;  -91.600; -735.000; -650.000
370.345;   58.000;   65.000;   81.000
370.477; -141.000; -810.000; -790.000
370.608;  520.300; -328.000; -264.000
370.739;  -63.900;-1233.000;-1292.000
370.870;  -26.600;-1102.000; -923.000
371.001;  228.200; -378.000; -467.000
371.132; -116.200; -754.000; -735.000
371.263;   19.000;  -42.000; -148.000
371.394; -229.000; -841.000; -748.000
371.525;  108.300;  345.000;  225.000
371.657; -122.600; -808.000; -670.000
371.788;  203.200;  103.000;  199.000
371.919;  381.400; -384.000; -304.000
372.050; 6904.100;  -91.000; -156.000
372.181; 1986.600; -188.000; -294.000
372.311;  791.800;   42.000; -127.000
372.442;  117.400; -457.000; -451.000
372.573;   26.300; -444.000; -340.000
372.704; -189.800;-1008.000; -980.000
372.835;  236.900; -228.000; -289.000
372.966;  -81.000; -646.000; -554.000
373.097;  -79.700; -575.000; -711.000
373.228;    1.400; -717.000; -542.000
373.359;  291.100; -824.000; -536.000
373.490; 1940.700; -881.000; -727.000
373.620; 2268.600;-1001.000; -803.000
373.751; 3559.000; -332.000; -396.000
373.882; 1477.800; -663.000; -733.000
374.013;  206.100; -449.000; -262.000
374.143;  -17.900; -581.000; -659.000
374.274; -152.000; -987.000; -908.000
374.405;  399.000; -388.000; -276.000
374.536;  911.200; -526.000; -387.000
374.666; 2241.300; -759.000; -807.000
374.797;  494.700; -817.000; -868.000
374.928; 1737.400; -710.000; -560.000
375.058; 1787.600; -535.000; -500.000
375.189;  192.100;  -59.000;  -93.000
375.320; -129.300; -928.000;-1034.000
375.450;  -20.200; -625.000; -616.000
375.581;  -29.200; -526.000; -436.000
375.712;  -13.000; -574.000; -250.000
375.842;  673.500; -438.000; -415.000
375.973;  477.200; -554.000; -513.000
376.103;  -21.300; -665.000; -648.000
376.234;  -97.600; -531.000; -552.000
376.364;  -20.000; -944.000; -867.000
376.495;  714.300;  925.000;  529.000
376.625;   82.100; -472.000; -485.000
376.756;  188.600; -709.000; -678.000
376.886;  -99.500;-1178.000;-1026.000
377.017;   90.000;-1048.000;-1061.000
377.147;  515.400; -786.000; -782.000
377.278;  172.600;  174.000;  228.000
377.408; -176.500; -801.000; -815.000
377.538; -142.200; -707.000; -693.000
377.669;  -98.100; -537.000; -613.000
377.799; -109.900; -645.000; -635.000
377.929;  -19.700; -610.000; -428.000
378.060; -201.100; -781.000; -847.000
378.190;  -81.700; -726.000; -531.000
378.320;  -37.700; -401.000; -406.000
378.451;   45.500; -131.000;  -22.000
378.581;   37.800;  -67.000; -110.000
378.711;  409.900; 1035.000;  866.000
378.841;   47.700; -533.000; -675.000
378.972;  -81.900; -871.000; -751.000
379.102;   72.600; -652.000; -579.000
379.232;   29.600; -126.000;  -73.000
379.362; -145.500;-1001.000; -885.000
379.492;  118.500; -373.000; -424.000
379.623;  307.300;    0.000;  111.000
379.753; -124.200;-1107.000; -974.000
379.883;  530.600;   59.000;  156.000
380.013;   59.800;-1081.000;-1017.000
380.143; -176.800;-1097.000;-1056.000
380.273; -138.300; -985.000; -861.000
380.403;   59.700; -344.000; -257.000
380.533;   -4.500; -651.000; -664.000
380.663;  179.100;  173.000;  128.000
380.793;  -91.900;-1027.000;-1074.000
380.923;   14.100; -103.000;  -34.000
381.053;  -95.200; -613.000; -623.000
381.183;   22.500; -106.000; -248.000
381.313;  148.800; -656.000; -470.000
381.443;  122.200; -692.000; -473.000
381.573;  466.000; -402.000; -409.000
381.703;  668.900;-1249.000;-1095.000
381.833; -145.100;-1454.000;-1336.000
381.963;  296.000; -134.000;  -87.000
382.093; 2637.100; -925.000; -909.000
382.223;  761.300; -713.000; -602.000
382.353;   18.300; -801.000; -608.000
382.482;  798.200;-1091.000; -964.000
382.612; 1469.100; -872.000; -644.000
382.742;  832.000; -695.000; -622.000
382.872;  617.100; -565.000; -551.000
383.002;  196.100;  347.000; -132.000
383.131;   33.900; -226.000; -160.000
383.261;  -22.600; -706.000; -768.000
383.391;  538.100; -552.000; -377.000
383.521; 4918.100;  451.000;  263.000
383.650; 1032.000; -947.000; -904.000
383.780;   15.100; -783.000; -656.000
383.910;  293.700;  880.000;  802.000
384.039;  102.700; -794.000; -656.000
384.169;  473.700;-1205.000;-1017.000
384.299;   46.100; -650.000; -662.000
384.428;  -68.100; -764.000; -680.000
384.558;  -27.400; -308.000; -275.000
384.687;   32.100; -414.000; -334.000
384.817;   98.900;   75.000;   -2.000
384.947;  196.400; -234.000; -141.000
385.076;  660.700;  982.000;  912.000
385.206;  292.500;  369.000;  480.000
385.335;   43.200; -549.000; -417.000
385.465;  -55.800; -655.000; -663.000
385.594;  352.600;  -53.000;  -44.000
385.724;  932.700; -868.000; -838.000
385.853;  322.100; -296.000; -270.000
385.982; 2851.300; -743.000; -787.000
386.112; 4062.600;-1052.000; -871.000
386.241;  328.600; -307.000; -312.000
386.371;  101.900; -174.000;  -87.000
386.500;   76.800; -825.000; -789.000
386.629;  100.100; -874.000; -817.000
386.759;  237.600;  -43.000;   68.000
386.888;  109.200; -170.000; -250.000
387.017;  -21.600; -648.000; -620.000
387.147;  -64.500; -771.000; -798.000
387.276;   83.200; -410.000; -397.000
387.405;   89.200; -398.000; -342.000
387.535;  -33.000; -452.000; -361.000
387.664;  -28.100; -692.000; -620.000
387.793;  207.200; -198.000; -113.000
387.922; 1108.300;  255.000;  200.000
388.052;  148.200; -576.000; -423.000
388.181;  176.900; -342.000; -472.000
388.310;  155.300; -889.000; -710.000
388.439;   24.200; -749.000; -742.000
388.568;  453.300;  365.000;  244.000
388.697; 2110.800; -756.000; -653.000
388.826;  462.100; -768.000; -666.000
388.956;  200.800; -285.000; -307.000
389.085;   37.100; -347.000; -287.000
389.214; -166.500; -842.000; -872.000
389.343;  -16.800; -645.000; -413.000
389.472;  752.800;  126.000;  149.000
389.601;  952.100;   91.000;    0.000
389.730;   82.300; -568.000; -687.000
389.859;  230.900;  226.000;   46.000
389.988;  443.800; -423.000; -408.000
390.117;  341.800; -168.000; -146.000
390.246;   76.700; -331.000; -320.000
390.375;  290.500; -673.000; -626.000
390.504;  -76.200; -703.000; -621.000
390.633; -117.400; -672.000; -726.000
390.761;  -54.400; -732.000; -645.000
390.890;  146.500;   -4.000; -130.000
391.019;   28.000; -421.000; -441.000
391.148; -194.800; -826.000; -855.000
391.277;  -83.300; -576.000; -493.000
391.406;  -81.800; -821.000; -805.000
391.534;  128.600;  574.000; -301.000
391.663;  -26.100; -583.000; -645.000
391.792;  -87.000; -673.000; -701.000
391.921;  326.500;   -3.000;   15.000
392.050;  472.900; -287.000; -228.000
392.178;   -6.200;-1206.000;-1061.000
392.307;  356.600; -758.000; -712.000
392.436;  183.600; -427.000; -641.000
392.564;  101.200;  166.000;   -6.000
392.693; -115.500; -860.000; -682.000
392.822;  489.400; -529.000; -534.000
392.950;  258.100; -880.000; -714.000
393.079;  737.700; -188.000; -328.000
393.208;  106.700; -488.000; -511.000
393.336;   47.700; -170.000; -145.000
393.465;   17.300; -317.000; -199.000
393.593;   84.200;   62.000;   79.000
393.722; -234.900;-1121.000; -916.000
393.850;   19.900; -188.000;  -61.000
393.979; -232.600; -926.000; -805.000
394.107;  -62.300; -517.000; -537.000
394.236;   17.400; -570.000; -507.000
394.364;  557.100;  383.000;  206.000
394.493;  822.800; -911.000; -767.000
394.621;   47.700; -955.000; -916.000
394.750; 1152.700; -873.000; -923.000
394.878; 4941.100; -247.000; -149.000
395.007; 6254.400; -721.000; -807.000
395.135;  453.600; -790.000; -721.000
395.263; -104.300;-1038.000;-1040.000
395.392;   84.300;  -25.000; -107.000
395.520; -174.500; -818.000; -679.000
395.648; -129.100; -865.000; -915.000
395.777;   71.700; -366.000; -405.000
395.905;  -28.100; -449.000; -564.000
396.033;  122.300;  217.000;  172.000
396.162; 1443.500; -399.000; -453.000
396.290; 1189.200;  -17.000;   -2.000
396.418;  252.000; -555.000; -514.000
396.546;  -76.600; -571.000; -466.000
396.674; -121.100; -850.000; -878.000
396.803;   95.200;  -72.000;  -23.000
396.931;  273.300; -179.000; -199.000
397.059;  186.700;-1026.000; -989.000
397.187; -183.400;-1026.000; -975.000
397.315; -217.100; -884.000; -649.000
397.443; -143.400; -592.000; -443.000
397.572; -116.200; -578.000; -424.000
397.700;   51.200; -607.000; -614.000
397.828;   91.100;  120.000;  -90.000
397.956;  -24.200; -508.000; -478.000
398.084; -113.400; -767.000; -626.000
398.212;  151.000;  137.000;  124.000
398.340;  125.300;  -56.000;  159.000
398.468;  126.100; -390.000; -169.000
398.596; -244.200; -993.000; -953.000
398.724; -135.500; -762.000; -767.000
398.852; -264.400;-1024.000; -976.000
398.980;  -96.300; -560.000; -560.000
399.108;  -25.500; -982.000; -735.000
399.236;  116.400;   13.000;    8.000
399.363;  101.900;  222.000;  196.000
399.491;  -73.800; -404.000; -398.000
399.619; -180.800; -829.000; -800.000
399.747; -162.200; -859.000; -771.000
399.875;  249.200;  220.000;  234.000
400.003;  -28.500; -359.000; -284.000
400.130;  -78.400; -421.000; -341.000
400.258;   20.000;  -83.000;   38.000
400.386;  -73.000; -352.000; -168.000
400.514;  -17.400; -526.000; -587.000
400.641;  -67.500; -928.000; -802.000
400.769; -226.900; -979.000; -888.000
400.897;  -89.200; -838.000; -793.000
401.025;   31.400; -166.000; -152.000
401.152;   85.700;  220.000;   38.000
401.280;  -76.000; -430.000; -429.000
401.408; -170.000; -712.000; -576.000
401.535; -153.100; -735.000; -758.000
401.663; -323.700;-1134.000;-1054.000
401.790;  -84.400; -514.000; -525.000
401.918;  179.400;  436.000;  405.000
402.046;   46.300;  134.000;  122.000
402.173;  -17.200;  -18.000;    7.000
402.301;  -64.800; -519.000; -397.000
402.428;  158.400;  528.000;  383.000
402.556; -229.600;-1188.000; -913.000
402.683;   47.000;  -20.000;   -1.000
402.811;   41.200;  -37.000; -206.000
402.938;   49.600;   20.000;   27.000
403.066;  399.700; -574.000; -558.000
403.193;  609.500;  299.000;  239.000
403.321;  511.300; -396.000; -574.000
403.448;  651.900;   83.000;   27.000
403.575;  316.200;  -90.000;  -46.000
403.703; -107.600; -732.000; -557.000
403.830;  -60.400; -531.000; -496.000
403.957; -213.400;-1117.000;-1023.000
404.085;   70.100;  -61.000; -172.000
404.212;  259.000;  -50.000;   63.000
404.339;  474.300; -566.000; -306.000
404.467; 9629.700; -612.000; -524.000
404.594; 6307.700; -287.000; -227.000
404.721; 1592.500; -869.000; -764.000
404.848;  243.900; -113.000; -202.000
404.976; -140.800; -856.000; -783.000
405.103;   79.900;  -14.000;  -82.000
405.230;   71.900;  190.000;  226.000
405.357;  123.100;  117.000;   44.000
405.484;  469.600;  -49.000;    5.000
405.612;  102.500; -548.000; -563.000
405.739;  -60.000; -488.000; -243.000
405.866;  296.600;  669.000;  385.000
405.993;    4.700; -398.000; -102.000
406.120; -228.600; -801.000; -887.000
406.247;  -17.400; -323.000; -342.000
406.374;  988.000;  540.000;  629.000
406.501;  240.500; -632.000; -702.000
406.628;  -75.000; -621.000; -589.000
406.755; -110.200; -803.000; -620.000
406.882;  -33.000; -228.000; -277.000
407.009; -174.600; -719.000; -628.000
407.136;  158.600; -480.000; -401.000
407.263;  391.200; -939.000; -829.000
407.390;  -74.200; -692.000; -614.000
407.517; -228.600;-1139.000;-1187.000
407.644;  -19.100; -332.000; -256.000
407.771;  -52.900; -249.000; -287.000
407.898;   98.300;  168.000;  328.000
408.025;  -40.200; -421.000; -313.000
408.151;   47.000;   82.000;  153.000
408.278;  -56.100; -267.000; -216.000
408.405; -137.500; -931.000; -899.000
408.532;  -65.300; -549.000; -542.000
408.659; -173.500; -677.000; -648.000
408.785; -306.800;-1298.000;-1170.000
408.912;  -69.700; -412.000; -296.000
409.039; -157.000; -610.000; -686.000
409.166; -134.400; -591.000; -555.000
409.292; -151.300; -571.000; -534.000
409.419; -173.100; -665.000; -649.000
409.546; -106.000; -431.000; -192.000
409.672; -150.200; -713.000; -545.000
409.799;   18.400;  -36.000;   34.000
409.926;   -5.100; -180.000; -179.000
410.052; -301.400;-1127.000;-1091.000
410.179;  -48.300; -368.000; -392.000
410.305; -137.600; -375.000; -493.000
410.432;  -20.600; -220.000; -333.000
410.558; -111.500; -305.000; -380.000
410.685; -147.000; -688.000; -431.000
410.812; -184.300; -409.000; -588.000
410.938; -204.000; -964.000; -808.000
411.065; -124.800; -671.000; -645.000
411.191;   24.800; -189.000; -174.000
411.317; -203.100; -823.000; -742.000
411.444;  -91.300; -317.000; -246.000
411.570;  -81.500; -339.000; -294.000
411.697; -184.900; -758.000; -752.000
411.823; -250.500; -989.000; -999.000
411.949;   20.700;  -56.000;   17.000
412.076; -159.600; -539.000; -519.000
412.202; -181.800; -758.000; -757.000
412.329; -185.400; -798.000; -752.000
412.455; -141.600; -821.000; -657.000
412.581;   32.500;  -15.000;  172.000
412.707;  -49.200; -540.000; -457.000
412.834;  136.800;  156.000;  219.000
412.960; -121.000; -785.000; -784.000
413.086; -143.900; -743.000; -701.000
413.212;  408.900;  604.000;  578.000
413.339;  -55.200; -685.000; -701.000
413.465;   71.700; -364.000; -310.000
413.591; -116.500; -757.000; -474.000
413.717;  -35.600; -358.000; -366.000
413.843; -230.200; -839.000; -861.000
413.969;  -46.200;  -47.000; -292.000
414.096; -146.300; -679.000; -679.000
414.222;   48.400;  -33.000;   85.000
414.348;   48.900; -652.000; -385.000
414.474;  280.100;   38.000;  -52.000
414.600;   53.600; -126.000; -144.000
414.726;   41.700;  -96.000;  -55.000
414.852;  -38.500; -365.000; -342.000
414.978;  126.400;  104.000;  -18.000
415.104;  148.900;   38.000;   80.000
415.230;  106.100; -329.000; -330.000
415.356;  132.900; -409.000; -514.000
415.482;  407.100;   13.000;  -35.000
415.608;  496.000; -247.000; -323.000
415.734; 1871.200;   67.000;   38.000
415.860;35610.500; -875.000; -767.000
415.986;23251.600; -685.000; -607.000
416.111; 1893.800; -798.000; -652.000
416.237;  414.100; -424.000; -571.000
416.363; 2011.800; -765.000; -733.000
416.489; 6711.100; -324.000; -251.000
416.615;  657.100; -707.000; -742.000
416.741;   -8.200; -677.000; -784.000
416.866; -113.300; -673.000; -736.000
416.992; -173.500; -801.000; -818.000
417.118;   12.500;  -41.000;  -80.000
417.244;  -83.700; -798.000; -531.000
417.369; -116.800; -801.000; -612.000
417.495;   54.300; -325.000; -254.000
417.621; -133.800;-1015.000; -803.000
417.746;   59.100; -579.000; -572.000
417.872;  153.400; -254.000; -144.000
417.998;  132.100; -515.000; -530.000
418.123; 1892.900;-1073.000; -845.000
418.249; 8723.900; -512.000; -601.000
418.374; 1090.500; -916.000; -824.000
418.500;  202.200; -383.000; -482.000
418.626;  285.600;   70.000;  -59.000
418.751;  228.300; -549.000; -448.000
418.877;  343.000; -637.000; -643.000
419.002; 3328.700; -688.000; -560.000
419.128;20798.600; -930.000; -721.000
419.253; 4550.400; -967.000; -837.000
419.379;  624.800; -391.000; -338.000
419.504;  741.900;  325.000;  415.000
419.629;  882.200; -393.000; -212.000
419.755; 6140.300; -317.000; -254.000
419.880;32767.500;  -98.000;   67.000
420.006;19263.700; -280.000; -221.000
420.131;47630.500; -662.000; -775.000
420.256; 6264.500; -315.000; -316.000
420.382;  896.500; -665.000; -687.000
420.507;  107.800; -649.000; -778.000
420.632;  367.900; -337.000; -339.000
420.758;  545.400; -251.000; -425.000
420.883;  -81.400; -876.000; -672.000
421.008; -121.600; -775.000; -619.000
421.133;  -78.800; -509.000; -467.000
421.259;  -30.600; -325.000; -259.000
421.384; -160.900; -834.000; -693.000
421.509;    9.900;-1052.000; -862.000
421.634; 2536.800; -936.000; -820.000
421.759; 1030.800; -359.000; -327.000
421.885;  -12.500; -717.000; -656.000
422.010;  -71.700; -673.000; -542.000
422.135; -210.100; -695.000; -727.000
422.260;  141.600;  340.000;  280.000
422.385;  -19.000;   12.000;  -98.000
422.510;   96.400;  151.000;  -26.000
422.635;  107.200;  -87.000;  -43.000
422.760;  218.000; -766.000; -791.000
422.885;  155.800;  -57.000;  -80.000
423.010;    5.300; -112.000; -169.000
423.135; -115.000; -481.000; -561.000
423.260;   68.200; -150.000; -245.000
423.385;  230.600;  476.000;  222.000
423.510;  159.200;   71.000;  -22.000
423.635;  227.000;  133.000;   45.000
423.760;  213.600;  383.000;  328.000
423.885;  186.200;  336.000;  391.000
424.010;  106.300;  -68.000;  -13.000
424.135;   73.500;    5.000;  -33.000
424.259; -108.800; -654.000; -457.000
424.384;  -51.400; -279.000; -272.000
424.509;   32.000; -260.000; -186.000
424.634; -134.800; -761.000; -623.000
424.759;  -21.800; -688.000; -544.000
424.883;   12.700; -506.000; -527.000
425.008;  345.800; -502.000; -410.000
425.133; 3418.900; -679.000; -653.000
425.258; 1406.000; -517.000; -381.000
425.382; 2018.600; -867.000; -774.000
425.507; 4715.300; -487.000; -543.000
425.632;  736.000; -802.000; -663.000
425.756;  771.800; -256.000; -146.000
425.881;10765.400; -831.000; -857.000
426.006;25931.100; -604.000; -355.000
426.130; 3796.700; -696.000; -508.000
426.255;  512.500; -611.000; -491.000
426.379;  326.400; -189.000; -577.000
426.504;  743.300;  660.000;  544.000
426.629; 7304.400; -519.000; -466.000
426.753; 4598.800;   64.000;  -46.000
426.878;  534.700; -252.000; -288.000
427.002;  342.900; -651.000; -668.000
427.127; 2979.100;  -35.000; -158.000
427.251;18901.000;  372.000;  401.000
427.375; 4818.600; -191.000; -173.000
427.500; 4306.700; -616.000; -610.000
427.624; 1341.500; -234.000; -400.000
427.749;  205.300; -216.000; -225.000
427.873;    1.700; -499.000; -412.000
427.997;   12.600; -222.000; -230.000
428.122;  249.800;  795.000;  703.000
428.246;  243.900;  433.000;  434.000
428.371; -172.800; -869.000; -773.000
428.495; -129.500; -624.000; -646.000
428.619;   40.100; -186.000; -117.000
428.743;  134.800;   65.000;  132.000
428.868;  120.500; -732.000; -643.000
428.992; 2752.600; -219.000; -326.000
429.116; 1141.900; -329.000; -357.000
429.240;  644.300;  419.000;  426.000
429.365;   51.700; -454.000; -574.000
429.489;   48.500; -638.000; -647.000
429.613;  125.800; -236.000; -177.000
429.737;  136.400; -563.000; -432.000
429.861;  564.300; -247.000; -133.000
429.985;10018.600; -425.000; -305.000
430.109; 9556.100; -770.000; -908.000
430.234; 1136.700;   76.000;  -50.000
430.358;  200.900; -250.000; -160.000
430.482;  -52.400; -672.000; -564.000
430.606;  -54.200; -655.000; -375.000
430.730;  154.800; -437.000; -388.000
430.854;  402.700; -909.000; -835.000
430.978;  -69.300; -795.000; -764.000
431.102;  -40.800; -499.000; -422.000
431.226;  -80.600; -874.000; -815.000
431.350;  214.600;  345.000;  422.000
431.474;  -69.100; -661.000; -373.000
431.597; -241.200;-1060.000; -848.000
431.721; -106.400; -276.000; -267.000
431.845; -174.100; -704.000; -472.000
431.969;  -86.700; -304.000; -349.000
432.093; -123.700; -395.000; -317.000
432.217;   29.900;   32.000;   82.000
432.341;  -96.100; -523.000; -518.000
432.464;   88.600;   96.000;   40.000
432.588;  502.400; -401.000; -329.000
432.712;  251.900;  -52.000;  -52.000
432.836;  153.500;  213.000;  263.000
432.959;   26.300; -372.000; -311.000
433.083;  212.100;   11.000;    2.000
433.207;  741.800;  285.000;  930.000
433.330; 8632.700; -391.000; -200.000
433.454; 9675.200; -654.000; -638.000
433.578; 5813.500;  583.000;  278.000
433.701;  987.600; -623.000; -675.000
433.825;  330.200; -292.000; -299.000
433.949;  465.200;   28.000;  -72.000
434.072;  170.300; -410.000; -323.000
434.196;   15.600; -309.000; -117.000
434.319; 7970.200;25482.000;25124.000
434.443; 1434.300; -656.000; -603.000
434.566; 4425.600;  281.000;   62.000
434.690;  662.200; -637.000; -383.000
434.813;  130.500; -251.000; -173.000
434.937;  -81.500; -569.000; -696.000
435.060;   33.000; -423.000; -332.000
435.184;  834.800; -492.000; -217.000
435.307;  411.700;  159.000;  102.000
435.431;   54.300;  -40.000;   24.000
435.554;  -83.300; -399.000; -240.000
435.677;  -93.600; -350.000; -258.000
435.801;    7.000;  -25.000;   49.000
435.924;   83.600;    1.000;  -67.000
436.048; -164.400;-1019.000; -732.000
436.171;  -67.000; -240.000;  -66.000
436.294;   -2.900; -248.000; -229.000
436.417;  181.600; -963.000; -849.000
436.541; -145.400; -814.000; -840.000
436.664;  -14.800; -242.000; -316.000
436.787;   66.500;   13.000;  113.000
436.910; -122.700; -792.000; -422.000
437.034;   94.000;  142.000;  143.000
437.157;  222.900;  -11.000;    0.000
437.280;  -58.600; -392.000; -292.000
437.403; -100.500; -982.000; -869.000
437.526; 1554.400; -903.000; -865.000
437.649; 4885.000; -505.000; -332.000
437.772;  681.000; -692.000; -540.000
437.896;  326.800;  700.000;  544.000
438.019;  -57.800; -758.000; -503.000
438.142; -103.400; -596.000; -506.000
438.265;   93.500; -639.000; -670.000
438.388; 1285.000; -520.000; -410.000
438.511;  257.500; -597.000; -394.000
438.634;  -37.800; -247.000; -125.000
438.757; -202.600; -693.000; -619.000
438.880;    6.700;  -34.000;  -57.000
439.003;  -98.300; -417.000; -437.000
439.126;  -45.100; -287.000; -167.000
439.248;  -20.400;  -98.000; -139.000
439.371;  -29.200;    9.000;  -53.000
439.494;  138.300;  510.000;  439.000
439.617;  -37.400;   65.000;  -88.000
439.740; -299.000; -968.000; -816.000
439.863; -208.500; -755.000; -595.000
439.986; -198.700; -476.000; -431.000
440.108;   -4.200; -161.000; -112.000
440.231; -275.900; -950.000; -836.000
440.354;    0.900;  -64.000; -150.000
440.477;  214.500; -566.000; -542.000
440.599;  129.900; -200.000; -225.000
440.722; -174.200; -709.000; -586.000
440.845;  205.500;  751.000;  928.000
440.968; -146.100; -415.000; -311.000
441.090;  -79.500; -199.000;  -33.000
441.213; -280.900;-1021.000; -825.000
441.336;  -29.200; -159.000;   -5.000
441.458;  -49.800; -549.000; -396.000
441.581;  -90.500; -628.000; -629.000
441.703;  -57.700; -152.000;   13.000
441.826; -158.400; -557.000; -400.000
441.948;  -40.500;   56.000;   51.000
442.071;  148.000;  555.000;  424.000
442.193; -169.600; -531.000; -485.000
442.316;  115.100;  152.000;   97.000
442.438;  131.400; -233.000;  -10.000
442.561;  225.100;  272.000;  262.000
442.683; 1308.900; -809.000; -522.000
442.806; 2446.100;   -8.000;   74.000
442.928;   76.000; -859.000; -604.000
443.051;  -54.300; -577.000; -373.000
443.173; -123.700; -341.000; -339.000
443.295;  -90.100; -263.000; -371.000
443.418;  -96.500; -321.000;  -29.000
443.540;   59.900; -106.000;   -4.000
443.662; -148.000; -563.000; -465.000
443.785;   51.000;  335.000;  199.000
443.907; -159.000; -362.000; -208.000
444.029; -211.600; -767.000; -494.000
444.152; -226.100; -644.000; -554.000
444.274;  -26.900;  -18.000;  -24.000
444.396; -139.900; -461.000; -221.000
444.518; -225.300; -691.000; -454.000
444.640; -134.800; -268.000; -111.000
444.763;   63.600;  388.000;  249.000
444.885; -155.200; -432.000; -392.000
445.007;   29.700;   35.000;   86.000
445.129; -166.400; -610.000; -515.000
445.251; -169.600; -372.000; -439.000
445.373; -173.400; -537.000; -386.000
445.495;   99.400;  242.000;  350.000
445.617;  192.900;  853.000;  753.000
445.739;  -72.700; -215.000;  -97.000
445.861;  -26.400; -245.000; -112.000
445.984;   19.200; -267.000; -101.000
446.105;  553.600; -418.000; -251.000
446.227; 1288.500; -176.000;  -19.000
446.349;   66.300; -358.000; -249.000
446.471; -123.400; -615.000; -448.000
446.593;  -31.300; -316.000;   19.000
446.715;   65.900;  -67.000;   41.000
446.837;  213.300;  697.000;  832.000
446.959; -131.000; -457.000; -478.000
447.081; -196.300; -628.000; -518.000
447.203;  188.300;  862.000;  834.000
447.325;  -86.900; -270.000;   42.000
447.446;   97.400;  286.000;  530.000
447.568; -225.700; -921.000; -803.000
447.690;  -95.400; -236.000; -245.000
447.812; -259.600; -798.000; -519.000
447.933;   31.500;  155.000;  127.000
448.055;  -54.900; -306.000; -261.000
448.177;  422.900;   31.000;   79.000
448.299;  216.700; -935.000; -727.000
448.420;  124.000;  -25.000;  159.000
448.542;    2.800;   -3.000;   33.000
448.664;   60.600;  109.000;  322.000
448.785;   23.100;  265.000;   83.000
448.907;  -69.800; -614.000; -353.000
449.028;  -22.900; -771.000; -471.000
449.150;  194.700;  492.000;  589.000
449.272; -279.800;-1044.000; -913.000
449.393;  156.100;  612.000;  694.000
449.515; -193.300; -634.000; -581.000
449.636;  -50.000; -264.000; -155.000
449.758;  256.800;  763.000;  622.000
449.879; -109.700; -498.000; -396.000
450.001;  -98.700; -149.000;  -49.000
450.122;   26.800;  -95.000;  162.000
450.244;   29.600;   37.000;  364.000
450.365; -128.800; -495.000; -301.000
450.486;    9.000;   80.000;  268.000
450.608;  122.300;  393.000;  326.000
450.729;  221.700;  578.000;  645.000
450.850;   21.000; -574.000; -466.000
450.972; 1286.600; -552.000; -389.000
451.093; 8073.600;  190.000;  588.000
451.214; 2960.700; -516.000; -337.000
451.336;  687.000;  773.000;  579.000
451.457;  190.700;  264.000;  393.000
451.578;   24.900; -118.000;  -74.000
451.699; -169.100; -546.000; -540.000
451.821;  -70.300; -284.000;  -50.000
451.942;   57.400;  278.000;  285.000
452.063;  144.900;  228.000;  419.000
452.184; 1041.000;  -54.000;  -49.000
452.305; 1832.500;  103.000;  170.000
452.427;  167.500; -549.000; -301.000
452.548;   34.300;   23.000;   79.000
452.669;  -25.700; -257.000;  -89.000
452.790;  -17.900;    3.000;  -18.000
452.911;   48.300;  195.000;  259.000
453.032;  -71.800; -289.000;  -60.000
453.153;   16.600;  -29.000;   81.000
453.274;  211.000;  737.000;  868.000
453.395;   10.300;  -51.000;  175.000
453.516;  357.300; 1317.000; 1388.000
453.637;  -29.500; -205.000; -150.000
453.758;    7.600;   15.000;   69.000
453.879; -155.100; -462.000; -250.000
454.000;  241.300; 1086.000;  948.000
454.121; -161.700; -554.000; -326.000
454.242; -187.300; -599.000; -383.000
454.362;  -30.100;  -99.000;  114.000
454.483;   10.700; -309.000; -229.000
454.604;  234.500;  512.000;  580.000
454.725; -182.100; -627.000; -555.000
454.846; -178.100; -474.000; -406.000
454.967;   10.800;  230.000;  539.000
455.087;   -1.600;  179.000;  153.000
455.208;  114.600;  554.000;  856.000
455.329;  -53.200;  -22.000;   82.000
455.450;  140.700;  473.000;  633.000
455.570;  -63.400; -234.000; -211.000
455.691;  -40.400;  201.000;  407.000
455.812; -116.100; -270.000;  -92.000
455.932;  -59.800;  107.000;  -97.000
456.053;  -92.300;   36.000;   24.000
456.173; -155.000; -433.000; -355.000
456.294; -226.700; -476.000; -303.000
456.415;  -76.600;  -73.000;   70.000
456.535;   35.600;  297.000;  273.000
456.656;  -11.100;  132.000;  240.000
456.776;  -62.900;    3.000;  298.000
456.897;   73.500;  308.000;  513.000
457.017;  -71.000; -153.000;   -3.000
457.138; -142.700; -402.000; -249.000
457.258;   22.200;  263.000;  224.000
457.379;   70.500;  509.000;  521.000
457.499;   39.800;  443.000;  432.000
457.620; -185.600; -407.000; -231.000
457.740; -139.700; -132.000;  -11.000
457.860;  -31.800;   87.000;   44.000
457.981;    1.800;  132.000;  124.000
458.101;  -94.800;  -89.000;   40.000
458.221;   62.600;  336.000;  402.000
458.342;  -27.100;   -4.000;  -37.000
458.462;  124.000;  617.000;  352.000
458.582;  -53.900; -302.000; -294.000
458.703;   70.500;  303.000;  154.000
458.823;    4.400;   22.000;  163.000
458.943;  137.300;  341.000;  467.000
459.063;   54.600; 1124.000;  192.000
459.183;   48.000;  328.000;  313.000
459.304;   55.700;  315.000;  517.000
459.424;  -99.300; -246.000;  -89.000
459.544;  647.600;  388.000;  764.000
459.664; 1450.700;  499.000;  506.000
459.784;  582.100; 1004.000; 1175.000
459.904;  219.700;  867.000;  744.000
460.024;  242.800;  867.000;  684.000
460.144;  123.700;  449.000;  554.000
460.264;   72.100;  515.000;  327.000
460.385;  -95.600; -145.000; -119.000
460.505;  193.900;  905.000;  858.000
460.625;  -72.400;  -17.000;  -68.000
460.745;   58.000;  396.000;  541.000
460.864;  -10.200;  153.000;  469.000
460.984;   92.600;  499.000;  573.000
461.104;  399.800; 1656.000; 1775.000
461.224;  125.200;  657.000;  650.000
461.344;   10.800;  431.000;  360.000
461.464;   27.500;  258.000;  513.000
461.584;   41.400;  283.000;  466.000
461.704;  -26.000;   58.000;  108.000
461.824;  -41.600;  238.000;  259.000
461.943;   19.100;  191.000;  130.000
462.063;  -67.300;    2.000;  324.000
462.183;  167.500;  639.000;  717.000
462.303;  298.800; 1678.000; 1230.000
462.422;  146.500;  781.000;  840.000
462.542;  -13.900;  271.000;  391.000
462.662;  156.800;  353.000;  380.000
462.782;  529.000;  833.000;  572.000
462.901;  890.500;  545.000;  717.000
463.021;  597.200; 1702.000; 1638.000
463.141;   49.700;  337.000;  770.000
463.260;   59.300;  614.000;  474.000
463.380;  103.300;  902.000;  884.000
463.499;   -8.900;  342.000;  332.000
463.619;   30.100;  581.000;  559.000
463.738;  348.200; 1644.000;  903.000
463.858;  123.300;  657.000;  811.000
463.978;   32.400;  542.000;  396.000
464.097;  168.600;  921.000; 1114.000
464.217;  295.600; 1196.000; 1143.000
464.336;  270.900; 1068.000; 1130.000
464.455;   -5.700;  328.000;  659.000
464.575;  161.200;  597.000;  602.000
464.694;  413.300; 1204.000; 1179.000
464.814;  303.600; 1190.000; 1138.000
464.933;  230.300; 1095.000; 1027.000
465.052;  291.900; 1412.000; 1054.000
465.172;  216.400;  922.000;  799.000
465.291;  407.100; 1376.000; 1320.000
465.410;   69.500;  462.000;  735.000
465.530;  242.900; 1355.000; 1310.000
465.649;  228.000; 1209.000; 1273.000
465.768;  369.400; 1673.000; 1508.000
465.888;  210.400;  941.000; 1174.000
466.007;  277.600; 1335.000; 1440.000
466.126;   64.600;  721.000;  641.000
466.245;  145.500; 1176.000; 1187.000
466.364;  145.900;  950.000; 1060.000
466.484;  198.300; 1024.000; 1213.000
466.603;  183.700; 1101.000; 1222.000
466.722;  365.500; 1490.000; 1769.000
466.841;  267.100; 1151.000; 1401.000
466.960;  152.800; 1069.000;  972.000
467.079;  394.100; 1971.000; 1786.000
467.198;  195.500; 1238.000; 1181.000
467.317;  276.600; 1768.000; 1162.000
467.436;  248.200; 1709.000; 1261.000
467.555;  393.900; 1796.000; 1746.000
467.674;  182.700; 1227.000; 1329.000
467.793;  201.000; 1376.000; 1374.000
467.912;  269.500; 1658.000; 1539.000
468.031;  387.600; 2038.000; 1930.000
468.150;  389.200; 1842.000; 1837.000
468.269;  473.900; 2313.000; 2090.000
468.388;  468.600; 2168.000; 2339.000
468.507;  623.900; 2884.000; 2903.000
468.626;  658.100; 2555.000; 2541.000
468.744;  378.800; 2018.000; 2174.000
468.863;  519.800; 2312.000; 2523.000
468.982;  247.100; 1503.000; 1555.000
469.101;  518.200; 2788.000; 2692.000
469.220;  334.600; 2333.000; 2176.000
469.338;  608.500; 2935.000; 3051.000
469.457;  477.200; 2719.000; 2545.000
469.576;  791.000; 3953.000; 3784.000
469.695;  583.600; 2877.000; 3066.000
469.813;  969.700; 4148.000; 4192.000
469.932;  921.000; 4255.000; 4485.000
470.051;  895.600; 4075.000; 4161.000
470.169; 1732.600; 4470.000; 4338.000
470.288; 2721.800; 4700.000; 4809.000
470.406; 1693.600; 5059.000; 5194.000
470.525; 1372.900; 6101.000; 5787.000
470.644; 1415.300; 6847.000; 6794.000
470.762; 1703.300; 8397.000; 7873.000
470.881; 1907.400; 8651.000; 8464.000
470.999; 2159.300; 9685.000; 9151.000
471.118; 2303.700;11174.000;10711.000

