
Integration time [ms]: 100.000
Averaging Nr. [scans]: 40
Smoothing Nr. [pixels]: 0
Data measured with spectrometer [name]: 2101012U2
Wave   ;Sample   ;Dark     ;Reference
[nm]   ;[counts] ;[counts] ;[counts] 

197.733;   71.675;  516.000;  404.000
197.879;  -76.825; -610.000; -634.000
198.025;  -35.200; -475.000; -420.000
198.171;  -79.625; -602.000; -612.000
198.317;  -37.700; -401.000; -316.000
198.463;  -74.875; -655.000; -404.000
198.609;   31.050;  181.000; -137.000
198.755;  -81.650; -644.000; -410.000
198.901;  -62.850; -505.000; -424.000
199.047;  -78.875; -615.000; -488.000
199.193;  -45.975; -230.000; -468.000
199.339;  -20.825; -222.000; -369.000
199.485;   47.225;  330.000;  271.000
199.631;   18.325;  227.000;  310.000
199.777;  -47.775; -466.000; -398.000
199.923;  -62.125; -610.000; -424.000
200.069;   10.250; -141.000;  -58.000
200.215;   55.775;  128.000;  453.000
200.361;   46.400;  243.000;  477.000
200.507;  -48.450; -600.000; -373.000
200.653;  -22.075; -371.000; -194.000
200.798;  -35.700; -215.000; -125.000
200.944;   -5.200; -146.000;  -41.000
201.090;   30.750;   61.000;  222.000
201.236;    2.975; -116.000; -158.000
201.382;  130.950;  874.000;  903.000
201.528;   19.175;  -58.000;  -48.000
201.674;  -51.925; -386.000; -293.000
201.819;  -63.525; -540.000; -439.000
201.965;  -74.150; -699.000; -447.000
202.111;  -15.925; -273.000; -226.000
202.257;  -29.425; -250.000; -238.000
202.402;   10.425;   13.000;  -36.000
202.548;  -38.175; -169.000; -116.000
202.694;   94.350;  410.000; -183.000
202.840;  -81.100; -603.000; -531.000
202.985;  -80.200; -681.000; -639.000
203.131; -104.600; -832.000; -666.000
203.277;  -21.325; -199.000; -262.000
203.423;  -53.850; -434.000; -520.000
203.568;  -24.325; -462.000; -237.000
203.714;  -63.400; -535.000; -542.000
203.860;  -78.000; -682.000; -641.000
204.005;    6.050;  112.000;  167.000
204.151;   81.800;  561.000;  556.000
204.296;  -44.675; -354.000; -221.000
204.442;  -61.625; -600.000; -547.000
204.588;  -74.800; -592.000; -579.000
204.733;   31.625;  178.000;  168.000
204.879; -123.400;-1018.000; -822.000
205.025;   16.675;  -99.000;  126.000
205.170;   -9.475;  -17.000;   94.000
205.316;   89.300;  438.000;  661.000
205.461;  -77.150; -698.000; -554.000
205.607;   92.075;  609.000;  665.000
205.752;  -72.000; -626.000; -551.000
205.898;  -47.975; -501.000; -391.000
206.043;  -60.925; -578.000; -506.000
206.189;  -48.625; -243.000; -285.000
206.334;   69.050;  554.000;  606.000
206.480;   85.275;  409.000;  239.000
206.625;  -88.900; -529.000; -552.000
206.771;  -39.075; -451.000; -373.000
206.916;  -22.225; -210.000; -537.000
207.062;  -65.150; -545.000; -591.000
207.207;  -69.875; -546.000; -443.000
207.353;   61.600;  185.000;  460.000
207.498;   19.975;  196.000;   85.000
207.643;  -40.375; -501.000; -370.000
207.789; -137.800;-1069.000; -910.000
207.934;  -91.150; -665.000; -713.000
208.080;  -21.925; -154.000;   66.000
208.225;  -14.725;  -22.000;  -57.000
208.370;  -86.550; -727.000; -619.000
208.516;  -60.600; -741.000; -487.000
208.661;  -29.675; -127.000;  -69.000
208.806;  -17.200; -165.000; -171.000
208.952; -134.550;-1044.000; -731.000
209.097;   83.575;  378.000;  349.000
209.242;  -44.150; -307.000; -382.000
209.387;   66.475;  392.000;  350.000
209.533;  -45.475; -321.000; -350.000
209.678;   92.250;  472.000;  543.000
209.823;  -50.525; -408.000; -310.000
209.969; -102.625; -860.000; -757.000
210.114; -104.700; -907.000; -719.000
210.259; -109.900; -939.000; -889.000
210.404;   -3.150; -171.000;  103.000
210.549;   14.825;  108.000;    3.000
210.695;   -8.025;   -3.000;  -95.000
210.840;   53.100;   94.000;   67.000
210.985;  -68.600; -484.000; -303.000
211.130;   73.225;  268.000;  406.000
211.275;   30.750;  207.000;  199.000
211.420;  -36.575; -300.000; -289.000
211.566;  -54.250; -536.000; -489.000
211.711;   19.975;  218.000;  157.000
211.856;  -70.300; -545.000; -519.000
212.001;   13.600;  151.000;   44.000
212.146;   30.250;  153.000;   49.000
212.291;  -20.100; -210.000; -186.000
212.436;  -17.800; -280.000;   -6.000
212.581;  -77.575; -685.000; -653.000
212.726;  -77.150; -487.000; -538.000
212.871;  -41.000; -552.000; -217.000
213.016; -151.200;-1172.000;-1029.000
213.161;   71.350;  406.000;  291.000
213.306;  -65.550; -435.000; -577.000
213.451;  -93.175; -778.000; -689.000
213.596;  -36.475; -455.000; -347.000
213.741;  -52.225; -448.000; -538.000
213.886;  -83.025; -498.000; -517.000
214.031;  -21.600; -294.000; -124.000
214.176;  -49.325; -408.000; -341.000
214.321;  -23.700; -296.000; -157.000
214.466;  -26.750; -163.000;  -43.000
214.611;   -1.775;  -61.000;  -10.000
214.756; -119.225; -948.000; -858.000
214.901;  -13.125; -388.000; -226.000
215.046; -131.075; -797.000; -825.000
215.191;   29.050;  128.000;   35.000
215.336;   -8.725; -157.000;  -19.000
215.480;  -58.900; -684.000; -505.000
215.625;   -9.950; -175.000;  -19.000
215.770;  -73.575; -757.000; -662.000
215.915;   -3.350;   -5.000;  -97.000
216.060;   14.300; -113.000;  -21.000
216.205; -106.075; -731.000; -779.000
216.349;  -64.100; -470.000; -533.000
216.494; -140.000; -939.000; -867.000
216.639; -122.725; -823.000; -888.000
216.784;  -91.675; -577.000; -525.000
216.929;   68.025;  392.000;  281.000
217.073;  -10.600; -244.000;  -31.000
217.218;    7.875;   78.000;  -47.000
217.363;  -86.950; -656.000; -618.000
217.507;  -78.875; -623.000; -588.000
217.652; -121.000; -845.000; -874.000
217.797;  -90.400; -708.000; -659.000
217.942; -124.725; -856.000; -720.000
218.086;   83.825;  608.000;  539.000
218.231;  -23.400; -174.000;  -26.000
218.376;  -28.175; -337.000; -229.000
218.520;    6.350;  -41.000;   96.000
218.665;  -25.575; -338.000; -204.000
218.810;  -45.200; -275.000; -233.000
218.954;   14.050;  201.000;   35.000
219.099; -116.850; -713.000; -963.000
219.243;  -64.400; -589.000; -554.000
219.388;  -30.800; -264.000; -136.000
219.532;   -6.950; -116.000; -116.000
219.677;  -83.750; -564.000; -521.000
219.822;    0.950;   33.000;   89.000
219.966;    0.375;   17.000;  -99.000
220.111;  -16.925; -328.000;  -40.000
220.255; -100.925; -797.000; -750.000
220.400;   -1.800; -180.000; -146.000
220.544;  -58.475; -516.000; -450.000
220.689;  -47.475; -422.000; -451.000
220.833;  -21.625; -123.000;  -58.000
220.978;  -43.650; -393.000; -563.000
221.122;   24.700;  319.000;  307.000
221.267; -110.475; -906.000; -837.000
221.411;  -61.750; -478.000; -394.000
221.555;    0.000; -104.000;  -23.000
221.700;  -46.225; -329.000; -222.000
221.844;   40.375;  255.000;  272.000
221.989;  -45.825; -328.000; -311.000
222.133;  -21.400; -289.000; -307.000
222.277;    5.525;    5.000;   78.000
222.422;    7.950;  227.000;  113.000
222.566;  -29.950; -381.000; -214.000
222.711;  -59.250; -414.000; -479.000
222.855;  -71.550; -643.000; -586.000
222.999;  -74.200; -642.000; -717.000
223.144;  -34.275; -195.000; -194.000
223.288;   53.125;  423.000;  251.000
223.432;    5.275;  184.000;  230.000
223.576;   24.725;  152.000;  -21.000
223.721;   42.200;  364.000;  273.000
223.865;  -50.850; -472.000; -475.000
224.009;  262.825; 1673.000; 1631.000
224.153;  -77.025; -660.000; -671.000
224.298;  -65.075; -531.000; -489.000
224.442;   -7.600;  -74.000;  -33.000
224.586;   -2.700; -169.000; -106.000
224.730;  -82.150; -858.000; -670.000
224.875; -105.450; -739.000; -688.000
225.019;   21.675;  102.000;  188.000
225.163;   48.775;  208.000;  341.000
225.307;   30.175;   97.000;  -91.000
225.451;   58.850;  360.000;  481.000
225.595;   28.225;  264.000;  176.000
225.739;  -18.850; -170.000;  -94.000
225.884;    9.275;   86.000;    5.000
226.028;  -92.900; -760.000; -626.000
226.172;  -33.400; -260.000; -273.000
226.316; -120.225; -941.000; -902.000
226.460;  -65.325; -645.000; -493.000
226.604;  -68.925; -406.000; -400.000
226.748;  -98.350; -836.000; -733.000
226.892;  -30.625; -227.000; -181.000
227.036;  -42.125; -537.000; -447.000
227.180;  -42.150; -551.000; -375.000
227.324;  -59.375; -561.000; -580.000
227.468; -120.475; -819.000; -717.000
227.612;   23.325;  242.000;  -28.000
227.756; -103.425; -845.000; -698.000
227.900;   68.575;  342.000;  441.000
228.044;  -72.700; -509.000; -290.000
228.188;   74.425;  448.000;  568.000
228.332;  -88.225; -546.000; -472.000
228.476;  -11.075; -223.000; -149.000
228.620;  -24.475; -210.000; -150.000
228.764;   72.050;  431.000;  349.000
228.908;  -16.525; -155.000;   30.000
229.052;  -59.225; -615.000; -528.000
229.195;  -15.575; -172.000;   13.000
229.339;  -16.000; -235.000; -305.000
229.483;  -18.050;    5.000; -162.000
229.627;    5.525; -156.000;  139.000
229.771;  -53.775; -218.000; -294.000
229.915;   14.775;  230.000;   79.000
230.059;  -84.300; -648.000; -663.000
230.202;  -41.600; -370.000; -317.000
230.346;  -23.000; -107.000;  107.000
230.490;  -57.800; -489.000; -521.000
230.634; -116.000; -736.000; -553.000
230.777;   85.975;  478.000;  509.000
230.921;  -46.100; -450.000; -359.000
231.065;  -26.200; -246.000; -286.000
231.209;   27.425;  261.000;  265.000
231.352;   29.700;   54.000;   40.000
231.496;   18.350;  568.000;  188.000
231.640;  -71.675; -693.000; -621.000
231.783;   59.800;  546.000;  525.000
231.927;  -41.675; -294.000; -365.000
232.071; -122.200; -962.000; -736.000
232.214; -116.900; -980.000; -764.000
232.358; -109.675; -683.000; -599.000
232.502;   10.575;  -19.000;    7.000
232.645; -144.675;-1090.000; -927.000
232.789;  -14.500; -257.000; -218.000
232.933;  -48.225; -407.000; -224.000
233.076; -127.825;-1038.000; -897.000
233.220; -112.225; -752.000; -777.000
233.363;  -63.925; -669.000; -477.000
233.507;   61.675;  371.000;  129.000
233.650;  -98.200; -764.000; -834.000
233.794;   48.450;  438.000;  461.000
233.938;  -67.475; -530.000; -362.000
234.081;  -17.250;  -93.000;   31.000
234.225;  -65.000; -631.000; -539.000
234.368; -103.150; -773.000; -723.000
234.512;  -40.800; -385.000; -299.000
234.655;  -84.900; -582.000; -555.000
234.798;  -62.000; -493.000; -466.000
234.942; -118.600; -884.000;-1002.000
235.085;  -66.825; -651.000; -443.000
235.229;  -73.975; -405.000; -410.000
235.372;  -42.900; -247.000; -191.000
235.516;  -75.500; -397.000; -321.000
235.659;   29.175;   92.000;  121.000
235.802;   -2.075;  -38.000;  -22.000
235.946;   43.525;  335.000;  215.000
236.089;   29.750;  126.000;  250.000
236.233;   62.900;  275.000;  298.000
236.376;  -36.225; -235.000; -378.000
236.519;  -38.850; -297.000; -319.000
236.663;   -9.950; -215.000; -117.000
236.806; -126.325;-1029.000; -999.000
236.949;   51.475;  543.000;  431.000
237.092;   65.750;  412.000;  391.000
237.236; -100.450; -589.000; -502.000
237.379;   73.600;  352.000;  428.000
237.522; -121.675; -879.000; -768.000
237.666;  -13.800; -271.000;   18.000
237.809; -113.750; -851.000; -823.000
237.952;   42.600;  469.000;  271.000
238.095;  -64.000; -447.000; -442.000
238.238;   78.825;  688.000;  700.000
238.382;   13.425;  166.000;  103.000
238.525;  -75.900; -598.000; -511.000
238.668; -152.025;-1060.000; -985.000
238.811;  -86.000; -638.000; -643.000
238.954;  -62.725; -483.000; -334.000
239.097;  111.325;  617.000;  664.000
239.241;   35.775;  394.000;  326.000
239.384;  -49.525; -254.000; -214.000
239.527;  -55.150; -424.000; -224.000
239.670; -146.200; -994.000;-1091.000
239.813; -110.000; -696.000; -658.000
239.956;   71.550;  579.000;  473.000
240.099; -110.825; -778.000; -725.000
240.242;   63.200;  428.000;  432.000
240.385;   53.175;  466.000;  450.000
240.528;  -67.225; -706.000; -473.000
240.671;    3.175;  189.000;  134.000
240.814;  -38.250; -441.000; -158.000
240.957;  -97.750; -767.000; -578.000
241.100;  -88.525; -779.000; -755.000
241.243; -147.900;-1234.000; -893.000
241.386;  -75.875; -508.000; -379.000
241.529;  -82.275; -735.000; -547.000
241.672;  -62.750; -566.000; -495.000
241.815; -110.850; -832.000; -808.000
241.958;  -20.175; -125.000; -182.000
242.101;  -71.475; -545.000; -390.000
242.244;  -35.400; -270.000; -325.000
242.387;  -41.625; -304.000; -246.000
242.530;   66.800;  470.000;  134.000
242.673;  -37.325; -381.000; -309.000
242.815; -108.675; -925.000; -899.000
242.958;  -64.775; -482.000; -381.000
243.101;    9.100;  132.000;  187.000
243.244;  -73.575; -564.000; -521.000
243.387;  -47.300; -313.000; -316.000
243.530;  -89.625; -657.000; -674.000
243.672;   -3.400;   43.000;  -92.000
243.815;  -50.775; -355.000; -283.000
243.958;   -6.375;   98.000;  -26.000
244.101;    0.675;   59.000;  -16.000
244.243;   -6.700;  -47.000;  101.000
244.386; -116.350; -761.000; -630.000
244.529;  -29.825; -132.000; -139.000
244.672; -157.650;-1154.000; -951.000
244.814;  -88.250; -621.000; -794.000
244.957;  -70.775; -380.000; -304.000
245.100;  -79.100; -489.000; -489.000
245.242;  -62.025; -387.000; -374.000
245.385;   -2.350;  -59.000;  -39.000
245.528; -127.250; -871.000; -705.000
245.670;   81.125;  612.000;  634.000
245.813;  -74.625; -599.000; -547.000
245.956;  -38.150; -324.000; -275.000
246.098;  -72.725; -508.000; -650.000
246.241;    3.175;  194.000;   48.000
246.383;  -16.150; -119.000;  -73.000
246.526;  -75.275; -454.000; -525.000
246.669; -115.475; -889.000; -780.000
246.811;   26.325;  172.000;   -1.000
246.954;  -55.925; -512.000; -426.000
247.096;  -20.350;  -84.000;   -6.000
247.239;  -64.825; -482.000; -445.000
247.381;  -70.625; -647.000; -488.000
247.524;   84.425;  645.000;  679.000
247.666;   -0.750;   58.000;   11.000
247.809; -108.850; -887.000; -691.000
247.951;   -3.150;  -75.000;  138.000
248.094;   38.900;  432.000;  308.000
248.236; -155.050;-1262.000;-1238.000
248.378;    9.625; -356.000;  -81.000
248.521;  -21.375; -334.000; -337.000
248.663;  -17.750; -236.000; -267.000
248.806;  -23.500; -300.000; -266.000
248.948;  -94.075; -886.000; -763.000
249.090;  -34.550; -428.000; -398.000
249.233;  -47.650; -344.000; -381.000
249.375;  -57.800; -474.000; -451.000
249.518;  -20.100;  -83.000; -133.000
249.660;   -2.500; -103.000;    3.000
249.802; -181.500;-1303.000;-1189.000
249.945;  -75.975; -612.000; -540.000
250.087; -108.350; -834.000; -768.000
250.229;  -48.875; -362.000; -480.000
250.371;  -79.500; -494.000; -439.000
250.514;  -41.300; -310.000; -244.000
250.656;  -65.225;   69.000;  102.000
250.798; -109.175; -849.000; -800.000
250.940;  -64.075; -322.000; -322.000
251.083;  -31.725; -335.000; -111.000
251.225;   56.150;  338.000;  310.000
251.367;  -39.450; -274.000; -373.000
251.509;  -34.575; -265.000; -210.000
251.651;  -97.425; -731.000; -671.000
251.794;   54.700;  538.000;  632.000
251.936; -107.025; -821.000; -747.000
252.078;  -76.800; -540.000; -461.000
252.220;  -61.150; -645.000; -477.000
252.362;   73.450;  344.000;  462.000
252.504;  -64.725; -677.000; -584.000
252.646; -116.550; -875.000; -722.000
252.788;    4.450;   14.000; -128.000
252.931;  -37.250; -257.000; -253.000
253.073;  -46.175; -376.000; -317.000
253.215;    1.500;  141.000;  122.000
253.357;  -10.775;   82.000; -153.000
253.499;  -62.125; -374.000; -234.000
253.641;  -85.750; -749.000; -594.000
253.783;  -94.600; -609.000; -527.000
253.925;  -98.275; -586.000; -591.000
254.067; -115.725; -744.000; -667.000
254.209;  -20.100; -391.000; -259.000
254.351; -138.725; -865.000; -883.000
254.493;  -60.275; -441.000; -417.000
254.635; -129.200; -936.000; -818.000
254.777;  -81.375; -752.000; -687.000
254.918;  -61.400; -512.000; -430.000
255.060;  -52.800; -551.000; -395.000
255.202;  -58.875; -473.000; -261.000
255.344;  -75.300; -658.000; -455.000
255.486;  -66.325; -471.000; -406.000
255.628; -102.875; -780.000; -781.000
255.770; -105.600; -676.000; -536.000
255.912;  -51.350; -559.000; -468.000
256.053;  -83.875; -730.000; -508.000
256.195;  157.975; 1008.000;  903.000
256.337; -102.150; -861.000; -595.000
256.479;   77.325;  532.000;  416.000
256.621;  -47.800; -394.000; -212.000
256.762;  -95.200; -789.000; -742.000
256.904;   69.525;  485.000;  487.000
257.046;  -38.500; -381.000; -271.000
257.188;  -48.325; -351.000; -264.000
257.329;  -69.650; -525.000; -464.000
257.471; -132.550; -939.000; -807.000
257.613;  -58.400; -584.000; -498.000
257.755; -148.150;-1073.000; -982.000
257.896;   33.250;  286.000;  392.000
258.038;  -79.925; -403.000; -352.000
258.180;  -44.450; -354.000; -279.000
258.321;  -72.100; -581.000; -457.000
258.463;   -4.200;  -71.000;  133.000
258.605;  -90.325; -562.000; -570.000
258.746; -101.500; -886.000; -772.000
258.888; -147.850;-1026.000;-1020.000
259.029;   28.275;  121.000;   -8.000
259.171;  -85.950; -614.000; -550.000
259.313;    2.225;  -49.000;  -47.000
259.454;  -63.650; -536.000; -414.000
259.596;  -58.150; -483.000; -390.000
259.737;  -85.975; -590.000; -474.000
259.879;   35.300;  217.000;  311.000
260.020;   88.650;  901.000;  636.000
260.162;  -24.850; -146.000; -253.000
260.303; -120.375; -768.000; -687.000
260.445;  -82.225; -609.000; -613.000
260.586;   27.500;  392.000;  157.000
260.728;  -35.575; -360.000; -248.000
260.869; -113.250; -350.000; -343.000
261.011;   75.550;  706.000;  537.000
261.152;  -59.425; -479.000; -319.000
261.293;  -76.450; -576.000; -595.000
261.435;  -42.900; -219.000; -184.000
261.576;  -45.275; -455.000; -325.000
261.718;   37.925;  420.000;  470.000
261.859; -118.700; -940.000; -949.000
262.000; -131.800; -951.000;-1016.000
262.142;  -21.450;  -52.000;  -60.000
262.283; -112.900; -808.000; -691.000
262.424;  -93.925; -666.000; -625.000
262.566; -161.025;-1161.000; -983.000
262.707; -108.900; -840.000; -830.000
262.848; -115.850; -769.000; -726.000
262.990;  -49.050; -362.000; -345.000
263.131;   76.900;  650.000;  681.000
263.272;  -12.225;  -61.000;  -41.000
263.413;  -99.275; -589.000; -561.000
263.555;  -69.325; -669.000; -143.000
263.696; -100.200; -550.000; -641.000
263.837;  -47.400; -449.000; -551.000
263.978;   15.775;   -5.000;  -77.000
264.119;  -44.850; -283.000; -264.000
264.261; -122.800; -847.000; -630.000
264.402;    3.950;   33.000;   40.000
264.543;  -74.550; -509.000; -524.000
264.684;  -13.050;   61.000;  -50.000
264.825;  -79.475; -816.000; -538.000
264.966;   -3.900;  -84.000;  -67.000
265.107; -107.725; -646.000; -670.000
265.248; -120.775; -825.000; -812.000
265.390;  -16.600;  152.000;   -9.000
265.531;  -31.475; -238.000; -107.000
265.672;  -83.625; -557.000; -630.000
265.813;   74.350;  563.000;  439.000
265.954; -143.525; -959.000; -940.000
266.095;  -20.375; -372.000; -322.000
266.236;  -98.750; -686.000; -548.000
266.377;  -41.075; -243.000; -297.000
266.518;  -72.275; -619.000; -547.000
266.659;   32.625;  170.000;  268.000
266.800;   11.575;   83.000;   85.000
266.941;  -69.025; -487.000; -478.000
267.082;   26.800;  354.000;   99.000
267.223;  -62.250; -344.000; -273.000
267.364; -124.750; -892.000; -686.000
267.504;   -7.225;    3.000;  135.000
267.645;    5.050;  160.000;   67.000
267.786;  -19.550; -147.000;  -86.000
267.927;  -74.075; -473.000; -379.000
268.068;  -19.500; -186.000;  -61.000
268.209;  -40.875; -175.000; -413.000
268.350;  -58.850; -388.000; -532.000
268.490;  -83.400; -648.000; -521.000
268.631;   35.250;  127.000;  225.000
268.772; -122.250; -874.000; -647.000
268.913;  -54.750; -328.000; -476.000
269.054;   -9.950; -117.000;   12.000
269.194;  -43.000; -418.000; -402.000
269.335; -143.100;-1137.000;-1074.000
269.476;  -22.300;   33.000;  -35.000
269.617;  -47.950; -347.000; -392.000
269.757;  -73.725; -713.000; -646.000
269.898; -114.500; -856.000; -613.000
270.039;  -61.900; -415.000; -405.000
270.180; -135.625; -952.000; -816.000
270.320;  -27.125; -190.000; -250.000
270.461;  -33.925; -277.000; -249.000
270.602;   -7.675; -186.000; -156.000
270.742; -127.250; -868.000; -943.000
270.883;  -57.550; -442.000; -390.000
271.023;  -52.850; -358.000; -357.000
271.164;  -68.650; -607.000; -528.000
271.305;  -99.925; -666.000; -654.000
271.445;  -87.025; -722.000; -683.000
271.586;  -73.650; -462.000; -283.000
271.726;  -41.025; -397.000; -322.000
271.867;  -58.000; -594.000; -534.000
272.008;  193.400; -473.000; -285.000
272.148;  135.800;  462.000;  468.000
272.289;   17.200; -113.000; -181.000
272.429;   14.450;   19.000;  185.000
272.570;  -81.950; -633.000; -737.000
272.710; -109.000; -825.000; -775.000
272.851;  -11.575;  113.000; -130.000
272.991; -170.800;-1173.000;-1077.000
273.131;  -81.650; -419.000; -459.000
273.272; -106.850; -683.000; -723.000
273.412;   17.225; -143.000;  -31.000
273.553;  -50.725; -488.000; -507.000
273.693;  143.600;  913.000;  858.000
273.834; -100.125; -894.000; -692.000
273.974;  -64.025; -664.000; -615.000
274.114;  -98.775; -772.000; -560.000
274.255;   75.950;  414.000;  373.000
274.395;    0.825; -180.000; -125.000
274.535;   52.875;  199.000;  350.000
274.676;   21.600;  225.000;   94.000
274.816;   13.500;  110.000;   34.000
274.956;  -78.725; -624.000; -690.000
275.097;  -65.950;-1014.000; -922.000
275.237; -119.025; -913.000; -803.000
275.377; -102.750; -778.000; -689.000
275.517; -150.650; -878.000; -937.000
275.658;  -46.600; -590.000; -555.000
275.798;  -67.400; -606.000; -413.000
275.938;   35.125;  215.000;  323.000
276.078;  -95.500; -626.000; -395.000
276.218;   11.450;   99.000;  104.000
276.359; -135.575;-1026.000;-1024.000
276.499;  -61.475; -605.000; -446.000
276.639;  -28.125; -305.000; -151.000
276.779;  -56.750; -475.000; -357.000
276.919; -117.000; -783.000; -624.000
277.059;  -13.350; -261.000; -212.000
277.199;  -46.675; -357.000; -259.000
277.340;   45.775;  287.000;  175.000
277.480; -117.350; -840.000; -693.000
277.620;   31.600;  192.000;   16.000
277.760; -197.750;-1533.000;-1294.000
277.900;   13.025;  113.000;   33.000
278.040;   17.600;  137.000;  159.000
278.180;   48.350;  270.000;  170.000
278.320;   14.525;   21.000;   56.000
278.460;  -63.125; -443.000; -469.000
278.600;  -81.950; -708.000; -598.000
278.740;   52.475;  448.000;  224.000
278.880;  -60.500; -768.000; -791.000
279.020;   -1.775; -194.000; -144.000
279.160;  -78.000; -672.000; -595.000
279.300; -106.650; -926.000; -873.000
279.440;  -97.300; -709.000; -622.000
279.579;  -28.875;-1014.000; -929.000
279.719;  -62.925; -410.000; -394.000
279.859;   69.275;   -4.000;   41.000
279.999;   40.775; -208.000;  101.000
280.139;  -14.375; -435.000; -387.000
280.279;  -69.625; -708.000; -745.000
280.419;  -19.575; -229.000; -147.000
280.559;  -25.050; -259.000; -180.000
280.698;  -75.475; -790.000; -639.000
280.838;  -95.425; -778.000; -800.000
280.978;  -93.725; -846.000; -790.000
281.118; -116.050; -811.000; -704.000
281.257;   18.700;   24.000;    6.000
281.397; -125.650;-1094.000; -960.000
281.537;  -90.625; -599.000; -712.000
281.677;  -15.750; -150.000; -101.000
281.816;  -79.950; -700.000; -630.000
281.956;  -36.975; -193.000; -257.000
282.096;  -56.875; -539.000; -396.000
282.235; -112.075; -672.000; -638.000
282.375;  -18.900; -243.000;  -98.000
282.515;  -83.025; -715.000; -707.000
282.654;   33.975;   29.000;  106.000
282.794;   30.325;  388.000;  244.000
282.934;  -50.825; -530.000; -491.000
283.073; -139.050;-1030.000; -857.000
283.213;  -41.600; -460.000; -467.000
283.353;  -35.200; -408.000; -349.000
283.492;  -33.700; -264.000; -296.000
283.632;  -33.325; -254.000; -168.000
283.771;  -92.600; -859.000; -730.000
283.911;  -61.600; -369.000; -260.000
284.050; -106.525; -794.000; -748.000
284.190; -163.325;-1229.000;-1096.000
284.329; -142.475;-1055.000; -964.000
284.469;  -65.725; -516.000; -591.000
284.608;  -55.825; -559.000; -598.000
284.748;  -88.350; -614.000; -570.000
284.887;    1.900;  -87.000;  -20.000
285.027; -123.100; -844.000; -892.000
285.166;  -19.675; -192.000; -249.000
285.306;   -4.125; -116.000;  -33.000
285.445;  -45.525; -229.000; -343.000
285.584;  -93.750; -630.000; -494.000
285.724;  -31.850; -282.000; -322.000
285.863; -113.325; -857.000; -507.000
286.002;  -48.000; -366.000; -276.000
286.142; -105.975; -715.000; -622.000
286.281;  -69.525; -525.000; -493.000
286.420;  -87.975; -554.000; -417.000
286.560;  103.550;  653.000;  623.000
286.699; -136.225; -958.000; -912.000
286.838;  -77.600; -590.000; -591.000
286.978;  -94.900; -533.000; -537.000
287.117; -142.100;-1085.000; -950.000
287.256;  -37.525; -228.000; -211.000
287.395;  -47.625; -197.000; -378.000
287.535;  -48.450; -370.000; -298.000
287.674;  -74.600; -509.000; -484.000
287.813;   61.925;  661.000;  533.000
287.952; -125.375;-1010.000; -871.000
288.091; -149.175;-1049.000; -915.000
288.231;    8.425;   13.000;   15.000
288.370; -181.325;-1217.000;-1200.000
288.509;  -89.325; -728.000; -645.000
288.648;  -99.325; -770.000; -548.000
288.787;  -25.925; -243.000;  -87.000
288.926;  -71.650; -454.000; -475.000
289.065;  126.700;  859.000;  672.000
289.204;  -51.825; -377.000; -217.000
289.344;  -95.750; -791.000; -690.000
289.483;   28.325;  416.000;  304.000
289.622;  -29.775; -291.000; -149.000
289.761;  -11.700; -309.000; -166.000
289.900; -104.375; -785.000; -626.000
290.039;  -14.300;  -12.000;  -95.000
290.178;  -43.325; -274.000; -180.000
290.317;  -84.475; -618.000; -479.000
290.456;  -66.025; -463.000; -451.000
290.595; -145.300; -961.000; -833.000
290.734; -129.325; -904.000; -891.000
290.873;  -75.350; -456.000; -420.000
291.011; -109.275; -833.000; -843.000
291.150;  -96.725; -770.000; -682.000
291.289;  -21.400; -343.000; -110.000
291.428;  -91.100; -599.000; -480.000
291.567;  -54.150; -370.000; -442.000
291.706;   -4.600;  109.000;  154.000
291.845;  -89.650; -597.000; -505.000
291.984; -169.125;-1234.000;-1061.000
292.122;   75.975;  602.000;  582.000
292.261;   41.800;  620.000;  463.000
292.400;    9.200; -144.000;  211.000
292.539; -122.775; -959.000; -813.000
292.678;  -27.050; -325.000; -300.000
292.816; -153.050;-1136.000; -965.000
292.955;  -93.800; -844.000; -684.000
293.094;  -26.125; -173.000; -337.000
293.233;  -44.775; -556.000; -400.000
293.371;  -33.800; -225.000;  -84.000
293.510; -110.275; -866.000; -780.000
293.649; -127.325; -959.000; -924.000
293.787;  -63.100;-1083.000;-1012.000
293.926;    1.475; -113.000;  -32.000
294.065;  -43.325; -379.000; -290.000
294.203;   42.750;  298.000;  406.000
294.342;   25.450;   74.000;  156.000
294.481; 5884.525;51180.000; -836.000
294.619;  -45.425; -425.000; -582.000
294.758; -149.400;-1230.000;-1137.000
294.896;   77.800; -125.000;    5.000
295.035; -125.375;-1040.000;-1006.000
295.174; -126.575;-1082.000; -954.000
295.312;  -41.850; -323.000; -203.000
295.451;  -11.475; -307.000; -428.000
295.589;  -56.900; -389.000; -518.000
295.728;   22.050; -292.000; -165.000
295.866;    6.300;  -36.000;  -51.000
296.005;  -55.025; -584.000; -341.000
296.143;  -61.025; -558.000; -596.000
296.282;  -99.075; -957.000; -881.000
296.420;  -81.650; -657.000; -557.000
296.559;  -90.150; -892.000; -633.000
296.697;   25.700; -847.000; -665.000
296.835;   56.000;-1141.000;-1002.000
296.974;   35.000;  -23.000;   39.000
297.112;   11.650; -443.000; -504.000
297.251;  -85.600; -815.000; -755.000
297.389;   92.125; -576.000; -438.000
297.527;   33.800; -145.000;  -83.000
297.666;  -52.475; -486.000; -438.000
297.804;  -46.300; -404.000; -264.000
297.942;   -7.675; -136.000; -161.000
298.081;  -21.750; -183.000;   63.000
298.219;   67.675;  -17.000;  -19.000
298.357;   42.650; -144.000;  -71.000
298.495;   25.450; -810.000; -812.000
298.634;   77.225;  245.000;  219.000
298.772;   46.800; -220.000; -338.000
298.910;  -18.575; -309.000; -182.000
299.048;    1.525; -130.000; -153.000
299.187;  -43.725; -350.000; -250.000
299.325;   17.625;   52.000;  122.000
299.463;   28.975; -389.000; -299.000
299.601;  104.675; -327.000; -271.000
299.739;  -96.675; -908.000; -883.000
299.877;  -80.700; -791.000; -703.000
300.016;  -63.650;-1095.000; -935.000
300.154;  156.400;  -19.000; -161.000
300.292;   41.850; -428.000; -348.000
300.430;   26.975; -408.000; -291.000
300.568; -109.250; -940.000; -874.000
300.706;  -59.725; -366.000; -469.000
300.844;  -79.075;-1108.000; -979.000
300.982;  127.875;  246.000;  282.000
301.120; -110.175; -965.000; -866.000
301.258;  -76.425; -812.000; -705.000
301.396;   33.175;  104.000;  -41.000
301.534;   85.250; -218.000; -293.000
301.672;   -5.400; -664.000; -521.000
301.810;   24.950; -613.000; -545.000
301.948;  115.375;   53.000;  149.000
302.086;  603.000; -250.000;  -32.000
302.224;  925.675; -610.000; -585.000
302.362;   20.750; -558.000; -622.000
302.500;  -35.950; -923.000; -893.000
302.638;  101.850;  128.000;  245.000
302.776;   -6.650; -352.000; -408.000
302.913;   46.075;  447.000;  236.000
303.051;    1.475;  -86.000;  -23.000
303.189;   53.025;   90.000;  118.000
303.327;  -37.800; -341.000; -256.000
303.465;  -67.475; -832.000; -588.000
303.603; -111.500; -805.000; -604.000
303.740;  101.725;  417.000;  241.000
303.878;    3.850; -800.000; -759.000
304.016;  -89.775; -915.000; -790.000
304.154; -124.100;-1123.000;-1152.000
304.291;  -22.100; -505.000; -554.000
304.429;    3.750;  102.000;   74.000
304.567; -128.025; -908.000; -893.000
304.705;  -68.275; -408.000; -515.000
304.842;   79.725; -616.000; -540.000
304.980;   58.675;  215.000;   35.000
305.118;   41.350; -367.000; -365.000
305.255;  -75.325; -945.000; -927.000
305.393;   69.025;  178.000;  239.000
305.531; -101.550;-1173.000; -956.000
305.668;  -68.425; -663.000; -582.000
305.806;   87.350; -358.000; -439.000
305.943;   95.275; -629.000; -637.000
306.081;   39.725; -378.000; -267.000
306.219;  -93.875; -863.000; -748.000
306.356;    3.925;  158.000;   27.000
306.494;  103.550;  981.000;  761.000
306.631;   -6.675;  -11.000;  -55.000
306.769;    0.675; -613.000; -485.000
306.906;  -32.875; -284.000; -258.000
307.044;  -54.775; -473.000; -488.000
307.181;  -70.225; -410.000; -332.000
307.319;   13.950;  112.000;   87.000
307.456; -165.725;-1191.000;-1153.000
307.594;  -94.725; -980.000; -727.000
307.731;   -2.775; -371.000; -164.000
307.868;   -5.825;  -15.000;   20.000
308.006; -132.200; -961.000; -847.000
308.143;  -61.825; -618.000; -330.000
308.281;  121.700;  -37.000; -254.000
308.418;  -22.200; -748.000; -640.000
308.555;  -71.150; -400.000; -250.000
308.693;  -73.900; -577.000; -573.000
308.830; -132.625; -712.000; -657.000
308.967;  -20.525; -215.000;  -95.000
309.105;  -53.150; -507.000; -396.000
309.242;   17.925; -468.000; -367.000
309.379;  220.800; -577.000; -655.000
309.517;  -73.325; -936.000; -948.000
309.654; -105.650; -910.000; -734.000
309.791;  -75.150; -662.000; -580.000
309.928; -122.675; -977.000; -914.000
310.065;  172.150;  819.000;  697.000
310.203;  -11.900; -825.000; -850.000
310.340;  -10.125; -465.000; -321.000
310.477;  -71.450; -412.000; -516.000
310.614;  -49.700; -383.000; -473.000
310.751;  -89.575; -427.000; -518.000
310.889;   -6.250;    1.000;   11.000
311.026; -146.425;-1161.000; -939.000
311.163;  -38.950; -386.000; -380.000
311.300;  -76.125; -512.000; -479.000
311.437;  -72.000; -658.000; -619.000
311.574; -164.975;-1226.000; -985.000
311.711;  -62.250; -595.000; -433.000
311.848;  -60.175; -380.000; -388.000
311.985;   28.675;  270.000;   93.000
312.122; -113.000; -932.000; -762.000
312.259; -129.300; -941.000; -994.000
312.396;  -80.925; -508.000; -551.000
312.533;  -81.475; -812.000; -790.000
312.670; -145.625;-1070.000; -898.000
312.807;  -32.500; -352.000; -367.000
312.944;  -80.950; -513.000; -611.000
313.081;  -25.150; -150.000; -415.000
313.218; -109.050;-1111.000; -867.000
313.355;    8.600; -531.000; -449.000
313.492;   13.800; -455.000; -292.000
313.629;  145.500;  815.000;  735.000
313.766; -142.450;-1176.000;-1008.000
313.902;  -14.350; -186.000;   21.000
314.039;  -50.825; -372.000; -289.000
314.176;   32.125;  286.000;  192.000
314.313;  -68.225; -569.000; -473.000
314.450;  -63.625; -788.000; -684.000
314.587;  -65.575; -468.000; -480.000
314.723;   14.625;  -78.000;  130.000
314.860;   34.525;  318.000;  332.000
314.997;   38.200;  223.000;  142.000
315.134;  -51.900; -385.000; -368.000
315.270;  -33.125; -480.000; -496.000
315.407; -132.750;-1094.000; -967.000
315.544;  -57.175; -657.000; -538.000
315.681;  -62.725; -681.000; -565.000
315.817;   31.575; -133.000; -176.000
315.954;   17.025; -613.000; -392.000
316.091; -123.275;-1045.000;-1023.000
316.227;  -34.650;  -71.000; -179.000
316.364;    4.500;   23.000;    6.000
316.500;  -53.400; -113.000; -300.000
316.637;  -44.150; -181.000; -302.000
316.774;  -86.650; -625.000; -358.000
316.910;  -87.750; -598.000; -629.000
317.047;  -74.625; -487.000; -351.000
317.183;  -48.625; -435.000; -566.000
317.320;  -14.525; -367.000; -321.000
317.456;  -63.100; -733.000; -805.000
317.593;  -95.100; -598.000; -641.000
317.729;   11.700;  168.000;  -67.000
317.866; -205.450;-1434.000;-1285.000
318.002;  -87.725; -708.000; -948.000
318.139;  -91.825; -883.000; -867.000
318.275; -100.800;-1003.000; -738.000
318.412;  -61.600; -517.000; -336.000
318.548;  -34.275; -751.000; -720.000
318.685;  -89.700; -985.000; -888.000
318.821; -102.975; -762.000; -735.000
318.957;  -11.750;   34.000;  -23.000
319.094;   33.600;  297.000;  154.000
319.230;  -71.925; -756.000; -742.000
319.367;  123.275; -471.000; -520.000
319.503;   50.025; -538.000; -436.000
319.639;  -89.800; -877.000; -793.000
319.775;  -58.300; -750.000; -685.000
319.912;  -65.100; -424.000; -519.000
320.048;  -86.125;-1184.000;-1184.000
320.184;   87.775;   59.000;   70.000
320.321;  -46.575; -497.000; -467.000
320.457;   70.075;  475.000;  662.000
320.593;  -65.425; -375.000; -382.000
320.729; -101.825; -732.000; -734.000
320.866;  -80.450; -577.000; -635.000
321.002;  -66.775; -759.000; -809.000
321.138;  -16.075; -135.000; -211.000
321.274;   82.350; -148.000; -115.000
321.410;  -34.525; -585.000; -353.000
321.546;  -28.250;-1011.000; -911.000
321.683;   43.250;  400.000;  185.000
321.819;    4.275;  -48.000; -117.000
321.955; -112.475; -743.000; -722.000
322.091;  -53.650; -585.000; -540.000
322.227;  -23.150; -382.000; -202.000
322.363;   -1.375; -320.000; -215.000
322.499;  -41.475; -343.000; -331.000
322.635;  156.075;  636.000;  443.000
322.771;   10.725; -139.000;   12.000
322.907;   98.325;  129.000;  327.000
323.043;  -13.025; -115.000; -206.000
323.179;  -33.625; -394.000; -363.000
323.315;   34.875; -401.000; -371.000
323.451;   97.150; -328.000; -236.000
323.587;   61.300;  -60.000;  -77.000
323.723;    8.950; -682.000; -601.000
323.859;  -27.025; -258.000;  -76.000
323.995;  -32.500; -467.000; -409.000
324.131; -120.950; -967.000; -892.000
324.267;  -36.250; -254.000; -276.000
324.402; -134.450; -960.000; -983.000
324.538;    0.325; -279.000; -104.000
324.674;   24.900;  164.000;   77.000
324.810;  105.700;  226.000;  308.000
324.946;   -9.225; -810.000; -658.000
325.082;  -77.250; -568.000; -475.000
325.217;  -13.475;  -62.000;   16.000
325.353;  -89.650; -764.000; -659.000
325.489;  -99.075; -540.000; -506.000
325.625;  -85.975; -579.000; -525.000
325.760;   57.950;  517.000;  376.000
325.896;  -26.950; -515.000; -702.000
326.032;  -60.700; -403.000; -352.000
326.168;  -53.200; -462.000; -369.000
326.303;  -64.050; -352.000; -461.000
326.439;  -23.775; -336.000; -276.000
326.575;    1.175; -190.000;  -29.000
326.710;   -1.175; -156.000;  -30.000
326.846;   -9.225;  146.000;  103.000
326.982;  -97.650; -530.000; -548.000
327.117;  -76.700; -481.000; -442.000
327.253;  -78.825; -745.000; -742.000
327.388; -134.300;-1137.000;-1153.000
327.524;  -38.825; -811.000; -578.000
327.659;  -36.050;  -58.000;  -22.000
327.795;    2.650;   69.000;   45.000
327.931;  -88.150; -723.000; -499.000
328.066;  -37.000; -417.000; -276.000
328.202;  -26.975;   12.000; -129.000
328.337;  109.475;  957.000;  713.000
328.473;   27.575;  -12.000;  -74.000
328.608;  -18.850; -256.000; -267.000
328.743;  -92.850; -799.000; -664.000
328.879;   18.975;  214.000;  114.000
329.014;  -35.375; -102.000; -122.000
329.150;  -88.650; -358.000; -483.000
329.285;  -80.250; -465.000; -466.000
329.421;  -50.875; -548.000; -246.000
329.556;  -11.025;  -36.000;   85.000
329.691; -102.325; -633.000; -615.000
329.827;  -85.800; -626.000; -480.000
329.962;  -30.125;  131.000; -301.000
330.097;  -87.225; -673.000; -585.000
330.233;  -44.850; -410.000; -223.000
330.368; -130.800; -839.000; -628.000
330.503;  -15.475;    3.000;   98.000
330.638;   14.925;  -93.000; -125.000
330.774;  -64.600; -609.000; -530.000
330.909;  -28.675; -434.000; -244.000
331.044;  -97.250; -714.000; -708.000
331.179; -183.625;-1217.000;-1109.000
331.315;   16.975;   77.000;   20.000
331.450;   12.225;  157.000;  285.000
331.585;  -90.275; -805.000; -706.000
331.720;  -77.675; -510.000; -460.000
331.855;    2.000;  -35.000; -102.000
331.990;  240.325;   62.000;  138.000
332.126;  143.750; -110.000;   71.000
332.261;  -12.575; -379.000; -265.000
332.396;    3.550; -135.000; -242.000
332.531; -101.475;-1074.000;-1031.000
332.666;   31.125; -519.000; -363.000
332.801; -102.925; -726.000; -807.000
332.936;  -25.400; -192.000; -122.000
333.071; -130.850; -870.000; -817.000
333.206;   15.150;  307.000;  379.000
333.341;   28.775;  344.000;  418.000
333.476;  -86.150; -627.000; -623.000
333.611;  -46.175; -251.000; -173.000
333.746;  -38.900; -381.000; -464.000
333.881; -116.400; -973.000; -935.000
334.016; -129.375; -936.000; -917.000
334.151; -122.575; -746.000; -702.000
334.286;   29.350;  152.000;  186.000
334.421;  -15.275; -125.000; -178.000
334.556;  -85.000; -611.000; -567.000
334.690;  -90.450; -631.000; -577.000
334.825;   49.325;  381.000;   83.000
334.960;  -60.450; -285.000; -413.000
335.095;   12.475;  135.000;  -91.000
335.230; -105.825; -722.000; -738.000
335.365; -131.025;-1084.000; -990.000
335.499; -135.875;-1108.000;-1037.000
335.634;    8.050;    9.000;  534.000
335.769; -105.475; -755.000; -720.000
335.904;  -52.625; -603.000; -561.000
336.038;  -57.725; -735.000; -657.000
336.173; -102.025;-1206.000;-1194.000
336.308;    1.225; -116.000; -189.000
336.443;   33.600; -544.000; -634.000
336.577;  -79.175; -936.000; -787.000
336.712;   64.575;   -4.000;  -12.000
336.847;  -42.050; -724.000; -607.000
336.981;   69.450; -272.000; -208.000
337.116;  295.325;  615.000;  501.000
337.250;  139.100; -434.000; -421.000
337.385;  244.100; -297.000; -208.000
337.520;   83.825; -632.000; -603.000
337.654;  -51.650; -215.000; -126.000
337.789; -132.750; -989.000; -933.000
337.923;  -34.400; -104.000; -205.000
338.058;  -83.025; -673.000; -738.000
338.192;  -40.850; -611.000; -488.000
338.327;    0.525;  -18.000; -155.000
338.461;  -75.900; -299.000; -469.000
338.596;  -97.225; -780.000; -638.000
338.730; -101.750; -767.000; -803.000
338.865;   98.350;  -46.000; -140.000
338.999;  -50.075; -846.000; -702.000
339.134;  -20.150; -634.000; -536.000
339.268;    3.900; -741.000; -603.000
339.403;  342.875; -740.000; -775.000
339.537;  102.250; -894.000; -820.000
339.671; -113.750; -829.000; -813.000
339.806;  -67.650; -556.000; -512.000
339.940;    7.775; -261.000; -235.000
340.074; -107.150; -685.000; -510.000
340.209;  -47.400; -351.000; -230.000
340.343; -103.750; -517.000; -573.000
340.477;  161.750;  998.000; 1036.000
340.612;  -43.900;-1033.000; -900.000
340.746;  134.050; -199.000; -243.000
340.880;  -67.975; -924.000; -785.000
341.014;  -13.675;  -45.000; -154.000
341.149; -120.950; -756.000; -718.000
341.283; -110.175; -839.000; -754.000
341.417; -103.275;-1124.000; -938.000
341.551;  128.625; -768.000; -708.000
341.685;  -34.925; -633.000; -611.000
341.820;  -56.900; -562.000; -493.000
341.954;  -50.600; -218.000; -349.000
342.088; -164.550;-1102.000;-1019.000
342.222;   49.350;  565.000;  618.000
342.356;  -55.900; -395.000; -335.000
342.490; -108.800; -880.000; -841.000
342.624;  -34.400; -339.000; -242.000
342.758;   -6.925; -364.000; -312.000
342.892;  -64.375; -710.000; -585.000
343.026;  -27.450;  -58.000; -116.000
343.160;  -51.150; -426.000; -376.000
343.294;  -88.625; -474.000; -337.000
343.428;  -30.350; -488.000; -448.000
343.562;  -16.500; -172.000;  -23.000
343.696;  -42.650; -385.000; -314.000
343.830;  -16.725; -362.000; -356.000
343.964;   17.725; -231.000; -168.000
344.098;  881.800;  199.000;   70.000
344.232;  719.000; -266.000; -127.000
344.366;   83.100; -567.000; -453.000
344.500;   52.375; -665.000; -744.000
344.634;   21.350; -324.000; -164.000
344.768;  -17.975; -531.000; -341.000
344.902;   21.025;  278.000;  256.000
345.035;  -77.875; -556.000; -496.000
345.169; -129.650; -933.000; -656.000
345.303;  -23.850; -308.000; -482.000
345.437;  -67.800; -826.000; -717.000
345.571;  -74.700; -675.000; -594.000
345.704;  -74.275; -309.000; -532.000
345.838;  -17.575; -331.000; -284.000
345.972;  -33.450; -543.000; -495.000
346.106;  158.725; -179.000; -190.000
346.239;  423.550; -312.000; -243.000
346.373;    5.750; -343.000; -302.000
346.507; -148.900; -950.000; -962.000
346.640;  145.225;  -30.000;   13.000
346.774;  -60.075; -650.000; -797.000
346.908;   -2.575; -138.000;  -11.000
347.041; -100.900; -646.000; -593.000
347.175;    5.775;  259.000;   27.000
347.309;  -75.625; -698.000; -628.000
347.442; -100.675; -883.000; -732.000
347.576;  270.200;  670.000;  668.000
347.709;  193.425; -123.000;  -52.000
347.843; -101.200; -933.000; -825.000
347.976;   29.925;  235.000;  294.000
348.110; -173.875;-1268.000;-1186.000
348.243; -105.425; -679.000; -772.000
348.377;   -4.225;  -26.000;   60.000
348.510;   63.700;  403.000;  540.000
348.644;  -38.775;  -37.000; -159.000
348.777;   10.175;  180.000;  191.000
348.911;  -47.850; -142.000; -112.000
349.044;  163.450;  471.000;  448.000
349.178;  118.175;-1069.000;-1006.000
349.311;  109.950;  141.000;  255.000
349.444;   -6.175; -927.000; -813.000
349.578;  -17.575; -347.000; -200.000
349.711; -109.025; -959.000; -862.000
349.845;   -3.425; -661.000; -591.000
349.978; -146.025;-1224.000;-1137.000
350.111;  -81.450; -546.000; -612.000
350.244;  -86.200; -596.000; -700.000
350.378;    5.875; -392.000; -393.000
350.511;  -60.575; -393.000; -426.000
350.644; -107.800; -808.000; -806.000
350.778;   10.275;  168.000;  104.000
350.911;    4.075;  134.000;  140.000
351.044;  -90.000; -685.000; -615.000
351.177;  -34.975; -321.000; -281.000
351.310;  -24.250;    3.000; -131.000
351.444;  -84.325; -888.000; -788.000
351.577;  105.350;  140.000;   90.000
351.710;  118.700;  593.000;  417.000
351.843;  -35.350; -165.000;  -77.000
351.976;    0.775;  149.000;  -79.000
352.109; -106.950; -621.000; -612.000
352.242;  -20.900; -464.000; -419.000
352.376;  -78.025; -580.000; -636.000
352.509;  162.550; -437.000; -356.000
352.642;   -6.425; -654.000; -604.000
352.775;   53.900; -141.000;  -98.000
352.908; -118.100; -933.000; -904.000
353.041;  -96.925; -814.000; -824.000
353.174;  -63.225; -551.000; -424.000
353.307;  -80.950; -753.000; -764.000
353.440;   69.075;  541.000;  453.000
353.573; -118.400; -957.000;-1008.000
353.706;  -56.550; -384.000; -558.000
353.839;   -7.550; -264.000; -220.000
353.971;  -94.700; -657.000; -512.000
354.104;  -85.100; -896.000; -835.000
354.237;  -31.075; -627.000; -662.000
354.370;  -93.525; -846.000; -879.000
354.503; -193.125;-1231.000;-1308.000
354.636;  -40.400; -529.000; -348.000
354.769; -144.225; -937.000; -860.000
354.902;  -13.025; -230.000; -139.000
355.034;  -10.950; -164.000; -220.000
355.167;  -10.050; -262.000; -162.000
355.300;  -93.300;-1061.000; -880.000
355.433;  975.000;  -71.000;  -14.000
355.565; 1462.125; -402.000; -384.000
355.698;  379.675; -356.000; -296.000
355.831;  -12.600; -882.000; -801.000
355.964;   62.450; -285.000; -170.000
356.096;  -88.475; -856.000; -843.000
356.229;   11.800; -523.000; -530.000
356.362;  307.200; -373.000; -266.000
356.494;  601.425; -229.000; -162.000
356.627;  458.350;  269.000;  377.000
356.760;  672.825;  120.000;   53.000
356.892;  942.200; -286.000; -601.000
357.025;  645.350;  403.000;  389.000
357.157;  572.625; -167.000; -179.000
357.290;  655.425; -856.000; -713.000
357.423;  194.425; -667.000; -556.000
357.555;  115.725; -217.000; -228.000
357.688;  126.350; -483.000; -364.000
357.820;  450.200; -870.000; -877.000
357.953; 3626.550; -563.000; -589.000
358.085;  776.375; -632.000; -612.000
358.218; 1087.825;-1131.000; -932.000
358.350;  186.450;  -58.000;  312.000
358.483; -122.325;-1300.000;-1187.000
358.615;  -23.175;-1182.000;-1078.000
358.747;  -77.350;-1187.000;-1058.000
358.880;   15.175; -810.000; -744.000
359.012;  -13.050; -376.000; -202.000
359.145;  -39.300; -480.000; -511.000
359.277;   53.350; -962.000; -913.000
359.409; 2962.350;  536.000;  231.000
359.542;  768.150; -738.000; -688.000
359.674;   60.875;   46.000;   13.000
359.806;  -69.625; -565.000; -438.000
359.939;  -51.050; -617.000; -516.000
360.071;   -6.050; -583.000; -579.000
360.203;  -19.825; -411.000; -364.000
360.335;   35.175;  164.000;  -16.000
360.468;  185.550; -249.000; -307.000
360.600; 2387.425; -547.000; -454.000
360.732; 2786.875; -546.000; -423.000
360.864;  381.725;-1216.000;-1044.000
360.996;  271.975; -516.000; -554.000
361.129;   38.125; -389.000; -598.000
361.261;   21.950;  110.000; -113.000
361.393;  -29.000; -252.000; -214.000
361.525;   30.950;   94.000;  244.000
361.657;  -51.300; -821.000; -703.000
361.789;   14.250; -139.000; -155.000
361.921;  209.175; -642.000; -593.000
362.053;  256.450;  524.000;  541.000
362.185;   37.725;  288.000;   72.000
362.318;  -81.600; -709.000; -705.000
362.450;  108.850;  294.000;  444.000
362.582;  102.775; -913.000; -870.000
362.714;  -51.025; -353.000; -332.000
362.846;  -77.800; -606.000; -490.000
362.978; -142.575; -941.000; -811.000
363.109;   42.700; -161.000; -260.000
363.241;  401.375; -739.000; -749.000
363.373;  432.200; -649.000; -564.000
363.505;  644.850; -186.000;  -91.000
363.637;  144.900; -787.000; -601.000
363.769; -126.675;-1067.000;-1080.000
363.901;  -65.000; -596.000; -654.000
364.033; -127.250;-1103.000;-1062.000
364.165;    6.025; -283.000; -283.000
364.296;   73.525; -316.000; -177.000
364.428;   75.425;-1344.000;-1220.000
364.560;  -74.700; -679.000; -661.000
364.692;  -64.950; -738.000; -835.000
364.824;  259.075; -588.000; -456.000
364.955;  427.650; -402.000; -564.000
365.087;  924.375;-1097.000; -852.000
365.219;   12.725; -686.000; -816.000
365.351;  -79.000; -526.000; -572.000
365.482;   54.750;  300.000;  240.000
365.614;  -43.625; -402.000; -314.000
365.746;  -92.700; -729.000; -752.000
365.877; -100.800; -706.000; -672.000
366.009;  263.475;  -35.000;  -62.000
366.141;  -89.275;-1249.000;-1134.000
366.272;  -98.925; -803.000; -719.000
366.404; -115.650;-1005.000; -874.000
366.535;  -19.625; -139.000;  -12.000
366.667; -108.275; -644.000; -649.000
366.799;   46.400;  353.000;  203.000
366.930; -123.350; -862.000; -996.000
367.062;  124.550; -639.000; -613.000
367.193;  144.875; -872.000; -842.000
367.325;  -64.225; -580.000; -684.000
367.456;   68.975; -246.000;   31.000
367.588;  156.225; -371.000; -318.000
367.719;   28.000;  -44.000;  -45.000
367.851;  -18.300; -222.000; -241.000
367.982;  -65.125; -875.000; -732.000
368.113;  105.900; -475.000; -358.000
368.245; -128.100; -960.000; -841.000
368.376;  -28.925; -254.000; -302.000
368.508;  -42.650; -188.000; -263.000
368.639; -134.200;-1166.000;-1034.000
368.770;  -15.650; -670.000; -589.000
368.902;  -58.350; -836.000; -926.000
369.033; -109.475; -906.000; -855.000
369.164;  -38.975; -720.000; -653.000
369.296; -116.375; -452.000; -601.000
369.427;    1.050; -209.000; -144.000
369.558;  -60.300; -593.000; -377.000
369.689;  -92.850; -721.000; -569.000
369.821; -137.825; -951.000; -845.000
369.952;  -11.725;   42.000; -108.000
370.083;  -64.275; -229.000; -108.000
370.214;  -87.375; -735.000; -650.000
370.345;   -4.275;   65.000;   81.000
370.477;  -83.650; -810.000; -790.000
370.608;  206.525; -328.000; -264.000
370.739;  -56.725;-1233.000;-1292.000
370.870;  -56.000;-1102.000; -923.000
371.001;   89.350; -378.000; -467.000
371.132;  -78.750; -754.000; -735.000
371.263;  -22.350;  -42.000; -148.000
371.394; -146.050; -841.000; -748.000
371.525;   31.300;  345.000;  225.000
371.657;  -91.575; -808.000; -670.000
371.788;   79.300;  103.000;  199.000
371.919;  166.275; -384.000; -304.000
372.050; 3523.025;  -91.000; -156.000
372.181; 1027.075; -188.000; -294.000
372.311;  362.225;   42.000; -127.000
372.442;    8.275; -457.000; -451.000
372.573;  -37.575; -444.000; -340.000
372.704; -127.175;-1008.000; -980.000
372.835;   68.475; -228.000; -289.000
372.966;  -57.375; -646.000; -554.000
373.097;  -59.650; -575.000; -711.000
373.228;  -50.000; -717.000; -542.000
373.359;  115.775; -824.000; -536.000
373.490;  923.950; -881.000; -727.000
373.620; 1085.850;-1001.000; -803.000
373.751; 1712.100; -332.000; -396.000
373.882;  744.225; -663.000; -733.000
374.013;   44.275; -449.000; -262.000
374.143;  -48.700; -581.000; -659.000
374.274; -107.750; -987.000; -908.000
374.405;  159.850; -388.000; -276.000
374.536;  425.825; -526.000; -387.000
374.666; 1081.850; -759.000; -807.000
374.797;  208.125; -817.000; -868.000
374.928;  823.600; -710.000; -560.000
375.058;  821.325; -535.000; -500.000
375.189;   76.450;  -59.000;  -93.000
375.320; -109.950; -928.000;-1034.000
375.450;  -40.100; -625.000; -616.000
375.581;  -65.700; -526.000; -436.000
375.712;  -31.750; -574.000; -250.000
375.842;  274.250; -438.000; -415.000
375.973;  190.825; -554.000; -513.000
376.103;  -33.825; -665.000; -648.000
376.234;  -86.500; -531.000; -552.000
376.364;  -44.550; -944.000; -867.000
376.495;  304.100;  925.000;  529.000
376.625;   -7.125; -472.000; -485.000
376.756;   52.675; -709.000; -678.000
376.886;  -86.275;-1178.000;-1026.000
377.017;   54.750;-1048.000;-1061.000
377.147;  340.425; -786.000; -782.000
377.278;   76.825;  174.000;  228.000
377.408; -128.675; -801.000; -815.000
377.538; -105.400; -707.000; -693.000
377.669;  -82.475; -537.000; -613.000
377.799;  -78.275; -645.000; -635.000
377.929;  -62.675; -610.000; -428.000
378.060; -138.725; -781.000; -847.000
378.190;  -58.150; -726.000; -531.000
378.320;  -36.425; -401.000; -406.000
378.451;  -17.700; -131.000;  -22.000
378.581;    3.600;  -67.000; -110.000
378.711;  141.550; 1035.000;  866.000
378.841;  -20.725; -533.000; -675.000
378.972;  -72.275; -871.000; -751.000
379.102;   -1.150; -652.000; -579.000
379.232;  -25.625; -126.000;  -73.000
379.362; -105.325;-1001.000; -885.000
379.492;   -1.425; -373.000; -424.000
379.623;  103.525;    0.000;  111.000
379.753; -106.425;-1107.000; -974.000
379.883;  182.425;   59.000;  156.000
380.013;  -21.150;-1081.000;-1017.000
380.143;  -93.100;-1097.000;-1056.000
380.273; -107.825; -985.000; -861.000
380.403;    0.975; -344.000; -257.000
380.533;  -26.050; -651.000; -664.000
380.663;   79.850;  173.000;  128.000
380.793;  -98.625;-1027.000;-1074.000
380.923;  -16.800; -103.000;  -34.000
381.053; -101.975; -613.000; -623.000
381.183;  -17.800; -106.000; -248.000
381.313;   12.075; -656.000; -470.000
381.443;   40.750; -692.000; -473.000
381.573;  177.725; -402.000; -409.000
381.703;  243.825;-1249.000;-1095.000
381.833; -145.475;-1454.000;-1336.000
381.963;   98.750; -134.000;  -87.000
382.093; 1358.650; -925.000; -909.000
382.223;  403.050; -713.000; -602.000
382.353;  -31.825; -801.000; -608.000
382.482;  363.600;-1091.000; -964.000
382.612;  724.000; -872.000; -644.000
382.742;  396.100; -695.000; -622.000
382.872;  253.775; -565.000; -551.000
383.002;   62.975;  347.000; -132.000
383.131;  -17.550; -226.000; -160.000
383.261;  -26.875; -706.000; -768.000
383.391;  291.200; -552.000; -377.000
383.521; 3210.675;  451.000;  263.000
383.650;  724.650; -947.000; -904.000
383.780;  -25.750; -783.000; -656.000
383.910;  106.975;  880.000;  802.000
384.039;    9.725; -794.000; -656.000
384.169;  207.575;-1205.000;-1017.000
384.299;  -27.375; -650.000; -662.000
384.428;  -89.525; -764.000; -680.000
384.558;  -57.250; -308.000; -275.000
384.687;  -50.875; -414.000; -334.000
384.817;   17.175;   75.000;   -2.000
384.947;   25.025; -234.000; -141.000
385.076;  293.025;  982.000;  912.000
385.206;  105.225;  369.000;  480.000
385.335;  -37.500; -549.000; -417.000
385.465;  -75.250; -655.000; -663.000
385.594;  109.525;  -53.000;  -44.000
385.724;  386.725; -868.000; -838.000
385.853;  115.925; -296.000; -270.000
385.982; 1331.600; -743.000; -787.000
386.112; 2075.550;-1052.000; -871.000
386.241;  124.475; -307.000; -312.000
386.371;   35.475; -174.000;  -87.000
386.500;    5.725; -825.000; -789.000
386.629;   24.900; -874.000; -817.000
386.759;   75.100;  -43.000;   68.000
386.888;    0.725; -170.000; -250.000
387.017;  -89.675; -648.000; -620.000
387.147;  -96.450; -771.000; -798.000
387.276;  -11.450; -410.000; -397.000
387.405;   15.375; -398.000; -342.000
387.535;  -32.050; -452.000; -361.000
387.664;  -58.700; -692.000; -620.000
387.793;   61.175; -198.000; -113.000
387.922;  496.100;  255.000;  200.000
388.052;   20.400; -576.000; -423.000
388.181;   17.375; -342.000; -472.000
388.310;   -0.175; -889.000; -710.000
388.439;  -47.200; -749.000; -742.000
388.568;  175.475;  365.000;  244.000
388.697;  993.325; -756.000; -653.000
388.826;  198.325; -768.000; -666.000
388.956;   50.725; -285.000; -307.000
389.085;  -29.200; -347.000; -287.000
389.214; -112.775; -842.000; -872.000
389.343;  -75.825; -645.000; -413.000
389.472;  388.525;  126.000;  149.000
389.601;  526.025;   91.000;    0.000
389.730;    7.800; -568.000; -687.000
389.859;   63.225;  226.000;   46.000
389.988;  177.600; -423.000; -408.000
390.117;  130.425; -168.000; -146.000
390.246;   -4.200; -331.000; -320.000
390.375;   88.550; -673.000; -626.000
390.504;  -72.200; -703.000; -621.000
390.633;  -99.850; -672.000; -726.000
390.761;  -73.150; -732.000; -645.000
390.890;   14.600;   -4.000; -130.000
391.019;  -28.950; -421.000; -441.000
391.148; -133.275; -826.000; -855.000
391.277;  -73.850; -576.000; -493.000
391.406;  -81.550; -821.000; -805.000
391.534;   22.900;  574.000; -301.000
391.663;  -73.875; -583.000; -645.000
391.792;  -81.050; -673.000; -701.000
391.921;   75.475;   -3.000;   15.000
392.050;  171.950; -287.000; -228.000
392.178;  -57.650;-1206.000;-1061.000
392.307;  136.375; -758.000; -712.000
392.436;   54.300; -427.000; -641.000
392.564;   21.425;  166.000;   -6.000
392.693; -100.300; -860.000; -682.000
392.822;  192.925; -529.000; -534.000
392.950;   77.575; -880.000; -714.000
393.079;  304.025; -188.000; -328.000
393.208;   15.850; -488.000; -511.000
393.336;  -13.325; -170.000; -145.000
393.465;  -44.650; -317.000; -199.000
393.593;    0.300;   62.000;   79.000
393.722; -162.950;-1121.000; -916.000
393.850;  -31.800; -188.000;  -61.000
393.979; -160.875; -926.000; -805.000
394.107;  -71.500; -517.000; -537.000
394.236;  -30.400; -570.000; -507.000
394.364;  187.375;  383.000;  206.000
394.493;  239.025; -911.000; -767.000
394.621;  -20.600; -955.000; -916.000
394.750;  712.375; -873.000; -923.000
394.878; 2977.675; -247.000; -149.000
395.007; 3963.150; -721.000; -807.000
395.135;  294.750; -790.000; -721.000
395.263;  -85.050;-1038.000;-1040.000
395.392;   19.275;  -25.000; -107.000
395.520; -148.275; -818.000; -679.000
395.648; -100.025; -865.000; -915.000
395.777;  -26.300; -366.000; -405.000
395.905;  -49.975; -449.000; -564.000
396.033;    3.075;  217.000;  172.000
396.162;  416.650; -399.000; -453.000
396.290;  357.175;  -17.000;   -2.000
396.418;   85.400; -555.000; -514.000
396.546;  -85.525; -571.000; -466.000
396.674; -108.200; -850.000; -878.000
396.803;    0.025;  -72.000;  -23.000
396.931;   91.650; -179.000; -199.000
397.059;   20.850;-1026.000; -989.000
397.187; -120.000;-1026.000; -975.000
397.315; -130.925; -884.000; -649.000
397.443;  -83.950; -592.000; -443.000
397.572;  -89.450; -578.000; -424.000
397.700;  -26.150; -607.000; -614.000
397.828;   23.000;  120.000;  -90.000
397.956;  -40.125; -508.000; -478.000
398.084;  -65.025; -767.000; -626.000
398.212;   18.575;  137.000;  124.000
398.340;   -8.525;  -56.000;  159.000
398.468;   23.125; -390.000; -169.000
398.596; -142.275; -993.000; -953.000
398.724; -127.450; -762.000; -767.000
398.852; -166.400;-1024.000; -976.000
398.980;  -67.600; -560.000; -560.000
399.108;  -60.750; -982.000; -735.000
399.236;   36.425;   13.000;    8.000
399.363;   17.625;  222.000;  196.000
399.491;  -55.675; -404.000; -398.000
399.619; -141.675; -829.000; -800.000
399.747; -104.225; -859.000; -771.000
399.875;   71.100;  220.000;  234.000
400.003;  -59.625; -359.000; -284.000
400.130;  -89.625; -421.000; -341.000
400.258;  -27.150;  -83.000;   38.000
400.386;  -67.000; -352.000; -168.000
400.514;  -50.275; -526.000; -587.000
400.641; -102.350; -928.000; -802.000
400.769; -139.825; -979.000; -888.000
400.897; -113.125; -838.000; -793.000
401.025;  -18.125; -166.000; -152.000
401.152;  -11.350;  220.000;   38.000
401.280;  -75.600; -430.000; -429.000
401.408; -123.900; -712.000; -576.000
401.535; -104.175; -735.000; -758.000
401.663; -207.575;-1134.000;-1054.000
401.790;  -89.375; -514.000; -525.000
401.918;   35.700;  436.000;  405.000
402.046;  -29.675;  134.000;  122.000
402.173;  -41.875;  -18.000;    7.000
402.301;  -71.575; -519.000; -397.000
402.428;   29.650;  528.000;  383.000
402.556; -144.800;-1188.000; -913.000
402.683;  -27.825;  -20.000;   -1.000
402.811;  -27.100;  -37.000; -206.000
402.938;   -6.700;   20.000;   27.000
403.066;  190.400; -574.000; -558.000
403.193;  330.525;  299.000;  239.000
403.321;  251.550; -396.000; -574.000
403.448;  316.200;   83.000;   27.000
403.575;  135.625;  -90.000;  -46.000
403.703;  -95.800; -732.000; -557.000
403.830;  -60.925; -531.000; -496.000
403.957; -145.525;-1117.000;-1023.000
404.085;   12.875;  -61.000; -172.000
404.212;  102.825;  -50.000;   63.000
404.339;  278.325; -566.000; -306.000
404.467; 5885.575; -612.000; -524.000
404.594; 3751.525; -287.000; -227.000
404.721;  826.975; -869.000; -764.000
404.848;   79.150; -113.000; -202.000
404.976;  -99.750; -856.000; -783.000
405.103;  -10.925;  -14.000;  -82.000
405.230;    2.425;  190.000;  226.000
405.357;   25.325;  117.000;   44.000
405.484;  263.250;  -49.000;    5.000
405.612;   50.050; -548.000; -563.000
405.739;  -50.950; -488.000; -243.000
405.866;   74.775;  669.000;  385.000
405.993;  -56.475; -398.000; -102.000
406.120; -134.850; -801.000; -887.000
406.247;  -61.500; -323.000; -342.000
406.374;  444.050;  540.000;  629.000
406.501;   89.850; -632.000; -702.000
406.628;  -78.425; -621.000; -589.000
406.755;  -97.150; -803.000; -620.000
406.882;  -45.675; -228.000; -277.000
407.009; -104.050; -719.000; -628.000
407.136;   51.750; -480.000; -401.000
407.263;  117.650; -939.000; -829.000
407.390;  -78.950; -692.000; -614.000
407.517; -180.300;-1139.000;-1187.000
407.644;  -60.625; -332.000; -256.000
407.771;  -73.125; -249.000; -287.000
407.898;   27.900;  168.000;  328.000
408.025;  -62.675; -421.000; -313.000
408.151;  -17.725;   82.000;  153.000
408.278;  -72.075; -267.000; -216.000
408.405; -124.225; -931.000; -899.000
408.532;  -72.625; -549.000; -542.000
408.659; -115.625; -677.000; -648.000
408.785; -209.025;-1298.000;-1170.000
408.912;  -73.950; -412.000; -296.000
409.039; -118.375; -610.000; -686.000
409.166; -110.325; -591.000; -555.000
409.292; -112.400; -571.000; -534.000
409.419; -130.775; -665.000; -649.000
409.546;  -83.400; -431.000; -192.000
409.672; -103.375; -713.000; -545.000
409.799;  -42.725;  -36.000;   34.000
409.926;  -38.950; -180.000; -179.000
410.052; -179.125;-1127.000;-1091.000
410.179;  -70.850; -368.000; -392.000
410.305;  -82.350; -375.000; -493.000
410.432;  -66.025; -220.000; -333.000
410.558;  -90.325; -305.000; -380.000
410.685; -106.950; -688.000; -431.000
410.812; -110.700; -409.000; -588.000
410.938; -137.100; -964.000; -808.000
411.065;  -91.625; -671.000; -645.000
411.191;  -28.350; -189.000; -174.000
411.317; -130.000; -823.000; -742.000
411.444;  -62.550; -317.000; -246.000
411.570;  -71.750; -339.000; -294.000
411.697; -138.875; -758.000; -752.000
411.823; -166.500; -989.000; -999.000
411.949;  -39.650;  -56.000;   17.000
412.076; -113.700; -539.000; -519.000
412.202; -122.750; -758.000; -757.000
412.329; -131.425; -798.000; -752.000
412.455; -111.425; -821.000; -657.000
412.581;  -32.600;  -15.000;  172.000
412.707;  -76.100; -540.000; -457.000
412.834;   16.300;  156.000;  219.000
412.960;  -80.075; -785.000; -784.000
413.086;  -95.500; -743.000; -701.000
413.212;  137.000;  604.000;  578.000
413.339;  -78.475; -685.000; -701.000
413.465;   -2.600; -364.000; -310.000
413.591;  -99.975; -757.000; -474.000
413.717;  -62.575; -358.000; -366.000
413.843; -153.125; -839.000; -861.000
413.969;  -67.850;  -47.000; -292.000
414.096; -113.400; -679.000; -679.000
414.222;   -1.425;  -33.000;   85.000
414.348;  -43.500; -652.000; -385.000
414.474;  101.475;   38.000;  -52.000
414.600;  -29.600; -126.000; -144.000
414.726;  -22.200;  -96.000;  -55.000
414.852;  -74.825; -365.000; -342.000
414.978;   30.700;  104.000;  -18.000
415.104;   33.625;   38.000;   80.000
415.230;   20.275; -329.000; -330.000
415.356;   35.400; -409.000; -514.000
415.482;  195.725;   13.000;  -35.000
415.608;  262.525; -247.000; -323.000
415.734;  983.375;   67.000;   38.000
415.860;20297.250; -875.000; -767.000
415.986;14204.500; -685.000; -607.000
416.111; 1185.400; -798.000; -652.000
416.237;  240.150; -424.000; -571.000
416.363; 1169.525; -765.000; -733.000
416.489; 4174.500; -324.000; -251.000
416.615;  426.675; -707.000; -742.000
416.741;  -19.125; -677.000; -784.000
416.866; -100.725; -673.000; -736.000
416.992; -121.650; -801.000; -818.000
417.118;   -9.250;  -41.000;  -80.000
417.244;  -67.175; -798.000; -531.000
417.369;  -86.525; -801.000; -612.000
417.495;  -10.300; -325.000; -254.000
417.621;  -80.900;-1015.000; -803.000
417.746;   -1.250; -579.000; -572.000
417.872;   50.825; -254.000; -144.000
417.998;   53.900; -515.000; -530.000
418.123; 1068.400;-1073.000; -845.000
418.249; 5421.350; -512.000; -601.000
418.374;  712.650; -916.000; -824.000
418.500;  109.025; -383.000; -482.000
418.626;  105.275;   70.000;  -59.000
418.751;   99.225; -549.000; -448.000
418.877;  196.725; -637.000; -643.000
419.002; 1876.650; -688.000; -560.000
419.128;12630.575; -930.000; -721.000
419.253; 2939.300; -967.000; -837.000
419.379;  402.875; -391.000; -338.000
419.504;  390.150;  325.000;  415.000
419.629;  508.825; -393.000; -212.000
419.755; 3678.475; -317.000; -254.000
419.880;21304.075;  -98.000;   67.000
420.006;11614.250; -280.000; -221.000
420.131;29417.875; -662.000; -775.000
420.256; 4100.350; -315.000; -316.000
420.382;  539.925; -665.000; -687.000
420.507;   75.475; -649.000; -778.000
420.632;  126.375; -337.000; -339.000
420.758;  232.250; -251.000; -425.000
420.883; -106.450; -876.000; -672.000
421.008; -105.575; -775.000; -619.000
421.133;  -85.750; -509.000; -467.000
421.259;  -54.725; -325.000; -259.000
421.384; -113.525; -834.000; -693.000
421.509;  -53.275;-1052.000; -862.000
421.634; 1110.750; -936.000; -820.000
421.759;  453.025; -359.000; -327.000
421.885;  -71.650; -717.000; -656.000
422.010;  -86.675; -673.000; -542.000
422.135; -136.725; -695.000; -727.000
422.260;   29.325;  340.000;  280.000
422.385;  -39.025;   12.000;  -98.000
422.510;    7.800;  151.000;  -26.000
422.635;   22.675;  -87.000;  -43.000
422.760;   79.525; -766.000; -791.000
422.885;   37.350;  -57.000;  -80.000
423.010;  -38.575; -112.000; -169.000
423.135; -104.275; -481.000; -561.000
423.260;   -5.450; -150.000; -245.000
423.385;   46.875;  476.000;  222.000
423.510;   25.475;   71.000;  -22.000
423.635;   69.775;  133.000;   45.000
423.760;   64.700;  383.000;  328.000
423.885;   47.100;  336.000;  391.000
424.010;   12.775;  -68.000;  -13.000
424.135;  -20.650;    5.000;  -33.000
424.259;  -91.625; -654.000; -457.000
424.384;  -62.775; -279.000; -272.000
424.509;  -22.350; -260.000; -186.000
424.634; -107.575; -761.000; -623.000
424.759;  -39.175; -688.000; -544.000
424.883;  -26.500; -506.000; -527.000
425.008;  154.125; -502.000; -410.000
425.133; 2045.850; -679.000; -653.000
425.258;  913.825; -517.000; -381.000
425.382; 1010.500; -867.000; -774.000
425.507; 2513.100; -487.000; -543.000
425.632;  413.350; -802.000; -663.000
425.756;  465.300; -256.000; -146.000
425.881; 6743.100; -831.000; -857.000
426.006;17799.750; -604.000; -355.000
426.130; 2664.600; -696.000; -508.000
426.255;  343.950; -611.000; -491.000
426.379;  155.825; -189.000; -577.000
426.504;  385.125;  660.000;  544.000
426.629; 4082.975; -519.000; -466.000
426.753; 2709.450;   64.000;  -46.000
426.878;  291.050; -252.000; -288.000
427.002;  180.575; -651.000; -668.000
427.127; 1600.550;  -35.000; -158.000
427.251;11515.300;  372.000;  401.000
427.375; 3153.350; -191.000; -173.000
427.500; 2207.650; -616.000; -610.000
427.624;  720.600; -234.000; -400.000
427.749;   77.950; -216.000; -225.000
427.873;  -48.675; -499.000; -412.000
427.997;  -35.775; -222.000; -230.000
428.122;   78.175;  795.000;  703.000
428.246;   80.600;  433.000;  434.000
428.371; -125.275; -869.000; -773.000
428.495;  -95.450; -624.000; -646.000
428.619;  -35.700; -186.000; -117.000
428.743;   23.000;   65.000;  132.000
428.868;   20.200; -732.000; -643.000
428.992; 1384.500; -219.000; -326.000
429.116;  542.825; -329.000; -357.000
429.240;  260.775;  419.000;  426.000
429.365;  -36.975; -454.000; -574.000
429.489;  -48.875; -638.000; -647.000
429.613;   22.475; -236.000; -177.000
429.737;   37.800; -563.000; -432.000
429.861;  274.550; -247.000; -133.000
429.985; 5674.450; -425.000; -305.000
430.109; 6072.075; -770.000; -908.000
430.234;  676.450;   76.000;  -50.000
430.358;   49.350; -250.000; -160.000
430.482;  -77.900; -672.000; -564.000
430.606;  -79.125; -655.000; -375.000
430.730;   13.075; -437.000; -388.000
430.854;   94.175; -909.000; -835.000
430.978;  -74.725; -795.000; -764.000
431.102;  -99.800; -499.000; -422.000
431.226; -110.625; -874.000; -815.000
431.350;   18.300;  345.000;  422.000
431.474;  -84.525; -661.000; -373.000
431.597; -165.650;-1060.000; -848.000
431.721;  -71.050; -276.000; -267.000
431.845; -148.775; -704.000; -472.000
431.969;  -87.225; -304.000; -349.000
432.093;  -89.325; -395.000; -317.000
432.217;  -17.100;   32.000;   82.000
432.341;  -98.250; -523.000; -518.000
432.464;    9.425;   96.000;   40.000
432.588;  184.925; -401.000; -329.000
432.712;   93.875;  -52.000;  -52.000
432.836;   33.375;  213.000;  263.000
432.959;  -11.450; -372.000; -311.000
433.083;   79.750;   11.000;    2.000
433.207;  379.175;  285.000;  930.000
433.330; 5175.575; -391.000; -200.000
433.454; 6185.175; -654.000; -638.000
433.578; 3590.875;  583.000;  278.000
433.701;  641.700; -623.000; -675.000
433.825;  129.075; -292.000; -299.000
433.949;  165.950;   28.000;  -72.000
434.072;   30.875; -410.000; -323.000
434.196;  -37.875; -309.000; -117.000
434.319; 3755.775;25482.000;25124.000
434.443;  723.200; -656.000; -603.000
434.566; 2676.850;  281.000;   62.000
434.690;  413.675; -637.000; -383.000
434.813;   36.525; -251.000; -173.000
434.937;  -79.825; -569.000; -696.000
435.060;  -56.725; -423.000; -332.000
435.184;  278.750; -492.000; -217.000
435.307;  143.425;  159.000;  102.000
435.431;  -15.825;  -40.000;   24.000
435.554;  -89.400; -399.000; -240.000
435.677;  -95.725; -350.000; -258.000
435.801;  -54.125;  -25.000;   49.000
435.924;  -24.100;    1.000;  -67.000
436.048; -124.175;-1019.000; -732.000
436.171;  -88.825; -240.000;  -66.000
436.294;  -26.400; -248.000; -229.000
436.417;   86.325; -963.000; -849.000
436.541;  -86.500; -814.000; -840.000
436.664;  -44.275; -242.000; -316.000
436.787;  -47.525;   13.000;  113.000
436.910;  -99.500; -792.000; -422.000
437.034;   -0.025;  142.000;  143.000
437.157;   48.725;  -11.000;    0.000
437.280;  -64.675; -392.000; -292.000
437.403;  -96.550; -982.000; -869.000
437.526;  584.525; -903.000; -865.000
437.649; 2161.175; -505.000; -332.000
437.772;  281.200; -692.000; -540.000
437.896;  106.675;  700.000;  544.000
438.019; -125.550; -758.000; -503.000
438.142;  -93.150; -596.000; -506.000
438.265;  -20.000; -639.000; -670.000
438.388;  525.200; -520.000; -410.000
438.511;   73.700; -597.000; -394.000
438.634;  -44.100; -247.000; -125.000
438.757; -124.000; -693.000; -619.000
438.880;  -22.800;  -34.000;  -57.000
439.003;  -84.700; -417.000; -437.000
439.126;  -77.000; -287.000; -167.000
439.248;  -62.725;  -98.000; -139.000
439.371;  -40.175;    9.000;  -53.000
439.494;   17.450;  510.000;  439.000
439.617;  -54.500;   65.000;  -88.000
439.740; -187.250; -968.000; -816.000
439.863; -148.500; -755.000; -595.000
439.986; -130.225; -476.000; -431.000
440.108;  -59.125; -161.000; -112.000
440.231; -160.800; -950.000; -836.000
440.354;  -43.400;  -64.000; -150.000
440.477;   18.550; -566.000; -542.000
440.599;  -22.450; -200.000; -225.000
440.722; -136.325; -709.000; -586.000
440.845;   62.350;  751.000;  928.000
440.968; -118.725; -415.000; -311.000
441.090;  -67.150; -199.000;  -33.000
441.213; -175.450;-1021.000; -825.000
441.336;  -51.650; -159.000;   -5.000
441.458;  -82.700; -549.000; -396.000
441.581;  -72.000; -628.000; -629.000
441.703;  -72.900; -152.000;   13.000
441.826; -105.250; -557.000; -400.000
441.948;  -56.275;   56.000;   51.000
442.071;   37.425;  555.000;  424.000
442.193; -119.850; -531.000; -485.000
442.316;   15.875;  152.000;   97.000
442.438;   51.375; -233.000;  -10.000
442.561;   66.950;  272.000;  262.000
442.683;  526.675; -809.000; -522.000
442.806; 1073.975;   -8.000;   74.000
442.928;   -4.200; -859.000; -604.000
443.051;  -73.375; -577.000; -373.000
443.173; -101.075; -341.000; -339.000
443.295;  -82.200; -263.000; -371.000
443.418;  -74.425; -321.000;  -29.000
443.540;   -9.050; -106.000;   -4.000
443.662; -128.275; -563.000; -465.000
443.785;  -16.925;  335.000;  199.000
443.907;  -94.050; -362.000; -208.000
444.029; -132.075; -767.000; -494.000
444.152; -148.250; -644.000; -554.000
444.274;  -36.150;  -18.000;  -24.000
444.396; -103.250; -461.000; -221.000
444.518; -153.600; -691.000; -454.000
444.640; -110.575; -268.000; -111.000
444.763;  -19.825;  388.000;  249.000
444.885; -111.800; -432.000; -392.000
445.007;  -32.250;   35.000;   86.000
445.129; -118.350; -610.000; -515.000
445.251; -107.200; -372.000; -439.000
445.373; -138.850; -537.000; -386.000
445.495;    3.100;  242.000;  350.000
445.617;   46.250;  853.000;  753.000
445.739;  -74.450; -215.000;  -97.000
445.861;  -32.400; -245.000; -112.000
445.984;  -32.650; -267.000; -101.000
446.105;  188.800; -418.000; -251.000
446.227;  568.975; -176.000;  -19.000
446.349;    1.025; -358.000; -249.000
446.471; -122.550; -615.000; -448.000
446.593;  -71.750; -316.000;   19.000
446.715;  -10.200;  -67.000;   41.000
446.837;   55.475;  697.000;  832.000
446.959; -107.650; -457.000; -478.000
447.081; -143.875; -628.000; -518.000
447.203;   50.650;  862.000;  834.000
447.325;  -75.475; -270.000;   42.000
447.446;    3.075;  286.000;  530.000
447.568; -157.400; -921.000; -803.000
447.690;  -77.675; -236.000; -245.000
447.812; -156.175; -798.000; -519.000
447.933;  -26.850;  155.000;  127.000
448.055;  -68.700; -306.000; -261.000
448.177;  147.100;   31.000;   79.000
448.299;   71.950; -935.000; -727.000
448.420;   27.400;  -25.000;  159.000
448.542;  -51.700;   -3.000;   33.000
448.664;  -26.900;  109.000;  322.000
448.785;  -48.850;  265.000;   83.000
448.907;  -90.075; -614.000; -353.000
449.028;  -47.925; -771.000; -471.000
449.150;   58.750;  492.000;  589.000
449.272; -191.375;-1044.000; -913.000
449.393;   36.375;  612.000;  694.000
449.515; -152.425; -634.000; -581.000
449.636;  -71.550; -264.000; -155.000
449.758;   71.575;  763.000;  622.000
449.879;  -95.625; -498.000; -396.000
450.001;  -85.875; -149.000;  -49.000
450.122;  -15.950;  -95.000;  162.000
450.244;  -31.500;   37.000;  364.000
450.365;  -92.200; -495.000; -301.000
450.486;  -27.950;   80.000;  268.000
450.608;    3.350;  393.000;  326.000
450.729;   62.875;  578.000;  645.000
450.850;    5.675; -574.000; -466.000
450.972;  766.350; -552.000; -389.000
451.093; 5014.900;  190.000;  588.000
451.214; 2086.850; -516.000; -337.000
451.336;  375.450;  773.000;  579.000
451.457;   65.800;  264.000;  393.000
451.578;  -36.625; -118.000;  -74.000
451.699; -128.375; -546.000; -540.000
451.821;  -67.900; -284.000;  -50.000
451.942;    7.450;  278.000;  285.000
452.063;   40.700;  228.000;  419.000
452.184;  562.875;  -54.000;  -49.000
452.305; 1080.775;  103.000;  170.000
452.427;  115.900; -549.000; -301.000
452.548;  -29.050;   23.000;   79.000
452.669;  -58.225; -257.000;  -89.000
452.790;  -39.775;    3.000;  -18.000
452.911;  -25.425;  195.000;  259.000
453.032;  -73.525; -289.000;  -60.000
453.153;  -53.350;  -29.000;   81.000
453.274;   58.050;  737.000;  868.000
453.395;  -49.925;  -51.000;  175.000
453.516;  126.675; 1317.000; 1388.000
453.637;  -74.500; -205.000; -150.000
453.758;  -60.325;   15.000;   69.000
453.879; -125.575; -462.000; -250.000
454.000;   58.750; 1086.000;  948.000
454.121; -107.850; -554.000; -326.000
454.242; -119.575; -599.000; -383.000
454.362;  -54.575;  -99.000;  114.000
454.483;  -52.050; -309.000; -229.000
454.604;   48.125;  512.000;  580.000
454.725; -130.025; -627.000; -555.000
454.846; -139.725; -474.000; -406.000
454.967;  -29.275;  230.000;  539.000
455.087;  -41.150;  179.000;  153.000
455.208;   29.425;  554.000;  856.000
455.329;  -59.700;  -22.000;   82.000
455.450;   38.425;  473.000;  633.000
455.570;  -96.175; -234.000; -211.000
455.691;  -42.850;  201.000;  407.000
455.812; -116.875; -270.000;  -92.000
455.932;  -72.975;  107.000;  -97.000
456.053;  -87.900;   36.000;   24.000
456.173; -116.175; -433.000; -355.000
456.294; -141.550; -476.000; -303.000
456.415;  -58.500;  -73.000;   70.000
456.535;  -46.150;  297.000;  273.000
456.656;  -29.150;  132.000;  240.000
456.776;  -77.225;    3.000;  298.000
456.897;  -11.800;  308.000;  513.000
457.017;  -86.825; -153.000;   -3.000
457.138; -105.650; -402.000; -249.000
457.258;  -27.750;  263.000;  224.000
457.379;  -11.900;  509.000;  521.000
457.499;  -30.875;  443.000;  432.000
457.620; -113.700; -407.000; -231.000
457.740;  -90.725; -132.000;  -11.000
457.860;  -65.300;   87.000;   44.000
457.981;  -62.325;  132.000;  124.000
458.101;  -77.575;  -89.000;   40.000
458.221;  -19.450;  336.000;  402.000
458.342;  -54.900;   -4.000;  -37.000
458.462;   12.700;  617.000;  352.000
458.582;  -47.500; -302.000; -294.000
458.703;   14.100;  303.000;  154.000
458.823;  -33.800;   22.000;  163.000
458.943;   10.375;  341.000;  467.000
459.063;  -28.100; 1124.000;  192.000
459.183;  -27.425;  328.000;  313.000
459.304;   -6.350;  315.000;  517.000
459.424;  -56.975; -246.000;  -89.000
459.544;  326.900;  388.000;  764.000
459.664;  808.775;  499.000;  506.000
459.784;  299.925; 1004.000; 1175.000
459.904;   63.100;  867.000;  744.000
460.024;   60.375;  867.000;  684.000
460.144;    6.425;  449.000;  554.000
460.264;    2.500;  515.000;  327.000
460.385;  -99.525; -145.000; -119.000
460.505;   31.125;  905.000;  858.000
460.625;  -96.675;  -17.000;  -68.000
460.745;  -19.200;  396.000;  541.000
460.864;  -46.900;  153.000;  469.000
460.984;    3.275;  499.000;  573.000
461.104;  143.875; 1656.000; 1775.000
461.224;   26.350;  657.000;  650.000
461.344;  -34.900;  431.000;  360.000
461.464;  -32.400;  258.000;  513.000
461.584;   -9.425;  283.000;  466.000
461.704;  -46.150;   58.000;  108.000
461.824;  -66.175;  238.000;  259.000
461.943;  -36.325;  191.000;  130.000
462.063;  -86.375;    2.000;  324.000
462.183;   24.325;  639.000;  717.000
462.303;  102.125; 1678.000; 1230.000
462.422;   24.550;  781.000;  840.000
462.542;  -39.200;  271.000;  391.000
462.662;   34.350;  353.000;  380.000
462.782;  237.850;  833.000;  572.000
462.901;  482.650;  545.000;  717.000
463.021;  286.350; 1702.000; 1638.000
463.141;   -7.550;  337.000;  770.000
463.260;  -23.725;  614.000;  474.000
463.380;    4.075;  902.000;  884.000
463.499;  -37.975;  342.000;  332.000
463.619;  -46.650;  581.000;  559.000
463.738;  101.125; 1644.000;  903.000
463.858;    2.250;  657.000;  811.000
463.978;  -37.125;  542.000;  396.000
464.097;   68.375;  921.000; 1114.000
464.217;  108.325; 1196.000; 1143.000
464.336;  121.150; 1068.000; 1130.000
464.455;  -41.925;  328.000;  659.000
464.575;   45.650;  597.000;  602.000
464.694;  164.775; 1204.000; 1179.000
464.814;  128.300; 1190.000; 1138.000
464.933;   57.950; 1095.000; 1027.000
465.052;   97.825; 1412.000; 1054.000
465.172;   85.025;  922.000;  799.000
465.291;  134.425; 1376.000; 1320.000
465.410;    2.700;  462.000;  735.000
465.530;  101.900; 1355.000; 1310.000
465.649;   59.150; 1209.000; 1273.000
465.768;  140.800; 1673.000; 1508.000
465.888;   43.975;  941.000; 1174.000
466.007;  100.125; 1335.000; 1440.000
466.126;  -10.325;  721.000;  641.000
466.245;   43.025; 1176.000; 1187.000
466.364;   21.450;  950.000; 1060.000
466.484;   57.875; 1024.000; 1213.000
466.603;   36.225; 1101.000; 1222.000
466.722;  108.800; 1490.000; 1769.000
466.841;   64.175; 1151.000; 1401.000
466.960;   57.975; 1069.000;  972.000
467.079;  131.750; 1971.000; 1786.000
467.198;   44.675; 1238.000; 1181.000
467.317;   98.975; 1768.000; 1162.000
467.436;   69.525; 1709.000; 1261.000
467.555;  124.850; 1796.000; 1746.000
467.674;   66.750; 1227.000; 1329.000
467.793;   38.925; 1376.000; 1374.000
467.912;   87.475; 1658.000; 1539.000
468.031;  133.675; 2038.000; 1930.000
468.150;  155.925; 1842.000; 1837.000
468.269;  182.475; 2313.000; 2090.000
468.388;  207.600; 2168.000; 2339.000
468.507;  252.075; 2884.000; 2903.000
468.626;  223.225; 2555.000; 2541.000
468.744;  140.375; 2018.000; 2174.000
468.863;  201.800; 2312.000; 2523.000
468.982;   86.975; 1503.000; 1555.000
469.101;  216.400; 2788.000; 2692.000
469.220;  157.900; 2333.000; 2176.000
469.338;  252.450; 2935.000; 3051.000
469.457;  202.400; 2719.000; 2545.000
469.576;  364.150; 3953.000; 3784.000
469.695;  229.700; 2877.000; 3066.000
469.813;  430.100; 4148.000; 4192.000
469.932;  400.700; 4255.000; 4485.000
470.051;  421.775; 4075.000; 4161.000
470.169;  865.475; 4470.000; 4338.000
470.288; 1470.725; 4700.000; 4809.000
470.406;  853.750; 5059.000; 5194.000
470.525;  651.375; 6101.000; 5787.000
470.644;  646.625; 6847.000; 6794.000
470.762;  805.050; 8397.000; 7873.000
470.881;  918.050; 8651.000; 8464.000
470.999; 1046.975; 9685.000; 9151.000
471.118; 1095.950;11174.000;10711.000

