
Integration time [ms]: 100.000
Averaging Nr. [scans]: 40
Smoothing Nr. [pixels]: 0
Data measured with spectrometer [name]: 2101012U2
Wave   ;Sample   ;Dark     ;Reference
[nm]   ;[counts] ;[counts] ;[counts] 

197.733;   51.800;  516.000;  404.000
197.879;  -83.850; -610.000; -634.000
198.025;  -45.700; -475.000; -420.000
198.171;  -68.875; -602.000; -612.000
198.317;  -36.925; -401.000; -316.000
198.463;  -54.400; -655.000; -404.000
198.609;   19.550;  181.000; -137.000
198.755;  -85.150; -644.000; -410.000
198.901;  -61.725; -505.000; -424.000
199.047;  -62.175; -615.000; -488.000
199.193;  -40.775; -230.000; -468.000
199.339;  -35.725; -222.000; -369.000
199.485;   32.175;  330.000;  271.000
199.631;   18.300;  227.000;  310.000
199.777;  -57.425; -466.000; -398.000
199.923;  -47.125; -610.000; -424.000
200.069;   -2.600; -141.000;  -58.000
200.215;   51.325;  128.000;  453.000
200.361;   40.775;  243.000;  477.000
200.507;  -53.050; -600.000; -373.000
200.653;  -14.325; -371.000; -194.000
200.798;  -40.125; -215.000; -125.000
200.944;  -10.975; -146.000;  -41.000
201.090;   37.725;   61.000;  222.000
201.236;   -7.000; -116.000; -158.000
201.382;  122.250;  874.000;  903.000
201.528;    6.200;  -58.000;  -48.000
201.674;  -50.975; -386.000; -293.000
201.819;  -70.550; -540.000; -439.000
201.965;  -79.250; -699.000; -447.000
202.111;  -24.000; -273.000; -226.000
202.257;  -23.050; -250.000; -238.000
202.402;   -4.000;   13.000;  -36.000
202.548;  -28.125; -169.000; -116.000
202.694;   67.875;  410.000; -183.000
202.840;  -73.000; -603.000; -531.000
202.985;  -88.625; -681.000; -639.000
203.131; -116.075; -832.000; -666.000
203.277;  -22.825; -199.000; -262.000
203.423;  -54.325; -434.000; -520.000
203.568;  -38.425; -462.000; -237.000
203.714;  -64.575; -535.000; -542.000
203.860;  -82.625; -682.000; -641.000
204.005;   26.625;  112.000;  167.000
204.151;   70.350;  561.000;  556.000
204.296;  -40.075; -354.000; -221.000
204.442;  -67.100; -600.000; -547.000
204.588;  -73.000; -592.000; -579.000
204.733;   15.500;  178.000;  168.000
204.879; -131.600;-1018.000; -822.000
205.025;   18.025;  -99.000;  126.000
205.170;   -0.675;  -17.000;   94.000
205.316;   63.700;  438.000;  661.000
205.461;  -86.525; -698.000; -554.000
205.607;   78.125;  609.000;  665.000
205.752;  -72.600; -626.000; -551.000
205.898;  -57.500; -501.000; -391.000
206.043;  -48.625; -578.000; -506.000
206.189;  -47.775; -243.000; -285.000
206.334;   64.825;  554.000;  606.000
206.480;   86.250;  409.000;  239.000
206.625;  -78.925; -529.000; -552.000
206.771;  -51.875; -451.000; -373.000
206.916;  -37.775; -210.000; -537.000
207.062;  -86.425; -545.000; -591.000
207.207;  -70.875; -546.000; -443.000
207.353;   49.400;  185.000;  460.000
207.498;   12.675;  196.000;   85.000
207.643;  -55.500; -501.000; -370.000
207.789; -121.175;-1069.000; -910.000
207.934; -105.200; -665.000; -713.000
208.080;  -16.775; -154.000;   66.000
208.225;  -23.150;  -22.000;  -57.000
208.370;  -87.750; -727.000; -619.000
208.516;  -79.325; -741.000; -487.000
208.661;  -25.425; -127.000;  -69.000
208.806;  -26.075; -165.000; -171.000
208.952; -117.125;-1044.000; -731.000
209.097;   74.650;  378.000;  349.000
209.242;  -39.375; -307.000; -382.000
209.387;   64.900;  392.000;  350.000
209.533;  -60.650; -321.000; -350.000
209.678;   68.600;  472.000;  543.000
209.823;  -49.375; -408.000; -310.000
209.969; -108.575; -860.000; -757.000
210.114;  -92.600; -907.000; -719.000
210.259; -118.575; -939.000; -889.000
210.404;    0.525; -171.000;  103.000
210.549;    4.850;  108.000;    3.000
210.695;  -11.575;   -3.000;  -95.000
210.840;   33.550;   94.000;   67.000
210.985;  -72.300; -484.000; -303.000
211.130;   62.250;  268.000;  406.000
211.275;   12.850;  207.000;  199.000
211.420;  -57.300; -300.000; -289.000
211.566;  -70.075; -536.000; -489.000
211.711;   19.075;  218.000;  157.000
211.856;  -68.550; -545.000; -519.000
212.001;   -0.450;  151.000;   44.000
212.146;   20.225;  153.000;   49.000
212.291;  -26.650; -210.000; -186.000
212.436;  -25.225; -280.000;   -6.000
212.581;  -85.850; -685.000; -653.000
212.726;  -67.425; -487.000; -538.000
212.871;  -54.750; -552.000; -217.000
213.016; -145.050;-1172.000;-1029.000
213.161;   43.200;  406.000;  291.000
213.306;  -69.025; -435.000; -577.000
213.451;  -93.725; -778.000; -689.000
213.596;  -40.575; -455.000; -347.000
213.741;  -64.125; -448.000; -538.000
213.886;  -81.575; -498.000; -517.000
214.031;  -31.500; -294.000; -124.000
214.176;  -54.775; -408.000; -341.000
214.321;  -27.800; -296.000; -157.000
214.466;  -22.175; -163.000;  -43.000
214.611;    2.825;  -61.000;  -10.000
214.756; -128.600; -948.000; -858.000
214.901;  -22.300; -388.000; -226.000
215.046; -103.725; -797.000; -825.000
215.191;    6.350;  128.000;   35.000
215.336;   -6.375; -157.000;  -19.000
215.480;  -76.725; -684.000; -505.000
215.625;  -17.200; -175.000;  -19.000
215.770;  -97.800; -757.000; -662.000
215.915;  -24.400;   -5.000;  -97.000
216.060;   -1.400; -113.000;  -21.000
216.205; -121.225; -731.000; -779.000
216.349;  -73.100; -470.000; -533.000
216.494; -127.100; -939.000; -867.000
216.639; -126.700; -823.000; -888.000
216.784;  -93.350; -577.000; -525.000
216.929;   52.925;  392.000;  281.000
217.073;  -13.375; -244.000;  -31.000
217.218;   -7.100;   78.000;  -47.000
217.363;  -88.325; -656.000; -618.000
217.507;  -80.150; -623.000; -588.000
217.652; -122.100; -845.000; -874.000
217.797;  -94.775; -708.000; -659.000
217.942; -120.175; -856.000; -720.000
218.086;   64.850;  608.000;  539.000
218.231;  -16.175; -174.000;  -26.000
218.376;  -30.375; -337.000; -229.000
218.520;    3.850;  -41.000;   96.000
218.665;  -37.775; -338.000; -204.000
218.810;  -43.875; -275.000; -233.000
218.954;   25.750;  201.000;   35.000
219.099; -115.400; -713.000; -963.000
219.243;  -65.775; -589.000; -554.000
219.388;  -23.600; -264.000; -136.000
219.532;  -18.375; -116.000; -116.000
219.677;  -75.525; -564.000; -521.000
219.822;    2.400;   33.000;   89.000
219.966;    4.625;   17.000;  -99.000
220.111;  -35.650; -328.000;  -40.000
220.255;  -95.350; -797.000; -750.000
220.400;  -18.375; -180.000; -146.000
220.544;  -82.325; -516.000; -450.000
220.689;  -52.550; -422.000; -451.000
220.833;  -23.125; -123.000;  -58.000
220.978;  -61.825; -393.000; -563.000
221.122;   24.450;  319.000;  307.000
221.267; -108.125; -906.000; -837.000
221.411;  -67.175; -478.000; -394.000
221.555;  -12.075; -104.000;  -23.000
221.700;  -55.775; -329.000; -222.000
221.844;   38.575;  255.000;  272.000
221.989;  -40.525; -328.000; -311.000
222.133;  -42.025; -289.000; -307.000
222.277;   -3.600;    5.000;   78.000
222.422;   12.225;  227.000;  113.000
222.566;  -28.975; -381.000; -214.000
222.711;  -66.400; -414.000; -479.000
222.855;  -71.675; -643.000; -586.000
222.999;  -95.925; -642.000; -717.000
223.144;  -25.375; -195.000; -194.000
223.288;   59.250;  423.000;  251.000
223.432;   35.075;  184.000;  230.000
223.576;   15.775;  152.000;  -21.000
223.721;   38.250;  364.000;  273.000
223.865;  -66.475; -472.000; -475.000
224.009;  271.925; 1673.000; 1631.000
224.153;  -84.075; -660.000; -671.000
224.298;  -64.625; -531.000; -489.000
224.442;  -25.625;  -74.000;  -33.000
224.586;   -0.975; -169.000; -106.000
224.730;  -96.750; -858.000; -670.000
224.875;  -97.525; -739.000; -688.000
225.019;    3.825;  102.000;  188.000
225.163;   57.675;  208.000;  341.000
225.307;   13.725;   97.000;  -91.000
225.451;   32.850;  360.000;  481.000
225.595;   34.375;  264.000;  176.000
225.739;  -16.525; -170.000;  -94.000
225.884;    0.175;   86.000;    5.000
226.028;  -94.475; -760.000; -626.000
226.172;  -32.925; -260.000; -273.000
226.316; -122.750; -941.000; -902.000
226.460;  -69.900; -645.000; -493.000
226.604;  -59.475; -406.000; -400.000
226.748; -106.025; -836.000; -733.000
226.892;  -39.825; -227.000; -181.000
227.036;  -56.625; -537.000; -447.000
227.180;  -40.625; -551.000; -375.000
227.324;  -73.200; -561.000; -580.000
227.468; -126.075; -819.000; -717.000
227.612;   -8.825;  242.000;  -28.000
227.756; -107.425; -845.000; -698.000
227.900;   39.400;  342.000;  441.000
228.044;  -66.275; -509.000; -290.000
228.188;   57.225;  448.000;  568.000
228.332;  -91.200; -546.000; -472.000
228.476;  -26.375; -223.000; -149.000
228.620;  -32.000; -210.000; -150.000
228.764;   64.675;  431.000;  349.000
228.908;   -4.275; -155.000;   30.000
229.052;  -70.650; -615.000; -528.000
229.195;  -11.625; -172.000;   13.000
229.339;  -31.225; -235.000; -305.000
229.483;  -30.200;    5.000; -162.000
229.627;  -11.750; -156.000;  139.000
229.771;  -35.125; -218.000; -294.000
229.915;   -9.800;  230.000;   79.000
230.059;  -83.500; -648.000; -663.000
230.202;  -57.125; -370.000; -317.000
230.346;  -15.925; -107.000;  107.000
230.490;  -65.500; -489.000; -521.000
230.634;  -96.825; -736.000; -553.000
230.777;   62.675;  478.000;  509.000
230.921;  -61.950; -450.000; -359.000
231.065;  -36.700; -246.000; -286.000
231.209;   27.225;  261.000;  265.000
231.352;   11.225;   54.000;   40.000
231.496;   16.275;  568.000;  188.000
231.640;  -98.425; -693.000; -621.000
231.783;   64.350;  546.000;  525.000
231.927;  -52.750; -294.000; -365.000
232.071; -120.525; -962.000; -736.000
232.214; -120.475; -980.000; -764.000
232.358;  -94.225; -683.000; -599.000
232.502;    4.075;  -19.000;    7.000
232.645; -136.025;-1090.000; -927.000
232.789;  -42.250; -257.000; -218.000
232.933;  -46.025; -407.000; -224.000
233.076; -139.175;-1038.000; -897.000
233.220;  -88.525; -752.000; -777.000
233.363;  -71.525; -669.000; -477.000
233.507;   61.500;  371.000;  129.000
233.650; -109.125; -764.000; -834.000
233.794;   55.275;  438.000;  461.000
233.938;  -52.025; -530.000; -362.000
234.081;  -27.275;  -93.000;   31.000
234.225;  -70.500; -631.000; -539.000
234.368; -114.575; -773.000; -723.000
234.512;  -55.300; -385.000; -299.000
234.655;  -90.450; -582.000; -555.000
234.798;  -75.125; -493.000; -466.000
234.942; -143.600; -884.000;-1002.000
235.085;  -79.400; -651.000; -443.000
235.229;  -73.175; -405.000; -410.000
235.372;  -56.050; -247.000; -191.000
235.516;  -61.150; -397.000; -321.000
235.659;   12.175;   92.000;  121.000
235.802;   -7.575;  -38.000;  -22.000
235.946;    6.250;  335.000;  215.000
236.089;   32.075;  126.000;  250.000
236.233;   47.725;  275.000;  298.000
236.376;  -54.650; -235.000; -378.000
236.519;  -46.925; -297.000; -319.000
236.663;  -19.000; -215.000; -117.000
236.806; -135.825;-1029.000; -999.000
236.949;   54.175;  543.000;  431.000
237.092;   50.700;  412.000;  391.000
237.236;  -79.325; -589.000; -502.000
237.379;   69.900;  352.000;  428.000
237.522; -124.975; -879.000; -768.000
237.666;  -31.550; -271.000;   18.000
237.809; -122.625; -851.000; -823.000
237.952;   38.725;  469.000;  271.000
238.095;  -61.925; -447.000; -442.000
238.238;  102.025;  688.000;  700.000
238.382;   -8.125;  166.000;  103.000
238.525;  -70.775; -598.000; -511.000
238.668; -135.875;-1060.000; -985.000
238.811;  -88.725; -638.000; -643.000
238.954;  -52.400; -483.000; -334.000
239.097;   93.225;  617.000;  664.000
239.241;   35.975;  394.000;  326.000
239.384;  -26.425; -254.000; -214.000
239.527;  -62.475; -424.000; -224.000
239.670; -157.275; -994.000;-1091.000
239.813; -106.900; -696.000; -658.000
239.956;   78.100;  579.000;  473.000
240.099; -127.775; -778.000; -725.000
240.242;   54.675;  428.000;  432.000
240.385;   43.075;  466.000;  450.000
240.528;  -71.050; -706.000; -473.000
240.671;    8.600;  189.000;  134.000
240.814;  -49.850; -441.000; -158.000
240.957; -104.550; -767.000; -578.000
241.100;  -97.575; -779.000; -755.000
241.243; -140.550;-1234.000; -893.000
241.386;  -75.225; -508.000; -379.000
241.529;  -87.925; -735.000; -547.000
241.672;  -64.975; -566.000; -495.000
241.815; -101.375; -832.000; -808.000
241.958;  -29.875; -125.000; -182.000
242.101;  -66.850; -545.000; -390.000
242.244;  -29.075; -270.000; -325.000
242.387;  -47.275; -304.000; -246.000
242.530;   52.700;  470.000;  134.000
242.673;  -50.025; -381.000; -309.000
242.815; -128.925; -925.000; -899.000
242.958;  -76.550; -482.000; -381.000
243.101;    1.650;  132.000;  187.000
243.244;  -73.375; -564.000; -521.000
243.387;  -51.800; -313.000; -316.000
243.530;  -90.600; -657.000; -674.000
243.672;    4.300;   43.000;  -92.000
243.815;  -61.350; -355.000; -283.000
243.958;    5.500;   98.000;  -26.000
244.101;   -5.275;   59.000;  -16.000
244.243;  -12.000;  -47.000;  101.000
244.386; -111.475; -761.000; -630.000
244.529;  -33.350; -132.000; -139.000
244.672; -161.475;-1154.000; -951.000
244.814; -101.650; -621.000; -794.000
244.957;  -37.275; -380.000; -304.000
245.100;  -81.925; -489.000; -489.000
245.242;  -65.550; -387.000; -374.000
245.385;  -14.025;  -59.000;  -39.000
245.528; -131.875; -871.000; -705.000
245.670;   83.225;  612.000;  634.000
245.813;  -83.175; -599.000; -547.000
245.956;  -38.025; -324.000; -275.000
246.098;  -83.975; -508.000; -650.000
246.241;   13.450;  194.000;   48.000
246.383;  -15.875; -119.000;  -73.000
246.526;  -84.175; -454.000; -525.000
246.669; -119.075; -889.000; -780.000
246.811;    9.000;  172.000;   -1.000
246.954;  -66.275; -512.000; -426.000
247.096;  -47.675;  -84.000;   -6.000
247.239;  -82.200; -482.000; -445.000
247.381;  -66.175; -647.000; -488.000
247.524;   82.900;  645.000;  679.000
247.666;  -17.450;   58.000;   11.000
247.809; -115.750; -887.000; -691.000
247.951;  -18.800;  -75.000;  138.000
248.094;   40.750;  432.000;  308.000
248.236; -159.875;-1262.000;-1238.000
248.378;   -1.075; -356.000;  -81.000
248.521;  -31.425; -334.000; -337.000
248.663;  -38.125; -236.000; -267.000
248.806;  -29.250; -300.000; -266.000
248.948;  -92.325; -886.000; -763.000
249.090;  -49.125; -428.000; -398.000
249.233;  -42.075; -344.000; -381.000
249.375;  -61.100; -474.000; -451.000
249.518;  -35.675;  -83.000; -133.000
249.660;  -19.175; -103.000;    3.000
249.802; -163.950;-1303.000;-1189.000
249.945;  -76.700; -612.000; -540.000
250.087; -111.775; -834.000; -768.000
250.229;  -45.775; -362.000; -480.000
250.371;  -70.475; -494.000; -439.000
250.514;  -60.275; -310.000; -244.000
250.656;  -55.800;   69.000;  102.000
250.798; -117.475; -849.000; -800.000
250.940;  -69.000; -322.000; -322.000
251.083;  -35.625; -335.000; -111.000
251.225;   48.125;  338.000;  310.000
251.367;  -50.300; -274.000; -373.000
251.509;  -38.200; -265.000; -210.000
251.651; -100.950; -731.000; -671.000
251.794;   55.775;  538.000;  632.000
251.936; -108.300; -821.000; -747.000
252.078;  -82.075; -540.000; -461.000
252.220;  -84.025; -645.000; -477.000
252.362;   82.550;  344.000;  462.000
252.504;  -68.950; -677.000; -584.000
252.646; -117.225; -875.000; -722.000
252.788;  -12.325;   14.000; -128.000
252.931;  -33.075; -257.000; -253.000
253.073;  -48.900; -376.000; -317.000
253.215;  -14.775;  141.000;  122.000
253.357;  -18.200;   82.000; -153.000
253.499;  -46.500; -374.000; -234.000
253.641;  -89.575; -749.000; -594.000
253.783;  -88.800; -609.000; -527.000
253.925;  -94.525; -586.000; -591.000
254.067; -115.400; -744.000; -667.000
254.209;  -23.400; -391.000; -259.000
254.351; -121.075; -865.000; -883.000
254.493;  -64.675; -441.000; -417.000
254.635; -139.800; -936.000; -818.000
254.777;  -96.300; -752.000; -687.000
254.918;  -60.250; -512.000; -430.000
255.060;  -68.975; -551.000; -395.000
255.202;  -48.100; -473.000; -261.000
255.344;  -80.975; -658.000; -455.000
255.486;  -77.375; -471.000; -406.000
255.628; -123.400; -780.000; -781.000
255.770;  -86.875; -676.000; -536.000
255.912;  -65.250; -559.000; -468.000
256.053; -108.100; -730.000; -508.000
256.195;  151.800; 1008.000;  903.000
256.337; -100.775; -861.000; -595.000
256.479;   46.400;  532.000;  416.000
256.621;  -55.875; -394.000; -212.000
256.762;  -95.525; -789.000; -742.000
256.904;   45.125;  485.000;  487.000
257.046;  -61.250; -381.000; -271.000
257.188;  -51.100; -351.000; -264.000
257.329;  -79.775; -525.000; -464.000
257.471; -113.125; -939.000; -807.000
257.613;  -76.350; -584.000; -498.000
257.755; -149.725;-1073.000; -982.000
257.896;   22.750;  286.000;  392.000
258.038;  -64.500; -403.000; -352.000
258.180;  -43.050; -354.000; -279.000
258.321;  -88.425; -581.000; -457.000
258.463;  -12.850;  -71.000;  133.000
258.605;  -90.825; -562.000; -570.000
258.746; -115.425; -886.000; -772.000
258.888; -153.475;-1026.000;-1020.000
259.029;   19.750;  121.000;   -8.000
259.171;  -78.625; -614.000; -550.000
259.313;   -3.450;  -49.000;  -47.000
259.454;  -73.950; -536.000; -414.000
259.596;  -63.525; -483.000; -390.000
259.737;  -77.200; -590.000; -474.000
259.879;   25.575;  217.000;  311.000
260.020;   96.050;  901.000;  636.000
260.162;  -29.550; -146.000; -253.000
260.303; -104.800; -768.000; -687.000
260.445;  -76.325; -609.000; -613.000
260.586;   34.450;  392.000;  157.000
260.728;  -40.675; -360.000; -248.000
260.869; -115.325; -350.000; -343.000
261.011;   72.700;  706.000;  537.000
261.152;  -61.675; -479.000; -319.000
261.293;  -92.900; -576.000; -595.000
261.435;  -38.100; -219.000; -184.000
261.576;  -58.025; -455.000; -325.000
261.718;   54.650;  420.000;  470.000
261.859; -129.925; -940.000; -949.000
262.000; -129.600; -951.000;-1016.000
262.142;  -34.000;  -52.000;  -60.000
262.283; -111.525; -808.000; -691.000
262.424;  -99.100; -666.000; -625.000
262.566; -153.225;-1161.000; -983.000
262.707; -121.025; -840.000; -830.000
262.848; -112.575; -769.000; -726.000
262.990;  -57.750; -362.000; -345.000
263.131;   61.900;  650.000;  681.000
263.272;  -14.125;  -61.000;  -41.000
263.413; -100.400; -589.000; -561.000
263.555;  -67.550; -669.000; -143.000
263.696;  -83.075; -550.000; -641.000
263.837;  -78.400; -449.000; -551.000
263.978;   -3.475;   -5.000;  -77.000
264.119;  -47.375; -283.000; -264.000
264.261; -118.675; -847.000; -630.000
264.402;   10.150;   33.000;   40.000
264.543;  -98.925; -509.000; -524.000
264.684;   -9.475;   61.000;  -50.000
264.825;  -72.875; -816.000; -538.000
264.966;  -12.350;  -84.000;  -67.000
265.107; -114.400; -646.000; -670.000
265.248; -135.025; -825.000; -812.000
265.390;  -22.075;  152.000;   -9.000
265.531;  -38.975; -238.000; -107.000
265.672;  -78.200; -557.000; -630.000
265.813;   53.025;  563.000;  439.000
265.954; -144.350; -959.000; -940.000
266.095;  -20.600; -372.000; -322.000
266.236;  -92.950; -686.000; -548.000
266.377;  -56.175; -243.000; -297.000
266.518;  -72.375; -619.000; -547.000
266.659;   15.225;  170.000;  268.000
266.800;    6.325;   83.000;   85.000
266.941;  -79.475; -487.000; -478.000
267.082;   10.100;  354.000;   99.000
267.223;  -59.375; -344.000; -273.000
267.364; -109.900; -892.000; -686.000
267.504;  -13.500;    3.000;  135.000
267.645;   -4.625;  160.000;   67.000
267.786;  -41.125; -147.000;  -86.000
267.927;  -77.900; -473.000; -379.000
268.068;  -24.150; -186.000;  -61.000
268.209;  -38.200; -175.000; -413.000
268.350;  -61.975; -388.000; -532.000
268.490;  -85.700; -648.000; -521.000
268.631;   23.900;  127.000;  225.000
268.772; -108.650; -874.000; -647.000
268.913;  -55.725; -328.000; -476.000
269.054;  -15.950; -117.000;   12.000
269.194;  -56.325; -418.000; -402.000
269.335; -147.900;-1137.000;-1074.000
269.476;  -29.600;   33.000;  -35.000
269.617;  -48.500; -347.000; -392.000
269.757;  -99.750; -713.000; -646.000
269.898; -117.225; -856.000; -613.000
270.039;  -71.175; -415.000; -405.000
270.180; -129.500; -952.000; -816.000
270.320;  -27.825; -190.000; -250.000
270.461;  -47.850; -277.000; -249.000
270.602;  -21.725; -186.000; -156.000
270.742; -119.625; -868.000; -943.000
270.883;  -69.400; -442.000; -390.000
271.023;  -57.875; -358.000; -357.000
271.164;  -89.400; -607.000; -528.000
271.305;  -94.100; -666.000; -654.000
271.445; -103.950; -722.000; -683.000
271.586;  -66.325; -462.000; -283.000
271.726;  -62.925; -397.000; -322.000
271.867;  -50.600; -594.000; -534.000
272.008;  173.000; -473.000; -285.000
272.148;  125.825;  462.000;  468.000
272.289;   -2.700; -113.000; -181.000
272.429;   21.450;   19.000;  185.000
272.570; -107.275; -633.000; -737.000
272.710; -106.850; -825.000; -775.000
272.851;  -38.175;  113.000; -130.000
272.991; -148.900;-1173.000;-1077.000
273.131;  -65.100; -419.000; -459.000
273.272; -105.375; -683.000; -723.000
273.412;    0.425; -143.000;  -31.000
273.553;  -46.200; -488.000; -507.000
273.693;  130.750;  913.000;  858.000
273.834; -102.675; -894.000; -692.000
273.974;  -86.875; -664.000; -615.000
274.114; -105.275; -772.000; -560.000
274.255;   70.750;  414.000;  373.000
274.395;   -3.575; -180.000; -125.000
274.535;   27.100;  199.000;  350.000
274.676;   24.200;  225.000;   94.000
274.816;   -9.300;  110.000;   34.000
274.956;  -78.325; -624.000; -690.000
275.097;  -67.000;-1014.000; -922.000
275.237; -111.825; -913.000; -803.000
275.377;  -98.375; -778.000; -689.000
275.517; -139.075; -878.000; -937.000
275.658;  -66.025; -590.000; -555.000
275.798;  -68.625; -606.000; -413.000
275.938;   18.600;  215.000;  323.000
276.078; -109.250; -626.000; -395.000
276.218;   -6.025;   99.000;  104.000
276.359; -124.525;-1026.000;-1024.000
276.499;  -81.950; -605.000; -446.000
276.639;  -38.075; -305.000; -151.000
276.779;  -64.850; -475.000; -357.000
276.919; -107.775; -783.000; -624.000
277.059;  -31.450; -261.000; -212.000
277.199;  -51.300; -357.000; -259.000
277.340;   31.350;  287.000;  175.000
277.480; -102.975; -840.000; -693.000
277.620;   17.300;  192.000;   16.000
277.760; -200.275;-1533.000;-1294.000
277.900;   18.100;  113.000;   33.000
278.040;   23.450;  137.000;  159.000
278.180;   19.575;  270.000;  170.000
278.320;   -1.250;   21.000;   56.000
278.460;  -69.125; -443.000; -469.000
278.600;  -93.550; -708.000; -598.000
278.740;   37.725;  448.000;  224.000
278.880;  -72.575; -768.000; -791.000
279.020;  -20.800; -194.000; -144.000
279.160;  -94.200; -672.000; -595.000
279.300; -130.325; -926.000; -873.000
279.440;  -89.250; -709.000; -622.000
279.579;  -10.125;-1014.000; -929.000
279.719;  -48.325; -410.000; -394.000
279.859;   71.950;   -4.000;   41.000
279.999;   25.900; -208.000;  101.000
280.139;  -37.750; -435.000; -387.000
280.279;  -74.075; -708.000; -745.000
280.419;  -22.850; -229.000; -147.000
280.559;  -31.400; -259.000; -180.000
280.698;  -88.925; -790.000; -639.000
280.838; -101.950; -778.000; -800.000
280.978; -113.400; -846.000; -790.000
281.118; -121.325; -811.000; -704.000
281.257;   -1.025;   24.000;    6.000
281.397; -120.175;-1094.000; -960.000
281.537; -100.550; -599.000; -712.000
281.677;  -34.800; -150.000; -101.000
281.816; -102.650; -700.000; -630.000
281.956;  -39.575; -193.000; -257.000
282.096;  -69.525; -539.000; -396.000
282.235; -102.450; -672.000; -638.000
282.375;  -38.825; -243.000;  -98.000
282.515; -106.375; -715.000; -707.000
282.654;   17.400;   29.000;  106.000
282.794;   31.275;  388.000;  244.000
282.934;  -71.375; -530.000; -491.000
283.073; -132.200;-1030.000; -857.000
283.213;  -83.250; -460.000; -467.000
283.353;  -49.650; -408.000; -349.000
283.492;  -36.675; -264.000; -296.000
283.632;  -38.575; -254.000; -168.000
283.771; -108.625; -859.000; -730.000
283.911;  -66.275; -369.000; -260.000
284.050; -116.575; -794.000; -748.000
284.190; -157.025;-1229.000;-1096.000
284.329; -167.400;-1055.000; -964.000
284.469;  -72.350; -516.000; -591.000
284.608;  -70.350; -559.000; -598.000
284.748;  -90.200; -614.000; -570.000
284.887;   -6.750;  -87.000;  -20.000
285.027; -127.400; -844.000; -892.000
285.166;  -43.450; -192.000; -249.000
285.306;   -3.625; -116.000;  -33.000
285.445;  -53.825; -229.000; -343.000
285.584;  -93.425; -630.000; -494.000
285.724;  -49.225; -282.000; -322.000
285.863; -115.625; -857.000; -507.000
286.002;  -61.125; -366.000; -276.000
286.142; -107.875; -715.000; -622.000
286.281;  -78.200; -525.000; -493.000
286.420;  -68.800; -554.000; -417.000
286.560;   81.650;  653.000;  623.000
286.699; -134.550; -958.000; -912.000
286.838;  -87.700; -590.000; -591.000
286.978;  -90.675; -533.000; -537.000
287.117; -141.575;-1085.000; -950.000
287.256;  -34.025; -228.000; -211.000
287.395;  -62.900; -197.000; -378.000
287.535;  -57.900; -370.000; -298.000
287.674;  -85.450; -509.000; -484.000
287.813;   52.575;  661.000;  533.000
287.952; -142.125;-1010.000; -871.000
288.091; -150.075;-1049.000; -915.000
288.231;   -0.325;   13.000;   15.000
288.370; -176.050;-1217.000;-1200.000
288.509; -101.550; -728.000; -645.000
288.648;  -90.350; -770.000; -548.000
288.787;  -48.625; -243.000;  -87.000
288.926;  -69.825; -454.000; -475.000
289.065;   95.375;  859.000;  672.000
289.204;  -74.125; -377.000; -217.000
289.344; -105.550; -791.000; -690.000
289.483;   10.500;  416.000;  304.000
289.622;  -26.450; -291.000; -149.000
289.761;  -19.175; -309.000; -166.000
289.900; -117.975; -785.000; -626.000
290.039;  -20.250;  -12.000;  -95.000
290.178;  -46.350; -274.000; -180.000
290.317;  -68.700; -618.000; -479.000
290.456;  -70.850; -463.000; -451.000
290.595; -144.600; -961.000; -833.000
290.734; -152.150; -904.000; -891.000
290.873;  -84.600; -456.000; -420.000
291.011; -117.150; -833.000; -843.000
291.150; -103.150; -770.000; -682.000
291.289;  -26.225; -343.000; -110.000
291.428;  -93.650; -599.000; -480.000
291.567;  -70.800; -370.000; -442.000
291.706;   -1.750;  109.000;  154.000
291.845;  -94.100; -597.000; -505.000
291.984; -156.250;-1234.000;-1061.000
292.122;   68.750;  602.000;  582.000
292.261;   51.325;  620.000;  463.000
292.400;    2.200; -144.000;  211.000
292.539; -127.400; -959.000; -813.000
292.678;  -42.200; -325.000; -300.000
292.816; -160.300;-1136.000; -965.000
292.955; -105.400; -844.000; -684.000
293.094;  -40.725; -173.000; -337.000
293.233;  -63.850; -556.000; -400.000
293.371;  -33.950; -225.000;  -84.000
293.510; -118.375; -866.000; -780.000
293.649; -136.525; -959.000; -924.000
293.787;  -69.025;-1083.000;-1012.000
293.926;   -6.725; -113.000;  -32.000
294.065;  -58.525; -379.000; -290.000
294.203;   31.825;  298.000;  406.000
294.342;   22.950;   74.000;  156.000
294.481; 5404.725;51180.000; -836.000
294.619;  -47.075; -425.000; -582.000
294.758; -144.550;-1230.000;-1137.000
294.896;   66.825; -125.000;    5.000
295.035; -121.825;-1040.000;-1006.000
295.174; -122.475;-1082.000; -954.000
295.312;  -49.000; -323.000; -203.000
295.451;  -34.725; -307.000; -428.000
295.589;  -51.175; -389.000; -518.000
295.728;    2.100; -292.000; -165.000
295.866;    8.875;  -36.000;  -51.000
296.005;  -65.025; -584.000; -341.000
296.143;  -61.450; -558.000; -596.000
296.282; -115.075; -957.000; -881.000
296.420;  -72.725; -657.000; -557.000
296.559;  -79.225; -892.000; -633.000
296.697;    8.700; -847.000; -665.000
296.835;   34.200;-1141.000;-1002.000
296.974;   46.625;  -23.000;   39.000
297.112;   -5.975; -443.000; -504.000
297.251;  -87.475; -815.000; -755.000
297.389;   81.300; -576.000; -438.000
297.527;   33.125; -145.000;  -83.000
297.666;  -69.825; -486.000; -438.000
297.804;  -59.125; -404.000; -264.000
297.942;  -17.125; -136.000; -161.000
298.081;   -8.125; -183.000;   63.000
298.219;   65.150;  -17.000;  -19.000
298.357;   48.850; -144.000;  -71.000
298.495;   15.825; -810.000; -812.000
298.634;   72.875;  245.000;  219.000
298.772;   35.975; -220.000; -338.000
298.910;  -52.025; -309.000; -182.000
299.048;  -14.775; -130.000; -153.000
299.187;  -33.425; -350.000; -250.000
299.325;   12.775;   52.000;  122.000
299.463;   46.725; -389.000; -299.000
299.601;   67.500; -327.000; -271.000
299.739; -117.800; -908.000; -883.000
299.877;  -97.450; -791.000; -703.000
300.016;  -53.825;-1095.000; -935.000
300.154;  156.000;  -19.000; -161.000
300.292;   39.500; -428.000; -348.000
300.430;   25.200; -408.000; -291.000
300.568; -116.275; -940.000; -874.000
300.706;  -55.275; -366.000; -469.000
300.844;  -89.450;-1108.000; -979.000
300.982;  110.775;  246.000;  282.000
301.120;  -98.975; -965.000; -866.000
301.258;  -75.800; -812.000; -705.000
301.396;   31.150;  104.000;  -41.000
301.534;   59.875; -218.000; -293.000
301.672;  -11.550; -664.000; -521.000
301.810;   17.900; -613.000; -545.000
301.948;   99.275;   53.000;  149.000
302.086;  595.325; -250.000;  -32.000
302.224;  883.475; -610.000; -585.000
302.362;   21.025; -558.000; -622.000
302.500;  -38.025; -923.000; -893.000
302.638;   79.150;  128.000;  245.000
302.776;    2.950; -352.000; -408.000
302.913;   31.000;  447.000;  236.000
303.051;  -18.400;  -86.000;  -23.000
303.189;   32.425;   90.000;  118.000
303.327;  -46.575; -341.000; -256.000
303.465;  -76.400; -832.000; -588.000
303.603;  -93.000; -805.000; -604.000
303.740;   84.950;  417.000;  241.000
303.878;    7.925; -800.000; -759.000
304.016;  -95.825; -915.000; -790.000
304.154; -134.675;-1123.000;-1152.000
304.291;  -41.275; -505.000; -554.000
304.429;    7.250;  102.000;   74.000
304.567; -130.225; -908.000; -893.000
304.705;  -60.025; -408.000; -515.000
304.842;   80.275; -616.000; -540.000
304.980;   44.725;  215.000;   35.000
305.118;   32.300; -367.000; -365.000
305.255;  -95.650; -945.000; -927.000
305.393;   43.925;  178.000;  239.000
305.531; -109.325;-1173.000; -956.000
305.668;  -76.150; -663.000; -582.000
305.806;  108.050; -358.000; -439.000
305.943;   94.100; -629.000; -637.000
306.081;   53.725; -378.000; -267.000
306.219; -107.450; -863.000; -748.000
306.356;    0.650;  158.000;   27.000
306.494;   96.825;  981.000;  761.000
306.631;  -10.800;  -11.000;  -55.000
306.769;  -13.400; -613.000; -485.000
306.906;   -7.650; -284.000; -258.000
307.044;  -73.100; -473.000; -488.000
307.181;  -66.450; -410.000; -332.000
307.319;   -6.325;  112.000;   87.000
307.456; -178.800;-1191.000;-1153.000
307.594; -114.875; -980.000; -727.000
307.731;   -8.525; -371.000; -164.000
307.868;   -5.350;  -15.000;   20.000
308.006; -140.225; -961.000; -847.000
308.143;  -76.250; -618.000; -330.000
308.281;  124.850;  -37.000; -254.000
308.418;  -26.975; -748.000; -640.000
308.555;  -70.550; -400.000; -250.000
308.693;  -62.875; -577.000; -573.000
308.830; -119.700; -712.000; -657.000
308.967;  -16.450; -215.000;  -95.000
309.105;  -51.600; -507.000; -396.000
309.242;   14.725; -468.000; -367.000
309.379;  279.175; -577.000; -655.000
309.517;  -81.125; -936.000; -948.000
309.654; -109.225; -910.000; -734.000
309.791;  -69.475; -662.000; -580.000
309.928; -126.100; -977.000; -914.000
310.065;  156.325;  819.000;  697.000
310.203;  -10.175; -825.000; -850.000
310.340;  -23.500; -465.000; -321.000
310.477;  -80.425; -412.000; -516.000
310.614;  -92.600; -383.000; -473.000
310.751;  -85.475; -427.000; -518.000
310.889;  -29.275;    1.000;   11.000
311.026; -153.325;-1161.000; -939.000
311.163;  -57.600; -386.000; -380.000
311.300;  -74.725; -512.000; -479.000
311.437;  -79.775; -658.000; -619.000
311.574; -155.825;-1226.000; -985.000
311.711;  -64.650; -595.000; -433.000
311.848;  -41.200; -380.000; -388.000
311.985;    7.025;  270.000;   93.000
312.122; -129.900; -932.000; -762.000
312.259; -130.900; -941.000; -994.000
312.396;  -90.400; -508.000; -551.000
312.533;  -89.850; -812.000; -790.000
312.670; -126.075;-1070.000; -898.000
312.807;  -39.625; -352.000; -367.000
312.944;  -90.850; -513.000; -611.000
313.081;  -52.725; -150.000; -415.000
313.218; -109.275;-1111.000; -867.000
313.355;   -0.575; -531.000; -449.000
313.492;   -1.125; -455.000; -292.000
313.629;  115.300;  815.000;  735.000
313.766; -163.850;-1176.000;-1008.000
313.902;  -16.475; -186.000;   21.000
314.039;  -64.500; -372.000; -289.000
314.176;    3.850;  286.000;  192.000
314.313;  -86.725; -569.000; -473.000
314.450;  -79.225; -788.000; -684.000
314.587;  -56.550; -468.000; -480.000
314.723;   -4.000;  -78.000;  130.000
314.860;   25.350;  318.000;  332.000
314.997;   10.425;  223.000;  142.000
315.134;  -50.025; -385.000; -368.000
315.270;  -46.125; -480.000; -496.000
315.407; -124.000;-1094.000; -967.000
315.544;  -60.775; -657.000; -538.000
315.681;  -73.250; -681.000; -565.000
315.817;   19.750; -133.000; -176.000
315.954;   11.975; -613.000; -392.000
316.091; -133.675;-1045.000;-1023.000
316.227;  -34.375;  -71.000; -179.000
316.364;  -10.500;   23.000;    6.000
316.500;  -50.625; -113.000; -300.000
316.637;  -54.250; -181.000; -302.000
316.774;  -77.750; -625.000; -358.000
316.910; -114.075; -598.000; -629.000
317.047;  -79.225; -487.000; -351.000
317.183;  -54.875; -435.000; -566.000
317.320;  -14.625; -367.000; -321.000
317.456;  -71.100; -733.000; -805.000
317.593;  -96.825; -598.000; -641.000
317.729;   -6.300;  168.000;  -67.000
317.866; -194.350;-1434.000;-1285.000
318.002; -101.200; -708.000; -948.000
318.139; -106.750; -883.000; -867.000
318.275; -104.900;-1003.000; -738.000
318.412;  -66.900; -517.000; -336.000
318.548;  -47.075; -751.000; -720.000
318.685;  -87.200; -985.000; -888.000
318.821; -101.425; -762.000; -735.000
318.957;  -23.975;   34.000;  -23.000
319.094;   33.700;  297.000;  154.000
319.230;  -68.100; -756.000; -742.000
319.367;  104.750; -471.000; -520.000
319.503;   44.575; -538.000; -436.000
319.639; -115.100; -877.000; -793.000
319.775;  -62.375; -750.000; -685.000
319.912;  -53.725; -424.000; -519.000
320.048;  -93.200;-1184.000;-1184.000
320.184;   53.200;   59.000;   70.000
320.321;  -50.725; -497.000; -467.000
320.457;   58.900;  475.000;  662.000
320.593;  -52.475; -375.000; -382.000
320.729; -113.550; -732.000; -734.000
320.866;  -70.725; -577.000; -635.000
321.002;  -86.100; -759.000; -809.000
321.138;  -17.575; -135.000; -211.000
321.274;   54.625; -148.000; -115.000
321.410;  -32.325; -585.000; -353.000
321.546;  -38.700;-1011.000; -911.000
321.683;   59.225;  400.000;  185.000
321.819;   -6.250;  -48.000; -117.000
321.955; -108.525; -743.000; -722.000
322.091;  -56.725; -585.000; -540.000
322.227;  -18.900; -382.000; -202.000
322.363;  -38.650; -320.000; -215.000
322.499;  -54.400; -343.000; -331.000
322.635;  151.575;  636.000;  443.000
322.771;   12.000; -139.000;   12.000
322.907;   83.975;  129.000;  327.000
323.043;  -33.375; -115.000; -206.000
323.179;  -42.850; -394.000; -363.000
323.315;    0.325; -401.000; -371.000
323.451;   73.575; -328.000; -236.000
323.587;   50.800;  -60.000;  -77.000
323.723;   -5.000; -682.000; -601.000
323.859;  -18.200; -258.000;  -76.000
323.995;  -40.950; -467.000; -409.000
324.131; -125.000; -967.000; -892.000
324.267;  -57.025; -254.000; -276.000
324.402; -128.050; -960.000; -983.000
324.538;  -36.200; -279.000; -104.000
324.674;   12.425;  164.000;   77.000
324.810;   97.700;  226.000;  308.000
324.946;  -16.950; -810.000; -658.000
325.082;  -79.875; -568.000; -475.000
325.217;  -13.125;  -62.000;   16.000
325.353; -106.550; -764.000; -659.000
325.489;  -95.700; -540.000; -506.000
325.625;  -87.400; -579.000; -525.000
325.760;   53.625;  517.000;  376.000
325.896;  -29.100; -515.000; -702.000
326.032;  -42.175; -403.000; -352.000
326.168;  -75.425; -462.000; -369.000
326.303;  -75.625; -352.000; -461.000
326.439;  -32.825; -336.000; -276.000
326.575;    1.925; -190.000;  -29.000
326.710;  -15.400; -156.000;  -30.000
326.846;  -14.850;  146.000;  103.000
326.982; -102.375; -530.000; -548.000
327.117;  -67.925; -481.000; -442.000
327.253;  -84.450; -745.000; -742.000
327.388; -150.025;-1137.000;-1153.000
327.524;  -63.825; -811.000; -578.000
327.659;  -33.175;  -58.000;  -22.000
327.795;  -23.725;   69.000;   45.000
327.931;  -82.425; -723.000; -499.000
328.066;  -45.325; -417.000; -276.000
328.202;  -28.250;   12.000; -129.000
328.337;   94.825;  957.000;  713.000
328.473;   39.250;  -12.000;  -74.000
328.608;  -36.200; -256.000; -267.000
328.743;  -89.650; -799.000; -664.000
328.879;   18.075;  214.000;  114.000
329.014;  -27.300; -102.000; -122.000
329.150;  -92.675; -358.000; -483.000
329.285;  -83.400; -465.000; -466.000
329.421;  -67.175; -548.000; -246.000
329.556;  -30.325;  -36.000;   85.000
329.691; -121.050; -633.000; -615.000
329.827;  -76.000; -626.000; -480.000
329.962;  -43.175;  131.000; -301.000
330.097;  -92.250; -673.000; -585.000
330.233;  -60.475; -410.000; -223.000
330.368; -136.975; -839.000; -628.000
330.503;  -25.525;    3.000;   98.000
330.638;  -15.000;  -93.000; -125.000
330.774;  -68.875; -609.000; -530.000
330.909;  -55.875; -434.000; -244.000
331.044;  -97.125; -714.000; -708.000
331.179; -186.900;-1217.000;-1109.000
331.315;   -8.225;   77.000;   20.000
331.450;   12.750;  157.000;  285.000
331.585;  -96.475; -805.000; -706.000
331.720;  -80.850; -510.000; -460.000
331.855;  -13.400;  -35.000; -102.000
331.990;  258.075;   62.000;  138.000
332.126;  125.100; -110.000;   71.000
332.261;  -12.150; -379.000; -265.000
332.396;  -14.000; -135.000; -242.000
332.531;  -90.275;-1074.000;-1031.000
332.666;   28.125; -519.000; -363.000
332.801; -105.550; -726.000; -807.000
332.936;  -26.225; -192.000; -122.000
333.071; -137.125; -870.000; -817.000
333.206;   -1.050;  307.000;  379.000
333.341;   34.825;  344.000;  418.000
333.476;  -98.600; -627.000; -623.000
333.611;  -47.150; -251.000; -173.000
333.746;  -50.825; -381.000; -464.000
333.881; -119.725; -973.000; -935.000
334.016; -131.450; -936.000; -917.000
334.151; -135.350; -746.000; -702.000
334.286;    0.175;  152.000;  186.000
334.421;  -19.000; -125.000; -178.000
334.556;  -94.450; -611.000; -567.000
334.690;  -88.350; -631.000; -577.000
334.825;   32.125;  381.000;   83.000
334.960;  -50.725; -285.000; -413.000
335.095;   -5.325;  135.000;  -91.000
335.230; -100.375; -722.000; -738.000
335.365; -143.600;-1084.000; -990.000
335.499; -145.450;-1108.000;-1037.000
335.634;    2.000;    9.000;  534.000
335.769; -105.075; -755.000; -720.000
335.904;  -73.725; -603.000; -561.000
336.038;  -65.125; -735.000; -657.000
336.173; -126.675;-1206.000;-1194.000
336.308;  -11.975; -116.000; -189.000
336.443;    4.200; -544.000; -634.000
336.577;  -74.025; -936.000; -787.000
336.712;   46.025;   -4.000;  -12.000
336.847;  -43.150; -724.000; -607.000
336.981;   41.925; -272.000; -208.000
337.116;  288.350;  615.000;  501.000
337.250;  136.575; -434.000; -421.000
337.385;  255.475; -297.000; -208.000
337.520;   81.975; -632.000; -603.000
337.654;  -35.000; -215.000; -126.000
337.789; -133.350; -989.000; -933.000
337.923;  -24.150; -104.000; -205.000
338.058;  -95.550; -673.000; -738.000
338.192;  -48.475; -611.000; -488.000
338.327;   -6.800;  -18.000; -155.000
338.461;  -70.800; -299.000; -469.000
338.596;  -96.350; -780.000; -638.000
338.730;  -92.950; -767.000; -803.000
338.865;   84.900;  -46.000; -140.000
338.999;  -50.550; -846.000; -702.000
339.134;  -40.075; -634.000; -536.000
339.268;    3.375; -741.000; -603.000
339.403;  359.600; -740.000; -775.000
339.537;  123.675; -894.000; -820.000
339.671; -126.075; -829.000; -813.000
339.806;  -43.475; -556.000; -512.000
339.940;   11.875; -261.000; -235.000
340.074; -107.100; -685.000; -510.000
340.209;  -58.550; -351.000; -230.000
340.343;  -98.825; -517.000; -573.000
340.477;  150.550;  998.000; 1036.000
340.612;  -64.350;-1033.000; -900.000
340.746;  130.350; -199.000; -243.000
340.880;  -72.050; -924.000; -785.000
341.014;  -30.075;  -45.000; -154.000
341.149; -109.000; -756.000; -718.000
341.283; -116.825; -839.000; -754.000
341.417;  -95.175;-1124.000; -938.000
341.551;  103.100; -768.000; -708.000
341.685;  -43.125; -633.000; -611.000
341.820;  -65.625; -562.000; -493.000
341.954;  -54.975; -218.000; -349.000
342.088; -157.550;-1102.000;-1019.000
342.222;   51.950;  565.000;  618.000
342.356;  -68.625; -395.000; -335.000
342.490; -112.025; -880.000; -841.000
342.624;  -44.525; -339.000; -242.000
342.758;   -8.150; -364.000; -312.000
342.892;  -79.325; -710.000; -585.000
343.026;  -37.900;  -58.000; -116.000
343.160;  -66.100; -426.000; -376.000
343.294;  -95.075; -474.000; -337.000
343.428;  -37.825; -488.000; -448.000
343.562;  -33.825; -172.000;  -23.000
343.696;  -43.050; -385.000; -314.000
343.830;  -23.175; -362.000; -356.000
343.964;   -1.700; -231.000; -168.000
344.098;  870.025;  199.000;   70.000
344.232;  700.300; -266.000; -127.000
344.366;   69.025; -567.000; -453.000
344.500;   36.875; -665.000; -744.000
344.634;   12.725; -324.000; -164.000
344.768;  -22.475; -531.000; -341.000
344.902;   16.450;  278.000;  256.000
345.035;  -93.500; -556.000; -496.000
345.169; -132.350; -933.000; -656.000
345.303;  -39.175; -308.000; -482.000
345.437;  -72.950; -826.000; -717.000
345.571;  -77.550; -675.000; -594.000
345.704;  -75.900; -309.000; -532.000
345.838;  -16.425; -331.000; -284.000
345.972;  -55.750; -543.000; -495.000
346.106;  150.275; -179.000; -190.000
346.239;  429.225; -312.000; -243.000
346.373;  -10.900; -343.000; -302.000
346.507; -141.750; -950.000; -962.000
346.640;  121.400;  -30.000;   13.000
346.774;  -60.875; -650.000; -797.000
346.908;  -22.600; -138.000;  -11.000
347.041; -101.200; -646.000; -593.000
347.175;   -6.450;  259.000;   27.000
347.309;  -74.950; -698.000; -628.000
347.442; -114.475; -883.000; -732.000
347.576;  261.700;  670.000;  668.000
347.709;  171.825; -123.000;  -52.000
347.843;  -94.250; -933.000; -825.000
347.976;   30.800;  235.000;  294.000
348.110; -185.350;-1268.000;-1186.000
348.243; -121.750; -679.000; -772.000
348.377;   -0.275;  -26.000;   60.000
348.510;   58.175;  403.000;  540.000
348.644;  -47.500;  -37.000; -159.000
348.777;   -6.250;  180.000;  191.000
348.911;  -48.925; -142.000; -112.000
349.044;  169.950;  471.000;  448.000
349.178;  124.225;-1069.000;-1006.000
349.311;  105.425;  141.000;  255.000
349.444;    5.300; -927.000; -813.000
349.578;  -25.150; -347.000; -200.000
349.711; -106.400; -959.000; -862.000
349.845;  -11.625; -661.000; -591.000
349.978; -146.925;-1224.000;-1137.000
350.111;  -96.700; -546.000; -612.000
350.244;  -88.925; -596.000; -700.000
350.378;   -7.700; -392.000; -393.000
350.511;  -79.575; -393.000; -426.000
350.644; -114.400; -808.000; -806.000
350.778;    3.900;  168.000;  104.000
350.911;   -0.025;  134.000;  140.000
351.044;  -92.200; -685.000; -615.000
351.177;  -37.175; -321.000; -281.000
351.310;  -23.050;    3.000; -131.000
351.444;  -93.200; -888.000; -788.000
351.577;  111.025;  140.000;   90.000
351.710;   90.350;  593.000;  417.000
351.843;  -36.625; -165.000;  -77.000
351.976;   -6.825;  149.000;  -79.000
352.109;  -87.000; -621.000; -612.000
352.242;  -38.375; -464.000; -419.000
352.376;  -79.925; -580.000; -636.000
352.509;  134.600; -437.000; -356.000
352.642;  -15.000; -654.000; -604.000
352.775;   48.950; -141.000;  -98.000
352.908; -124.950; -933.000; -904.000
353.041; -111.275; -814.000; -824.000
353.174;  -55.325; -551.000; -424.000
353.307;  -96.100; -753.000; -764.000
353.440;   80.250;  541.000;  453.000
353.573; -128.950; -957.000;-1008.000
353.706;  -59.525; -384.000; -558.000
353.839;  -25.325; -264.000; -220.000
353.971; -101.325; -657.000; -512.000
354.104;  -92.100; -896.000; -835.000
354.237;  -24.800; -627.000; -662.000
354.370; -100.125; -846.000; -879.000
354.503; -185.775;-1231.000;-1308.000
354.636;  -48.175; -529.000; -348.000
354.769; -130.700; -937.000; -860.000
354.902;  -13.575; -230.000; -139.000
355.034;  -25.425; -164.000; -220.000
355.167;  -26.425; -262.000; -162.000
355.300;  -90.775;-1061.000; -880.000
355.433;  969.975;  -71.000;  -14.000
355.565; 1548.400; -402.000; -384.000
355.698;  389.050; -356.000; -296.000
355.831;  -16.675; -882.000; -801.000
355.964;   56.450; -285.000; -170.000
356.096;  -74.250; -856.000; -843.000
356.229;  -19.875; -523.000; -530.000
356.362;  331.800; -373.000; -266.000
356.494;  608.800; -229.000; -162.000
356.627;  444.150;  269.000;  377.000
356.760;  655.750;  120.000;   53.000
356.892;  948.800; -286.000; -601.000
357.025;  612.800;  403.000;  389.000
357.157;  559.400; -167.000; -179.000
357.290;  708.425; -856.000; -713.000
357.423;  193.100; -667.000; -556.000
357.555;   96.550; -217.000; -228.000
357.688;  131.500; -483.000; -364.000
357.820;  447.475; -870.000; -877.000
357.953; 3627.875; -563.000; -589.000
358.085;  779.950; -632.000; -612.000
358.218; 1024.225;-1131.000; -932.000
358.350;  183.525;  -58.000;  312.000
358.483; -132.100;-1300.000;-1187.000
358.615;  -37.900;-1182.000;-1078.000
358.747;  -61.525;-1187.000;-1058.000
358.880;   18.975; -810.000; -744.000
359.012;    6.575; -376.000; -202.000
359.145;  -49.775; -480.000; -511.000
359.277;   52.375; -962.000; -913.000
359.409; 2974.875;  536.000;  231.000
359.542;  774.850; -738.000; -688.000
359.674;   48.325;   46.000;   13.000
359.806;  -57.125; -565.000; -438.000
359.939;  -48.575; -617.000; -516.000
360.071;  -11.925; -583.000; -579.000
360.203;  -28.700; -411.000; -364.000
360.335;   48.525;  164.000;  -16.000
360.468;  171.925; -249.000; -307.000
360.600; 2426.200; -547.000; -454.000
360.732; 2927.000; -546.000; -423.000
360.864;  390.050;-1216.000;-1044.000
360.996;  247.675; -516.000; -554.000
361.129;   27.225; -389.000; -598.000
361.261;   11.625;  110.000; -113.000
361.393;  -44.225; -252.000; -214.000
361.525;   14.050;   94.000;  244.000
361.657;  -46.875; -821.000; -703.000
361.789;    3.100; -139.000; -155.000
361.921;  183.750; -642.000; -593.000
362.053;  234.675;  524.000;  541.000
362.185;   32.525;  288.000;   72.000
362.318;  -96.325; -709.000; -705.000
362.450;  111.600;  294.000;  444.000
362.582;   51.825; -913.000; -870.000
362.714;  -32.225; -353.000; -332.000
362.846;  -91.350; -606.000; -490.000
362.978; -136.175; -941.000; -811.000
363.109;   31.800; -161.000; -260.000
363.241;  386.325; -739.000; -749.000
363.373;  433.475; -649.000; -564.000
363.505;  675.375; -186.000;  -91.000
363.637;  161.700; -787.000; -601.000
363.769; -121.850;-1067.000;-1080.000
363.901;  -84.800; -596.000; -654.000
364.033; -120.400;-1103.000;-1062.000
364.165;  -29.550; -283.000; -283.000
364.296;   72.675; -316.000; -177.000
364.428;   64.200;-1344.000;-1220.000
364.560;  -74.625; -679.000; -661.000
364.692;  -71.350; -738.000; -835.000
364.824;  240.725; -588.000; -456.000
364.955;  424.675; -402.000; -564.000
365.087;  973.000;-1097.000; -852.000
365.219;   27.200; -686.000; -816.000
365.351;  -72.050; -526.000; -572.000
365.482;   42.825;  300.000;  240.000
365.614;  -61.775; -402.000; -314.000
365.746; -104.475; -729.000; -752.000
365.877;  -97.075; -706.000; -672.000
366.009;  259.950;  -35.000;  -62.000
366.141;  -83.650;-1249.000;-1134.000
366.272; -115.475; -803.000; -719.000
366.404; -112.350;-1005.000; -874.000
366.535;  -31.900; -139.000;  -12.000
366.667; -106.600; -644.000; -649.000
366.799;   23.350;  353.000;  203.000
366.930; -123.625; -862.000; -996.000
367.062;  124.125; -639.000; -613.000
367.193;  166.100; -872.000; -842.000
367.325;  -75.575; -580.000; -684.000
367.456;   39.600; -246.000;   31.000
367.588;  164.200; -371.000; -318.000
367.719;   25.650;  -44.000;  -45.000
367.851;  -37.325; -222.000; -241.000
367.982;  -65.825; -875.000; -732.000
368.113;   70.600; -475.000; -358.000
368.245; -124.350; -960.000; -841.000
368.376;  -18.650; -254.000; -302.000
368.508;  -50.700; -188.000; -263.000
368.639; -149.850;-1166.000;-1034.000
368.770;  -27.075; -670.000; -589.000
368.902;  -79.550; -836.000; -926.000
369.033; -111.250; -906.000; -855.000
369.164;  -44.025; -720.000; -653.000
369.296; -110.025; -452.000; -601.000
369.427;  -18.775; -209.000; -144.000
369.558;  -57.100; -593.000; -377.000
369.689;  -96.375; -721.000; -569.000
369.821; -133.050; -951.000; -845.000
369.952;  -25.200;   42.000; -108.000
370.083;  -56.225; -229.000; -108.000
370.214; -102.225; -735.000; -650.000
370.345;    2.700;   65.000;   81.000
370.477;  -92.425; -810.000; -790.000
370.608;  200.650; -328.000; -264.000
370.739;  -91.050;-1233.000;-1292.000
370.870;  -55.600;-1102.000; -923.000
371.001;   74.125; -378.000; -467.000
371.132;  -80.650; -754.000; -735.000
371.263;  -41.400;  -42.000; -148.000
371.394; -133.175; -841.000; -748.000
371.525;   24.125;  345.000;  225.000
371.657;  -89.000; -808.000; -670.000
371.788;   59.325;  103.000;  199.000
371.919;  139.475; -384.000; -304.000
372.050; 3466.675;  -91.000; -156.000
372.181; 1051.300; -188.000; -294.000
372.311;  344.400;   42.000; -127.000
372.442;   23.400; -457.000; -451.000
372.573;  -29.775; -444.000; -340.000
372.704; -121.750;-1008.000; -980.000
372.835;   58.875; -228.000; -289.000
372.966;  -56.275; -646.000; -554.000
373.097;  -75.700; -575.000; -711.000
373.228;  -53.125; -717.000; -542.000
373.359;  109.625; -824.000; -536.000
373.490;  882.150; -881.000; -727.000
373.620; 1074.375;-1001.000; -803.000
373.751; 1686.250; -332.000; -396.000
373.882;  740.950; -663.000; -733.000
374.013;   43.975; -449.000; -262.000
374.143;  -49.875; -581.000; -659.000
374.274; -109.225; -987.000; -908.000
374.405;  156.300; -388.000; -276.000
374.536;  401.775; -526.000; -387.000
374.666; 1038.525; -759.000; -807.000
374.797;  208.475; -817.000; -868.000
374.928;  784.900; -710.000; -560.000
375.058;  847.700; -535.000; -500.000
375.189;   68.400;  -59.000;  -93.000
375.320; -109.900; -928.000;-1034.000
375.450;  -48.150; -625.000; -616.000
375.581;  -48.225; -526.000; -436.000
375.712;  -36.050; -574.000; -250.000
375.842;  283.025; -438.000; -415.000
375.973;  191.175; -554.000; -513.000
376.103;  -62.575; -665.000; -648.000
376.234;  -83.475; -531.000; -552.000
376.364;  -48.225; -944.000; -867.000
376.495;  294.475;  925.000;  529.000
376.625;  -23.850; -472.000; -485.000
376.756;   38.975; -709.000; -678.000
376.886;  -83.525;-1178.000;-1026.000
377.017;   30.000;-1048.000;-1061.000
377.147;  355.350; -786.000; -782.000
377.278;   57.700;  174.000;  228.000
377.408; -128.125; -801.000; -815.000
377.538; -123.625; -707.000; -693.000
377.669;  -79.400; -537.000; -613.000
377.799;  -97.600; -645.000; -635.000
377.929;  -74.200; -610.000; -428.000
378.060; -137.850; -781.000; -847.000
378.190;  -69.625; -726.000; -531.000
378.320;  -74.575; -401.000; -406.000
378.451;  -18.900; -131.000;  -22.000
378.581;  -21.375;  -67.000; -110.000
378.711;  134.050; 1035.000;  866.000
378.841;  -31.375; -533.000; -675.000
378.972;  -71.250; -871.000; -751.000
379.102;  -31.725; -652.000; -579.000
379.232;  -26.475; -126.000;  -73.000
379.362; -109.225;-1001.000; -885.000
379.492;  -10.450; -373.000; -424.000
379.623;   75.975;    0.000;  111.000
379.753;  -98.025;-1107.000; -974.000
379.883;  173.025;   59.000;  156.000
380.013;   -7.850;-1081.000;-1017.000
380.143; -118.550;-1097.000;-1056.000
380.273;  -99.900; -985.000; -861.000
380.403;    0.650; -344.000; -257.000
380.533;  -26.975; -651.000; -664.000
380.663;   76.350;  173.000;  128.000
380.793; -103.300;-1027.000;-1074.000
380.923;  -37.525; -103.000;  -34.000
381.053;  -96.800; -613.000; -623.000
381.183;  -44.300; -106.000; -248.000
381.313;   30.725; -656.000; -470.000
381.443;   20.475; -692.000; -473.000
381.573;  171.000; -402.000; -409.000
381.703;  231.100;-1249.000;-1095.000
381.833; -145.350;-1454.000;-1336.000
381.963;   91.550; -134.000;  -87.000
382.093; 1336.175; -925.000; -909.000
382.223;  396.550; -713.000; -602.000
382.353;  -30.500; -801.000; -608.000
382.482;  328.725;-1091.000; -964.000
382.612;  714.775; -872.000; -644.000
382.742;  421.050; -695.000; -622.000
382.872;  239.050; -565.000; -551.000
383.002;   37.100;  347.000; -132.000
383.131;  -18.100; -226.000; -160.000
383.261;  -55.875; -706.000; -768.000
383.391;  278.400; -552.000; -377.000
383.521; 3343.825;  451.000;  263.000
383.650;  813.925; -947.000; -904.000
383.780;  -14.075; -783.000; -656.000
383.910;  113.975;  880.000;  802.000
384.039;    5.675; -794.000; -656.000
384.169;  173.775;-1205.000;-1017.000
384.299;  -32.700; -650.000; -662.000
384.428; -109.375; -764.000; -680.000
384.558;  -52.100; -308.000; -275.000
384.687;  -52.300; -414.000; -334.000
384.817;    3.275;   75.000;   -2.000
384.947;   11.800; -234.000; -141.000
385.076;  263.575;  982.000;  912.000
385.206;   96.325;  369.000;  480.000
385.335;  -54.625; -549.000; -417.000
385.465;  -88.100; -655.000; -663.000
385.594;  109.175;  -53.000;  -44.000
385.724;  374.100; -868.000; -838.000
385.853;  101.500; -296.000; -270.000
385.982; 1260.175; -743.000; -787.000
386.112; 1992.450;-1052.000; -871.000
386.241;  122.175; -307.000; -312.000
386.371;    9.650; -174.000;  -87.000
386.500;  -22.025; -825.000; -789.000
386.629;   10.550; -874.000; -817.000
386.759;   50.725;  -43.000;   68.000
386.888;  -26.575; -170.000; -250.000
387.017;  -84.475; -648.000; -620.000
387.147; -103.350; -771.000; -798.000
387.276;  -16.675; -410.000; -397.000
387.405;  -11.000; -398.000; -342.000
387.535;  -58.725; -452.000; -361.000
387.664;  -75.275; -692.000; -620.000
387.793;   38.125; -198.000; -113.000
387.922;  467.500;  255.000;  200.000
388.052;    0.875; -576.000; -423.000
388.181;   -3.550; -342.000; -472.000
388.310;  -31.900; -889.000; -710.000
388.439;  -67.275; -749.000; -742.000
388.568;  178.600;  365.000;  244.000
388.697;  991.375; -756.000; -653.000
388.826;  172.625; -768.000; -666.000
388.956;   35.675; -285.000; -307.000
389.085;  -40.900; -347.000; -287.000
389.214; -138.400; -842.000; -872.000
389.343;  -72.500; -645.000; -413.000
389.472;  391.850;  126.000;  149.000
389.601;  509.700;   91.000;    0.000
389.730;   -1.075; -568.000; -687.000
389.859;   55.600;  226.000;   46.000
389.988;  172.900; -423.000; -408.000
390.117;  127.125; -168.000; -146.000
390.246;  -24.400; -331.000; -320.000
390.375;   63.600; -673.000; -626.000
390.504;  -64.675; -703.000; -621.000
390.633; -110.150; -672.000; -726.000
390.761;  -84.000; -732.000; -645.000
390.890;    6.025;   -4.000; -130.000
391.019;  -50.700; -421.000; -441.000
391.148; -117.275; -826.000; -855.000
391.277;  -90.475; -576.000; -493.000
391.406;  -84.325; -821.000; -805.000
391.534;   11.250;  574.000; -301.000
391.663;  -64.525; -583.000; -645.000
391.792;  -92.450; -673.000; -701.000
391.921;   88.200;   -3.000;   15.000
392.050;  150.000; -287.000; -228.000
392.178;  -50.050;-1206.000;-1061.000
392.307;  115.825; -758.000; -712.000
392.436;   59.875; -427.000; -641.000
392.564;    9.650;  166.000;   -6.000
392.693;  -97.625; -860.000; -682.000
392.822;  181.475; -529.000; -534.000
392.950;   57.025; -880.000; -714.000
393.079;  276.425; -188.000; -328.000
393.208;   20.575; -488.000; -511.000
393.336;  -13.925; -170.000; -145.000
393.465;  -58.575; -317.000; -199.000
393.593;  -21.325;   62.000;   79.000
393.722; -166.525;-1121.000; -916.000
393.850;  -34.525; -188.000;  -61.000
393.979; -140.850; -926.000; -805.000
394.107;  -75.675; -517.000; -537.000
394.236;  -36.100; -570.000; -507.000
394.364;  179.500;  383.000;  206.000
394.493;  303.275; -911.000; -767.000
394.621;  -16.800; -955.000; -916.000
394.750;  717.975; -873.000; -923.000
394.878; 2991.700; -247.000; -149.000
395.007; 4088.925; -721.000; -807.000
395.135;  300.400; -790.000; -721.000
395.263;  -68.850;-1038.000;-1040.000
395.392;   -8.925;  -25.000; -107.000
395.520; -150.125; -818.000; -679.000
395.648;  -96.475; -865.000; -915.000
395.777;  -23.650; -366.000; -405.000
395.905;  -48.225; -449.000; -564.000
396.033;   12.525;  217.000;  172.000
396.162;  497.075; -399.000; -453.000
396.290;  453.675;  -17.000;   -2.000
396.418;   79.775; -555.000; -514.000
396.546;  -82.475; -571.000; -466.000
396.674; -112.725; -850.000; -878.000
396.803;    6.250;  -72.000;  -23.000
396.931;   68.375; -179.000; -199.000
397.059;   25.550;-1026.000; -989.000
397.187; -119.675;-1026.000; -975.000
397.315; -147.225; -884.000; -649.000
397.443;  -92.925; -592.000; -443.000
397.572; -100.100; -578.000; -424.000
397.700;  -30.800; -607.000; -614.000
397.828;   -0.900;  120.000;  -90.000
397.956;  -47.100; -508.000; -478.000
398.084;  -60.375; -767.000; -626.000
398.212;   12.325;  137.000;  124.000
398.340;  -10.550;  -56.000;  159.000
398.468;   12.400; -390.000; -169.000
398.596; -128.250; -993.000; -953.000
398.724; -126.875; -762.000; -767.000
398.852; -164.675;-1024.000; -976.000
398.980;  -80.450; -560.000; -560.000
399.108;  -70.525; -982.000; -735.000
399.236;   22.925;   13.000;    8.000
399.363;   -4.425;  222.000;  196.000
399.491;  -83.725; -404.000; -398.000
399.619; -130.600; -829.000; -800.000
399.747; -121.825; -859.000; -771.000
399.875;   60.000;  220.000;  234.000
400.003;  -71.500; -359.000; -284.000
400.130;  -88.075; -421.000; -341.000
400.258;  -33.050;  -83.000;   38.000
400.386;  -72.900; -352.000; -168.000
400.514;  -61.600; -526.000; -587.000
400.641; -114.300; -928.000; -802.000
400.769; -160.025; -979.000; -888.000
400.897; -121.000; -838.000; -793.000
401.025;  -31.500; -166.000; -152.000
401.152;  -25.375;  220.000;   38.000
401.280;  -89.750; -430.000; -429.000
401.408; -120.950; -712.000; -576.000
401.535; -115.150; -735.000; -758.000
401.663; -193.000;-1134.000;-1054.000
401.790;  -90.475; -514.000; -525.000
401.918;   39.325;  436.000;  405.000
402.046;  -32.675;  134.000;  122.000
402.173;  -42.200;  -18.000;    7.000
402.301;  -89.325; -519.000; -397.000
402.428;   25.250;  528.000;  383.000
402.556; -158.025;-1188.000; -913.000
402.683;  -38.000;  -20.000;   -1.000
402.811;  -48.275;  -37.000; -206.000
402.938;  -21.225;   20.000;   27.000
403.066;  177.875; -574.000; -558.000
403.193;  301.775;  299.000;  239.000
403.321;  223.750; -396.000; -574.000
403.448;  286.825;   83.000;   27.000
403.575;  118.900;  -90.000;  -46.000
403.703; -105.575; -732.000; -557.000
403.830;  -85.575; -531.000; -496.000
403.957; -143.125;-1117.000;-1023.000
404.085;    2.075;  -61.000; -172.000
404.212;  101.975;  -50.000;   63.000
404.339;  248.950; -566.000; -306.000
404.467; 5981.225; -612.000; -524.000
404.594; 3827.950; -287.000; -227.000
404.721;  858.650; -869.000; -764.000
404.848;   62.600; -113.000; -202.000
404.976; -110.000; -856.000; -783.000
405.103;  -14.825;  -14.000;  -82.000
405.230;  -12.900;  190.000;  226.000
405.357;    6.850;  117.000;   44.000
405.484;  267.900;  -49.000;    5.000
405.612;   29.850; -548.000; -563.000
405.739;  -69.025; -488.000; -243.000
405.866;   84.350;  669.000;  385.000
405.993;  -55.825; -398.000; -102.000
406.120; -145.800; -801.000; -887.000
406.247;  -68.475; -323.000; -342.000
406.374;  396.000;  540.000;  629.000
406.501;   68.050; -632.000; -702.000
406.628;  -93.075; -621.000; -589.000
406.755;  -94.000; -803.000; -620.000
406.882;  -51.075; -228.000; -277.000
407.009; -109.725; -719.000; -628.000
407.136;   16.950; -480.000; -401.000
407.263;  108.375; -939.000; -829.000
407.390;  -97.900; -692.000; -614.000
407.517; -170.675;-1139.000;-1187.000
407.644;  -65.050; -332.000; -256.000
407.771; -129.175; -249.000; -287.000
407.898;   -8.950;  168.000;  328.000
408.025;  -81.975; -421.000; -313.000
408.151;  -31.225;   82.000;  153.000
408.278;  -80.650; -267.000; -216.000
408.405; -122.725; -931.000; -899.000
408.532;  -80.900; -549.000; -542.000
408.659; -136.275; -677.000; -648.000
408.785; -201.000;-1298.000;-1170.000
408.912;  -57.700; -412.000; -296.000
409.039; -112.700; -610.000; -686.000
409.166; -119.200; -591.000; -555.000
409.292; -115.525; -571.000; -534.000
409.419; -116.625; -665.000; -649.000
409.546;  -94.975; -431.000; -192.000
409.672; -107.750; -713.000; -545.000
409.799;  -32.175;  -36.000;   34.000
409.926;  -51.125; -180.000; -179.000
410.052; -172.425;-1127.000;-1091.000
410.179;  -64.000; -368.000; -392.000
410.305;  -91.950; -375.000; -493.000
410.432;  -62.850; -220.000; -333.000
410.558; -106.350; -305.000; -380.000
410.685; -116.650; -688.000; -431.000
410.812; -106.300; -409.000; -588.000
410.938; -146.475; -964.000; -808.000
411.065;  -98.975; -671.000; -645.000
411.191;  -25.425; -189.000; -174.000
411.317; -123.100; -823.000; -742.000
411.444;  -70.800; -317.000; -246.000
411.570;  -89.400; -339.000; -294.000
411.697; -132.425; -758.000; -752.000
411.823; -175.000; -989.000; -999.000
411.949;  -39.875;  -56.000;   17.000
412.076; -120.900; -539.000; -519.000
412.202; -129.250; -758.000; -757.000
412.329; -128.200; -798.000; -752.000
412.455; -124.600; -821.000; -657.000
412.581;  -20.025;  -15.000;  172.000
412.707;  -88.725; -540.000; -457.000
412.834;   11.700;  156.000;  219.000
412.960;  -85.950; -785.000; -784.000
413.086; -100.550; -743.000; -701.000
413.212;  121.450;  604.000;  578.000
413.339;  -65.575; -685.000; -701.000
413.465;   -5.775; -364.000; -310.000
413.591; -109.075; -757.000; -474.000
413.717;  -71.600; -358.000; -366.000
413.843; -154.800; -839.000; -861.000
413.969;  -88.150;  -47.000; -292.000
414.096; -103.350; -679.000; -679.000
414.222;  -12.550;  -33.000;   85.000
414.348;  -45.250; -652.000; -385.000
414.474;   73.100;   38.000;  -52.000
414.600;  -24.525; -126.000; -144.000
414.726;  -29.900;  -96.000;  -55.000
414.852;  -64.350; -365.000; -342.000
414.978;   22.525;  104.000;  -18.000
415.104;   45.550;   38.000;   80.000
415.230;   16.725; -329.000; -330.000
415.356;   37.100; -409.000; -514.000
415.482;  189.850;   13.000;  -35.000
415.608;  248.325; -247.000; -323.000
415.734;  957.600;   67.000;   38.000
415.860;20136.400; -875.000; -767.000
415.986;14898.825; -685.000; -607.000
416.111; 1277.600; -798.000; -652.000
416.237;  258.950; -424.000; -571.000
416.363; 1145.900; -765.000; -733.000
416.489; 4312.750; -324.000; -251.000
416.615;  457.400; -707.000; -742.000
416.741;  -41.250; -677.000; -784.000
416.866;  -92.825; -673.000; -736.000
416.992; -126.825; -801.000; -818.000
417.118;  -42.725;  -41.000;  -80.000
417.244;  -83.775; -798.000; -531.000
417.369;  -83.950; -801.000; -612.000
417.495;  -23.175; -325.000; -254.000
417.621;  -88.475;-1015.000; -803.000
417.746;    3.625; -579.000; -572.000
417.872;   44.325; -254.000; -144.000
417.998;   42.950; -515.000; -530.000
418.123; 1085.000;-1073.000; -845.000
418.249; 5547.525; -512.000; -601.000
418.374;  788.375; -916.000; -824.000
418.500;  104.225; -383.000; -482.000
418.626;  108.075;   70.000;  -59.000
418.751;  112.025; -549.000; -448.000
418.877;  191.375; -637.000; -643.000
419.002; 1793.225; -688.000; -560.000
419.128;12898.350; -930.000; -721.000
419.253; 3245.075; -967.000; -837.000
419.379;  420.925; -391.000; -338.000
419.504;  382.325;  325.000;  415.000
419.629;  516.250; -393.000; -212.000
419.755; 3636.600; -317.000; -254.000
419.880;21952.750;  -98.000;   67.000
420.006;11772.875; -280.000; -221.000
420.131;30178.100; -662.000; -775.000
420.256; 4420.675; -315.000; -316.000
420.382;  578.575; -665.000; -687.000
420.507;   52.500; -649.000; -778.000
420.632;  109.925; -337.000; -339.000
420.758;  227.200; -251.000; -425.000
420.883;  -81.400; -876.000; -672.000
421.008; -102.775; -775.000; -619.000
421.133;  -83.500; -509.000; -467.000
421.259;  -56.800; -325.000; -259.000
421.384; -122.025; -834.000; -693.000
421.509;  -54.375;-1052.000; -862.000
421.634; 1015.775; -936.000; -820.000
421.759;  452.625; -359.000; -327.000
421.885;  -64.750; -717.000; -656.000
422.010;  -92.825; -673.000; -542.000
422.135; -155.275; -695.000; -727.000
422.260;   23.950;  340.000;  280.000
422.385;  -38.300;   12.000;  -98.000
422.510;   -8.100;  151.000;  -26.000
422.635;    1.550;  -87.000;  -43.000
422.760;   78.400; -766.000; -791.000
422.885;   45.225;  -57.000;  -80.000
423.010;  -35.800; -112.000; -169.000
423.135; -100.125; -481.000; -561.000
423.260;  -29.375; -150.000; -245.000
423.385;   51.825;  476.000;  222.000
423.510;   33.150;   71.000;  -22.000
423.635;   50.325;  133.000;   45.000
423.760;   31.725;  383.000;  328.000
423.885;   49.225;  336.000;  391.000
424.010;   -0.975;  -68.000;  -13.000
424.135;  -44.425;    5.000;  -33.000
424.259;  -81.900; -654.000; -457.000
424.384;  -73.900; -279.000; -272.000
424.509;  -40.475; -260.000; -186.000
424.634;  -94.550; -761.000; -623.000
424.759;  -23.775; -688.000; -544.000
424.883;  -22.975; -506.000; -527.000
425.008;  160.375; -502.000; -410.000
425.133; 2050.550; -679.000; -653.000
425.258;  953.700; -517.000; -381.000
425.382;  991.725; -867.000; -774.000
425.507; 2517.525; -487.000; -543.000
425.632;  424.950; -802.000; -663.000
425.756;  466.125; -256.000; -146.000
425.881; 6767.300; -831.000; -857.000
426.006;18692.275; -604.000; -355.000
426.130; 2958.750; -696.000; -508.000
426.255;  373.050; -611.000; -491.000
426.379;  152.275; -189.000; -577.000
426.504;  369.975;  660.000;  544.000
426.629; 4058.900; -519.000; -466.000
426.753; 2843.075;   64.000;  -46.000
426.878;  331.425; -252.000; -288.000
427.002;  143.350; -651.000; -668.000
427.127; 1599.050;  -35.000; -158.000
427.251;11693.125;  372.000;  401.000
427.375; 3414.175; -191.000; -173.000
427.500; 2225.100; -616.000; -610.000
427.624;  756.925; -234.000; -400.000
427.749;   79.050; -216.000; -225.000
427.873;  -55.400; -499.000; -412.000
427.997;  -49.450; -222.000; -230.000
428.122;   81.325;  795.000;  703.000
428.246;   49.000;  433.000;  434.000
428.371; -137.525; -869.000; -773.000
428.495; -109.225; -624.000; -646.000
428.619;  -30.400; -186.000; -117.000
428.743;    4.800;   65.000;  132.000
428.868;    5.950; -732.000; -643.000
428.992; 1297.575; -219.000; -326.000
429.116;  528.475; -329.000; -357.000
429.240;  232.400;  419.000;  426.000
429.365;  -32.725; -454.000; -574.000
429.489;  -70.425; -638.000; -647.000
429.613;    9.925; -236.000; -177.000
429.737;   16.375; -563.000; -432.000
429.861;  251.400; -247.000; -133.000
429.985; 5619.975; -425.000; -305.000
430.109; 6262.400; -770.000; -908.000
430.234;  710.375;   76.000;  -50.000
430.358;   79.875; -250.000; -160.000
430.482;  -88.000; -672.000; -564.000
430.606;  -75.675; -655.000; -375.000
430.730;  -17.350; -437.000; -388.000
430.854;   82.900; -909.000; -835.000
430.978;  -92.275; -795.000; -764.000
431.102;  -99.550; -499.000; -422.000
431.226; -140.825; -874.000; -815.000
431.350;   17.625;  345.000;  422.000
431.474;  -96.850; -661.000; -373.000
431.597; -144.950;-1060.000; -848.000
431.721;  -98.750; -276.000; -267.000
431.845; -139.200; -704.000; -472.000
431.969;  -88.375; -304.000; -349.000
432.093;  -93.875; -395.000; -317.000
432.217;  -24.925;   32.000;   82.000
432.341; -104.050; -523.000; -518.000
432.464;  -17.375;   96.000;   40.000
432.588;  144.400; -401.000; -329.000
432.712;   75.025;  -52.000;  -52.000
432.836;   37.850;  213.000;  263.000
432.959;  -29.400; -372.000; -311.000
433.083;   85.825;   11.000;    2.000
433.207;  371.875;  285.000;  930.000
433.330; 5144.975; -391.000; -200.000
433.454; 6483.350; -654.000; -638.000
433.578; 3698.525;  583.000;  278.000
433.701;  676.075; -623.000; -675.000
433.825;  122.225; -292.000; -299.000
433.949;  132.500;   28.000;  -72.000
434.072;   40.725; -410.000; -323.000
434.196;  -27.775; -309.000; -117.000
434.319; 3678.050;25482.000;25124.000
434.443;  725.600; -656.000; -603.000
434.566; 2738.075;  281.000;   62.000
434.690;  460.700; -637.000; -383.000
434.813;   46.650; -251.000; -173.000
434.937;  -82.000; -569.000; -696.000
435.060;  -64.900; -423.000; -332.000
435.184;  239.275; -492.000; -217.000
435.307;  132.800;  159.000;  102.000
435.431;  -17.700;  -40.000;   24.000
435.554;  -71.900; -399.000; -240.000
435.677;  -93.125; -350.000; -258.000
435.801;  -42.025;  -25.000;   49.000
435.924;  -27.750;    1.000;  -67.000
436.048; -145.500;-1019.000; -732.000
436.171;  -78.850; -240.000;  -66.000
436.294;  -33.575; -248.000; -229.000
436.417;   89.725; -963.000; -849.000
436.541;  -76.550; -814.000; -840.000
436.664;  -66.300; -242.000; -316.000
436.787;  -28.025;   13.000;  113.000
436.910; -129.725; -792.000; -422.000
437.034;    3.275;  142.000;  143.000
437.157;   18.850;  -11.000;    0.000
437.280;  -63.775; -392.000; -292.000
437.403; -106.025; -982.000; -869.000
437.526;  518.325; -903.000; -865.000
437.649; 1965.200; -505.000; -332.000
437.772;  274.425; -692.000; -540.000
437.896;  100.600;  700.000;  544.000
438.019; -107.875; -758.000; -503.000
438.142; -104.425; -596.000; -506.000
438.265;  -22.000; -639.000; -670.000
438.388;  462.000; -520.000; -410.000
438.511;   84.400; -597.000; -394.000
438.634;  -59.375; -247.000; -125.000
438.757; -153.550; -693.000; -619.000
438.880;  -39.800;  -34.000;  -57.000
439.003;  -74.550; -417.000; -437.000
439.126;  -78.600; -287.000; -167.000
439.248;  -76.375;  -98.000; -139.000
439.371;  -55.100;    9.000;  -53.000
439.494;   26.875;  510.000;  439.000
439.617;  -57.050;   65.000;  -88.000
439.740; -182.150; -968.000; -816.000
439.863; -145.800; -755.000; -595.000
439.986; -131.825; -476.000; -431.000
440.108;  -62.775; -161.000; -112.000
440.231; -160.750; -950.000; -836.000
440.354;  -57.050;  -64.000; -150.000
440.477;   15.325; -566.000; -542.000
440.599;  -27.650; -200.000; -225.000
440.722; -119.050; -709.000; -586.000
440.845;   52.025;  751.000;  928.000
440.968; -110.375; -415.000; -311.000
441.090;  -73.500; -199.000;  -33.000
441.213; -174.600;-1021.000; -825.000
441.336;  -66.850; -159.000;   -5.000
441.458;  -84.475; -549.000; -396.000
441.581; -102.525; -628.000; -629.000
441.703;  -70.800; -152.000;   13.000
441.826; -105.625; -557.000; -400.000
441.948;  -51.300;   56.000;   51.000
442.071;   28.725;  555.000;  424.000
442.193; -125.450; -531.000; -485.000
442.316;    3.750;  152.000;   97.000
442.438;   43.975; -233.000;  -10.000
442.561;   52.300;  272.000;  262.000
442.683;  448.600; -809.000; -522.000
442.806; 1026.500;   -8.000;   74.000
442.928;   -6.725; -859.000; -604.000
443.051;  -90.750; -577.000; -373.000
443.173;  -98.475; -341.000; -339.000
443.295;  -84.375; -263.000; -371.000
443.418;  -74.125; -321.000;  -29.000
443.540;   -9.225; -106.000;   -4.000
443.662; -123.550; -563.000; -465.000
443.785;  -28.225;  335.000;  199.000
443.907; -110.200; -362.000; -208.000
444.029; -138.700; -767.000; -494.000
444.152; -146.650; -644.000; -554.000
444.274;  -46.200;  -18.000;  -24.000
444.396; -120.175; -461.000; -221.000
444.518; -151.025; -691.000; -454.000
444.640; -108.200; -268.000; -111.000
444.763;  -15.200;  388.000;  249.000
444.885; -114.300; -432.000; -392.000
445.007;  -43.225;   35.000;   86.000
445.129; -124.625; -610.000; -515.000
445.251; -113.375; -372.000; -439.000
445.373; -140.875; -537.000; -386.000
445.495;  -11.450;  242.000;  350.000
445.617;   51.550;  853.000;  753.000
445.739;  -77.475; -215.000;  -97.000
445.861;  -45.700; -245.000; -112.000
445.984;  -53.925; -267.000; -101.000
446.105;  162.850; -418.000; -251.000
446.227;  554.575; -176.000;  -19.000
446.349;   -4.650; -358.000; -249.000
446.471; -124.325; -615.000; -448.000
446.593;  -61.600; -316.000;   19.000
446.715;   -7.975;  -67.000;   41.000
446.837;   46.700;  697.000;  832.000
446.959; -110.775; -457.000; -478.000
447.081; -141.950; -628.000; -518.000
447.203;   57.650;  862.000;  834.000
447.325;  -91.975; -270.000;   42.000
447.446;  -12.800;  286.000;  530.000
447.568; -153.750; -921.000; -803.000
447.690;  -86.000; -236.000; -245.000
447.812; -161.450; -798.000; -519.000
447.933;  -47.900;  155.000;  127.000
448.055;  -76.575; -306.000; -261.000
448.177;  129.150;   31.000;   79.000
448.299;   62.700; -935.000; -727.000
448.420;    1.925;  -25.000;  159.000
448.542;  -59.175;   -3.000;   33.000
448.664;  -36.600;  109.000;  322.000
448.785;  -50.100;  265.000;   83.000
448.907;  -83.500; -614.000; -353.000
449.028;  -54.100; -771.000; -471.000
449.150;   42.050;  492.000;  589.000
449.272; -187.350;-1044.000; -913.000
449.393;   20.450;  612.000;  694.000
449.515; -142.550; -634.000; -581.000
449.636;  -67.450; -264.000; -155.000
449.758;   57.600;  763.000;  622.000
449.879; -104.225; -498.000; -396.000
450.001;  -78.125; -149.000;  -49.000
450.122;  -38.375;  -95.000;  162.000
450.244;  -26.575;   37.000;  364.000
450.365;  -94.800; -495.000; -301.000
450.486;  -49.875;   80.000;  268.000
450.608;   19.475;  393.000;  326.000
450.729;   63.150;  578.000;  645.000
450.850;   11.975; -574.000; -466.000
450.972;  764.375; -552.000; -389.000
451.093; 5024.675;  190.000;  588.000
451.214; 2259.000; -516.000; -337.000
451.336;  406.975;  773.000;  579.000
451.457;   50.150;  264.000;  393.000
451.578;  -49.350; -118.000;  -74.000
451.699; -132.325; -546.000; -540.000
451.821;  -68.675; -284.000;  -50.000
451.942;   -5.275;  278.000;  285.000
452.063;   24.525;  228.000;  419.000
452.184;  560.725;  -54.000;  -49.000
452.305; 1105.425;  103.000;  170.000
452.427;  135.975; -549.000; -301.000
452.548;  -25.150;   23.000;   79.000
452.669;  -66.000; -257.000;  -89.000
452.790;  -49.900;    3.000;  -18.000
452.911;   -8.975;  195.000;  259.000
453.032;  -78.250; -289.000;  -60.000
453.153;  -54.525;  -29.000;   81.000
453.274;   52.725;  737.000;  868.000
453.395;  -50.225;  -51.000;  175.000
453.516;  115.275; 1317.000; 1388.000
453.637;  -71.225; -205.000; -150.000
453.758;  -80.100;   15.000;   69.000
453.879; -122.100; -462.000; -250.000
454.000;   61.475; 1086.000;  948.000
454.121; -123.250; -554.000; -326.000
454.242; -126.575; -599.000; -383.000
454.362;  -60.075;  -99.000;  114.000
454.483;  -58.900; -309.000; -229.000
454.604;   52.650;  512.000;  580.000
454.725; -138.225; -627.000; -555.000
454.846; -136.275; -474.000; -406.000
454.967;  -24.775;  230.000;  539.000
455.087;  -59.175;  179.000;  153.000
455.208;   20.300;  554.000;  856.000
455.329;  -63.650;  -22.000;   82.000
455.450;   23.850;  473.000;  633.000
455.570;  -86.850; -234.000; -211.000
455.691;  -65.025;  201.000;  407.000
455.812;  -93.000; -270.000;  -92.000
455.932;  -71.625;  107.000;  -97.000
456.053;  -85.700;   36.000;   24.000
456.173; -126.775; -433.000; -355.000
456.294; -130.275; -476.000; -303.000
456.415;  -77.200;  -73.000;   70.000
456.535;  -59.950;  297.000;  273.000
456.656;  -51.975;  132.000;  240.000
456.776;  -67.075;    3.000;  298.000
456.897;  -13.450;  308.000;  513.000
457.017;  -75.425; -153.000;   -3.000
457.138; -116.625; -402.000; -249.000
457.258;  -32.050;  263.000;  224.000
457.379;  -27.475;  509.000;  521.000
457.499;  -41.250;  443.000;  432.000
457.620; -129.600; -407.000; -231.000
457.740;  -95.875; -132.000;  -11.000
457.860;  -63.400;   87.000;   44.000
457.981;  -49.800;  132.000;  124.000
458.101;  -87.650;  -89.000;   40.000
458.221;  -23.725;  336.000;  402.000
458.342;  -73.500;   -4.000;  -37.000
458.462;   16.025;  617.000;  352.000
458.582;  -45.250; -302.000; -294.000
458.703;   -1.700;  303.000;  154.000
458.823;  -36.050;   22.000;  163.000
458.943;   13.725;  341.000;  467.000
459.063;  -34.675; 1124.000;  192.000
459.183;  -31.100;  328.000;  313.000
459.304;  -12.625;  315.000;  517.000
459.424;  -75.950; -246.000;  -89.000
459.544;  326.775;  388.000;  764.000
459.664;  851.525;  499.000;  506.000
459.784;  314.625; 1004.000; 1175.000
459.904;   56.625;  867.000;  744.000
460.024;   52.125;  867.000;  684.000
460.144;    4.250;  449.000;  554.000
460.264;   -8.975;  515.000;  327.000
460.385;  -89.425; -145.000; -119.000
460.505;   19.775;  905.000;  858.000
460.625; -101.325;  -17.000;  -68.000
460.745;  -33.050;  396.000;  541.000
460.864;  -52.650;  153.000;  469.000
460.984;    2.625;  499.000;  573.000
461.104;  128.050; 1656.000; 1775.000
461.224;    3.150;  657.000;  650.000
461.344;  -32.325;  431.000;  360.000
461.464;  -43.050;  258.000;  513.000
461.584;  -34.400;  283.000;  466.000
461.704;  -53.000;   58.000;  108.000
461.824;  -57.575;  238.000;  259.000
461.943;  -41.625;  191.000;  130.000
462.063;  -85.400;    2.000;  324.000
462.183;   20.550;  639.000;  717.000
462.303;   91.875; 1678.000; 1230.000
462.422;   19.200;  781.000;  840.000
462.542;  -33.925;  271.000;  391.000
462.662;   25.525;  353.000;  380.000
462.782;  225.050;  833.000;  572.000
462.901;  491.075;  545.000;  717.000
463.021;  288.825; 1702.000; 1638.000
463.141;  -13.400;  337.000;  770.000
463.260;  -21.425;  614.000;  474.000
463.380;   10.000;  902.000;  884.000
463.499;  -51.100;  342.000;  332.000
463.619;  -58.175;  581.000;  559.000
463.738;  101.175; 1644.000;  903.000
463.858;   -0.575;  657.000;  811.000
463.978;  -25.025;  542.000;  396.000
464.097;   34.175;  921.000; 1114.000
464.217;  109.775; 1196.000; 1143.000
464.336;  111.300; 1068.000; 1130.000
464.455;  -28.800;  328.000;  659.000
464.575;   20.650;  597.000;  602.000
464.694;  145.875; 1204.000; 1179.000
464.814;  123.750; 1190.000; 1138.000
464.933;   68.175; 1095.000; 1027.000
465.052;   88.325; 1412.000; 1054.000
465.172;   79.600;  922.000;  799.000
465.291;  128.125; 1376.000; 1320.000
465.410;   -1.875;  462.000;  735.000
465.530;   79.825; 1355.000; 1310.000
465.649;   62.425; 1209.000; 1273.000
465.768;  109.075; 1673.000; 1508.000
465.888;   50.225;  941.000; 1174.000
466.007;   87.850; 1335.000; 1440.000
466.126;  -20.575;  721.000;  641.000
466.245;   31.575; 1176.000; 1187.000
466.364;   33.900;  950.000; 1060.000
466.484;   43.250; 1024.000; 1213.000
466.603;   37.725; 1101.000; 1222.000
466.722;  102.025; 1490.000; 1769.000
466.841;   72.325; 1151.000; 1401.000
466.960;   31.500; 1069.000;  972.000
467.079;  126.350; 1971.000; 1786.000
467.198;   38.750; 1238.000; 1181.000
467.317;   67.350; 1768.000; 1162.000
467.436;   64.275; 1709.000; 1261.000
467.555;  116.300; 1796.000; 1746.000
467.674;   57.825; 1227.000; 1329.000
467.793;   44.225; 1376.000; 1374.000
467.912;   86.675; 1658.000; 1539.000
468.031;  121.525; 2038.000; 1930.000
468.150;  128.300; 1842.000; 1837.000
468.269;  186.825; 2313.000; 2090.000
468.388;  179.525; 2168.000; 2339.000
468.507;  240.125; 2884.000; 2903.000
468.626;  216.600; 2555.000; 2541.000
468.744;  145.525; 2018.000; 2174.000
468.863;  190.925; 2312.000; 2523.000
468.982;   90.375; 1503.000; 1555.000
469.101;  212.050; 2788.000; 2692.000
469.220;  136.375; 2333.000; 2176.000
469.338;  237.250; 2935.000; 3051.000
469.457;  200.500; 2719.000; 2545.000
469.576;  330.700; 3953.000; 3784.000
469.695;  237.450; 2877.000; 3066.000
469.813;  409.950; 4148.000; 4192.000
469.932;  397.925; 4255.000; 4485.000
470.051;  423.150; 4075.000; 4161.000
470.169;  880.425; 4470.000; 4338.000
470.288; 1474.900; 4700.000; 4809.000
470.406;  898.075; 5059.000; 5194.000
470.525;  618.150; 6101.000; 5787.000
470.644;  655.775; 6847.000; 6794.000
470.762;  803.800; 8397.000; 7873.000
470.881;  874.325; 8651.000; 8464.000
470.999; 1033.075; 9685.000; 9151.000
471.118; 1121.800;11174.000;10711.000

