
Integration time [ms]: 200.000
Averaging Nr. [scans]: 10
Smoothing Nr. [pixels]: 0
Data measured with spectrometer [name]: 2101012U2
Wave   ;Sample   ;Dark     ;Reference
[nm]   ;[counts] ;[counts] ;[counts] 

197.733;  128.300;  516.000;  404.000
197.879; -176.100; -610.000; -634.000
198.025; -100.800; -475.000; -420.000
198.171; -165.800; -602.000; -612.000
198.317;  -76.600; -401.000; -316.000
198.463; -147.900; -655.000; -404.000
198.609;   60.900;  181.000; -137.000
198.755; -191.300; -644.000; -410.000
198.901; -135.000; -505.000; -424.000
199.047; -124.600; -615.000; -488.000
199.193;  -85.700; -230.000; -468.000
199.339;  -86.800; -222.000; -369.000
199.485;   92.100;  330.000;  271.000
199.631;   11.200;  227.000;  310.000
199.777;  -95.000; -466.000; -398.000
199.923; -164.900; -610.000; -424.000
200.069;  -13.700; -141.000;  -58.000
200.215;   92.000;  128.000;  453.000
200.361;   96.500;  243.000;  477.000
200.507; -147.100; -600.000; -373.000
200.653;  -46.900; -371.000; -194.000
200.798; -100.800; -215.000; -125.000
200.944;  -10.600; -146.000;  -41.000
201.090;  100.300;   61.000;  222.000
201.236;   -8.600; -116.000; -158.000
201.382;  221.300;  874.000;  903.000
201.528;   -5.200;  -58.000;  -48.000
201.674;  -58.300; -386.000; -293.000
201.819; -106.600; -540.000; -439.000
201.965; -138.700; -699.000; -447.000
202.111;  -42.400; -273.000; -226.000
202.257; -116.900; -250.000; -238.000
202.402;    3.100;   13.000;  -36.000
202.548;  -83.200; -169.000; -116.000
202.694;  143.000;  410.000; -183.000
202.840; -165.700; -603.000; -531.000
202.985; -156.900; -681.000; -639.000
203.131; -210.200; -832.000; -666.000
203.277;  -60.400; -199.000; -262.000
203.423; -139.800; -434.000; -520.000
203.568;  -81.500; -462.000; -237.000
203.714; -134.800; -535.000; -542.000
203.860; -161.200; -682.000; -641.000
204.005;   18.100;  112.000;  167.000
204.151;  147.400;  561.000;  556.000
204.296; -116.800; -354.000; -221.000
204.442; -162.700; -600.000; -547.000
204.588; -179.300; -592.000; -579.000
204.733;   29.000;  178.000;  168.000
204.879; -243.100;-1018.000; -822.000
205.025;   28.400;  -99.000;  126.000
205.170;   12.900;  -17.000;   94.000
205.316;  182.200;  438.000;  661.000
205.461; -165.900; -698.000; -554.000
205.607;  168.900;  609.000;  665.000
205.752; -170.200; -626.000; -551.000
205.898; -139.400; -501.000; -391.000
206.043; -149.800; -578.000; -506.000
206.189;  -74.000; -243.000; -285.000
206.334;  140.000;  554.000;  606.000
206.480;  156.000;  409.000;  239.000
206.625; -185.700; -529.000; -552.000
206.771; -114.200; -451.000; -373.000
206.916;  -62.200; -210.000; -537.000
207.062; -149.100; -545.000; -591.000
207.207; -161.400; -546.000; -443.000
207.353;  120.500;  185.000;  460.000
207.498;   -0.200;  196.000;   85.000
207.643; -122.500; -501.000; -370.000
207.789; -279.900;-1069.000; -910.000
207.934; -169.700; -665.000; -713.000
208.080;  -83.200; -154.000;   66.000
208.225;  -13.200;  -22.000;  -57.000
208.370; -163.700; -727.000; -619.000
208.516; -168.600; -741.000; -487.000
208.661;  -70.100; -127.000;  -69.000
208.806;  -39.500; -165.000; -171.000
208.952; -263.000;-1044.000; -731.000
209.097;  174.200;  378.000;  349.000
209.242;  -76.300; -307.000; -382.000
209.387;  152.100;  392.000;  350.000
209.533; -132.800; -321.000; -350.000
209.678;  192.900;  472.000;  543.000
209.823; -135.300; -408.000; -310.000
209.969; -225.900; -860.000; -757.000
210.114; -253.000; -907.000; -719.000
210.259; -211.300; -939.000; -889.000
210.404;   -0.600; -171.000;  103.000
210.549;    9.000;  108.000;    3.000
210.695;  -39.700;   -3.000;  -95.000
210.840;   86.600;   94.000;   67.000
210.985; -105.600; -484.000; -303.000
211.130;  177.600;  268.000;  406.000
211.275;   29.700;  207.000;  199.000
211.420; -103.800; -300.000; -289.000
211.566; -180.000; -536.000; -489.000
211.711;   39.300;  218.000;  157.000
211.856; -162.500; -545.000; -519.000
212.001;   -4.300;  151.000;   44.000
212.146;   16.400;  153.000;   49.000
212.291;  -56.400; -210.000; -186.000
212.436;  -95.200; -280.000;   -6.000
212.581; -165.400; -685.000; -653.000
212.726; -177.800; -487.000; -538.000
212.871;  -98.700; -552.000; -217.000
213.016; -314.600;-1172.000;-1029.000
213.161;  119.000;  406.000;  291.000
213.306; -169.100; -435.000; -577.000
213.451; -155.900; -778.000; -689.000
213.596; -119.900; -455.000; -347.000
213.741; -120.100; -448.000; -538.000
213.886; -166.600; -498.000; -517.000
214.031;  -49.500; -294.000; -124.000
214.176;  -79.600; -408.000; -341.000
214.321;  -21.000; -296.000; -157.000
214.466;  -78.300; -163.000;  -43.000
214.611;  -17.300;  -61.000;  -10.000
214.756; -230.600; -948.000; -858.000
214.901;  -35.500; -388.000; -226.000
215.046; -255.500; -797.000; -825.000
215.191;   32.200;  128.000;   35.000
215.336;  -17.300; -157.000;  -19.000
215.480; -117.200; -684.000; -505.000
215.625;  -52.100; -175.000;  -19.000
215.770; -146.900; -757.000; -662.000
215.915;  -25.000;   -5.000;  -97.000
216.060;  -25.400; -113.000;  -21.000
216.205; -220.400; -731.000; -779.000
216.349; -152.700; -470.000; -533.000
216.494; -253.800; -939.000; -867.000
216.639; -235.600; -823.000; -888.000
216.784; -193.700; -577.000; -525.000
216.929;   96.100;  392.000;  281.000
217.073;   -6.500; -244.000;  -31.000
217.218;   31.900;   78.000;  -47.000
217.363; -184.700; -656.000; -618.000
217.507; -166.900; -623.000; -588.000
217.652; -270.400; -845.000; -874.000
217.797; -196.000; -708.000; -659.000
217.942; -215.400; -856.000; -720.000
218.086;  184.700;  608.000;  539.000
218.231;  -50.400; -174.000;  -26.000
218.376;  -37.700; -337.000; -229.000
218.520;   17.200;  -41.000;   96.000
218.665;  -64.000; -338.000; -204.000
218.810;  -96.300; -275.000; -233.000
218.954;   24.900;  201.000;   35.000
219.099; -236.200; -713.000; -963.000
219.243; -128.200; -589.000; -554.000
219.388;  -69.700; -264.000; -136.000
219.532;   -8.800; -116.000; -116.000
219.677; -197.800; -564.000; -521.000
219.822;   32.500;   33.000;   89.000
219.966;   -0.800;   17.000;  -99.000
220.111;  -66.400; -328.000;  -40.000
220.255; -204.100; -797.000; -750.000
220.400;  -36.900; -180.000; -146.000
220.544; -139.600; -516.000; -450.000
220.689; -108.100; -422.000; -451.000
220.833;  -30.700; -123.000;  -58.000
220.978;  -99.000; -393.000; -563.000
221.122;   57.100;  319.000;  307.000
221.267; -226.600; -906.000; -837.000
221.411; -134.600; -478.000; -394.000
221.555;   -3.800; -104.000;  -23.000
221.700; -119.100; -329.000; -222.000
221.844;   82.700;  255.000;  272.000
221.989; -107.000; -328.000; -311.000
222.133;  -80.400; -289.000; -307.000
222.277;  -15.400;    5.000;   78.000
222.422;   33.400;  227.000;  113.000
222.566;  -75.800; -381.000; -214.000
222.711; -101.500; -414.000; -479.000
222.855; -161.200; -643.000; -586.000
222.999; -153.100; -642.000; -717.000
223.144;  -60.200; -195.000; -194.000
223.288;   89.900;  423.000;  251.000
223.432;   35.800;  184.000;  230.000
223.576;   21.400;  152.000;  -21.000
223.721;   81.400;  364.000;  273.000
223.865; -110.500; -472.000; -475.000
224.009;  483.400; 1673.000; 1631.000
224.153; -128.700; -660.000; -671.000
224.298; -135.200; -531.000; -489.000
224.442;  -27.400;  -74.000;  -33.000
224.586;  -34.200; -169.000; -106.000
224.730; -179.200; -858.000; -670.000
224.875; -219.900; -739.000; -688.000
225.019;   18.400;  102.000;  188.000
225.163;  123.400;  208.000;  341.000
225.307;   47.600;   97.000;  -91.000
225.451;   95.300;  360.000;  481.000
225.595;   62.900;  264.000;  176.000
225.739;  -50.400; -170.000;  -94.000
225.884;   18.400;   86.000;    5.000
226.028; -212.200; -760.000; -626.000
226.172;  -56.000; -260.000; -273.000
226.316; -231.100; -941.000; -902.000
226.460; -115.800; -645.000; -493.000
226.604; -103.700; -406.000; -400.000
226.748; -184.500; -836.000; -733.000
226.892;  -55.500; -227.000; -181.000
227.036;  -77.400; -537.000; -447.000
227.180; -102.000; -551.000; -375.000
227.324; -130.800; -561.000; -580.000
227.468; -213.300; -819.000; -717.000
227.612;   15.900;  242.000;  -28.000
227.756; -238.300; -845.000; -698.000
227.900;  133.900;  342.000;  441.000
228.044; -135.500; -509.000; -290.000
228.188;  113.300;  448.000;  568.000
228.332; -183.600; -546.000; -472.000
228.476;  -67.200; -223.000; -149.000
228.620;  -48.700; -210.000; -150.000
228.764;  143.600;  431.000;  349.000
228.908;  -30.400; -155.000;   30.000
229.052; -120.000; -615.000; -528.000
229.195;  -33.300; -172.000;   13.000
229.339;  -40.300; -235.000; -305.000
229.483;  -59.100;    5.000; -162.000
229.627;   -4.700; -156.000;  139.000
229.771;  -60.300; -218.000; -294.000
229.915;   35.500;  230.000;   79.000
230.059; -195.500; -648.000; -663.000
230.202;  -51.600; -370.000; -317.000
230.346;  -17.500; -107.000;  107.000
230.490;  -98.200; -489.000; -521.000
230.634; -211.700; -736.000; -553.000
230.777;  176.000;  478.000;  509.000
230.921; -124.900; -450.000; -359.000
231.065;  -89.700; -246.000; -286.000
231.209;   40.600;  261.000;  265.000
231.352;   51.900;   54.000;   40.000
231.496;   69.700;  568.000;  188.000
231.640; -149.600; -693.000; -621.000
231.783;  103.200;  546.000;  525.000
231.927;  -93.700; -294.000; -365.000
232.071; -235.000; -962.000; -736.000
232.214; -225.800; -980.000; -764.000
232.358; -231.100; -683.000; -599.000
232.502;   10.400;  -19.000;    7.000
232.645; -289.500;-1090.000; -927.000
232.789;  -27.900; -257.000; -218.000
232.933; -106.200; -407.000; -224.000
233.076; -253.700;-1038.000; -897.000
233.220; -192.800; -752.000; -777.000
233.363; -137.000; -669.000; -477.000
233.507;  100.200;  371.000;  129.000
233.650; -194.600; -764.000; -834.000
233.794;   95.700;  438.000;  461.000
233.938; -121.400; -530.000; -362.000
234.081;  -18.500;  -93.000;   31.000
234.225; -105.500; -631.000; -539.000
234.368; -236.400; -773.000; -723.000
234.512;  -71.700; -385.000; -299.000
234.655; -164.000; -582.000; -555.000
234.798; -118.100; -493.000; -466.000
234.942; -258.500; -884.000;-1002.000
235.085; -134.500; -651.000; -443.000
235.229; -146.600; -405.000; -410.000
235.372;  -82.700; -247.000; -191.000
235.516;  -98.800; -397.000; -321.000
235.659;   15.900;   92.000;  121.000
235.802;  -25.900;  -38.000;  -22.000
235.946;   55.300;  335.000;  215.000
236.089;   49.600;  126.000;  250.000
236.233;  136.100;  275.000;  298.000
236.376;  -84.900; -235.000; -378.000
236.519;  -61.100; -297.000; -319.000
236.663;  -66.300; -215.000; -117.000
236.806; -261.100;-1029.000; -999.000
236.949;  130.300;  543.000;  431.000
237.092;  135.100;  412.000;  391.000
237.236; -152.700; -589.000; -502.000
237.379;  128.300;  352.000;  428.000
237.522; -233.600; -879.000; -768.000
237.666;  -16.900; -271.000;   18.000
237.809; -265.700; -851.000; -823.000
237.952;   82.000;  469.000;  271.000
238.095; -138.200; -447.000; -442.000
238.238;  166.400;  688.000;  700.000
238.382;   29.900;  166.000;  103.000
238.525; -112.900; -598.000; -511.000
238.668; -275.500;-1060.000; -985.000
238.811; -147.200; -638.000; -643.000
238.954; -114.200; -483.000; -334.000
239.097;  188.400;  617.000;  664.000
239.241;   26.500;  394.000;  326.000
239.384;  -67.700; -254.000; -214.000
239.527; -120.200; -424.000; -224.000
239.670; -296.800; -994.000;-1091.000
239.813; -211.000; -696.000; -658.000
239.956;  174.900;  579.000;  473.000
240.099; -229.000; -778.000; -725.000
240.242;  130.700;  428.000;  432.000
240.385;   78.800;  466.000;  450.000
240.528; -128.900; -706.000; -473.000
240.671;   20.900;  189.000;  134.000
240.814;  -79.900; -441.000; -158.000
240.957; -195.200; -767.000; -578.000
241.100; -186.300; -779.000; -755.000
241.243; -271.900;-1234.000; -893.000
241.386; -126.000; -508.000; -379.000
241.529; -168.300; -735.000; -547.000
241.672; -121.800; -566.000; -495.000
241.815; -213.700; -832.000; -808.000
241.958;  -69.200; -125.000; -182.000
242.101; -156.500; -545.000; -390.000
242.244;  -77.000; -270.000; -325.000
242.387; -118.500; -304.000; -246.000
242.530;  121.000;  470.000;  134.000
242.673;  -99.200; -381.000; -309.000
242.815; -203.000; -925.000; -899.000
242.958; -126.700; -482.000; -381.000
243.101;   28.600;  132.000;  187.000
243.244; -180.200; -564.000; -521.000
243.387;  -67.800; -313.000; -316.000
243.530; -199.100; -657.000; -674.000
243.672;    1.400;   43.000;  -92.000
243.815; -109.200; -355.000; -283.000
243.958;   34.000;   98.000;  -26.000
244.101;    0.900;   59.000;  -16.000
244.243;    4.300;  -47.000;  101.000
244.386; -235.800; -761.000; -630.000
244.529;  -51.300; -132.000; -139.000
244.672; -313.800;-1154.000; -951.000
244.814; -194.200; -621.000; -794.000
244.957;  -62.100; -380.000; -304.000
245.100; -155.200; -489.000; -489.000
245.242; -107.100; -387.000; -374.000
245.385;    8.200;  -59.000;  -39.000
245.528; -251.500; -871.000; -705.000
245.670;  237.600;  612.000;  634.000
245.813; -181.000; -599.000; -547.000
245.956;  -56.400; -324.000; -275.000
246.098; -128.700; -508.000; -650.000
246.241;  -15.100;  194.000;   48.000
246.383;  -16.400; -119.000;  -73.000
246.526; -137.400; -454.000; -525.000
246.669; -248.100; -889.000; -780.000
246.811;   56.100;  172.000;   -1.000
246.954; -106.600; -512.000; -426.000
247.096;  -55.400;  -84.000;   -6.000
247.239; -152.900; -482.000; -445.000
247.381; -127.200; -647.000; -488.000
247.524;  176.200;  645.000;  679.000
247.666;  -27.700;   58.000;   11.000
247.809; -239.500; -887.000; -691.000
247.951;   -4.100;  -75.000;  138.000
248.094;   36.800;  432.000;  308.000
248.236; -322.300;-1262.000;-1238.000
248.378;  -88.100; -356.000;  -81.000
248.521; -102.600; -334.000; -337.000
248.663; -115.100; -236.000; -267.000
248.806;  -40.000; -300.000; -266.000
248.948; -239.200; -886.000; -763.000
249.090; -117.400; -428.000; -398.000
249.233; -105.700; -344.000; -381.000
249.375; -114.200; -474.000; -451.000
249.518;  -59.200;  -83.000; -133.000
249.660;    4.200; -103.000;    3.000
249.802; -355.000;-1303.000;-1189.000
249.945; -158.000; -612.000; -540.000
250.087; -207.000; -834.000; -768.000
250.229; -117.000; -362.000; -480.000
250.371; -157.400; -494.000; -439.000
250.514; -111.100; -310.000; -244.000
250.656;   -9.600;   69.000;  102.000
250.798; -224.900; -849.000; -800.000
250.940; -103.500; -322.000; -322.000
251.083;  -39.200; -335.000; -111.000
251.225;   98.300;  338.000;  310.000
251.367;  -72.700; -274.000; -373.000
251.509; -106.800; -265.000; -210.000
251.651; -181.900; -731.000; -671.000
251.794;  149.200;  538.000;  632.000
251.936; -210.800; -821.000; -747.000
252.078; -159.800; -540.000; -461.000
252.220; -129.400; -645.000; -477.000
252.362;   65.900;  344.000;  462.000
252.504; -147.900; -677.000; -584.000
252.646; -205.600; -875.000; -722.000
252.788;  -36.400;   14.000; -128.000
252.931;  -70.000; -257.000; -253.000
253.073; -119.700; -376.000; -317.000
253.215;  -10.600;  141.000;  122.000
253.357;   -9.700;   82.000; -153.000
253.499;  -72.800; -374.000; -234.000
253.641; -170.400; -749.000; -594.000
253.783; -187.800; -609.000; -527.000
253.925; -148.800; -586.000; -591.000
254.067; -231.400; -744.000; -667.000
254.209;  -65.100; -391.000; -259.000
254.351; -268.600; -865.000; -883.000
254.493; -114.100; -441.000; -417.000
254.635; -236.600; -936.000; -818.000
254.777; -187.300; -752.000; -687.000
254.918; -166.500; -512.000; -430.000
255.060; -135.500; -551.000; -395.000
255.202; -138.900; -473.000; -261.000
255.344; -161.100; -658.000; -455.000
255.486; -146.500; -471.000; -406.000
255.628; -206.200; -780.000; -781.000
255.770; -159.400; -676.000; -536.000
255.912; -118.000; -559.000; -468.000
256.053; -194.100; -730.000; -508.000
256.195;  336.600; 1008.000;  903.000
256.337; -206.000; -861.000; -595.000
256.479;  135.600;  532.000;  416.000
256.621;  -92.100; -394.000; -212.000
256.762; -189.900; -789.000; -742.000
256.904;  125.300;  485.000;  487.000
257.046;  -92.900; -381.000; -271.000
257.188; -103.200; -351.000; -264.000
257.329; -114.000; -525.000; -464.000
257.471; -241.400; -939.000; -807.000
257.613; -125.400; -584.000; -498.000
257.755; -290.700;-1073.000; -982.000
257.896;   73.600;  286.000;  392.000
258.038; -141.200; -403.000; -352.000
258.180;  -59.200; -354.000; -279.000
258.321; -176.600; -581.000; -457.000
258.463;   18.900;  -71.000;  133.000
258.605; -200.400; -562.000; -570.000
258.746; -204.600; -886.000; -772.000
258.888; -337.300;-1026.000;-1020.000
259.029;   34.000;  121.000;   -8.000
259.171; -183.100; -614.000; -550.000
259.313;   14.100;  -49.000;  -47.000
259.454; -146.400; -536.000; -414.000
259.596;  -87.000; -483.000; -390.000
259.737; -129.300; -590.000; -474.000
259.879;   73.000;  217.000;  311.000
260.020;  200.100;  901.000;  636.000
260.162;  -53.900; -146.000; -253.000
260.303; -238.300; -768.000; -687.000
260.445; -166.400; -609.000; -613.000
260.586;   68.100;  392.000;  157.000
260.728;  -92.500; -360.000; -248.000
260.869; -125.900; -350.000; -343.000
261.011;  156.100;  706.000;  537.000
261.152; -117.400; -479.000; -319.000
261.293; -165.400; -576.000; -595.000
261.435;  -53.000; -219.000; -184.000
261.576;  -87.600; -455.000; -325.000
261.718;  113.600;  420.000;  470.000
261.859; -264.300; -940.000; -949.000
262.000; -275.800; -951.000;-1016.000
262.142;  -18.900;  -52.000;  -60.000
262.283; -215.900; -808.000; -691.000
262.424; -199.100; -666.000; -625.000
262.566; -316.400;-1161.000; -983.000
262.707; -217.400; -840.000; -830.000
262.848; -248.000; -769.000; -726.000
262.990;  -93.700; -362.000; -345.000
263.131;  157.100;  650.000;  681.000
263.272;   -1.700;  -61.000;  -41.000
263.413; -197.300; -589.000; -561.000
263.555; -133.000; -669.000; -143.000
263.696; -196.800; -550.000; -641.000
263.837; -104.100; -449.000; -551.000
263.978;  -27.900;   -5.000;  -77.000
264.119;  -79.100; -283.000; -264.000
264.261; -239.500; -847.000; -630.000
264.402;   19.600;   33.000;   40.000
264.543; -166.100; -509.000; -524.000
264.684;  -19.500;   61.000;  -50.000
264.825; -161.800; -816.000; -538.000
264.966;  -20.200;  -84.000;  -67.000
265.107; -213.400; -646.000; -670.000
265.248; -235.400; -825.000; -812.000
265.390;  -33.200;  152.000;   -9.000
265.531;  -25.000; -238.000; -107.000
265.672; -191.500; -557.000; -630.000
265.813;  126.600;  563.000;  439.000
265.954; -282.700; -959.000; -940.000
266.095;  -14.200; -372.000; -322.000
266.236; -206.900; -686.000; -548.000
266.377;  -75.000; -243.000; -297.000
266.518; -145.000; -619.000; -547.000
266.659;   65.800;  170.000;  268.000
266.800;    8.500;   83.000;   85.000
266.941; -145.100; -487.000; -478.000
267.082;   12.300;  354.000;   99.000
267.223; -131.400; -344.000; -273.000
267.364; -241.200; -892.000; -686.000
267.504;  -29.000;    3.000;  135.000
267.645;   -1.600;  160.000;   67.000
267.786;  -54.900; -147.000;  -86.000
267.927; -143.600; -473.000; -379.000
268.068;  -24.200; -186.000;  -61.000
268.209;  -99.900; -175.000; -413.000
268.350;  -41.900; -388.000; -532.000
268.490; -179.600; -648.000; -521.000
268.631;   76.700;  127.000;  225.000
268.772; -196.900; -874.000; -647.000
268.913;  -95.100; -328.000; -476.000
269.054;  -29.100; -117.000;   12.000
269.194;  -99.400; -418.000; -402.000
269.335; -319.900;-1137.000;-1074.000
269.476;  -25.000;   33.000;  -35.000
269.617; -131.000; -347.000; -392.000
269.757; -188.800; -713.000; -646.000
269.898; -219.100; -856.000; -613.000
270.039; -137.400; -415.000; -405.000
270.180; -263.300; -952.000; -816.000
270.320;  -41.000; -190.000; -250.000
270.461; -101.100; -277.000; -249.000
270.602;  -44.400; -186.000; -156.000
270.742; -234.400; -868.000; -943.000
270.883; -134.000; -442.000; -390.000
271.023; -130.200; -358.000; -357.000
271.164; -146.900; -607.000; -528.000
271.305; -192.200; -666.000; -654.000
271.445; -198.800; -722.000; -683.000
271.586; -136.600; -462.000; -283.000
271.726; -106.700; -397.000; -322.000
271.867; -145.200; -594.000; -534.000
272.008;  -75.400; -473.000; -285.000
272.148;  103.200;  462.000;  468.000
272.289;  -28.200; -113.000; -181.000
272.429;  -32.800;   19.000;  185.000
272.570; -201.000; -633.000; -737.000
272.710; -217.000; -825.000; -775.000
272.851;  -75.600;  113.000; -130.000
272.991; -339.500;-1173.000;-1077.000
273.131; -131.700; -419.000; -459.000
273.272; -191.900; -683.000; -723.000
273.412;  -35.400; -143.000;  -31.000
273.553; -153.500; -488.000; -507.000
273.693;  229.200;  913.000;  858.000
273.834; -258.800; -894.000; -692.000
273.974; -168.400; -664.000; -615.000
274.114; -205.000; -772.000; -560.000
274.255;  107.200;  414.000;  373.000
274.395;  -76.800; -180.000; -125.000
274.535;   65.100;  199.000;  350.000
274.676;   53.500;  225.000;   94.000
274.816;   -2.200;  110.000;   34.000
274.956; -198.400; -624.000; -690.000
275.097; -265.700;-1014.000; -922.000
275.237; -264.900; -913.000; -803.000
275.377; -222.300; -778.000; -689.000
275.517; -290.200; -878.000; -937.000
275.658; -159.900; -590.000; -555.000
275.798; -155.400; -606.000; -413.000
275.938;   82.300;  215.000;  323.000
276.078; -223.100; -626.000; -395.000
276.218;   12.400;   99.000;  104.000
276.359; -296.500;-1026.000;-1024.000
276.499; -147.800; -605.000; -446.000
276.639;  -76.800; -305.000; -151.000
276.779; -116.000; -475.000; -357.000
276.919; -220.200; -783.000; -624.000
277.059;  -70.400; -261.000; -212.000
277.199; -124.000; -357.000; -259.000
277.340;   73.700;  287.000;  175.000
277.480; -236.800; -840.000; -693.000
277.620;   52.200;  192.000;   16.000
277.760; -414.700;-1533.000;-1294.000
277.900;   27.100;  113.000;   33.000
278.040;    0.100;  137.000;  159.000
278.180;   42.300;  270.000;  170.000
278.320;   18.500;   21.000;   56.000
278.460; -115.000; -443.000; -469.000
278.600; -205.300; -708.000; -598.000
278.740;  112.500;  448.000;  224.000
278.880; -245.100; -768.000; -791.000
279.020;  -92.600; -194.000; -144.000
279.160; -192.200; -672.000; -595.000
279.300; -251.700; -926.000; -873.000
279.440; -200.400; -709.000; -622.000
279.579; -259.000;-1014.000; -929.000
279.719; -171.600; -410.000; -394.000
279.859;   34.400;   -4.000;   41.000
279.999;  -87.200; -208.000;  101.000
280.139; -121.900; -435.000; -387.000
280.279; -221.200; -708.000; -745.000
280.419;   16.600; -229.000; -147.000
280.559;  -84.800; -259.000; -180.000
280.698; -157.500; -790.000; -639.000
280.838; -217.200; -778.000; -800.000
280.978; -214.400; -846.000; -790.000
281.118; -231.100; -811.000; -704.000
281.257;   14.500;   24.000;    6.000
281.397; -305.800;-1094.000; -960.000
281.537; -216.800; -599.000; -712.000
281.677;  -59.200; -150.000; -101.000
281.816; -190.100; -700.000; -630.000
281.956;  -48.300; -193.000; -257.000
282.096; -132.000; -539.000; -396.000
282.235; -233.100; -672.000; -638.000
282.375;  -29.900; -243.000;  -98.000
282.515; -235.600; -715.000; -707.000
282.654;   12.700;   29.000;  106.000
282.794;   29.500;  388.000;  244.000
282.934; -131.900; -530.000; -491.000
283.073; -293.600;-1030.000; -857.000
283.213; -132.800; -460.000; -467.000
283.353;  -93.000; -408.000; -349.000
283.492;  -75.500; -264.000; -296.000
283.632;  -96.300; -254.000; -168.000
283.771; -188.200; -859.000; -730.000
283.911; -119.400; -369.000; -260.000
284.050; -213.900; -794.000; -748.000
284.190; -337.600;-1229.000;-1096.000
284.329; -272.800;-1055.000; -964.000
284.469; -204.800; -516.000; -591.000
284.608; -121.600; -559.000; -598.000
284.748; -179.700; -614.000; -570.000
284.887;    4.600;  -87.000;  -20.000
285.027; -259.700; -844.000; -892.000
285.166;  -70.300; -192.000; -249.000
285.306;  -73.600; -116.000;  -33.000
285.445; -116.100; -229.000; -343.000
285.584; -180.200; -630.000; -494.000
285.724;  -65.100; -282.000; -322.000
285.863; -231.800; -857.000; -507.000
286.002; -119.400; -366.000; -276.000
286.142; -228.900; -715.000; -622.000
286.281; -122.000; -525.000; -493.000
286.420; -171.100; -554.000; -417.000
286.560;  212.600;  653.000;  623.000
286.699; -270.900; -958.000; -912.000
286.838; -139.700; -590.000; -591.000
286.978; -202.500; -533.000; -537.000
287.117; -268.100;-1085.000; -950.000
287.256;  -67.800; -228.000; -211.000
287.395; -109.900; -197.000; -378.000
287.535; -116.300; -370.000; -298.000
287.674; -179.700; -509.000; -484.000
287.813;  151.500;  661.000;  533.000
287.952; -271.500;-1010.000; -871.000
288.091; -290.500;-1049.000; -915.000
288.231;   -9.500;   13.000;   15.000
288.370; -381.000;-1217.000;-1200.000
288.509; -177.100; -728.000; -645.000
288.648; -193.500; -770.000; -548.000
288.787;  -39.400; -243.000;  -87.000
288.926; -173.500; -454.000; -475.000
289.065;  210.500;  859.000;  672.000
289.204; -106.600; -377.000; -217.000
289.344; -214.500; -791.000; -690.000
289.483;   19.300;  416.000;  304.000
289.622;  -41.400; -291.000; -149.000
289.761;  -50.900; -309.000; -166.000
289.900; -204.100; -785.000; -626.000
290.039;  -49.300;  -12.000;  -95.000
290.178;  -77.900; -274.000; -180.000
290.317; -198.900; -618.000; -479.000
290.456; -120.900; -463.000; -451.000
290.595; -302.600; -961.000; -833.000
290.734; -292.600; -904.000; -891.000
290.873; -145.400; -456.000; -420.000
291.011; -233.300; -833.000; -843.000
291.150; -224.400; -770.000; -682.000
291.289;  -60.700; -343.000; -110.000
291.428; -210.300; -599.000; -480.000
291.567; -109.900; -370.000; -442.000
291.706;    0.400;  109.000;  154.000
291.845; -180.100; -597.000; -505.000
291.984; -357.800;-1234.000;-1061.000
292.122;  129.900;  602.000;  582.000
292.261;   59.800;  620.000;  463.000
292.400;   -3.900; -144.000;  211.000
292.539; -257.000; -959.000; -813.000
292.678;  -56.700; -325.000; -300.000
292.816; -349.800;-1136.000; -965.000
292.955; -208.100; -844.000; -684.000
293.094;  -59.700; -173.000; -337.000
293.233; -124.500; -556.000; -400.000
293.371;  -92.400; -225.000;  -84.000
293.510; -218.700; -866.000; -780.000
293.649; -278.500; -959.000; -924.000
293.787; -289.200;-1083.000;-1012.000
293.926;  -70.100; -113.000;  -32.000
294.065;  -95.400; -379.000; -290.000
294.203;   72.200;  298.000;  406.000
294.342;   30.200;   74.000;  156.000
294.481;12833.000;51180.000; -836.000
294.619;  -39.800; -425.000; -582.000
294.758; -344.500;-1230.000;-1137.000
294.896;   11.900; -125.000;    5.000
295.035; -289.100;-1040.000;-1006.000
295.174; -276.000;-1082.000; -954.000
295.312; -124.500; -323.000; -203.000
295.451; -105.000; -307.000; -428.000
295.589; -185.100; -389.000; -518.000
295.728;   -7.200; -292.000; -165.000
295.866;  -25.500;  -36.000;  -51.000
296.005; -152.000; -584.000; -341.000
296.143; -160.000; -558.000; -596.000
296.282; -227.000; -957.000; -881.000
296.420; -192.100; -657.000; -557.000
296.559; -194.700; -892.000; -633.000
296.697; -220.000; -847.000; -665.000
296.835; -317.900;-1141.000;-1002.000
296.974;   -6.200;  -23.000;   39.000
297.112; -107.800; -443.000; -504.000
297.251; -256.800; -815.000; -755.000
297.389; -154.800; -576.000; -438.000
297.527;  -42.600; -145.000;  -83.000
297.666; -149.500; -486.000; -438.000
297.804; -134.700; -404.000; -264.000
297.942;  -33.400; -136.000; -161.000
298.081;  -54.500; -183.000;   63.000
298.219;  -34.000;  -17.000;  -19.000
298.357; -100.200; -144.000;  -71.000
298.495; -229.000; -810.000; -812.000
298.634;   18.900;  245.000;  219.000
298.772;  -93.200; -220.000; -338.000
298.910; -137.900; -309.000; -182.000
299.048;  -22.200; -130.000; -153.000
299.187;  -99.400; -350.000; -250.000
299.325;  -29.400;   52.000;  122.000
299.463; -149.300; -389.000; -299.000
299.601; -102.200; -327.000; -271.000
299.739; -275.800; -908.000; -883.000
299.877; -208.300; -791.000; -703.000
300.016; -331.900;-1095.000; -935.000
300.154;  -10.500;  -19.000; -161.000
300.292; -135.700; -428.000; -348.000
300.430;  -62.900; -408.000; -291.000
300.568; -267.600; -940.000; -874.000
300.706; -128.800; -366.000; -469.000
300.844; -323.900;-1108.000; -979.000
300.982;   79.300;  246.000;  282.000
301.120; -287.800; -965.000; -866.000
301.258; -198.400; -812.000; -705.000
301.396;   20.000;  104.000;  -41.000
301.534;  -99.400; -218.000; -293.000
301.672; -194.500; -664.000; -521.000
301.810; -169.300; -613.000; -545.000
301.948;   11.300;   53.000;  149.000
302.086;  -57.400; -250.000;  -32.000
302.224; -179.000; -610.000; -585.000
302.362; -180.800; -558.000; -622.000
302.500; -252.700; -923.000; -893.000
302.638;   24.300;  128.000;  245.000
302.776;  -98.200; -352.000; -408.000
302.913;   72.300;  447.000;  236.000
303.051;  -54.100;  -86.000;  -23.000
303.189;   -4.800;   90.000;  118.000
303.327; -118.200; -341.000; -256.000
303.465; -192.900; -832.000; -588.000
303.603; -233.900; -805.000; -604.000
303.740;   61.400;  417.000;  241.000
303.878; -222.800; -800.000; -759.000
304.016; -221.800; -915.000; -790.000
304.154; -344.000;-1123.000;-1152.000
304.291; -145.200; -505.000; -554.000
304.429;   -2.500;  102.000;   74.000
304.567; -283.500; -908.000; -893.000
304.705; -172.500; -408.000; -515.000
304.842; -170.400; -616.000; -540.000
304.980;   23.900;  215.000;   35.000
305.118;  -99.200; -367.000; -365.000
305.255; -291.700; -945.000; -927.000
305.393;   62.600;  178.000;  239.000
305.531; -329.100;-1173.000; -956.000
305.668; -177.000; -663.000; -582.000
305.806; -142.000; -358.000; -439.000
305.943; -169.100; -629.000; -637.000
306.081;  -84.000; -378.000; -267.000
306.219; -231.500; -863.000; -748.000
306.356;   -9.100;  158.000;   27.000
306.494;  188.900;  981.000;  761.000
306.631;  -46.500;  -11.000;  -55.000
306.769; -130.500; -613.000; -485.000
306.906; -121.500; -284.000; -258.000
307.044; -125.600; -473.000; -488.000
307.181; -122.000; -410.000; -332.000
307.319;   34.100;  112.000;   87.000
307.456; -338.700;-1191.000;-1153.000
307.594; -245.600; -980.000; -727.000
307.731;  -83.900; -371.000; -164.000
307.868;  -34.400;  -15.000;   20.000
308.006; -317.000; -961.000; -847.000
308.143; -174.200; -618.000; -330.000
308.281;  -39.300;  -37.000; -254.000
308.418; -199.800; -748.000; -640.000
308.555; -154.300; -400.000; -250.000
308.693; -142.600; -577.000; -573.000
308.830; -256.200; -712.000; -657.000
308.967;  -68.100; -215.000;  -95.000
309.105; -133.000; -507.000; -396.000
309.242; -105.600; -468.000; -367.000
309.379; -193.600; -577.000; -655.000
309.517; -276.400; -936.000; -948.000
309.654; -253.400; -910.000; -734.000
309.791; -140.700; -662.000; -580.000
309.928; -302.600; -977.000; -914.000
310.065;  144.800;  819.000;  697.000
310.203; -266.700; -825.000; -850.000
310.340; -140.100; -465.000; -321.000
310.477; -200.900; -412.000; -516.000
310.614; -133.500; -383.000; -473.000
310.751; -163.800; -427.000; -518.000
310.889;  -48.600;    1.000;   11.000
311.026; -328.600;-1161.000; -939.000
311.163; -137.000; -386.000; -380.000
311.300; -173.900; -512.000; -479.000
311.437; -166.500; -658.000; -619.000
311.574; -334.500;-1226.000; -985.000
311.711; -144.000; -595.000; -433.000
311.848; -116.400; -380.000; -388.000
311.985;   -0.100;  270.000;   93.000
312.122; -256.600; -932.000; -762.000
312.259; -253.300; -941.000; -994.000
312.396; -198.900; -508.000; -551.000
312.533; -189.900; -812.000; -790.000
312.670; -321.000;-1070.000; -898.000
312.807;  -77.400; -352.000; -367.000
312.944; -196.200; -513.000; -611.000
313.081; -118.900; -150.000; -415.000
313.218; -304.000;-1111.000; -867.000
313.355; -116.600; -531.000; -449.000
313.492; -125.100; -455.000; -292.000
313.629;  195.900;  815.000;  735.000
313.766; -343.500;-1176.000;-1008.000
313.902;  -12.000; -186.000;   21.000
314.039; -120.900; -372.000; -289.000
314.176;   34.300;  286.000;  192.000
314.313; -181.300; -569.000; -473.000
314.450; -190.400; -788.000; -684.000
314.587; -149.100; -468.000; -480.000
314.723;    3.800;  -78.000;  130.000
314.860;   34.900;  318.000;  332.000
314.997;   28.500;  223.000;  142.000
315.134; -139.000; -385.000; -368.000
315.270; -140.200; -480.000; -496.000
315.407; -339.200;-1094.000; -967.000
315.544; -185.800; -657.000; -538.000
315.681; -230.900; -681.000; -565.000
315.817;  -42.200; -133.000; -176.000
315.954; -168.900; -613.000; -392.000
316.091; -310.200;-1045.000;-1023.000
316.227;  -68.800;  -71.000; -179.000
316.364;   17.900;   23.000;    6.000
316.500;  -91.200; -113.000; -300.000
316.637;  -88.400; -181.000; -302.000
316.774; -194.300; -625.000; -358.000
316.910; -186.000; -598.000; -629.000
317.047; -181.400; -487.000; -351.000
317.183; -160.100; -435.000; -566.000
317.320; -155.900; -367.000; -321.000
317.456; -240.000; -733.000; -805.000
317.593; -218.800; -598.000; -641.000
317.729;  -19.200;  168.000;  -67.000
317.866; -417.700;-1434.000;-1285.000
318.002; -188.500; -708.000; -948.000
318.139; -273.000; -883.000; -867.000
318.275; -255.400;-1003.000; -738.000
318.412; -129.700; -517.000; -336.000
318.548; -188.300; -751.000; -720.000
318.685; -298.500; -985.000; -888.000
318.821; -191.500; -762.000; -735.000
318.957;  -51.900;   34.000;  -23.000
319.094;   84.400;  297.000;  154.000
319.230; -247.400; -756.000; -742.000
319.367; -150.900; -471.000; -520.000
319.503; -151.400; -538.000; -436.000
319.639; -253.900; -877.000; -793.000
319.775; -237.800; -750.000; -685.000
319.912; -131.100; -424.000; -519.000
320.048; -344.800;-1184.000;-1184.000
320.184;   20.900;   59.000;   70.000
320.321; -157.100; -497.000; -467.000
320.457;   83.700;  475.000;  662.000
320.593; -150.300; -375.000; -382.000
320.729; -217.000; -732.000; -734.000
320.866; -214.500; -577.000; -635.000
321.002; -239.200; -759.000; -809.000
321.138;  -97.400; -135.000; -211.000
321.274;  -43.400; -148.000; -115.000
321.410; -174.600; -585.000; -353.000
321.546; -249.400;-1011.000; -911.000
321.683;   33.500;  400.000;  185.000
321.819;  -36.300;  -48.000; -117.000
321.955; -241.400; -743.000; -722.000
322.091; -136.400; -585.000; -540.000
322.227;  -85.700; -382.000; -202.000
322.363; -109.100; -320.000; -215.000
322.499; -138.400; -343.000; -331.000
322.635;  148.000;  636.000;  443.000
322.771;  -61.900; -139.000;   12.000
322.907;   87.200;  129.000;  327.000
323.043; -108.700; -115.000; -206.000
323.179; -123.000; -394.000; -363.000
323.315; -141.400; -401.000; -371.000
323.451;  -92.000; -328.000; -236.000
323.587;  -70.200;  -60.000;  -77.000
323.723; -213.200; -682.000; -601.000
323.859;  -75.800; -258.000;  -76.000
323.995;  -94.200; -467.000; -409.000
324.131; -273.400; -967.000; -892.000
324.267;  -69.800; -254.000; -276.000
324.402; -279.600; -960.000; -983.000
324.538;  -78.100; -279.000; -104.000
324.674;    8.700;  164.000;   77.000
324.810;   18.600;  226.000;  308.000
324.946; -108.200; -810.000; -658.000
325.082; -155.400; -568.000; -475.000
325.217;  -42.000;  -62.000;   16.000
325.353; -211.000; -764.000; -659.000
325.489; -184.200; -540.000; -506.000
325.625; -135.400; -579.000; -525.000
325.760;   42.800;  517.000;  376.000
325.896; -149.500; -515.000; -702.000
326.032; -116.100; -403.000; -352.000
326.168; -128.000; -462.000; -369.000
326.303; -113.000; -352.000; -461.000
326.439;  -89.800; -336.000; -276.000
326.575;  -65.600; -190.000;  -29.000
326.710;  -44.900; -156.000;  -30.000
326.846;  -44.600;  146.000;  103.000
326.982; -161.900; -530.000; -548.000
327.117; -171.800; -481.000; -442.000
327.253; -224.900; -745.000; -742.000
327.388; -370.400;-1137.000;-1153.000
327.524; -201.000; -811.000; -578.000
327.659;  -59.900;  -58.000;  -22.000
327.795;  -29.900;   69.000;   45.000
327.931; -192.700; -723.000; -499.000
328.066; -112.000; -417.000; -276.000
328.202;  -56.600;   12.000; -129.000
328.337;  211.900;  957.000;  713.000
328.473;   -8.200;  -12.000;  -74.000
328.608;  -74.500; -256.000; -267.000
328.743; -245.200; -799.000; -664.000
328.879;   40.200;  214.000;  114.000
329.014; -150.700; -102.000; -122.000
329.150; -197.900; -358.000; -483.000
329.285; -169.700; -465.000; -466.000
329.421;  -96.600; -548.000; -246.000
329.556;  -28.000;  -36.000;   85.000
329.691; -177.200; -633.000; -615.000
329.827; -192.600; -626.000; -480.000
329.962;  -82.600;  131.000; -301.000
330.097; -187.700; -673.000; -585.000
330.233; -102.200; -410.000; -223.000
330.368; -246.100; -839.000; -628.000
330.503;  -30.100;    3.000;   98.000
330.638;  -15.800;  -93.000; -125.000
330.774; -187.600; -609.000; -530.000
330.909; -107.700; -434.000; -244.000
331.044; -190.600; -714.000; -708.000
331.179; -333.100;-1217.000;-1109.000
331.315;   27.500;   77.000;   20.000
331.450;   38.800;  157.000;  285.000
331.585; -216.000; -805.000; -706.000
331.720; -178.700; -510.000; -460.000
331.855;  -64.700;  -35.000; -102.000
331.990;  -64.000;   62.000;  138.000
332.126;   12.800; -110.000;   71.000
332.261; -158.100; -379.000; -265.000
332.396;  -76.000; -135.000; -242.000
332.531; -278.300;-1074.000;-1031.000
332.666; -105.200; -519.000; -363.000
332.801; -231.000; -726.000; -807.000
332.936;  -26.700; -192.000; -122.000
333.071; -324.500; -870.000; -817.000
333.206;   27.700;  307.000;  379.000
333.341;   45.300;  344.000;  418.000
333.476; -172.100; -627.000; -623.000
333.611;  -97.600; -251.000; -173.000
333.746; -124.800; -381.000; -464.000
333.881; -290.000; -973.000; -935.000
334.016; -264.700; -936.000; -917.000
334.151; -249.500; -746.000; -702.000
334.286;   17.300;  152.000;  186.000
334.421;  -74.000; -125.000; -178.000
334.556; -173.600; -611.000; -567.000
334.690; -205.600; -631.000; -577.000
334.825;   84.600;  381.000;   83.000
334.960; -141.800; -285.000; -413.000
335.095;  -29.000;  135.000;  -91.000
335.230; -229.200; -722.000; -738.000
335.365; -280.500;-1084.000; -990.000
335.499; -317.900;-1108.000;-1037.000
335.634;  -12.800;    9.000;  534.000
335.769; -275.600; -755.000; -720.000
335.904; -202.700; -603.000; -561.000
336.038; -227.300; -735.000; -657.000
336.173; -347.200;-1206.000;-1194.000
336.308;  -91.600; -116.000; -189.000
336.443; -168.700; -544.000; -634.000
336.577; -266.100; -936.000; -787.000
336.712;  -40.600;   -4.000;  -12.000
336.847; -206.700; -724.000; -607.000
336.981; -135.400; -272.000; -208.000
337.116;   80.700;  615.000;  501.000
337.250; -157.400; -434.000; -421.000
337.385; -133.900; -297.000; -208.000
337.520; -185.400; -632.000; -603.000
337.654; -130.500; -215.000; -126.000
337.789; -281.700; -989.000; -933.000
337.923;  -99.600; -104.000; -205.000
338.058; -208.900; -673.000; -738.000
338.192; -205.400; -611.000; -488.000
338.327;  -49.400;  -18.000; -155.000
338.461; -184.500; -299.000; -469.000
338.596; -236.900; -780.000; -638.000
338.730; -232.500; -767.000; -803.000
338.865;  -46.500;  -46.000; -140.000
338.999; -277.100; -846.000; -702.000
339.134; -189.500; -634.000; -536.000
339.268; -223.900; -741.000; -603.000
339.403; -220.900; -740.000; -775.000
339.537; -246.700; -894.000; -820.000
339.671; -233.500; -829.000; -813.000
339.806; -207.000; -556.000; -512.000
339.940;  -80.800; -261.000; -235.000
340.074; -197.500; -685.000; -510.000
340.209;  -93.000; -351.000; -230.000
340.343; -181.700; -517.000; -573.000
340.477;  287.600;  998.000; 1036.000
340.612; -278.100;-1033.000; -900.000
340.746; -118.500; -199.000; -243.000
340.880; -304.800; -924.000; -785.000
341.014;  -31.900;  -45.000; -154.000
341.149; -245.900; -756.000; -718.000
341.283; -236.100; -839.000; -754.000
341.417; -314.400;-1124.000; -938.000
341.551; -217.600; -768.000; -708.000
341.685; -228.100; -633.000; -611.000
341.820; -179.100; -562.000; -493.000
341.954; -158.000; -218.000; -349.000
342.088; -278.900;-1102.000;-1019.000
342.222;   93.000;  565.000;  618.000
342.356; -157.100; -395.000; -335.000
342.490; -248.200; -880.000; -841.000
342.624; -110.700; -339.000; -242.000
342.758; -113.900; -364.000; -312.000
342.892; -209.200; -710.000; -585.000
343.026;  -84.800;  -58.000; -116.000
343.160; -123.300; -426.000; -376.000
343.294; -140.100; -474.000; -337.000
343.428; -167.400; -488.000; -448.000
343.562;  -51.100; -172.000;  -23.000
343.696;  -85.900; -385.000; -314.000
343.830; -110.200; -362.000; -356.000
343.964;  -39.900; -231.000; -168.000
344.098;    0.200;  199.000;   70.000
344.232;  -76.000; -266.000; -127.000
344.366; -201.700; -567.000; -453.000
344.500; -189.600; -665.000; -744.000
344.634; -109.000; -324.000; -164.000
344.768; -148.600; -531.000; -341.000
344.902;   -0.200;  278.000;  256.000
345.035; -153.900; -556.000; -496.000
345.169; -275.900; -933.000; -656.000
345.303; -150.200; -308.000; -482.000
345.437; -261.300; -826.000; -717.000
345.571; -205.800; -675.000; -594.000
345.704; -178.800; -309.000; -532.000
345.838; -105.900; -331.000; -284.000
345.972; -198.900; -543.000; -495.000
346.106;  -15.700; -179.000; -190.000
346.239;  -66.900; -312.000; -243.000
346.373; -103.900; -343.000; -302.000
346.507; -313.400; -950.000; -962.000
346.640;  -50.900;  -30.000;   13.000
346.774; -223.800; -650.000; -797.000
346.908;  -42.900; -138.000;  -11.000
347.041; -214.300; -646.000; -593.000
347.175;   21.500;  259.000;   27.000
347.309; -198.200; -698.000; -628.000
347.442; -248.100; -883.000; -732.000
347.576;  176.200;  670.000;  668.000
347.709;   -9.000; -123.000;  -52.000
347.843; -274.200; -933.000; -825.000
347.976;   72.800;  235.000;  294.000
348.110; -360.100;-1268.000;-1186.000
348.243; -210.900; -679.000; -772.000
348.377;  -39.600;  -26.000;   60.000
348.510;  106.000;  403.000;  540.000
348.644; -125.200;  -37.000; -159.000
348.777;  -17.700;  180.000;  191.000
348.911; -102.900; -142.000; -112.000
349.044;   82.800;  471.000;  448.000
349.178; -343.600;-1069.000;-1006.000
349.311;   54.700;  141.000;  255.000
349.444; -274.700; -927.000; -813.000
349.578;  -80.100; -347.000; -200.000
349.711; -306.500; -959.000; -862.000
349.845; -195.800; -661.000; -591.000
349.978; -363.400;-1224.000;-1137.000
350.111; -205.200; -546.000; -612.000
350.244; -237.100; -596.000; -700.000
350.378; -129.300; -392.000; -393.000
350.511; -132.100; -393.000; -426.000
350.644; -222.900; -808.000; -806.000
350.778;  -33.300;  168.000;  104.000
350.911;   11.500;  134.000;  140.000
351.044; -244.500; -685.000; -615.000
351.177; -100.400; -321.000; -281.000
351.310;  -47.400;    3.000; -131.000
351.444; -263.800; -888.000; -788.000
351.577;    1.300;  140.000;   90.000
351.710;  142.600;  593.000;  417.000
351.843;  -85.900; -165.000;  -77.000
351.976;   -5.500;  149.000;  -79.000
352.109; -226.100; -621.000; -612.000
352.242; -153.300; -464.000; -419.000
352.376; -197.100; -580.000; -636.000
352.509; -136.200; -437.000; -356.000
352.642; -329.400; -654.000; -604.000
352.775;  -66.200; -141.000;  -98.000
352.908; -280.500; -933.000; -904.000
353.041; -238.400; -814.000; -824.000
353.174; -168.500; -551.000; -424.000
353.307; -207.600; -753.000; -764.000
353.440;   75.900;  541.000;  453.000
353.573; -278.700; -957.000;-1008.000
353.706; -214.200; -384.000; -558.000
353.839; -107.300; -264.000; -220.000
353.971; -209.400; -657.000; -512.000
354.104; -264.800; -896.000; -835.000
354.237; -248.300; -627.000; -662.000
354.370; -251.200; -846.000; -879.000
354.503; -390.300;-1231.000;-1308.000
354.636; -119.100; -529.000; -348.000
354.769; -324.100; -937.000; -860.000
354.902;  -95.100; -230.000; -139.000
355.034;  -64.700; -164.000; -220.000
355.167; -104.900; -262.000; -162.000
355.300; -288.000;-1061.000; -880.000
355.433;   -6.600;  -71.000;  -14.000
355.565; -173.500; -402.000; -384.000
355.698; -135.800; -356.000; -296.000
355.831; -268.100; -882.000; -801.000
355.964; -105.100; -285.000; -170.000
356.096; -318.900; -856.000; -843.000
356.229; -195.600; -523.000; -530.000
356.362; -122.700; -373.000; -266.000
356.494;  -74.900; -229.000; -162.000
356.627;   14.600;  269.000;  377.000
356.760;  -11.100;  120.000;   53.000
356.892; -224.700; -286.000; -601.000
357.025;   96.900;  403.000;  389.000
357.157;  -71.200; -167.000; -179.000
357.290; -278.500; -856.000; -713.000
357.423; -237.100; -667.000; -556.000
357.555;  -75.500; -217.000; -228.000
357.688; -165.900; -483.000; -364.000
357.820; -261.100; -870.000; -877.000
357.953; -206.600; -563.000; -589.000
358.085; -222.700; -632.000; -612.000
358.218; -333.900;-1131.000; -932.000
358.350;  -20.800;  -58.000;  312.000
358.483; -367.400;-1300.000;-1187.000
358.615; -290.500;-1182.000;-1078.000
358.747; -368.500;-1187.000;-1058.000
358.880; -226.900; -810.000; -744.000
359.012; -148.900; -376.000; -202.000
359.145; -167.400; -480.000; -511.000
359.277; -285.800; -962.000; -913.000
359.409;   72.300;  536.000;  231.000
359.542; -257.800; -738.000; -688.000
359.674;   -3.100;   46.000;   13.000
359.806; -167.800; -565.000; -438.000
359.939; -150.400; -617.000; -516.000
360.071; -186.700; -583.000; -579.000
360.203; -141.500; -411.000; -364.000
360.335;  -21.600;  164.000;  -16.000
360.468;  -89.600; -249.000; -307.000
360.600; -215.200; -547.000; -454.000
360.732; -189.500; -546.000; -423.000
360.864; -391.100;-1216.000;-1044.000
360.996; -141.700; -516.000; -554.000
361.129; -172.800; -389.000; -598.000
361.261;  -13.900;  110.000; -113.000
361.393; -118.300; -252.000; -214.000
361.525;   12.700;   94.000;  244.000
361.657; -242.900; -821.000; -703.000
361.789;  -64.600; -139.000; -155.000
361.921; -233.000; -642.000; -593.000
362.053;  100.200;  524.000;  541.000
362.185;  -20.500;  288.000;   72.000
362.318; -219.900; -709.000; -705.000
362.450;   29.600;  294.000;  444.000
362.582; -261.600; -913.000; -870.000
362.714; -116.100; -353.000; -332.000
362.846; -188.700; -606.000; -490.000
362.978; -275.800; -941.000; -811.000
363.109;  -94.200; -161.000; -260.000
363.241; -245.400; -739.000; -749.000
363.373; -180.600; -649.000; -564.000
363.505;  -61.100; -186.000;  -91.000
363.637; -180.000; -787.000; -601.000
363.769; -333.900;-1067.000;-1080.000
363.901; -181.600; -596.000; -654.000
364.033; -354.300;-1103.000;-1062.000
364.165;  -51.900; -283.000; -283.000
364.296; -134.200; -316.000; -177.000
364.428; -354.800;-1344.000;-1220.000
364.560; -223.200; -679.000; -661.000
364.692; -171.600; -738.000; -835.000
364.824; -203.900; -588.000; -456.000
364.955; -120.200; -402.000; -564.000
365.087; -345.300;-1097.000; -852.000
365.219; -225.600; -686.000; -816.000
365.351; -184.600; -526.000; -572.000
365.482;   41.000;  300.000;  240.000
365.614; -121.000; -402.000; -314.000
365.746; -228.000; -729.000; -752.000
365.877; -255.800; -706.000; -672.000
366.009;  -54.000;  -35.000;  -62.000
366.141; -368.100;-1249.000;-1134.000
366.272; -245.100; -803.000; -719.000
366.404; -292.300;-1005.000; -874.000
366.535;  -21.900; -139.000;  -12.000
366.667; -204.300; -644.000; -649.000
366.799;   47.000;  353.000;  203.000
366.930; -296.300; -862.000; -996.000
367.062; -169.500; -639.000; -613.000
367.193; -267.200; -872.000; -842.000
367.325; -192.200; -580.000; -684.000
367.456; -119.500; -246.000;   31.000
367.588; -125.100; -371.000; -318.000
367.719;  -70.900;  -44.000;  -45.000
367.851;  -90.300; -222.000; -241.000
367.982; -299.100; -875.000; -732.000
368.113; -130.600; -475.000; -358.000
368.245; -278.400; -960.000; -841.000
368.376;  -63.800; -254.000; -302.000
368.508; -108.000; -188.000; -263.000
368.639; -327.700;-1166.000;-1034.000
368.770; -246.800; -670.000; -589.000
368.902; -243.300; -836.000; -926.000
369.033; -270.300; -906.000; -855.000
369.164; -201.200; -720.000; -653.000
369.296; -232.300; -452.000; -601.000
369.427;  -86.100; -209.000; -144.000
369.558; -171.200; -593.000; -377.000
369.689; -214.800; -721.000; -569.000
369.821; -290.600; -951.000; -845.000
369.952;  -35.900;   42.000; -108.000
370.083; -133.600; -229.000; -108.000
370.214; -201.200; -735.000; -650.000
370.345;  -50.400;   65.000;   81.000
370.477; -241.800; -810.000; -790.000
370.608; -117.700; -328.000; -264.000
370.739; -362.900;-1233.000;-1292.000
370.870; -305.000;-1102.000; -923.000
371.001; -125.600; -378.000; -467.000
371.132; -247.300; -754.000; -735.000
371.263;  -69.000;  -42.000; -148.000
371.394; -279.600; -841.000; -748.000
371.525;   70.400;  345.000;  225.000
371.657; -251.800; -808.000; -670.000
371.788;   24.600;  103.000;  199.000
371.919; -166.600; -384.000; -304.000
372.050;  -51.300;  -91.000; -156.000
372.181;  -62.400; -188.000; -294.000
372.311;  -19.900;   42.000; -127.000
372.442; -157.200; -457.000; -451.000
372.573; -117.200; -444.000; -340.000
372.704; -315.900;-1008.000; -980.000
372.835; -111.200; -228.000; -289.000
372.966; -216.800; -646.000; -554.000
373.097; -197.700; -575.000; -711.000
373.228; -215.300; -717.000; -542.000
373.359; -215.700; -824.000; -536.000
373.490; -261.500; -881.000; -727.000
373.620; -294.400;-1001.000; -803.000
373.751; -169.400; -332.000; -396.000
373.882; -182.400; -663.000; -733.000
374.013; -126.200; -449.000; -262.000
374.143; -188.900; -581.000; -659.000
374.274; -315.400; -987.000; -908.000
374.405;  -90.000; -388.000; -276.000
374.536; -182.400; -526.000; -387.000
374.666; -231.700; -759.000; -807.000
374.797; -274.000; -817.000; -868.000
374.928; -193.200; -710.000; -560.000
375.058; -206.000; -535.000; -500.000
375.189;  -57.200;  -59.000;  -93.000
375.320; -334.500; -928.000;-1034.000
375.450; -201.300; -625.000; -616.000
375.581; -180.200; -526.000; -436.000
375.712; -107.100; -574.000; -250.000
375.842; -203.600; -438.000; -415.000
375.973; -202.100; -554.000; -513.000
376.103; -236.500; -665.000; -648.000
376.234; -187.600; -531.000; -552.000
376.364; -286.600; -944.000; -867.000
376.495;  155.000;  925.000;  529.000
376.625; -207.300; -472.000; -485.000
376.756; -230.000; -709.000; -678.000
376.886; -385.200;-1178.000;-1026.000
377.017; -337.400;-1048.000;-1061.000
377.147; -276.200; -786.000; -782.000
377.278;   40.900;  174.000;  228.000
377.408; -271.100; -801.000; -815.000
377.538; -216.400; -707.000; -693.000
377.669; -214.600; -537.000; -613.000
377.799; -252.100; -645.000; -635.000
377.929; -173.500; -610.000; -428.000
378.060; -267.300; -781.000; -847.000
378.190; -226.900; -726.000; -531.000
378.320; -150.600; -401.000; -406.000
378.451;  -47.800; -131.000;  -22.000
378.581;  -47.100;  -67.000; -110.000
378.711;  207.100; 1035.000;  866.000
378.841; -187.200; -533.000; -675.000
378.972; -270.200; -871.000; -751.000
379.102; -216.500; -652.000; -579.000
379.232; -139.900; -126.000;  -73.000
379.362; -259.600;-1001.000; -885.000
379.492; -194.500; -373.000; -424.000
379.623;   55.700;    0.000;  111.000
379.753; -310.200;-1107.000; -974.000
379.883;   26.800;   59.000;  156.000
380.013; -340.800;-1081.000;-1017.000
380.143; -320.600;-1097.000;-1056.000
380.273; -298.500; -985.000; -861.000
380.403;  -99.900; -344.000; -257.000
380.533; -226.700; -651.000; -664.000
380.663;    2.700;  173.000;  128.000
380.793; -330.500;-1027.000;-1074.000
380.923;  -72.600; -103.000;  -34.000
381.053; -224.200; -613.000; -623.000
381.183;  -76.400; -106.000; -248.000
381.313; -213.300; -656.000; -470.000
381.443; -169.900; -692.000; -473.000
381.573; -152.900; -402.000; -409.000
381.703; -354.300;-1249.000;-1095.000
381.833; -435.700;-1454.000;-1336.000
381.963;    5.700; -134.000;  -87.000
382.093; -312.700; -925.000; -909.000
382.223; -215.100; -713.000; -602.000
382.353; -268.000; -801.000; -608.000
382.482; -323.700;-1091.000; -964.000
382.612; -256.800; -872.000; -644.000
382.742; -215.000; -695.000; -622.000
382.872; -187.900; -565.000; -551.000
383.002;    8.500;  347.000; -132.000
383.131; -145.700; -226.000; -160.000
383.261; -249.200; -706.000; -768.000
383.391; -198.300; -552.000; -377.000
383.521;   55.500;  451.000;  263.000
383.650; -293.800; -947.000; -904.000
383.780; -205.600; -783.000; -656.000
383.910;  154.700;  880.000;  802.000
384.039; -286.800; -794.000; -656.000
384.169; -354.100;-1205.000;-1017.000
384.299; -204.200; -650.000; -662.000
384.428; -225.300; -764.000; -680.000
384.558; -118.700; -308.000; -275.000
384.687; -184.200; -414.000; -334.000
384.817;  -16.900;   75.000;   -2.000
384.947; -102.600; -234.000; -141.000
385.076;  250.100;  982.000;  912.000
385.206;   61.700;  369.000;  480.000
385.335; -156.700; -549.000; -417.000
385.465; -256.700; -655.000; -663.000
385.594;  -34.900;  -53.000;  -44.000
385.724; -276.800; -868.000; -838.000
385.853; -126.800; -296.000; -270.000
385.982; -253.300; -743.000; -787.000
386.112; -283.000;-1052.000; -871.000
386.241; -168.000; -307.000; -312.000
386.371; -103.900; -174.000;  -87.000
386.500; -284.400; -825.000; -789.000
386.629; -257.600; -874.000; -817.000
386.759;  -49.200;  -43.000;   68.000
386.888;  -92.300; -170.000; -250.000
387.017; -214.700; -648.000; -620.000
387.147; -234.000; -771.000; -798.000
387.276; -183.500; -410.000; -397.000
387.405;  -85.900; -398.000; -342.000
387.535; -196.800; -452.000; -361.000
387.664; -194.900; -692.000; -620.000
387.793;  -84.100; -198.000; -113.000
387.922;   16.200;  255.000;  200.000
388.052; -180.800; -576.000; -423.000
388.181; -124.400; -342.000; -472.000
388.310; -261.800; -889.000; -710.000
388.439; -250.700; -749.000; -742.000
388.568;   15.500;  365.000;  244.000
388.697; -215.000; -756.000; -653.000
388.826; -198.000; -768.000; -666.000
388.956;  -90.700; -285.000; -307.000
389.085; -115.000; -347.000; -287.000
389.214; -261.100; -842.000; -872.000
389.343; -219.800; -645.000; -413.000
389.472;   17.500;  126.000;  149.000
389.601;  -24.700;   91.000;    0.000
389.730; -185.600; -568.000; -687.000
389.859;   57.300;  226.000;   46.000
389.988; -118.900; -423.000; -408.000
390.117; -116.800; -168.000; -146.000
390.246;  -89.700; -331.000; -320.000
390.375; -224.400; -673.000; -626.000
390.504; -196.500; -703.000; -621.000
390.633; -268.400; -672.000; -726.000
390.761; -211.500; -732.000; -645.000
390.890;  -43.900;   -4.000; -130.000
391.019; -157.000; -421.000; -441.000
391.148; -298.400; -826.000; -855.000
391.277; -192.200; -576.000; -493.000
391.406; -268.900; -821.000; -805.000
391.534;   -7.500;  574.000; -301.000
391.663; -224.900; -583.000; -645.000
391.792; -217.300; -673.000; -701.000
391.921;  -62.600;   -3.000;   15.000
392.050; -122.400; -287.000; -228.000
392.178; -365.100;-1206.000;-1061.000
392.307; -252.200; -758.000; -712.000
392.436; -227.000; -427.000; -641.000
392.564;  -28.900;  166.000;   -6.000
392.693; -252.600; -860.000; -682.000
392.822; -193.700; -529.000; -534.000
392.950; -247.200; -880.000; -714.000
393.079; -134.500; -188.000; -328.000
393.208; -201.500; -488.000; -511.000
393.336;  -63.400; -170.000; -145.000
393.465; -124.100; -317.000; -199.000
393.593;  -11.600;   62.000;   79.000
393.722; -331.800;-1121.000; -916.000
393.850;  -52.700; -188.000;  -61.000
393.979; -330.900; -926.000; -805.000
394.107; -203.400; -517.000; -537.000
394.236; -205.700; -570.000; -507.000
394.364;   45.400;  383.000;  206.000
394.493; -290.500; -911.000; -767.000
394.621; -269.100; -955.000; -916.000
394.750; -293.500; -873.000; -923.000
394.878;  -93.600; -247.000; -149.000
395.007; -253.000; -721.000; -807.000
395.135; -249.500; -790.000; -721.000
395.263; -314.200;-1038.000;-1040.000
395.392;   -5.700;  -25.000; -107.000
395.520; -186.000; -818.000; -679.000
395.648; -268.200; -865.000; -915.000
395.777; -174.500; -366.000; -405.000
395.905; -156.600; -449.000; -564.000
396.033;   -6.800;  217.000;  172.000
396.162; -122.300; -399.000; -453.000
396.290;  -73.200;  -17.000;   -2.000
396.418; -204.000; -555.000; -514.000
396.546; -285.800; -571.000; -466.000
396.674; -284.900; -850.000; -878.000
396.803;  -56.900;  -72.000;  -23.000
396.931; -103.300; -179.000; -199.000
397.059; -328.000;-1026.000; -989.000
397.187; -307.600;-1026.000; -975.000
397.315; -277.900; -884.000; -649.000
397.443; -182.500; -592.000; -443.000
397.572; -199.300; -578.000; -424.000
397.700; -215.000; -607.000; -614.000
397.828;  -85.700;  120.000;  -90.000
397.956; -185.100; -508.000; -478.000
398.084; -267.200; -767.000; -626.000
398.212;  -33.000;  137.000;  124.000
398.340;   -7.500;  -56.000;  159.000
398.468;  -99.700; -390.000; -169.000
398.596; -306.000; -993.000; -953.000
398.724; -251.900; -762.000; -767.000
398.852; -292.200;-1024.000; -976.000
398.980; -156.900; -560.000; -560.000
399.108; -255.800; -982.000; -735.000
399.236;  -65.500;   13.000;    8.000
399.363;   -3.700;  222.000;  196.000
399.491; -161.800; -404.000; -398.000
399.619; -280.700; -829.000; -800.000
399.747; -287.600; -859.000; -771.000
399.875;   27.300;  220.000;  234.000
400.003; -159.400; -359.000; -284.000
400.130; -168.200; -421.000; -341.000
400.258;  -27.000;  -83.000;   38.000
400.386; -147.500; -352.000; -168.000
400.514; -201.600; -526.000; -587.000
400.641; -304.600; -928.000; -802.000
400.769; -287.100; -979.000; -888.000
400.897; -261.000; -838.000; -793.000
401.025;  -66.000; -166.000; -152.000
401.152;    2.400;  220.000;   38.000
401.280; -175.600; -430.000; -429.000
401.408; -246.800; -712.000; -576.000
401.535; -199.300; -735.000; -758.000
401.663; -387.900;-1134.000;-1054.000
401.790; -196.200; -514.000; -525.000
401.918;   69.900;  436.000;  405.000
402.046;  -39.400;  134.000;  122.000
402.173;  -95.400;  -18.000;    7.000
402.301; -134.700; -519.000; -397.000
402.428;   76.400;  528.000;  383.000
402.556; -332.200;-1188.000; -913.000
402.683;  -93.900;  -20.000;   -1.000
402.811;  -69.400;  -37.000; -206.000
402.938;  -34.800;   20.000;   27.000
403.066; -161.200; -574.000; -558.000
403.193;  -17.700;  299.000;  239.000
403.321; -144.300; -396.000; -574.000
403.448;  -50.800;   83.000;   27.000
403.575;    0.300;  -90.000;  -46.000
403.703; -249.200; -732.000; -557.000
403.830; -169.500; -531.000; -496.000
403.957; -354.100;-1117.000;-1023.000
404.085; -108.500;  -61.000; -172.000
404.212;  -59.800;  -50.000;   63.000
404.339; -161.600; -566.000; -306.000
404.467; -168.500; -612.000; -524.000
404.594;  -87.700; -287.000; -227.000
404.721; -251.600; -869.000; -764.000
404.848;  -81.400; -113.000; -202.000
404.976; -294.400; -856.000; -783.000
405.103;  -32.700;  -14.000;  -82.000
405.230;  -38.800;  190.000;  226.000
405.357;  -28.300;  117.000;   44.000
405.484;  -47.200;  -49.000;    5.000
405.612; -165.500; -548.000; -563.000
405.739; -124.000; -488.000; -243.000
405.866;  134.800;  669.000;  385.000
405.993; -155.500; -398.000; -102.000
406.120; -264.200; -801.000; -887.000
406.247; -163.200; -323.000; -342.000
406.374;  116.500;  540.000;  629.000
406.501; -211.700; -632.000; -702.000
406.628; -202.000; -621.000; -589.000
406.755; -245.800; -803.000; -620.000
406.882; -117.400; -228.000; -277.000
407.009; -227.100; -719.000; -628.000
407.136; -133.000; -480.000; -401.000
407.263; -301.200; -939.000; -829.000
407.390; -211.800; -692.000; -614.000
407.517; -365.200;-1139.000;-1187.000
407.644; -130.200; -332.000; -256.000
407.771; -175.900; -249.000; -287.000
407.898;   14.400;  168.000;  328.000
408.025; -138.000; -421.000; -313.000
408.151;  -36.200;   82.000;  153.000
408.278; -132.700; -267.000; -216.000
408.405; -258.000; -931.000; -899.000
408.532; -217.500; -549.000; -542.000
408.659; -218.300; -677.000; -648.000
408.785; -365.800;-1298.000;-1170.000
408.912; -126.500; -412.000; -296.000
409.039; -195.200; -610.000; -686.000
409.166; -175.900; -591.000; -555.000
409.292; -174.500; -571.000; -534.000
409.419; -224.500; -665.000; -649.000
409.546; -167.100; -431.000; -192.000
409.672; -204.800; -713.000; -545.000
409.799;  -23.300;  -36.000;   34.000
409.926; -117.700; -180.000; -179.000
410.052; -369.200;-1127.000;-1091.000
410.179; -156.000; -368.000; -392.000
410.305; -169.600; -375.000; -493.000
410.432;  -87.300; -220.000; -333.000
410.558; -177.900; -305.000; -380.000
410.685; -181.300; -688.000; -431.000
410.812; -213.600; -409.000; -588.000
410.938; -291.400; -964.000; -808.000
411.065; -227.500; -671.000; -645.000
411.191;  -89.700; -189.000; -174.000
411.317; -270.100; -823.000; -742.000
411.444; -126.700; -317.000; -246.000
411.570; -123.200; -339.000; -294.000
411.697; -226.100; -758.000; -752.000
411.823; -359.500; -989.000; -999.000
411.949;  -88.200;  -56.000;   17.000
412.076; -214.400; -539.000; -519.000
412.202; -240.200; -758.000; -757.000
412.329; -253.400; -798.000; -752.000
412.455; -252.200; -821.000; -657.000
412.581;  -72.400;  -15.000;  172.000
412.707; -184.900; -540.000; -457.000
412.834;  -10.000;  156.000;  219.000
412.960; -241.200; -785.000; -784.000
413.086; -265.300; -743.000; -701.000
413.212;   88.000;  604.000;  578.000
413.339; -285.700; -685.000; -701.000
413.465; -148.000; -364.000; -310.000
413.591; -261.900; -757.000; -474.000
413.717; -128.400; -358.000; -366.000
413.843; -300.400; -839.000; -861.000
413.969; -139.000;  -47.000; -292.000
414.096; -223.100; -679.000; -679.000
414.222;  -35.900;  -33.000;   85.000
414.348; -218.300; -652.000; -385.000
414.474;  -46.700;   38.000;  -52.000
414.600;  -89.200; -126.000; -144.000
414.726;  -61.700;  -96.000;  -55.000
414.852; -165.500; -365.000; -342.000
414.978;  -36.000;  104.000;  -18.000
415.104;  -51.200;   38.000;   80.000
415.230; -138.500; -329.000; -330.000
415.356; -224.800; -409.000; -514.000
415.482;  -39.600;   13.000;  -35.000
415.608; -162.000; -247.000; -323.000
415.734;  -19.500;   67.000;   38.000
415.860; -284.200; -875.000; -767.000
415.986; -222.300; -685.000; -607.000
416.111; -275.500; -798.000; -652.000
416.237; -151.800; -424.000; -571.000
416.363; -262.300; -765.000; -733.000
416.489; -118.000; -324.000; -251.000
416.615; -273.600; -707.000; -742.000
416.741; -243.600; -677.000; -784.000
416.866; -261.900; -673.000; -736.000
416.992; -259.600; -801.000; -818.000
417.118; -104.900;  -41.000;  -80.000
417.244; -243.700; -798.000; -531.000
417.369; -269.100; -801.000; -612.000
417.495; -150.100; -325.000; -254.000
417.621; -358.000;-1015.000; -803.000
417.746; -180.700; -579.000; -572.000
417.872;  -91.100; -254.000; -144.000
417.998; -152.700; -515.000; -530.000
418.123; -311.800;-1073.000; -845.000
418.249; -163.700; -512.000; -601.000
418.374; -316.300; -916.000; -824.000
418.500; -167.000; -383.000; -482.000
418.626;  -40.000;   70.000;  -59.000
418.751; -178.600; -549.000; -448.000
418.877; -244.000; -637.000; -643.000
419.002; -181.100; -688.000; -560.000
419.128; -288.400; -930.000; -721.000
419.253; -290.200; -967.000; -837.000
419.379; -218.000; -391.000; -338.000
419.504;   60.800;  325.000;  415.000
419.629; -142.500; -393.000; -212.000
419.755;  -84.700; -317.000; -254.000
419.880; -137.500;  -98.000;   67.000
420.006; -114.300; -280.000; -221.000
420.131; -213.100; -662.000; -775.000
420.256; -140.900; -315.000; -316.000
420.382; -227.900; -665.000; -687.000
420.507; -223.700; -649.000; -778.000
420.632; -200.200; -337.000; -339.000
420.758;  -98.000; -251.000; -425.000
420.883; -231.300; -876.000; -672.000
421.008; -242.300; -775.000; -619.000
421.133; -162.200; -509.000; -467.000
421.259;  -90.100; -325.000; -259.000
421.384; -276.900; -834.000; -693.000
421.509; -284.800;-1052.000; -862.000
421.634; -333.400; -936.000; -820.000
421.759; -145.800; -359.000; -327.000
421.885; -243.000; -717.000; -656.000
422.010; -184.900; -673.000; -542.000
422.135; -293.100; -695.000; -727.000
422.260;   38.100;  340.000;  280.000
422.385;  -81.700;   12.000;  -98.000
422.510;  -32.000;  151.000;  -26.000
422.635; -114.900;  -87.000;  -43.000
422.760; -206.500; -766.000; -791.000
422.885;  -86.800;  -57.000;  -80.000
423.010;  -94.700; -112.000; -169.000
423.135; -201.600; -481.000; -561.000
423.260;  -82.500; -150.000; -245.000
423.385;   17.700;  476.000;  222.000
423.510;  -12.000;   71.000;  -22.000
423.635;  -51.400;  133.000;   45.000
423.760;   49.000;  383.000;  328.000
423.885;   10.400;  336.000;  391.000
424.010;  -42.700;  -68.000;  -13.000
424.135;  -83.000;    5.000;  -33.000
424.259; -206.900; -654.000; -457.000
424.384; -195.300; -279.000; -272.000
424.509; -135.600; -260.000; -186.000
424.634; -268.600; -761.000; -623.000
424.759; -225.400; -688.000; -544.000
424.883; -193.900; -506.000; -527.000
425.008; -207.000; -502.000; -410.000
425.133; -248.800; -679.000; -653.000
425.258; -195.800; -517.000; -381.000
425.382; -242.000; -867.000; -774.000
425.507; -200.700; -487.000; -543.000
425.632; -253.800; -802.000; -663.000
425.756; -127.500; -256.000; -146.000
425.881; -258.500; -831.000; -857.000
426.006; -148.600; -604.000; -355.000
426.130; -227.400; -696.000; -508.000
426.255; -162.100; -611.000; -491.000
426.379; -115.500; -189.000; -577.000
426.504;  119.200;  660.000;  544.000
426.629; -212.600; -519.000; -466.000
426.753;  -30.600;   64.000;  -46.000
426.878; -102.600; -252.000; -288.000
427.002; -290.400; -651.000; -668.000
427.127; -113.000;  -35.000; -158.000
427.251;   46.100;  372.000;  401.000
427.375; -142.100; -191.000; -173.000
427.500; -226.600; -616.000; -610.000
427.624; -131.700; -234.000; -400.000
427.749; -135.700; -216.000; -225.000
427.873; -217.800; -499.000; -412.000
427.997; -117.000; -222.000; -230.000
428.122;  116.600;  795.000;  703.000
428.246;   82.400;  433.000;  434.000
428.371; -293.200; -869.000; -773.000
428.495; -219.800; -624.000; -646.000
428.619;  -88.400; -186.000; -117.000
428.743;   -1.100;   65.000;  132.000
428.868; -277.300; -732.000; -643.000
428.992; -128.700; -219.000; -326.000
429.116; -155.100; -329.000; -357.000
429.240;   30.900;  419.000;  426.000
429.365; -147.500; -454.000; -574.000
429.489; -231.600; -638.000; -647.000
429.613; -121.200; -236.000; -177.000
429.737; -187.300; -563.000; -432.000
429.861; -171.400; -247.000; -133.000
429.985; -163.000; -425.000; -305.000
430.109; -319.500; -770.000; -908.000
430.234;  -26.700;   76.000;  -50.000
430.358; -175.800; -250.000; -160.000
430.482; -232.100; -672.000; -564.000
430.606; -224.800; -655.000; -375.000
430.730; -193.000; -437.000; -388.000
430.854; -312.500; -909.000; -835.000
430.978; -239.500; -795.000; -764.000
431.102; -197.000; -499.000; -422.000
431.226; -264.500; -874.000; -815.000
431.350;   42.400;  345.000;  422.000
431.474; -166.600; -661.000; -373.000
431.597; -338.900;-1060.000; -848.000
431.721; -121.000; -276.000; -267.000
431.845; -259.200; -704.000; -472.000
431.969; -110.500; -304.000; -349.000
432.093; -193.400; -395.000; -317.000
432.217;  -29.000;   32.000;   82.000
432.341; -202.900; -523.000; -518.000
432.464;  -55.700;   96.000;   40.000
432.588; -187.200; -401.000; -329.000
432.712;  -58.300;  -52.000;  -52.000
432.836;   37.600;  213.000;  263.000
432.959; -111.200; -372.000; -311.000
433.083;  -73.000;   11.000;    2.000
433.207;   96.100;  285.000;  930.000
433.330; -146.900; -391.000; -200.000
433.454; -216.300; -654.000; -638.000
433.578;   70.400;  583.000;  278.000
433.701; -233.000; -623.000; -675.000
433.825; -161.800; -292.000; -299.000
433.949;  -88.900;   28.000;  -72.000
434.072; -145.700; -410.000; -323.000
434.196; -108.900; -309.000; -117.000
434.319; 7292.000;25482.000;25124.000
434.443; -206.900; -656.000; -603.000
434.566;  -38.400;  281.000;   62.000
434.690; -226.300; -637.000; -383.000
434.813; -123.800; -251.000; -173.000
434.937; -205.100; -569.000; -696.000
435.060; -167.000; -423.000; -332.000
435.184; -159.600; -492.000; -217.000
435.307;  -93.400;  159.000;  102.000
435.431;  -28.500;  -40.000;   24.000
435.554; -164.300; -399.000; -240.000
435.677; -130.100; -350.000; -258.000
435.801;  -70.700;  -25.000;   49.000
435.924;  -81.000;    1.000;  -67.000
436.048; -315.700;-1019.000; -732.000
436.171; -143.600; -240.000;  -66.000
436.294; -141.700; -248.000; -229.000
436.417; -296.600; -963.000; -849.000
436.541; -294.100; -814.000; -840.000
436.664; -121.800; -242.000; -316.000
436.787;  -51.300;   13.000;  113.000
436.910; -213.600; -792.000; -422.000
437.034;  -46.300;  142.000;  143.000
437.157;  -28.500;  -11.000;    0.000
437.280; -196.300; -392.000; -292.000
437.403; -301.600; -982.000; -869.000
437.526; -326.500; -903.000; -865.000
437.649; -181.000; -505.000; -332.000
437.772; -278.300; -692.000; -540.000
437.896;  125.700;  700.000;  544.000
438.019; -234.700; -758.000; -503.000
438.142; -190.200; -596.000; -506.000
438.265; -263.300; -639.000; -670.000
438.388; -196.400; -520.000; -410.000
438.511; -226.600; -597.000; -394.000
438.634; -145.000; -247.000; -125.000
438.757; -249.200; -693.000; -619.000
438.880;  -60.800;  -34.000;  -57.000
439.003; -166.700; -417.000; -437.000
439.126; -112.400; -287.000; -167.000
439.248; -113.300;  -98.000; -139.000
439.371;  -55.000;    9.000;  -53.000
439.494;  122.300;  510.000;  439.000
439.617;  -53.800;   65.000;  -88.000
439.740; -333.100; -968.000; -816.000
439.863; -219.900; -755.000; -595.000
439.986; -197.100; -476.000; -431.000
440.108; -100.400; -161.000; -112.000
440.231; -326.800; -950.000; -836.000
440.354;  -81.200;  -64.000; -150.000
440.477; -230.700; -566.000; -542.000
440.599; -138.500; -200.000; -225.000
440.722; -251.700; -709.000; -586.000
440.845;  176.200;  751.000;  928.000
440.968; -173.200; -415.000; -311.000
441.090; -103.600; -199.000;  -33.000
441.213; -327.000;-1021.000; -825.000
441.336;  -53.400; -159.000;   -5.000
441.458; -156.000; -549.000; -396.000
441.581; -220.300; -628.000; -629.000
441.703; -133.500; -152.000;   13.000
441.826; -173.900; -557.000; -400.000
441.948;  -69.300;   56.000;   51.000
442.071;  104.800;  555.000;  424.000
442.193; -206.900; -531.000; -485.000
442.316;    5.400;  152.000;   97.000
442.438; -140.700; -233.000;  -10.000
442.561;   29.900;  272.000;  262.000
442.683; -255.700; -809.000; -522.000
442.806;  -64.000;   -8.000;   74.000
442.928; -325.900; -859.000; -604.000
443.051; -180.600; -577.000; -373.000
443.173; -206.100; -341.000; -339.000
443.295; -175.000; -263.000; -371.000
443.418; -140.100; -321.000;  -29.000
443.540;  -66.000; -106.000;   -4.000
443.662; -258.700; -563.000; -465.000
443.785;    3.600;  335.000;  199.000
443.907; -196.200; -362.000; -208.000
444.029; -222.300; -767.000; -494.000
444.152; -253.800; -644.000; -554.000
444.274;  -63.600;  -18.000;  -24.000
444.396; -192.700; -461.000; -221.000
444.518; -221.400; -691.000; -454.000
444.640; -187.000; -268.000; -111.000
444.763;    5.400;  388.000;  249.000
444.885; -232.000; -432.000; -392.000
445.007;  -10.400;   35.000;   86.000
445.129; -237.100; -610.000; -515.000
445.251; -198.500; -372.000; -439.000
445.373; -246.300; -537.000; -386.000
445.495;   34.800;  242.000;  350.000
445.617;  123.200;  853.000;  753.000
445.739; -133.400; -215.000;  -97.000
445.861; -129.700; -245.000; -112.000
445.984; -122.600; -267.000; -101.000
446.105; -175.900; -418.000; -251.000
446.227;  -90.200; -176.000;  -19.000
446.349; -196.100; -358.000; -249.000
446.471; -223.000; -615.000; -448.000
446.593; -145.800; -316.000;   19.000
446.715;  -71.500;  -67.000;   41.000
446.837;  146.800;  697.000;  832.000
446.959; -214.900; -457.000; -478.000
447.081; -233.600; -628.000; -518.000
447.203;  172.700;  862.000;  834.000
447.325; -150.600; -270.000;   42.000
447.446;   -6.400;  286.000;  530.000
447.568; -317.200; -921.000; -803.000
447.690; -144.700; -236.000; -245.000
447.812; -291.300; -798.000; -519.000
447.933;  -22.000;  155.000;  127.000
448.055; -139.100; -306.000; -261.000
448.177;    0.200;   31.000;   79.000
448.299; -344.700; -935.000; -727.000
448.420;  -35.600;  -25.000;  159.000
448.542;  -92.100;   -3.000;   33.000
448.664;   -9.100;  109.000;  322.000
448.785;  -41.100;  265.000;   83.000
448.907; -192.400; -614.000; -353.000
449.028; -255.900; -771.000; -471.000
449.150;   98.800;  492.000;  589.000
449.272; -336.600;-1044.000; -913.000
449.393;  109.900;  612.000;  694.000
449.515; -260.200; -634.000; -581.000
449.636; -126.200; -264.000; -155.000
449.758;  125.300;  763.000;  622.000
449.879; -183.600; -498.000; -396.000
450.001; -140.900; -149.000;  -49.000
450.122;  -60.900;  -95.000;  162.000
450.244;  -28.500;   37.000;  364.000
450.365; -191.600; -495.000; -301.000
450.486;  -71.100;   80.000;  268.000
450.608;   14.900;  393.000;  326.000
450.729;   65.200;  578.000;  645.000
450.850; -179.000; -574.000; -466.000
450.972; -294.100; -552.000; -389.000
451.093;   -6.200;  190.000;  588.000
451.214; -204.500; -516.000; -337.000
451.336;  151.100;  773.000;  579.000
451.457;  -13.100;  264.000;  393.000
451.578;  -87.000; -118.000;  -74.000
451.699; -271.000; -546.000; -540.000
451.821; -128.400; -284.000;  -50.000
451.942;  -37.800;  278.000;  285.000
452.063;   16.700;  228.000;  419.000
452.184; -104.200;  -54.000;  -49.000
452.305;    9.700;  103.000;  170.000
452.427; -203.600; -549.000; -301.000
452.548;  -65.900;   23.000;   79.000
452.669; -116.300; -257.000;  -89.000
452.790; -118.700;    3.000;  -18.000
452.911;  -44.700;  195.000;  259.000
453.032; -134.400; -289.000;  -60.000
453.153;  -89.200;  -29.000;   81.000
453.274;  150.500;  737.000;  868.000
453.395; -101.000;  -51.000;  175.000
453.516;  276.000; 1317.000; 1388.000
453.637; -162.600; -205.000; -150.000
453.758;  -94.900;   15.000;   69.000
453.879; -169.500; -462.000; -250.000
454.000;  207.900; 1086.000;  948.000
454.121; -264.100; -554.000; -326.000
454.242; -230.200; -599.000; -383.000
454.362; -106.700;  -99.000;  114.000
454.483; -144.400; -309.000; -229.000
454.604;   18.200;  512.000;  580.000
454.725; -226.000; -627.000; -555.000
454.846; -217.200; -474.000; -406.000
454.967;   20.200;  230.000;  539.000
455.087;  -48.500;  179.000;  153.000
455.208;   89.400;  554.000;  856.000
455.329;  -89.400;  -22.000;   82.000
455.450;   29.600;  473.000;  633.000
455.570; -152.800; -234.000; -211.000
455.691;  -48.200;  201.000;  407.000
455.812; -154.100; -270.000;  -92.000
455.932;  -61.300;  107.000;  -97.000
456.053; -143.800;   36.000;   24.000
456.173; -179.100; -433.000; -355.000
456.294; -228.500; -476.000; -303.000
456.415;  -69.800;  -73.000;   70.000
456.535;  -32.300;  297.000;  273.000
456.656;  -42.400;  132.000;  240.000
456.776;  -82.600;    3.000;  298.000
456.897;   26.800;  308.000;  513.000
457.017; -131.400; -153.000;   -3.000
457.138; -195.400; -402.000; -249.000
457.258;  -56.600;  263.000;  224.000
457.379;   33.800;  509.000;  521.000
457.499;  -25.600;  443.000;  432.000
457.620; -166.500; -407.000; -231.000
457.740; -164.500; -132.000;  -11.000
457.860;  -82.500;   87.000;   44.000
457.981;  -96.000;  132.000;  124.000
458.101; -149.400;  -89.000;   40.000
458.221;   -2.800;  336.000;  402.000
458.342;  -77.700;   -4.000;  -37.000
458.462;   -6.700;  617.000;  352.000
458.582; -167.000; -302.000; -294.000
458.703;  -79.200;  303.000;  154.000
458.823;  -64.900;   22.000;  163.000
458.943;   -5.400;  341.000;  467.000
459.063;  -80.900; 1124.000;  192.000
459.183;  -43.400;  328.000;  313.000
459.304;   36.000;  315.000;  517.000
459.424; -159.400; -246.000;  -89.000
459.544;  110.000;  388.000;  764.000
459.664;   58.600;  499.000;  506.000
459.784;  178.700; 1004.000; 1175.000
459.904;  111.200;  867.000;  744.000
460.024;  147.300;  867.000;  684.000
460.144;   19.200;  449.000;  554.000
460.264;   26.800;  515.000;  327.000
460.385; -129.100; -145.000; -119.000
460.505;   99.000;  905.000;  858.000
460.625; -139.500;  -17.000;  -68.000
460.745;   -5.800;  396.000;  541.000
460.864;  -61.100;  153.000;  469.000
460.984;   -3.000;  499.000;  573.000
461.104;  307.100; 1656.000; 1775.000
461.224;   84.900;  657.000;  650.000
461.344;  -25.300;  431.000;  360.000
461.464;  -42.900;  258.000;  513.000
461.584;  -23.600;  283.000;  466.000
461.704;  -89.800;   58.000;  108.000
461.824;  -75.100;  238.000;  259.000
461.943;  -55.100;  191.000;  130.000
462.063; -125.700;    2.000;  324.000
462.183;  102.900;  639.000;  717.000
462.303;  170.400; 1678.000; 1230.000
462.422;   97.600;  781.000;  840.000
462.542;  -72.200;  271.000;  391.000
462.662;   36.000;  353.000;  380.000
462.782;   70.700;  833.000;  572.000
462.901;   60.300;  545.000;  717.000
463.021;  301.800; 1702.000; 1638.000
463.141;  -14.500;  337.000;  770.000
463.260;    6.300;  614.000;  474.000
463.380;   85.600;  902.000;  884.000
463.499;    0.900;  342.000;  332.000
463.619;  -26.200;  581.000;  559.000
463.738;  284.300; 1644.000;  903.000
463.858;   84.900;  657.000;  811.000
463.978;  -17.500;  542.000;  396.000
464.097;  131.700;  921.000; 1114.000
464.217;  185.500; 1196.000; 1143.000
464.336;  180.000; 1068.000; 1130.000
464.455;  -48.000;  328.000;  659.000
464.575;   29.000;  597.000;  602.000
464.694;  188.700; 1204.000; 1179.000
464.814;  143.700; 1190.000; 1138.000
464.933;  138.300; 1095.000; 1027.000
465.052;  194.200; 1412.000; 1054.000
465.172;   51.500;  922.000;  799.000
465.291;  209.100; 1376.000; 1320.000
465.410;   52.100;  462.000;  735.000
465.530;  217.200; 1355.000; 1310.000
465.649;  137.200; 1209.000; 1273.000
465.768;  275.900; 1673.000; 1508.000
465.888;  131.200;  941.000; 1174.000
466.007;  229.500; 1335.000; 1440.000
466.126;   48.000;  721.000;  641.000
466.245;  133.400; 1176.000; 1187.000
466.364;   95.100;  950.000; 1060.000
466.484;  125.300; 1024.000; 1213.000
466.603;   89.500; 1101.000; 1222.000
466.722;  244.900; 1490.000; 1769.000
466.841;  145.800; 1151.000; 1401.000
466.960;  145.200; 1069.000;  972.000
467.079;  308.300; 1971.000; 1786.000
467.198;  158.200; 1238.000; 1181.000
467.317;  257.500; 1768.000; 1162.000
467.436;  185.600; 1709.000; 1261.000
467.555;  279.100; 1796.000; 1746.000
467.674;  214.800; 1227.000; 1329.000
467.793;  136.000; 1376.000; 1374.000
467.912;  242.100; 1658.000; 1539.000
468.031;  284.500; 2038.000; 1930.000
468.150;  328.600; 1842.000; 1837.000
468.269;  377.500; 2313.000; 2090.000
468.388;  431.300; 2168.000; 2339.000
468.507;  558.000; 2884.000; 2903.000
468.626;  593.200; 2555.000; 2541.000
468.744;  336.900; 2018.000; 2174.000
468.863;  476.300; 2312.000; 2523.000
468.982;  255.800; 1503.000; 1555.000
469.101;  517.000; 2788.000; 2692.000
469.220;  367.500; 2333.000; 2176.000
469.338;  554.300; 2935.000; 3051.000
469.457;  439.500; 2719.000; 2545.000
469.576;  754.000; 3953.000; 3784.000
469.695;  513.000; 2877.000; 3066.000
469.813;  870.500; 4148.000; 4192.000
469.932;  812.300; 4255.000; 4485.000
470.051;  759.000; 4075.000; 4161.000
470.169;  858.300; 4470.000; 4338.000
470.288;  941.200; 4700.000; 4809.000
470.406;  979.200; 5059.000; 5194.000
470.525; 1182.300; 6101.000; 5787.000
470.644; 1304.500; 6847.000; 6794.000
470.762; 1650.300; 8397.000; 7873.000
470.881; 1751.600; 8651.000; 8464.000
470.999; 1977.100; 9685.000; 9151.000
471.118; 2230.800;11174.000;10711.000

