
Integration time [ms]: 100.000
Averaging Nr. [scans]: 40
Smoothing Nr. [pixels]: 0
Data measured with spectrometer [name]: 2101012U2
Wave   ;Sample   ;Dark     ;Reference
[nm]   ;[counts] ;[counts] ;[counts] 

197.733;   67.325;  516.000;  404.000
197.879;  -83.100; -610.000; -634.000
198.025;  -40.325; -475.000; -420.000
198.171;  -77.925; -602.000; -612.000
198.317;  -19.350; -401.000; -316.000
198.463;  -73.500; -655.000; -404.000
198.609;   37.625;  181.000; -137.000
198.755;  -97.975; -644.000; -410.000
198.901;  -57.900; -505.000; -424.000
199.047;  -69.625; -615.000; -488.000
199.193;  -31.975; -230.000; -468.000
199.339;  -49.825; -222.000; -369.000
199.485;   48.975;  330.000;  271.000
199.631;   20.125;  227.000;  310.000
199.777;  -36.875; -466.000; -398.000
199.923;  -68.475; -610.000; -424.000
200.069;   11.375; -141.000;  -58.000
200.215;   61.800;  128.000;  453.000
200.361;   54.425;  243.000;  477.000
200.507;  -70.425; -600.000; -373.000
200.653;  -27.950; -371.000; -194.000
200.798;  -30.000; -215.000; -125.000
200.944;   11.400; -146.000;  -41.000
201.090;   42.500;   61.000;  222.000
201.236;   -0.450; -116.000; -158.000
201.382;  138.625;  874.000;  903.000
201.528;   10.450;  -58.000;  -48.000
201.674;  -61.650; -386.000; -293.000
201.819;  -44.950; -540.000; -439.000
201.965;  -84.250; -699.000; -447.000
202.111;   -7.750; -273.000; -226.000
202.257;  -35.075; -250.000; -238.000
202.402;   25.500;   13.000;  -36.000
202.548;  -34.200; -169.000; -116.000
202.694;   84.600;  410.000; -183.000
202.840;  -72.525; -603.000; -531.000
202.985;  -67.950; -681.000; -639.000
203.131; -110.175; -832.000; -666.000
203.277;  -11.650; -199.000; -262.000
203.423;  -43.850; -434.000; -520.000
203.568;  -29.750; -462.000; -237.000
203.714;  -65.475; -535.000; -542.000
203.860;  -72.400; -682.000; -641.000
204.005;   19.850;  112.000;  167.000
204.151;   84.225;  561.000;  556.000
204.296;  -45.875; -354.000; -221.000
204.442;  -72.500; -600.000; -547.000
204.588;  -96.150; -592.000; -579.000
204.733;   29.200;  178.000;  168.000
204.879; -137.475;-1018.000; -822.000
205.025;   20.625;  -99.000;  126.000
205.170;    3.575;  -17.000;   94.000
205.316;   90.200;  438.000;  661.000
205.461;  -93.000; -698.000; -554.000
205.607;  103.650;  609.000;  665.000
205.752;  -86.825; -626.000; -551.000
205.898;  -50.775; -501.000; -391.000
206.043;  -67.850; -578.000; -506.000
206.189;  -40.500; -243.000; -285.000
206.334;   78.300;  554.000;  606.000
206.480;   64.975;  409.000;  239.000
206.625;  -95.925; -529.000; -552.000
206.771;  -27.625; -451.000; -373.000
206.916;  -37.550; -210.000; -537.000
207.062;  -69.700; -545.000; -591.000
207.207;  -61.175; -546.000; -443.000
207.353;   75.950;  185.000;  460.000
207.498;   22.350;  196.000;   85.000
207.643;  -51.100; -501.000; -370.000
207.789; -136.650;-1069.000; -910.000
207.934;  -84.575; -665.000; -713.000
208.080;  -25.150; -154.000;   66.000
208.225;   -2.825;  -22.000;  -57.000
208.370;  -73.400; -727.000; -619.000
208.516;  -70.275; -741.000; -487.000
208.661;  -38.000; -127.000;  -69.000
208.806;   -9.225; -165.000; -171.000
208.952; -130.450;-1044.000; -731.000
209.097;   82.525;  378.000;  349.000
209.242;  -38.925; -307.000; -382.000
209.387;   82.375;  392.000;  350.000
209.533;  -61.250; -321.000; -350.000
209.678;   92.425;  472.000;  543.000
209.823;  -51.050; -408.000; -310.000
209.969;  -94.725; -860.000; -757.000
210.114; -111.400; -907.000; -719.000
210.259; -101.125; -939.000; -889.000
210.404;   -9.125; -171.000;  103.000
210.549;   14.150;  108.000;    3.000
210.695;  -31.425;   -3.000;  -95.000
210.840;   38.125;   94.000;   67.000
210.985;  -55.625; -484.000; -303.000
211.130;   75.375;  268.000;  406.000
211.275;    6.125;  207.000;  199.000
211.420;  -44.275; -300.000; -289.000
211.566;  -74.700; -536.000; -489.000
211.711;   26.875;  218.000;  157.000
211.856;  -73.600; -545.000; -519.000
212.001;   14.375;  151.000;   44.000
212.146;   24.350;  153.000;   49.000
212.291;  -26.375; -210.000; -186.000
212.436;  -29.925; -280.000;   -6.000
212.581;  -75.075; -685.000; -653.000
212.726;  -71.150; -487.000; -538.000
212.871;  -39.400; -552.000; -217.000
213.016; -145.950;-1172.000;-1029.000
213.161;   70.475;  406.000;  291.000
213.306;  -77.450; -435.000; -577.000
213.451;  -84.175; -778.000; -689.000
213.596;  -54.425; -455.000; -347.000
213.741;  -45.350; -448.000; -538.000
213.886;  -77.725; -498.000; -517.000
214.031;   -8.450; -294.000; -124.000
214.176;  -55.700; -408.000; -341.000
214.321;  -19.750; -296.000; -157.000
214.466;  -31.525; -163.000;  -43.000
214.611;   -1.000;  -61.000;  -10.000
214.756; -126.850; -948.000; -858.000
214.901;  -22.800; -388.000; -226.000
215.046; -115.350; -797.000; -825.000
215.191;   33.025;  128.000;   35.000
215.336;  -18.900; -157.000;  -19.000
215.480;  -64.975; -684.000; -505.000
215.625;  -22.175; -175.000;  -19.000
215.770;  -69.025; -757.000; -662.000
215.915;   -0.850;   -5.000;  -97.000
216.060;    3.975; -113.000;  -21.000
216.205; -114.500; -731.000; -779.000
216.349;  -68.975; -470.000; -533.000
216.494; -134.775; -939.000; -867.000
216.639; -104.375; -823.000; -888.000
216.784;  -91.875; -577.000; -525.000
216.929;   51.400;  392.000;  281.000
217.073;   -8.725; -244.000;  -31.000
217.218;   18.275;   78.000;  -47.000
217.363;  -89.825; -656.000; -618.000
217.507;  -80.425; -623.000; -588.000
217.652; -132.650; -845.000; -874.000
217.797;  -88.350; -708.000; -659.000
217.942; -120.725; -856.000; -720.000
218.086;   81.125;  608.000;  539.000
218.231;  -25.425; -174.000;  -26.000
218.376;  -18.325; -337.000; -229.000
218.520;   -1.325;  -41.000;   96.000
218.665;  -25.025; -338.000; -204.000
218.810;  -47.025; -275.000; -233.000
218.954;   17.775;  201.000;   35.000
219.099; -119.900; -713.000; -963.000
219.243;  -58.800; -589.000; -554.000
219.388;  -34.750; -264.000; -136.000
219.532;  -12.875; -116.000; -116.000
219.677;  -83.075; -564.000; -521.000
219.822;    8.275;   33.000;   89.000
219.966;    0.525;   17.000;  -99.000
220.111;  -40.575; -328.000;  -40.000
220.255;  -94.425; -797.000; -750.000
220.400;   -5.800; -180.000; -146.000
220.544;  -87.650; -516.000; -450.000
220.689;  -55.600; -422.000; -451.000
220.833;  -14.450; -123.000;  -58.000
220.978;  -30.575; -393.000; -563.000
221.122;   11.525;  319.000;  307.000
221.267; -116.825; -906.000; -837.000
221.411;  -66.400; -478.000; -394.000
221.555;   -8.500; -104.000;  -23.000
221.700;  -43.975; -329.000; -222.000
221.844;   38.700;  255.000;  272.000
221.989;  -53.025; -328.000; -311.000
222.133;  -34.150; -289.000; -307.000
222.277;   -6.250;    5.000;   78.000
222.422;   26.025;  227.000;  113.000
222.566;  -42.450; -381.000; -214.000
222.711;  -42.575; -414.000; -479.000
222.855;  -97.900; -643.000; -586.000
222.999;  -88.325; -642.000; -717.000
223.144;  -45.225; -195.000; -194.000
223.288;   58.950;  423.000;  251.000
223.432;   27.425;  184.000;  230.000
223.576;   23.375;  152.000;  -21.000
223.721;   22.450;  364.000;  273.000
223.865;  -51.975; -472.000; -475.000
224.009;  227.825; 1673.000; 1631.000
224.153;  -75.875; -660.000; -671.000
224.298;  -89.550; -531.000; -489.000
224.442;    4.975;  -74.000;  -33.000
224.586;  -15.050; -169.000; -106.000
224.730;  -97.725; -858.000; -670.000
224.875; -118.625; -739.000; -688.000
225.019;   14.150;  102.000;  188.000
225.163;   40.750;  208.000;  341.000
225.307;   34.475;   97.000;  -91.000
225.451;   41.325;  360.000;  481.000
225.595;   42.150;  264.000;  176.000
225.739;  -24.875; -170.000;  -94.000
225.884;   22.525;   86.000;    5.000
226.028;  -97.000; -760.000; -626.000
226.172;  -34.725; -260.000; -273.000
226.316; -130.425; -941.000; -902.000
226.460;  -70.000; -645.000; -493.000
226.604;  -72.275; -406.000; -400.000
226.748;  -95.650; -836.000; -733.000
226.892;  -40.875; -227.000; -181.000
227.036;  -34.100; -537.000; -447.000
227.180;  -60.325; -551.000; -375.000
227.324;  -60.675; -561.000; -580.000
227.468; -120.950; -819.000; -717.000
227.612;   12.300;  242.000;  -28.000
227.756; -102.900; -845.000; -698.000
227.900;   64.075;  342.000;  441.000
228.044;  -77.575; -509.000; -290.000
228.188;   75.750;  448.000;  568.000
228.332;  -89.600; -546.000; -472.000
228.476;  -29.150; -223.000; -149.000
228.620;  -39.850; -210.000; -150.000
228.764;   69.700;  431.000;  349.000
228.908;  -30.475; -155.000;   30.000
229.052;  -51.300; -615.000; -528.000
229.195;  -18.875; -172.000;   13.000
229.339;  -14.500; -235.000; -305.000
229.483;  -30.875;    5.000; -162.000
229.627;    1.450; -156.000;  139.000
229.771;  -49.275; -218.000; -294.000
229.915;    8.825;  230.000;   79.000
230.059; -105.250; -648.000; -663.000
230.202;  -30.275; -370.000; -317.000
230.346;  -24.900; -107.000;  107.000
230.490;  -59.500; -489.000; -521.000
230.634; -121.625; -736.000; -553.000
230.777;   79.525;  478.000;  509.000
230.921;  -60.650; -450.000; -359.000
231.065;  -29.275; -246.000; -286.000
231.209;   18.400;  261.000;  265.000
231.352;   25.450;   54.000;   40.000
231.496;   23.250;  568.000;  188.000
231.640;  -83.225; -693.000; -621.000
231.783;   66.275;  546.000;  525.000
231.927;  -36.850; -294.000; -365.000
232.071; -122.500; -962.000; -736.000
232.214;  -95.800; -980.000; -764.000
232.358; -111.800; -683.000; -599.000
232.502;    2.375;  -19.000;    7.000
232.645; -152.300;-1090.000; -927.000
232.789;  -18.975; -257.000; -218.000
232.933;  -44.000; -407.000; -224.000
233.076; -121.900;-1038.000; -897.000
233.220; -110.625; -752.000; -777.000
233.363;  -65.300; -669.000; -477.000
233.507;   38.700;  371.000;  129.000
233.650;  -84.950; -764.000; -834.000
233.794;   38.025;  438.000;  461.000
233.938;  -50.925; -530.000; -362.000
234.081;  -25.825;  -93.000;   31.000
234.225;  -61.700; -631.000; -539.000
234.368; -113.300; -773.000; -723.000
234.512;  -38.600; -385.000; -299.000
234.655;  -81.400; -582.000; -555.000
234.798;  -50.925; -493.000; -466.000
234.942; -144.950; -884.000;-1002.000
235.085;  -63.600; -651.000; -443.000
235.229;  -81.700; -405.000; -410.000
235.372;  -30.575; -247.000; -191.000
235.516;  -53.375; -397.000; -321.000
235.659;   24.275;   92.000;  121.000
235.802;  -21.725;  -38.000;  -22.000
235.946;   39.625;  335.000;  215.000
236.089;   21.250;  126.000;  250.000
236.233;   39.500;  275.000;  298.000
236.376;  -63.275; -235.000; -378.000
236.519;  -34.150; -297.000; -319.000
236.663;  -25.275; -215.000; -117.000
236.806; -131.925;-1029.000; -999.000
236.949;   62.750;  543.000;  431.000
237.092;   57.875;  412.000;  391.000
237.236;  -88.750; -589.000; -502.000
237.379;   65.575;  352.000;  428.000
237.522; -128.950; -879.000; -768.000
237.666;   -7.275; -271.000;   18.000
237.809; -135.175; -851.000; -823.000
237.952;   32.825;  469.000;  271.000
238.095;  -73.125; -447.000; -442.000
238.238;   92.550;  688.000;  700.000
238.382;  -12.550;  166.000;  103.000
238.525;  -66.225; -598.000; -511.000
238.668; -144.500;-1060.000; -985.000
238.811;  -72.725; -638.000; -643.000
238.954;  -70.125; -483.000; -334.000
239.097;   94.600;  617.000;  664.000
239.241;   10.900;  394.000;  326.000
239.384;  -24.825; -254.000; -214.000
239.527;  -60.375; -424.000; -224.000
239.670; -140.250; -994.000;-1091.000
239.813; -108.300; -696.000; -658.000
239.956;   75.550;  579.000;  473.000
240.099; -118.725; -778.000; -725.000
240.242;   65.900;  428.000;  432.000
240.385;   44.850;  466.000;  450.000
240.528;  -71.175; -706.000; -473.000
240.671;   11.450;  189.000;  134.000
240.814;  -28.075; -441.000; -158.000
240.957;  -99.075; -767.000; -578.000
241.100;  -84.075; -779.000; -755.000
241.243; -143.875;-1234.000; -893.000
241.386;  -56.325; -508.000; -379.000
241.529;  -95.400; -735.000; -547.000
241.672;  -50.450; -566.000; -495.000
241.815; -119.375; -832.000; -808.000
241.958;  -11.125; -125.000; -182.000
242.101;  -79.425; -545.000; -390.000
242.244;  -29.650; -270.000; -325.000
242.387;  -54.200; -304.000; -246.000
242.530;   63.750;  470.000;  134.000
242.673;  -31.450; -381.000; -309.000
242.815; -113.700; -925.000; -899.000
242.958;  -78.350; -482.000; -381.000
243.101;   20.575;  132.000;  187.000
243.244;  -81.450; -564.000; -521.000
243.387;  -28.750; -313.000; -316.000
243.530;  -98.675; -657.000; -674.000
243.672;    5.050;   43.000;  -92.000
243.815;  -57.825; -355.000; -283.000
243.958;    5.175;   98.000;  -26.000
244.101;   -8.675;   59.000;  -16.000
244.243;   -1.725;  -47.000;  101.000
244.386; -112.075; -761.000; -630.000
244.529;  -18.800; -132.000; -139.000
244.672; -158.050;-1154.000; -951.000
244.814;  -95.125; -621.000; -794.000
244.957;  -56.325; -380.000; -304.000
245.100;  -66.775; -489.000; -489.000
245.242;  -61.850; -387.000; -374.000
245.385;    7.175;  -59.000;  -39.000
245.528; -123.050; -871.000; -705.000
245.670;  102.475;  612.000;  634.000
245.813;  -92.825; -599.000; -547.000
245.956;  -18.100; -324.000; -275.000
246.098;  -76.475; -508.000; -650.000
246.241;    8.025;  194.000;   48.000
246.383;  -32.175; -119.000;  -73.000
246.526;  -66.950; -454.000; -525.000
246.669; -117.375; -889.000; -780.000
246.811;   18.300;  172.000;   -1.000
246.954;  -70.000; -512.000; -426.000
247.096;  -13.100;  -84.000;   -6.000
247.239;  -71.350; -482.000; -445.000
247.381;  -62.450; -647.000; -488.000
247.524;   85.325;  645.000;  679.000
247.666;    7.375;   58.000;   11.000
247.809; -123.150; -887.000; -691.000
247.951;   14.900;  -75.000;  138.000
248.094;   19.750;  432.000;  308.000
248.236; -152.675;-1262.000;-1238.000
248.378;  -17.250; -356.000;  -81.000
248.521;  -35.250; -334.000; -337.000
248.663;  -33.900; -236.000; -267.000
248.806;  -13.375; -300.000; -266.000
248.948; -100.825; -886.000; -763.000
249.090;  -62.150; -428.000; -398.000
249.233;  -44.725; -344.000; -381.000
249.375;  -57.700; -474.000; -451.000
249.518;  -35.850;  -83.000; -133.000
249.660;    7.225; -103.000;    3.000
249.802; -162.775;-1303.000;-1189.000
249.945;  -77.475; -612.000; -540.000
250.087; -109.375; -834.000; -768.000
250.229;  -43.425; -362.000; -480.000
250.371;  -82.175; -494.000; -439.000
250.514;  -43.850; -310.000; -244.000
250.656;  -10.150;   69.000;  102.000
250.798;  -95.475; -849.000; -800.000
250.940;  -57.075; -322.000; -322.000
251.083;  -19.375; -335.000; -111.000
251.225;   39.750;  338.000;  310.000
251.367;  -43.125; -274.000; -373.000
251.509;  -38.675; -265.000; -210.000
251.651;  -83.050; -731.000; -671.000
251.794;   43.450;  538.000;  632.000
251.936; -101.925; -821.000; -747.000
252.078;  -83.850; -540.000; -461.000
252.220;  -57.750; -645.000; -477.000
252.362;   65.525;  344.000;  462.000
252.504;  -58.125; -677.000; -584.000
252.646; -120.125; -875.000; -722.000
252.788;    3.350;   14.000; -128.000
252.931;  -49.250; -257.000; -253.000
253.073;  -35.775; -376.000; -317.000
253.215;    1.725;  141.000;  122.000
253.357;   -5.200;   82.000; -153.000
253.499;  -49.225; -374.000; -234.000
253.641;  -87.675; -749.000; -594.000
253.783; -104.250; -609.000; -527.000
253.925;  -74.500; -586.000; -591.000
254.067; -109.000; -744.000; -667.000
254.209;  -14.325; -391.000; -259.000
254.351; -146.100; -865.000; -883.000
254.493;  -58.000; -441.000; -417.000
254.635; -127.925; -936.000; -818.000
254.777;  -92.300; -752.000; -687.000
254.918;  -62.150; -512.000; -430.000
255.060;  -51.350; -551.000; -395.000
255.202;  -54.275; -473.000; -261.000
255.344;  -75.700; -658.000; -455.000
255.486;  -79.725; -471.000; -406.000
255.628;  -97.925; -780.000; -781.000
255.770;  -96.700; -676.000; -536.000
255.912;  -63.525; -559.000; -468.000
256.053;  -93.350; -730.000; -508.000
256.195;  166.250; 1008.000;  903.000
256.337; -112.050; -861.000; -595.000
256.479;   70.250;  532.000;  416.000
256.621;  -47.025; -394.000; -212.000
256.762;  -88.950; -789.000; -742.000
256.904;   46.425;  485.000;  487.000
257.046;  -30.375; -381.000; -271.000
257.188;  -47.200; -351.000; -264.000
257.329;  -58.775; -525.000; -464.000
257.471; -116.125; -939.000; -807.000
257.613;  -64.100; -584.000; -498.000
257.755; -153.125;-1073.000; -982.000
257.896;   42.750;  286.000;  392.000
258.038;  -82.425; -403.000; -352.000
258.180;  -35.725; -354.000; -279.000
258.321;  -81.200; -581.000; -457.000
258.463;   16.600;  -71.000;  133.000
258.605;  -93.200; -562.000; -570.000
258.746;  -94.000; -886.000; -772.000
258.888; -142.425;-1026.000;-1020.000
259.029;   22.600;  121.000;   -8.000
259.171;  -89.650; -614.000; -550.000
259.313;   -1.450;  -49.000;  -47.000
259.454;  -64.350; -536.000; -414.000
259.596;  -44.250; -483.000; -390.000
259.737;  -85.450; -590.000; -474.000
259.879;   50.750;  217.000;  311.000
260.020;   84.150;  901.000;  636.000
260.162;  -20.050; -146.000; -253.000
260.303; -115.325; -768.000; -687.000
260.445;  -76.200; -609.000; -613.000
260.586;   29.575;  392.000;  157.000
260.728;  -41.700; -360.000; -248.000
260.869;  -67.725; -350.000; -343.000
261.011;   90.375;  706.000;  537.000
261.152;  -66.000; -479.000; -319.000
261.293;  -77.900; -576.000; -595.000
261.435;  -41.375; -219.000; -184.000
261.576;  -37.925; -455.000; -325.000
261.718;   39.050;  420.000;  470.000
261.859; -113.450; -940.000; -949.000
262.000; -137.950; -951.000;-1016.000
262.142;   -6.400;  -52.000;  -60.000
262.283; -133.025; -808.000; -691.000
262.424;  -66.125; -666.000; -625.000
262.566; -157.675;-1161.000; -983.000
262.707; -104.900; -840.000; -830.000
262.848; -135.825; -769.000; -726.000
262.990;  -42.800; -362.000; -345.000
263.131;   70.375;  650.000;  681.000
263.272;   15.650;  -61.000;  -41.000
263.413; -102.750; -589.000; -561.000
263.555;  -71.250; -669.000; -143.000
263.696;  -91.950; -550.000; -641.000
263.837;  -47.775; -449.000; -551.000
263.978;    0.050;   -5.000;  -77.000
264.119;  -35.700; -283.000; -264.000
264.261; -127.975; -847.000; -630.000
264.402;   16.375;   33.000;   40.000
264.543;  -89.275; -509.000; -524.000
264.684;  -13.275;   61.000;  -50.000
264.825;  -77.375; -816.000; -538.000
264.966;  -23.375;  -84.000;  -67.000
265.107; -118.500; -646.000; -670.000
265.248; -116.550; -825.000; -812.000
265.390;  -13.650;  152.000;   -9.000
265.531;   -6.125; -238.000; -107.000
265.672;  -94.250; -557.000; -630.000
265.813;   75.275;  563.000;  439.000
265.954; -153.075; -959.000; -940.000
266.095;   -3.125; -372.000; -322.000
266.236;  -98.400; -686.000; -548.000
266.377;  -35.875; -243.000; -297.000
266.518;  -70.875; -619.000; -547.000
266.659;   36.275;  170.000;  268.000
266.800;   -8.875;   83.000;   85.000
266.941;  -76.075; -487.000; -478.000
267.082;   12.775;  354.000;   99.000
267.223;  -35.400; -344.000; -273.000
267.364; -136.025; -892.000; -686.000
267.504;   -0.225;    3.000;  135.000
267.645;  -13.500;  160.000;   67.000
267.786;  -25.250; -147.000;  -86.000
267.927;  -88.625; -473.000; -379.000
268.068;   -8.900; -186.000;  -61.000
268.209;  -65.300; -175.000; -413.000
268.350;  -45.275; -388.000; -532.000
268.490;  -93.500; -648.000; -521.000
268.631;   44.975;  127.000;  225.000
268.772; -105.275; -874.000; -647.000
268.913;  -45.775; -328.000; -476.000
269.054;  -22.825; -117.000;   12.000
269.194;  -37.675; -418.000; -402.000
269.335; -148.250;-1137.000;-1074.000
269.476;  -25.100;   33.000;  -35.000
269.617;  -55.875; -347.000; -392.000
269.757;  -81.575; -713.000; -646.000
269.898; -108.275; -856.000; -613.000
270.039;  -51.000; -415.000; -405.000
270.180; -141.175; -952.000; -816.000
270.320;  -24.925; -190.000; -250.000
270.461;  -43.825; -277.000; -249.000
270.602;    3.500; -186.000; -156.000
270.742; -131.125; -868.000; -943.000
270.883;  -58.875; -442.000; -390.000
271.023;  -72.375; -358.000; -357.000
271.164;  -77.850; -607.000; -528.000
271.305;  -99.875; -666.000; -654.000
271.445;  -95.800; -722.000; -683.000
271.586;  -80.675; -462.000; -283.000
271.726;  -47.025; -397.000; -322.000
271.867;  -77.075; -594.000; -534.000
272.008;  156.525; -473.000; -285.000
272.148;  125.175;  462.000;  468.000
272.289;   18.600; -113.000; -181.000
272.429;   11.550;   19.000;  185.000
272.570;  -92.275; -633.000; -737.000
272.710; -120.875; -825.000; -775.000
272.851;  -16.325;  113.000; -130.000
272.991; -179.350;-1173.000;-1077.000
273.131;  -56.025; -419.000; -459.000
273.272; -105.125; -683.000; -723.000
273.412;   17.550; -143.000;  -31.000
273.553;  -56.650; -488.000; -507.000
273.693;  152.625;  913.000;  858.000
273.834; -104.125; -894.000; -692.000
273.974;  -72.850; -664.000; -615.000
274.114; -100.000; -772.000; -560.000
274.255;   77.675;  414.000;  373.000
274.395;  -25.625; -180.000; -125.000
274.535;   44.575;  199.000;  350.000
274.676;   10.550;  225.000;   94.000
274.816;    8.850;  110.000;   34.000
274.956; -103.550; -624.000; -690.000
275.097;  -72.900;-1014.000; -922.000
275.237; -119.925; -913.000; -803.000
275.377;  -94.225; -778.000; -689.000
275.517; -147.800; -878.000; -937.000
275.658;  -43.850; -590.000; -555.000
275.798;  -79.400; -606.000; -413.000
275.938;   25.975;  215.000;  323.000
276.078; -108.850; -626.000; -395.000
276.218;   18.650;   99.000;  104.000
276.359; -137.375;-1026.000;-1024.000
276.499;  -71.200; -605.000; -446.000
276.639;  -41.750; -305.000; -151.000
276.779;  -37.500; -475.000; -357.000
276.919; -108.500; -783.000; -624.000
277.059;  -20.800; -261.000; -212.000
277.199;  -54.450; -357.000; -259.000
277.340;   55.600;  287.000;  175.000
277.480; -116.250; -840.000; -693.000
277.620;   21.625;  192.000;   16.000
277.760; -204.000;-1533.000;-1294.000
277.900;   20.175;  113.000;   33.000
278.040;   10.150;  137.000;  159.000
278.180;   42.750;  270.000;  170.000
278.320;  -11.900;   21.000;   56.000
278.460;  -68.225; -443.000; -469.000
278.600;  -86.675; -708.000; -598.000
278.740;   57.175;  448.000;  224.000
278.880;  -69.700; -768.000; -791.000
279.020;  -15.325; -194.000; -144.000
279.160;  -88.675; -672.000; -595.000
279.300; -107.200; -926.000; -873.000
279.440;  -97.375; -709.000; -622.000
279.579;  -30.000;-1014.000; -929.000
279.719;  -57.375; -410.000; -394.000
279.859;   76.175;   -4.000;   41.000
279.999;    6.125; -208.000;  101.000
280.139;  -22.650; -435.000; -387.000
280.279;  -78.275; -708.000; -745.000
280.419;   -4.300; -229.000; -147.000
280.559;  -38.575; -259.000; -180.000
280.698;  -66.675; -790.000; -639.000
280.838; -102.925; -778.000; -800.000
280.978;  -94.725; -846.000; -790.000
281.118; -115.750; -811.000; -704.000
281.257;   12.450;   24.000;    6.000
281.397; -127.900;-1094.000; -960.000
281.537;  -88.375; -599.000; -712.000
281.677;  -16.100; -150.000; -101.000
281.816;  -77.475; -700.000; -630.000
281.956;  -35.900; -193.000; -257.000
282.096;  -59.350; -539.000; -396.000
282.235; -111.625; -672.000; -638.000
282.375;  -25.250; -243.000;  -98.000
282.515; -103.475; -715.000; -707.000
282.654;   30.675;   29.000;  106.000
282.794;   15.050;  388.000;  244.000
282.934;  -57.950; -530.000; -491.000
283.073; -138.200;-1030.000; -857.000
283.213;  -48.925; -460.000; -467.000
283.353;  -44.075; -408.000; -349.000
283.492;  -26.475; -264.000; -296.000
283.632;  -58.000; -254.000; -168.000
283.771;  -98.000; -859.000; -730.000
283.911;  -61.650; -369.000; -260.000
284.050; -106.250; -794.000; -748.000
284.190; -167.800;-1229.000;-1096.000
284.329; -126.825;-1055.000; -964.000
284.469;  -71.300; -516.000; -591.000
284.608;  -55.625; -559.000; -598.000
284.748;  -85.225; -614.000; -570.000
284.887;   16.025;  -87.000;  -20.000
285.027; -134.850; -844.000; -892.000
285.166;  -32.800; -192.000; -249.000
285.306;   -8.175; -116.000;  -33.000
285.445;  -20.150; -229.000; -343.000
285.584; -108.550; -630.000; -494.000
285.724;  -25.950; -282.000; -322.000
285.863; -123.175; -857.000; -507.000
286.002;  -42.925; -366.000; -276.000
286.142; -119.050; -715.000; -622.000
286.281;  -71.925; -525.000; -493.000
286.420;  -80.600; -554.000; -417.000
286.560;   92.025;  653.000;  623.000
286.699; -153.950; -958.000; -912.000
286.838;  -74.175; -590.000; -591.000
286.978;  -95.150; -533.000; -537.000
287.117; -127.400;-1085.000; -950.000
287.256;  -30.425; -228.000; -211.000
287.395;  -42.025; -197.000; -378.000
287.535;  -59.975; -370.000; -298.000
287.674;  -75.375; -509.000; -484.000
287.813;   54.825;  661.000;  533.000
287.952; -135.425;-1010.000; -871.000
288.091; -155.600;-1049.000; -915.000
288.231;    6.575;   13.000;   15.000
288.370; -180.525;-1217.000;-1200.000
288.509;  -77.500; -728.000; -645.000
288.648;  -97.475; -770.000; -548.000
288.787;  -26.175; -243.000;  -87.000
288.926;  -66.450; -454.000; -475.000
289.065;  129.275;  859.000;  672.000
289.204;  -51.675; -377.000; -217.000
289.344;  -85.100; -791.000; -690.000
289.483;   26.350;  416.000;  304.000
289.622;  -11.525; -291.000; -149.000
289.761;  -34.200; -309.000; -166.000
289.900;  -97.225; -785.000; -626.000
290.039;  -28.750;  -12.000;  -95.000
290.178;  -20.300; -274.000; -180.000
290.317;  -73.925; -618.000; -479.000
290.456;  -59.275; -463.000; -451.000
290.595; -150.900; -961.000; -833.000
290.734; -141.200; -904.000; -891.000
290.873;  -72.425; -456.000; -420.000
291.011; -109.450; -833.000; -843.000
291.150; -105.400; -770.000; -682.000
291.289;  -27.100; -343.000; -110.000
291.428;  -94.425; -599.000; -480.000
291.567;  -50.550; -370.000; -442.000
291.706;  -12.225;  109.000;  154.000
291.845;  -82.300; -597.000; -505.000
291.984; -169.275;-1234.000;-1061.000
292.122;   83.050;  602.000;  582.000
292.261;   30.275;  620.000;  463.000
292.400;   12.750; -144.000;  211.000
292.539; -138.950; -959.000; -813.000
292.678;  -33.850; -325.000; -300.000
292.816; -155.475;-1136.000; -965.000
292.955;  -82.675; -844.000; -684.000
293.094;  -36.950; -173.000; -337.000
293.233;  -61.500; -556.000; -400.000
293.371;  -48.075; -225.000;  -84.000
293.510; -112.725; -866.000; -780.000
293.649; -139.475; -959.000; -924.000
293.787;  -72.075;-1083.000;-1012.000
293.926;  -10.925; -113.000;  -32.000
294.065;  -47.850; -379.000; -290.000
294.203;   38.675;  298.000;  406.000
294.342;   30.375;   74.000;  156.000
294.481; 6573.550;51180.000; -836.000
294.619;   -6.200; -425.000; -582.000
294.758; -171.700;-1230.000;-1137.000
294.896;   62.625; -125.000;    5.000
295.035; -130.200;-1040.000;-1006.000
295.174; -114.175;-1082.000; -954.000
295.312;  -43.900; -323.000; -203.000
295.451;  -20.225; -307.000; -428.000
295.589;  -59.225; -389.000; -518.000
295.728;   33.075; -292.000; -165.000
295.866;    2.300;  -36.000;  -51.000
296.005;  -48.625; -584.000; -341.000
296.143;  -80.525; -558.000; -596.000
296.282;  -99.925; -957.000; -881.000
296.420;  -93.775; -657.000; -557.000
296.559;  -87.975; -892.000; -633.000
296.697;   -9.600; -847.000; -665.000
296.835;   19.200;-1141.000;-1002.000
296.974;   29.825;  -23.000;   39.000
297.112;    2.875; -443.000; -504.000
297.251;  -85.325; -815.000; -755.000
297.389;   66.500; -576.000; -438.000
297.527;    9.275; -145.000;  -83.000
297.666;  -50.475; -486.000; -438.000
297.804;  -70.050; -404.000; -264.000
297.942;  -10.775; -136.000; -161.000
298.081;  -15.875; -183.000;   63.000
298.219;   77.075;  -17.000;  -19.000
298.357;   21.950; -144.000;  -71.000
298.495;    5.225; -810.000; -812.000
298.634;   49.375;  245.000;  219.000
298.772;   61.675; -220.000; -338.000
298.910;  -47.550; -309.000; -182.000
299.048;  -12.000; -130.000; -153.000
299.187;  -27.275; -350.000; -250.000
299.325;   19.925;   52.000;  122.000
299.463;   16.175; -389.000; -299.000
299.601;   94.300; -327.000; -271.000
299.739; -122.550; -908.000; -883.000
299.877;  -77.175; -791.000; -703.000
300.016;  -71.825;-1095.000; -935.000
300.154;  144.425;  -19.000; -161.000
300.292;   25.500; -428.000; -348.000
300.430;   31.925; -408.000; -291.000
300.568; -121.675; -940.000; -874.000
300.706;  -54.650; -366.000; -469.000
300.844; -100.025;-1108.000; -979.000
300.982;  110.950;  246.000;  282.000
301.120; -126.925; -965.000; -866.000
301.258;  -65.425; -812.000; -705.000
301.396;   14.550;  104.000;  -41.000
301.534;   58.800; -218.000; -293.000
301.672;  -28.675; -664.000; -521.000
301.810;    6.075; -613.000; -545.000
301.948;   83.500;   53.000;  149.000
302.086;  517.125; -250.000;  -32.000
302.224;  787.875; -610.000; -585.000
302.362;   15.925; -558.000; -622.000
302.500;  -46.750; -923.000; -893.000
302.638;  103.425;  128.000;  245.000
302.776;  -18.450; -352.000; -408.000
302.913;   51.400;  447.000;  236.000
303.051;   -8.950;  -86.000;  -23.000
303.189;   42.525;   90.000;  118.000
303.327;  -53.600; -341.000; -256.000
303.465;  -82.350; -832.000; -588.000
303.603; -109.025; -805.000; -604.000
303.740;   95.550;  417.000;  241.000
303.878;   -4.525; -800.000; -759.000
304.016; -107.875; -915.000; -790.000
304.154; -150.450;-1123.000;-1152.000
304.291;  -32.250; -505.000; -554.000
304.429;   11.625;  102.000;   74.000
304.567; -123.775; -908.000; -893.000
304.705;  -59.025; -408.000; -515.000
304.842;   58.625; -616.000; -540.000
304.980;   44.425;  215.000;   35.000
305.118;   45.100; -367.000; -365.000
305.255;  -97.225; -945.000; -927.000
305.393;   56.825;  178.000;  239.000
305.531; -122.250;-1173.000; -956.000
305.668;  -66.950; -663.000; -582.000
305.806;   81.100; -358.000; -439.000
305.943;   82.700; -629.000; -637.000
306.081;   39.300; -378.000; -267.000
306.219; -103.575; -863.000; -748.000
306.356;   -3.625;  158.000;   27.000
306.494;  116.100;  981.000;  761.000
306.631;  -20.725;  -11.000;  -55.000
306.769;    1.150; -613.000; -485.000
306.906;  -27.750; -284.000; -258.000
307.044;  -56.650; -473.000; -488.000
307.181;  -81.775; -410.000; -332.000
307.319;   19.075;  112.000;   87.000
307.456; -175.425;-1191.000;-1153.000
307.594; -104.875; -980.000; -727.000
307.731;  -24.050; -371.000; -164.000
307.868;    1.950;  -15.000;   20.000
308.006; -139.625; -961.000; -847.000
308.143;  -53.275; -618.000; -330.000
308.281;  112.875;  -37.000; -254.000
308.418;  -30.700; -748.000; -640.000
308.555;  -79.625; -400.000; -250.000
308.693;  -68.025; -577.000; -573.000
308.830; -117.750; -712.000; -657.000
308.967;   -8.550; -215.000;  -95.000
309.105;  -55.925; -507.000; -396.000
309.242;   19.775; -468.000; -367.000
309.379;  197.850; -577.000; -655.000
309.517;  -71.200; -936.000; -948.000
309.654; -119.575; -910.000; -734.000
309.791;  -70.775; -662.000; -580.000
309.928; -132.075; -977.000; -914.000
310.065;  158.325;  819.000;  697.000
310.203;  -16.350; -825.000; -850.000
310.340;  -23.475; -465.000; -321.000
310.477;  -96.200; -412.000; -516.000
310.614;  -68.700; -383.000; -473.000
310.751;  -96.150; -427.000; -518.000
310.889;  -16.575;    1.000;   11.000
311.026; -151.875;-1161.000; -939.000
311.163;  -49.675; -386.000; -380.000
311.300;  -86.550; -512.000; -479.000
311.437;  -85.075; -658.000; -619.000
311.574; -160.125;-1226.000; -985.000
311.711;  -63.250; -595.000; -433.000
311.848;  -39.675; -380.000; -388.000
311.985;    3.625;  270.000;   93.000
312.122; -123.625; -932.000; -762.000
312.259; -129.175; -941.000; -994.000
312.396;  -89.025; -508.000; -551.000
312.533;  -84.125; -812.000; -790.000
312.670; -147.725;-1070.000; -898.000
312.807;  -31.325; -352.000; -367.000
312.944;  -80.350; -513.000; -611.000
313.081;  -25.900; -150.000; -415.000
313.218; -107.050;-1111.000; -867.000
313.355;    1.950; -531.000; -449.000
313.492;  -12.350; -455.000; -292.000
313.629;  130.450;  815.000;  735.000
313.766; -163.050;-1176.000;-1008.000
313.902;  -13.475; -186.000;   21.000
314.039;  -61.600; -372.000; -289.000
314.176;   40.275;  286.000;  192.000
314.313;  -80.150; -569.000; -473.000
314.450;  -66.300; -788.000; -684.000
314.587;  -66.875; -468.000; -480.000
314.723;   -3.700;  -78.000;  130.000
314.860;   19.225;  318.000;  332.000
314.997;   26.750;  223.000;  142.000
315.134;  -39.700; -385.000; -368.000
315.270;  -31.600; -480.000; -496.000
315.407; -135.325;-1094.000; -967.000
315.544;  -41.600; -657.000; -538.000
315.681;  -74.775; -681.000; -565.000
315.817;   38.600; -133.000; -176.000
315.954;    0.050; -613.000; -392.000
316.091; -116.325;-1045.000;-1023.000
316.227;  -38.800;  -71.000; -179.000
316.364;   -0.800;   23.000;    6.000
316.500;  -60.525; -113.000; -300.000
316.637;  -22.400; -181.000; -302.000
316.774; -101.125; -625.000; -358.000
316.910;  -87.125; -598.000; -629.000
317.047;  -79.875; -487.000; -351.000
317.183;  -44.525; -435.000; -566.000
317.320;  -20.450; -367.000; -321.000
317.456;  -59.100; -733.000; -805.000
317.593; -109.575; -598.000; -641.000
317.729;   16.650;  168.000;  -67.000
317.866; -196.400;-1434.000;-1285.000
318.002;  -76.875; -708.000; -948.000
318.139; -115.025; -883.000; -867.000
318.275; -100.575;-1003.000; -738.000
318.412;  -63.150; -517.000; -336.000
318.548;  -23.350; -751.000; -720.000
318.685; -108.650; -985.000; -888.000
318.821;  -82.925; -762.000; -735.000
318.957;   -9.775;   34.000;  -23.000
319.094;   42.850;  297.000;  154.000
319.230;  -82.775; -756.000; -742.000
319.367;   87.500; -471.000; -520.000
319.503;   16.875; -538.000; -436.000
319.639;  -92.800; -877.000; -793.000
319.775;  -76.700; -750.000; -685.000
319.912;  -59.400; -424.000; -519.000
320.048; -108.850;-1184.000;-1184.000
320.184;   75.750;   59.000;   70.000
320.321;  -63.050; -497.000; -467.000
320.457;   78.775;  475.000;  662.000
320.593;  -77.075; -375.000; -382.000
320.729; -107.650; -732.000; -734.000
320.866;  -80.925; -577.000; -635.000
321.002;  -93.050; -759.000; -809.000
321.138;  -36.900; -135.000; -211.000
321.274;   74.875; -148.000; -115.000
321.410;  -51.100; -585.000; -353.000
321.546;  -46.925;-1011.000; -911.000
321.683;   29.950;  400.000;  185.000
321.819;   14.875;  -48.000; -117.000
321.955; -106.450; -743.000; -722.000
322.091;  -41.950; -585.000; -540.000
322.227;  -23.275; -382.000; -202.000
322.363;  -11.325; -320.000; -215.000
322.499;  -51.250; -343.000; -331.000
322.635;  152.775;  636.000;  443.000
322.771;   15.175; -139.000;   12.000
322.907;   84.125;  129.000;  327.000
323.043;  -29.725; -115.000; -206.000
323.179;  -34.250; -394.000; -363.000
323.315;   -7.575; -401.000; -371.000
323.451;   59.975; -328.000; -236.000
323.587;   46.950;  -60.000;  -77.000
323.723;    5.150; -682.000; -601.000
323.859;  -32.075; -258.000;  -76.000
323.995;  -36.475; -467.000; -409.000
324.131; -129.075; -967.000; -892.000
324.267;  -26.100; -254.000; -276.000
324.402; -126.175; -960.000; -983.000
324.538;  -16.325; -279.000; -104.000
324.674;   11.550;  164.000;   77.000
324.810;   98.425;  226.000;  308.000
324.946;  -21.200; -810.000; -658.000
325.082;  -65.350; -568.000; -475.000
325.217;  -28.525;  -62.000;   16.000
325.353; -104.425; -764.000; -659.000
325.489;  -85.675; -540.000; -506.000
325.625;  -72.850; -579.000; -525.000
325.760;   45.625;  517.000;  376.000
325.896;  -28.825; -515.000; -702.000
326.032;  -63.075; -403.000; -352.000
326.168;  -50.725; -462.000; -369.000
326.303;  -65.675; -352.000; -461.000
326.439;  -22.700; -336.000; -276.000
326.575;  -14.575; -190.000;  -29.000
326.710;  -10.925; -156.000;  -30.000
326.846;  -22.575;  146.000;  103.000
326.982;  -85.875; -530.000; -548.000
327.117;  -85.900; -481.000; -442.000
327.253;  -89.125; -745.000; -742.000
327.388; -192.075;-1137.000;-1153.000
327.524;  -72.500; -811.000; -578.000
327.659;  -31.125;  -58.000;  -22.000
327.795;   -4.200;   69.000;   45.000
327.931; -103.450; -723.000; -499.000
328.066;  -24.500; -417.000; -276.000
328.202;  -34.375;   12.000; -129.000
328.337;  112.625;  957.000;  713.000
328.473;   21.500;  -12.000;  -74.000
328.608;   -5.575; -256.000; -267.000
328.743;  -84.025; -799.000; -664.000
328.879;   32.950;  214.000;  114.000
329.014;  -41.200; -102.000; -122.000
329.150;  -82.850; -358.000; -483.000
329.285;  -88.775; -465.000; -466.000
329.421;  -63.125; -548.000; -246.000
329.556;  -40.425;  -36.000;   85.000
329.691;  -99.650; -633.000; -615.000
329.827;  -91.650; -626.000; -480.000
329.962;  -51.500;  131.000; -301.000
330.097; -107.250; -673.000; -585.000
330.233;  -34.350; -410.000; -223.000
330.368; -136.175; -839.000; -628.000
330.503;  -10.900;    3.000;   98.000
330.638;  -15.775;  -93.000; -125.000
330.774;  -52.675; -609.000; -530.000
330.909;  -42.075; -434.000; -244.000
331.044;  -77.325; -714.000; -708.000
331.179; -189.200;-1217.000;-1109.000
331.315;    4.225;   77.000;   20.000
331.450;    3.975;  157.000;  285.000
331.585;  -85.150; -805.000; -706.000
331.720;  -91.575; -510.000; -460.000
331.855;   -5.000;  -35.000; -102.000
331.990;  250.750;   62.000;  138.000
332.126;  146.925; -110.000;   71.000
332.261;  -16.500; -379.000; -265.000
332.396;   14.975; -135.000; -242.000
332.531; -108.800;-1074.000;-1031.000
332.666;   53.075; -519.000; -363.000
332.801; -124.700; -726.000; -807.000
332.936;  -20.025; -192.000; -122.000
333.071; -154.025; -870.000; -817.000
333.206;   20.850;  307.000;  379.000
333.341;   24.250;  344.000;  418.000
333.476;  -68.800; -627.000; -623.000
333.611;  -42.700; -251.000; -173.000
333.746;  -37.100; -381.000; -464.000
333.881; -133.100; -973.000; -935.000
334.016; -129.250; -936.000; -917.000
334.151; -137.800; -746.000; -702.000
334.286;   16.300;  152.000;  186.000
334.421;  -40.675; -125.000; -178.000
334.556;  -67.700; -611.000; -567.000
334.690; -101.025; -631.000; -577.000
334.825;   42.175;  381.000;   83.000
334.960;  -70.275; -285.000; -413.000
335.095;   10.500;  135.000;  -91.000
335.230; -104.775; -722.000; -738.000
335.365; -144.425;-1084.000; -990.000
335.499; -134.200;-1108.000;-1037.000
335.634;   14.325;    9.000;  534.000
335.769; -116.050; -755.000; -720.000
335.904;  -72.875; -603.000; -561.000
336.038;  -69.125; -735.000; -657.000
336.173; -109.750;-1206.000;-1194.000
336.308;   -8.400; -116.000; -189.000
336.443;   11.975; -544.000; -634.000
336.577;  -87.675; -936.000; -787.000
336.712;   54.950;   -4.000;  -12.000
336.847;  -42.175; -724.000; -607.000
336.981;   47.250; -272.000; -208.000
337.116;  258.275;  615.000;  501.000
337.250;  128.050; -434.000; -421.000
337.385;  267.050; -297.000; -208.000
337.520;  105.850; -632.000; -603.000
337.654;  -55.250; -215.000; -126.000
337.789; -137.650; -989.000; -933.000
337.923;  -51.500; -104.000; -205.000
338.058;  -89.175; -673.000; -738.000
338.192;  -47.225; -611.000; -488.000
338.327;   -2.200;  -18.000; -155.000
338.461;  -71.325; -299.000; -469.000
338.596;  -90.950; -780.000; -638.000
338.730; -100.750; -767.000; -803.000
338.865;  105.225;  -46.000; -140.000
338.999;  -59.675; -846.000; -702.000
339.134;  -17.650; -634.000; -536.000
339.268;   17.050; -741.000; -603.000
339.403;  377.100; -740.000; -775.000
339.537;  115.900; -894.000; -820.000
339.671; -106.050; -829.000; -813.000
339.806;  -69.075; -556.000; -512.000
339.940;   13.125; -261.000; -235.000
340.074; -106.100; -685.000; -510.000
340.209;  -47.275; -351.000; -230.000
340.343;  -93.625; -517.000; -573.000
340.477;  145.075;  998.000; 1036.000
340.612;  -57.225;-1033.000; -900.000
340.746;  146.400; -199.000; -243.000
340.880;  -93.725; -924.000; -785.000
341.014;  -16.025;  -45.000; -154.000
341.149; -136.350; -756.000; -718.000
341.283;  -98.050; -839.000; -754.000
341.417; -127.325;-1124.000; -938.000
341.551;   86.025; -768.000; -708.000
341.685;  -42.125; -633.000; -611.000
341.820;  -54.800; -562.000; -493.000
341.954;  -67.000; -218.000; -349.000
342.088; -144.000;-1102.000;-1019.000
342.222;   40.900;  565.000;  618.000
342.356;  -65.275; -395.000; -335.000
342.490; -115.525; -880.000; -841.000
342.624;  -42.700; -339.000; -242.000
342.758;  -17.550; -364.000; -312.000
342.892;  -66.775; -710.000; -585.000
343.026;  -44.025;  -58.000; -116.000
343.160;  -66.650; -426.000; -376.000
343.294;  -89.525; -474.000; -337.000
343.428;  -25.225; -488.000; -448.000
343.562;  -24.375; -172.000;  -23.000
343.696;  -15.125; -385.000; -314.000
343.830;  -35.875; -362.000; -356.000
343.964;   17.950; -231.000; -168.000
344.098;  757.475;  199.000;   70.000
344.232;  643.025; -266.000; -127.000
344.366;   65.125; -567.000; -453.000
344.500;   37.525; -665.000; -744.000
344.634;   -2.000; -324.000; -164.000
344.768;  -23.325; -531.000; -341.000
344.902;   17.250;  278.000;  256.000
345.035;  -58.575; -556.000; -496.000
345.169; -138.875; -933.000; -656.000
345.303;  -70.325; -308.000; -482.000
345.437;  -79.500; -826.000; -717.000
345.571;  -78.750; -675.000; -594.000
345.704;  -66.500; -309.000; -532.000
345.838;  -15.400; -331.000; -284.000
345.972;  -50.800; -543.000; -495.000
346.106;  171.550; -179.000; -190.000
346.239;  394.275; -312.000; -243.000
346.373;   -1.400; -343.000; -302.000
346.507; -157.900; -950.000; -962.000
346.640;  106.450;  -30.000;   13.000
346.774;  -61.675; -650.000; -797.000
346.908;  -19.175; -138.000;  -11.000
347.041; -104.975; -646.000; -593.000
347.175;    8.750;  259.000;   27.000
347.309;  -93.100; -698.000; -628.000
347.442; -106.100; -883.000; -732.000
347.576;  219.700;  670.000;  668.000
347.709;  160.600; -123.000;  -52.000
347.843; -118.300; -933.000; -825.000
347.976;   41.275;  235.000;  294.000
348.110; -180.525;-1268.000;-1186.000
348.243;  -88.675; -679.000; -772.000
348.377;   -9.900;  -26.000;   60.000
348.510;   50.325;  403.000;  540.000
348.644;  -39.550;  -37.000; -159.000
348.777;    2.700;  180.000;  191.000
348.911;  -63.575; -142.000; -112.000
349.044;  153.850;  471.000;  448.000
349.178;   90.400;-1069.000;-1006.000
349.311;  103.900;  141.000;  255.000
349.444;  -21.125; -927.000; -813.000
349.578;  -29.675; -347.000; -200.000
349.711; -122.150; -959.000; -862.000
349.845;  -13.025; -661.000; -591.000
349.978; -154.000;-1224.000;-1137.000
350.111;  -78.875; -546.000; -612.000
350.244;  -93.450; -596.000; -700.000
350.378;   -2.575; -392.000; -393.000
350.511;  -75.275; -393.000; -426.000
350.644; -103.000; -808.000; -806.000
350.778;    3.025;  168.000;  104.000
350.911;   -2.375;  134.000;  140.000
351.044; -102.800; -685.000; -615.000
351.177;  -43.425; -321.000; -281.000
351.310;  -39.500;    3.000; -131.000
351.444;  -72.350; -888.000; -788.000
351.577;   84.200;  140.000;   90.000
351.710;   86.000;  593.000;  417.000
351.843;  -44.925; -165.000;  -77.000
351.976;   -3.350;  149.000;  -79.000
352.109;  -86.425; -621.000; -612.000
352.242;  -30.075; -464.000; -419.000
352.376;  -88.100; -580.000; -636.000
352.509;  127.425; -437.000; -356.000
352.642;  -27.175; -654.000; -604.000
352.775;   52.950; -141.000;  -98.000
352.908; -127.700; -933.000; -904.000
353.041; -114.975; -814.000; -824.000
353.174;  -71.950; -551.000; -424.000
353.307;  -84.725; -753.000; -764.000
353.440;   61.475;  541.000;  453.000
353.573; -122.900; -957.000;-1008.000
353.706;  -73.175; -384.000; -558.000
353.839;  -15.700; -264.000; -220.000
353.971;  -99.525; -657.000; -512.000
354.104;  -90.400; -896.000; -835.000
354.237;  -60.700; -627.000; -662.000
354.370;  -71.350; -846.000; -879.000
354.503; -190.600;-1231.000;-1308.000
354.636;  -33.000; -529.000; -348.000
354.769; -144.500; -937.000; -860.000
354.902;  -17.650; -230.000; -139.000
355.034;  -20.850; -164.000; -220.000
355.167;  -13.200; -262.000; -162.000
355.300; -109.175;-1061.000; -880.000
355.433;  981.800;  -71.000;  -14.000
355.565; 1505.275; -402.000; -384.000
355.698;  402.150; -356.000; -296.000
355.831;  -10.700; -882.000; -801.000
355.964;   61.800; -285.000; -170.000
356.096; -102.975; -856.000; -843.000
356.229;   -2.375; -523.000; -530.000
356.362;  323.975; -373.000; -266.000
356.494;  601.800; -229.000; -162.000
356.627;  413.075;  269.000;  377.000
356.760;  654.825;  120.000;   53.000
356.892;  978.550; -286.000; -601.000
357.025;  565.725;  403.000;  389.000
357.157;  488.075; -167.000; -179.000
357.290;  717.675; -856.000; -713.000
357.423;  179.975; -667.000; -556.000
357.555;  100.000; -217.000; -228.000
357.688;  114.275; -483.000; -364.000
357.820;  398.800; -870.000; -877.000
357.953; 3239.325; -563.000; -589.000
358.085;  682.650; -632.000; -612.000
358.218;  866.550;-1131.000; -932.000
358.350;  158.350;  -58.000;  312.000
358.483; -144.400;-1300.000;-1187.000
358.615;  -48.425;-1182.000;-1078.000
358.747;  -91.725;-1187.000;-1058.000
358.880;    8.975; -810.000; -744.000
359.012;  -19.850; -376.000; -202.000
359.145;  -45.625; -480.000; -511.000
359.277;   23.100; -962.000; -913.000
359.409; 2695.975;  536.000;  231.000
359.542;  654.275; -738.000; -688.000
359.674;   69.000;   46.000;   13.000
359.806;  -71.375; -565.000; -438.000
359.939;  -53.100; -617.000; -516.000
360.071;    4.825; -583.000; -579.000
360.203;  -35.675; -411.000; -364.000
360.335;   46.525;  164.000;  -16.000
360.468;  172.175; -249.000; -307.000
360.600; 2165.525; -547.000; -454.000
360.732; 2886.775; -546.000; -423.000
360.864;  385.050;-1216.000;-1044.000
360.996;  216.025; -516.000; -554.000
361.129;   13.275; -389.000; -598.000
361.261;   31.425;  110.000; -113.000
361.393;  -44.725; -252.000; -214.000
361.525;   19.875;   94.000;  244.000
361.657;  -46.700; -821.000; -703.000
361.789;    3.075; -139.000; -155.000
361.921;  160.700; -642.000; -593.000
362.053;  223.700;  524.000;  541.000
362.185;   27.100;  288.000;   72.000
362.318;  -79.475; -709.000; -705.000
362.450;   86.325;  294.000;  444.000
362.582;   53.500; -913.000; -870.000
362.714;  -41.275; -353.000; -332.000
362.846;  -86.825; -606.000; -490.000
362.978; -140.700; -941.000; -811.000
363.109;   40.650; -161.000; -260.000
363.241;  337.200; -739.000; -749.000
363.373;  436.350; -649.000; -564.000
363.505;  683.425; -186.000;  -91.000
363.637;  144.900; -787.000; -601.000
363.769; -142.700;-1067.000;-1080.000
363.901;  -73.400; -596.000; -654.000
364.033; -135.125;-1103.000;-1062.000
364.165;    1.175; -283.000; -283.000
364.296;   64.875; -316.000; -177.000
364.428;   71.650;-1344.000;-1220.000
364.560;  -84.000; -679.000; -661.000
364.692;  -60.300; -738.000; -835.000
364.824;  181.750; -588.000; -456.000
364.955;  431.650; -402.000; -564.000
365.087;  979.500;-1097.000; -852.000
365.219;   37.575; -686.000; -816.000
365.351;  -91.150; -526.000; -572.000
365.482;   48.350;  300.000;  240.000
365.614;  -54.675; -402.000; -314.000
365.746;  -96.600; -729.000; -752.000
365.877; -107.175; -706.000; -672.000
366.009;  279.725;  -35.000;  -62.000
366.141;  -84.250;-1249.000;-1134.000
366.272; -105.400; -803.000; -719.000
366.404; -130.950;-1005.000; -874.000
366.535;   -8.400; -139.000;  -12.000
366.667; -115.675; -644.000; -649.000
366.799;   34.675;  353.000;  203.000
366.930; -143.100; -862.000; -996.000
367.062;  121.725; -639.000; -613.000
367.193;  140.000; -872.000; -842.000
367.325;  -53.275; -580.000; -684.000
367.456;   22.800; -246.000;   31.000
367.588;  168.625; -371.000; -318.000
367.719;   19.325;  -44.000;  -45.000
367.851;  -20.750; -222.000; -241.000
367.982;  -79.775; -875.000; -732.000
368.113;   60.925; -475.000; -358.000
368.245; -129.025; -960.000; -841.000
368.376;  -33.200; -254.000; -302.000
368.508;  -53.225; -188.000; -263.000
368.639; -144.650;-1166.000;-1034.000
368.770;  -48.750; -670.000; -589.000
368.902;  -72.950; -836.000; -926.000
369.033; -121.825; -906.000; -855.000
369.164;  -42.375; -720.000; -653.000
369.296; -123.550; -452.000; -601.000
369.427;  -12.450; -209.000; -144.000
369.558;  -64.500; -593.000; -377.000
369.689;  -84.925; -721.000; -569.000
369.821; -148.525; -951.000; -845.000
369.952;   -3.600;   42.000; -108.000
370.083;  -63.650; -229.000; -108.000
370.214;  -78.375; -735.000; -650.000
370.345;  -16.300;   65.000;   81.000
370.477;  -87.025; -810.000; -790.000
370.608;  177.225; -328.000; -264.000
370.739;  -78.350;-1233.000;-1292.000
370.870;  -67.725;-1102.000; -923.000
371.001;   70.550; -378.000; -467.000
371.132; -102.600; -754.000; -735.000
371.263;  -21.025;  -42.000; -148.000
371.394; -138.625; -841.000; -748.000
371.525;   16.125;  345.000;  225.000
371.657; -100.925; -808.000; -670.000
371.788;   70.225;  103.000;  199.000
371.919;  132.050; -384.000; -304.000
372.050; 3126.875;  -91.000; -156.000
372.181;  884.775; -188.000; -294.000
372.311;  313.525;   42.000; -127.000
372.442;    9.350; -457.000; -451.000
372.573;  -14.975; -444.000; -340.000
372.704; -128.100;-1008.000; -980.000
372.835;   57.650; -228.000; -289.000
372.966;  -75.550; -646.000; -554.000
373.097;  -69.000; -575.000; -711.000
373.228;  -60.125; -717.000; -542.000
373.359;   90.825; -824.000; -536.000
373.490;  736.225; -881.000; -727.000
373.620;  937.050;-1001.000; -803.000
373.751; 1457.425; -332.000; -396.000
373.882;  648.025; -663.000; -733.000
374.013;   34.375; -449.000; -262.000
374.143;  -55.000; -581.000; -659.000
374.274; -118.750; -987.000; -908.000
374.405;  129.275; -388.000; -276.000
374.536;  343.725; -526.000; -387.000
374.666;  918.300; -759.000; -807.000
374.797;  154.050; -817.000; -868.000
374.928;  690.550; -710.000; -560.000
375.058;  705.675; -535.000; -500.000
375.189;   62.225;  -59.000;  -93.000
375.320; -121.450; -928.000;-1034.000
375.450;  -38.850; -625.000; -616.000
375.581;  -67.000; -526.000; -436.000
375.712;  -40.550; -574.000; -250.000
375.842;  221.000; -438.000; -415.000
375.973;  168.800; -554.000; -513.000
376.103;  -71.800; -665.000; -648.000
376.234;  -84.825; -531.000; -552.000
376.364;  -69.600; -944.000; -867.000
376.495;  281.425;  925.000;  529.000
376.625;  -49.425; -472.000; -485.000
376.756;   19.550; -709.000; -678.000
376.886;  -94.750;-1178.000;-1026.000
377.017;   58.325;-1048.000;-1061.000
377.147;  340.600; -786.000; -782.000
377.278;   60.650;  174.000;  228.000
377.408; -141.200; -801.000; -815.000
377.538;  -99.750; -707.000; -693.000
377.669;  -94.700; -537.000; -613.000
377.799;  -93.025; -645.000; -635.000
377.929;  -74.600; -610.000; -428.000
378.060; -139.075; -781.000; -847.000
378.190;  -71.275; -726.000; -531.000
378.320;  -54.925; -401.000; -406.000
378.451;  -35.550; -131.000;  -22.000
378.581;  -10.600;  -67.000; -110.000
378.711;  133.075; 1035.000;  866.000
378.841;  -41.100; -533.000; -675.000
378.972;  -94.125; -871.000; -751.000
379.102;   -8.375; -652.000; -579.000
379.232;  -34.925; -126.000;  -73.000
379.362; -102.675;-1001.000; -885.000
379.492;  -18.825; -373.000; -424.000
379.623;  101.250;    0.000;  111.000
379.753; -127.450;-1107.000; -974.000
379.883;  159.400;   59.000;  156.000
380.013;  -37.175;-1081.000;-1017.000
380.143; -105.850;-1097.000;-1056.000
380.273; -106.700; -985.000; -861.000
380.403;  -12.900; -344.000; -257.000
380.533;  -45.725; -651.000; -664.000
380.663;   58.325;  173.000;  128.000
380.793; -126.275;-1027.000;-1074.000
380.923;  -17.475; -103.000;  -34.000
381.053;  -99.275; -613.000; -623.000
381.183;  -38.375; -106.000; -248.000
381.313;   -5.500; -656.000; -470.000
381.443;   19.625; -692.000; -473.000
381.573;  132.675; -402.000; -409.000
381.703;  184.650;-1249.000;-1095.000
381.833; -154.600;-1454.000;-1336.000
381.963;  105.450; -134.000;  -87.000
382.093; 1196.150; -925.000; -909.000
382.223;  368.300; -713.000; -602.000
382.353;  -59.975; -801.000; -608.000
382.482;  276.375;-1091.000; -964.000
382.612;  633.650; -872.000; -644.000
382.742;  357.375; -695.000; -622.000
382.872;  190.500; -565.000; -551.000
383.002;   44.300;  347.000; -132.000
383.131;  -20.325; -226.000; -160.000
383.261;  -43.025; -706.000; -768.000
383.391;  266.900; -552.000; -377.000
383.521; 3341.625;  451.000;  263.000
383.650;  803.850; -947.000; -904.000
383.780;  -10.550; -783.000; -656.000
383.910;   87.675;  880.000;  802.000
384.039;   -3.400; -794.000; -656.000
384.169;  108.650;-1205.000;-1017.000
384.299;  -45.300; -650.000; -662.000
384.428; -109.875; -764.000; -680.000
384.558;  -59.950; -308.000; -275.000
384.687;  -63.050; -414.000; -334.000
384.817;   11.425;   75.000;   -2.000
384.947;   -3.825; -234.000; -141.000
385.076;  253.450;  982.000;  912.000
385.206;   85.000;  369.000;  480.000
385.335;  -40.775; -549.000; -417.000
385.465;  -89.975; -655.000; -663.000
385.594;  102.550;  -53.000;  -44.000
385.724;  320.750; -868.000; -838.000
385.853;   84.750; -296.000; -270.000
385.982; 1135.575; -743.000; -787.000
386.112; 1754.075;-1052.000; -871.000
386.241;  101.675; -307.000; -312.000
386.371;   12.900; -174.000;  -87.000
386.500;  -27.350; -825.000; -789.000
386.629;   15.500; -874.000; -817.000
386.759;   56.975;  -43.000;   68.000
386.888;   -3.350; -170.000; -250.000
387.017;  -92.425; -648.000; -620.000
387.147;  -89.375; -771.000; -798.000
387.276;  -31.050; -410.000; -397.000
387.405;    0.500; -398.000; -342.000
387.535;  -65.675; -452.000; -361.000
387.664;  -63.350; -692.000; -620.000
387.793;   38.200; -198.000; -113.000
387.922;  430.550;  255.000;  200.000
388.052;  -13.800; -576.000; -423.000
388.181;   -6.600; -342.000; -472.000
388.310;  -37.200; -889.000; -710.000
388.439;  -64.000; -749.000; -742.000
388.568;  140.350;  365.000;  244.000
388.697;  831.975; -756.000; -653.000
388.826;  158.700; -768.000; -666.000
388.956;   52.525; -285.000; -307.000
389.085;  -56.250; -347.000; -287.000
389.214; -112.125; -842.000; -872.000
389.343;  -75.950; -645.000; -413.000
389.472;  419.525;  126.000;  149.000
389.601;  491.400;   91.000;    0.000
389.730;    6.150; -568.000; -687.000
389.859;   50.000;  226.000;   46.000
389.988;  145.800; -423.000; -408.000
390.117;  107.825; -168.000; -146.000
390.246;  -20.825; -331.000; -320.000
390.375;   49.425; -673.000; -626.000
390.504;  -67.450; -703.000; -621.000
390.633; -110.675; -672.000; -726.000
390.761;  -71.425; -732.000; -645.000
390.890;   -5.675;   -4.000; -130.000
391.019;  -37.400; -421.000; -441.000
391.148; -128.675; -826.000; -855.000
391.277;  -70.100; -576.000; -493.000
391.406; -115.225; -821.000; -805.000
391.534;   16.975;  574.000; -301.000
391.663;  -91.725; -583.000; -645.000
391.792;  -91.025; -673.000; -701.000
391.921;   58.550;   -3.000;   15.000
392.050;  139.225; -287.000; -228.000
392.178;  -95.950;-1206.000;-1061.000
392.307;   92.275; -758.000; -712.000
392.436;   36.600; -427.000; -641.000
392.564;    5.550;  166.000;   -6.000
392.693; -118.750; -860.000; -682.000
392.822;  140.150; -529.000; -534.000
392.950;   51.900; -880.000; -714.000
393.079;  256.675; -188.000; -328.000
393.208;   -9.900; -488.000; -511.000
393.336;  -21.425; -170.000; -145.000
393.465;  -72.475; -317.000; -199.000
393.593;    7.800;   62.000;   79.000
393.722; -174.750;-1121.000; -916.000
393.850;  -25.425; -188.000;  -61.000
393.979; -165.825; -926.000; -805.000
394.107;  -58.925; -517.000; -537.000
394.236;  -37.450; -570.000; -507.000
394.364;  181.300;  383.000;  206.000
394.493;  226.700; -911.000; -767.000
394.621;  -11.750; -955.000; -916.000
394.750;  728.100; -873.000; -923.000
394.878; 3009.750; -247.000; -149.000
395.007; 4076.750; -721.000; -807.000
395.135;  285.925; -790.000; -721.000
395.263; -101.500;-1038.000;-1040.000
395.392;    6.200;  -25.000; -107.000
395.520; -140.900; -818.000; -679.000
395.648; -101.750; -865.000; -915.000
395.777;  -38.275; -366.000; -405.000
395.905;  -59.825; -449.000; -564.000
396.033;   -0.525;  217.000;  172.000
396.162;  413.025; -399.000; -453.000
396.290;  357.425;  -17.000;   -2.000
396.418;   77.350; -555.000; -514.000
396.546;  -76.650; -571.000; -466.000
396.674; -100.100; -850.000; -878.000
396.803;  -10.450;  -72.000;  -23.000
396.931;   61.925; -179.000; -199.000
397.059;    3.850;-1026.000; -989.000
397.187; -121.425;-1026.000; -975.000
397.315; -145.350; -884.000; -649.000
397.443;  -82.450; -592.000; -443.000
397.572; -102.975; -578.000; -424.000
397.700;  -21.950; -607.000; -614.000
397.828;   -5.225;  120.000;  -90.000
397.956;  -38.725; -508.000; -478.000
398.084;  -68.025; -767.000; -626.000
398.212;   27.750;  137.000;  124.000
398.340;  -19.950;  -56.000;  159.000
398.468;   15.150; -390.000; -169.000
398.596; -146.400; -993.000; -953.000
398.724; -109.525; -762.000; -767.000
398.852; -169.350;-1024.000; -976.000
398.980;  -85.400; -560.000; -560.000
399.108;  -87.025; -982.000; -735.000
399.236;   25.625;   13.000;    8.000
399.363;    1.850;  222.000;  196.000
399.491;  -73.025; -404.000; -398.000
399.619; -140.925; -829.000; -800.000
399.747;  -89.575; -859.000; -771.000
399.875;   58.275;  220.000;  234.000
400.003;  -36.325; -359.000; -284.000
400.130;  -87.300; -421.000; -341.000
400.258;  -20.800;  -83.000;   38.000
400.386;  -67.025; -352.000; -168.000
400.514;  -68.000; -526.000; -587.000
400.641; -106.100; -928.000; -802.000
400.769; -132.450; -979.000; -888.000
400.897; -128.000; -838.000; -793.000
401.025;  -20.625; -166.000; -152.000
401.152;   -5.700;  220.000;   38.000
401.280;  -80.425; -430.000; -429.000
401.408; -124.625; -712.000; -576.000
401.535; -105.025; -735.000; -758.000
401.663; -202.625;-1134.000;-1054.000
401.790;  -79.950; -514.000; -525.000
401.918;   29.525;  436.000;  405.000
402.046;  -19.825;  134.000;  122.000
402.173;  -36.025;  -18.000;    7.000
402.301;  -70.000; -519.000; -397.000
402.428;   22.125;  528.000;  383.000
402.556; -151.125;-1188.000; -913.000
402.683;  -43.825;  -20.000;   -1.000
402.811;  -14.150;  -37.000; -206.000
402.938;  -20.900;   20.000;   27.000
403.066;  165.575; -574.000; -558.000
403.193;  253.925;  299.000;  239.000
403.321;  201.750; -396.000; -574.000
403.448;  259.475;   83.000;   27.000
403.575;  117.775;  -90.000;  -46.000
403.703; -110.475; -732.000; -557.000
403.830;  -72.875; -531.000; -496.000
403.957; -147.425;-1117.000;-1023.000
404.085;    6.675;  -61.000; -172.000
404.212;   76.525;  -50.000;   63.000
404.339;  270.625; -566.000; -306.000
404.467; 5982.525; -612.000; -524.000
404.594; 3763.625; -287.000; -227.000
404.721;  784.725; -869.000; -764.000
404.848;   77.300; -113.000; -202.000
404.976; -125.500; -856.000; -783.000
405.103;   -4.775;  -14.000;  -82.000
405.230;   -0.525;  190.000;  226.000
405.357;   26.100;  117.000;   44.000
405.484;  268.850;  -49.000;    5.000
405.612;   42.625; -548.000; -563.000
405.739;  -85.000; -488.000; -243.000
405.866;   98.200;  669.000;  385.000
405.993;  -45.550; -398.000; -102.000
406.120; -125.750; -801.000; -887.000
406.247;  -65.625; -323.000; -342.000
406.374;  353.400;  540.000;  629.000
406.501;   47.450; -632.000; -702.000
406.628;  -88.750; -621.000; -589.000
406.755; -118.575; -803.000; -620.000
406.882;  -35.900; -228.000; -277.000
407.009; -116.475; -719.000; -628.000
407.136;   29.300; -480.000; -401.000
407.263;   60.825; -939.000; -829.000
407.390;  -75.700; -692.000; -614.000
407.517; -178.625;-1139.000;-1187.000
407.644;  -58.925; -332.000; -256.000
407.771;  -60.600; -249.000; -287.000
407.898;  -10.450;  168.000;  328.000
408.025;  -66.650; -421.000; -313.000
408.151;  -11.200;   82.000;  153.000
408.278;  -77.150; -267.000; -216.000
408.405; -118.250; -931.000; -899.000
408.532;  -87.025; -549.000; -542.000
408.659; -112.550; -677.000; -648.000
408.785; -218.300;-1298.000;-1170.000
408.912;  -71.650; -412.000; -296.000
409.039; -115.600; -610.000; -686.000
409.166;  -90.150; -591.000; -555.000
409.292; -125.325; -571.000; -534.000
409.419; -116.025; -665.000; -649.000
409.546;  -95.550; -431.000; -192.000
409.672;  -98.050; -713.000; -545.000
409.799;  -48.250;  -36.000;   34.000
409.926;  -30.725; -180.000; -179.000
410.052; -192.250;-1127.000;-1091.000
410.179;  -53.875; -368.000; -392.000
410.305; -104.800; -375.000; -493.000
410.432;  -42.000; -220.000; -333.000
410.558; -100.775; -305.000; -380.000
410.685;  -99.225; -688.000; -431.000
410.812; -115.750; -409.000; -588.000
410.938; -138.250; -964.000; -808.000
411.065; -115.175; -671.000; -645.000
411.191;  -16.950; -189.000; -174.000
411.317; -116.450; -823.000; -742.000
411.444;  -58.000; -317.000; -246.000
411.570;  -80.775; -339.000; -294.000
411.697; -116.775; -758.000; -752.000
411.823; -182.275; -989.000; -999.000
411.949;  -29.200;  -56.000;   17.000
412.076; -118.850; -539.000; -519.000
412.202; -115.125; -758.000; -757.000
412.329; -142.125; -798.000; -752.000
412.455;  -98.425; -821.000; -657.000
412.581;  -26.650;  -15.000;  172.000
412.707;  -69.475; -540.000; -457.000
412.834;   10.175;  156.000;  219.000
412.960;  -95.075; -785.000; -784.000
413.086; -121.050; -743.000; -701.000
413.212;  129.950;  604.000;  578.000
413.339;  -89.275; -685.000; -701.000
413.465;  -22.775; -364.000; -310.000
413.591; -106.025; -757.000; -474.000
413.717;  -56.825; -358.000; -366.000
413.843; -151.625; -839.000; -861.000
413.969;  -65.100;  -47.000; -292.000
414.096; -120.575; -679.000; -679.000
414.222;    4.125;  -33.000;   85.000
414.348;  -51.250; -652.000; -385.000
414.474;   73.275;   38.000;  -52.000
414.600;  -23.750; -126.000; -144.000
414.726;   -6.325;  -96.000;  -55.000
414.852;  -70.850; -365.000; -342.000
414.978;   35.700;  104.000;  -18.000
415.104;   38.500;   38.000;   80.000
415.230;   21.225; -329.000; -330.000
415.356;   17.600; -409.000; -514.000
415.482;  192.100;   13.000;  -35.000
415.608;  265.975; -247.000; -323.000
415.734;  991.325;   67.000;   38.000
415.860;20326.600; -875.000; -767.000
415.986;14648.525; -685.000; -607.000
416.111; 1253.075; -798.000; -652.000
416.237;  252.775; -424.000; -571.000
416.363; 1150.300; -765.000; -733.000
416.489; 4329.750; -324.000; -251.000
416.615;  462.375; -707.000; -742.000
416.741;  -15.825; -677.000; -784.000
416.866; -111.925; -673.000; -736.000
416.992; -114.850; -801.000; -818.000
417.118;  -51.325;  -41.000;  -80.000
417.244;  -82.750; -798.000; -531.000
417.369;  -96.850; -801.000; -612.000
417.495;   -5.225; -325.000; -254.000
417.621;  -94.250;-1015.000; -803.000
417.746;    2.900; -579.000; -572.000
417.872;   39.150; -254.000; -144.000
417.998;   66.975; -515.000; -530.000
418.123; 1080.225;-1073.000; -845.000
418.249; 5550.400; -512.000; -601.000
418.374;  775.775; -916.000; -824.000
418.500;  107.475; -383.000; -482.000
418.626;   98.675;   70.000;  -59.000
418.751;  117.200; -549.000; -448.000
418.877;  180.275; -637.000; -643.000
419.002; 1857.375; -688.000; -560.000
419.128;13036.700; -930.000; -721.000
419.253; 3168.725; -967.000; -837.000
419.379;  424.475; -391.000; -338.000
419.504;  420.075;  325.000;  415.000
419.629;  527.300; -393.000; -212.000
419.755; 3746.425; -317.000; -254.000
419.880;22107.475;  -98.000;   67.000
420.006;11892.325; -280.000; -221.000
420.131;30156.125; -662.000; -775.000
420.256; 4318.250; -315.000; -316.000
420.382;  550.675; -665.000; -687.000
420.507;   63.000; -649.000; -778.000
420.632;   94.500; -337.000; -339.000
420.758;  200.725; -251.000; -425.000
420.883;  -95.900; -876.000; -672.000
421.008; -106.100; -775.000; -619.000
421.133;  -94.175; -509.000; -467.000
421.259;  -48.400; -325.000; -259.000
421.384; -123.600; -834.000; -693.000
421.509;  -60.625;-1052.000; -862.000
421.634;  863.525; -936.000; -820.000
421.759;  402.500; -359.000; -327.000
421.885;  -76.275; -717.000; -656.000
422.010;  -70.950; -673.000; -542.000
422.135; -153.925; -695.000; -727.000
422.260;   30.825;  340.000;  280.000
422.385;  -57.350;   12.000;  -98.000
422.510;   15.850;  151.000;  -26.000
422.635;    0.925;  -87.000;  -43.000
422.760;   65.675; -766.000; -791.000
422.885;   37.875;  -57.000;  -80.000
423.010;  -38.475; -112.000; -169.000
423.135;  -96.075; -481.000; -561.000
423.260;  -19.775; -150.000; -245.000
423.385;   52.725;  476.000;  222.000
423.510;   19.400;   71.000;  -22.000
423.635;   69.875;  133.000;   45.000
423.760;   52.000;  383.000;  328.000
423.885;   30.175;  336.000;  391.000
424.010;   11.200;  -68.000;  -13.000
424.135;  -35.175;    5.000;  -33.000
424.259;  -79.300; -654.000; -457.000
424.384;  -61.000; -279.000; -272.000
424.509;  -24.550; -260.000; -186.000
424.634; -109.725; -761.000; -623.000
424.759;  -16.925; -688.000; -544.000
424.883;  -16.650; -506.000; -527.000
425.008;  180.900; -502.000; -410.000
425.133; 2013.525; -679.000; -653.000
425.258;  950.475; -517.000; -381.000
425.382;  894.025; -867.000; -774.000
425.507; 2235.475; -487.000; -543.000
425.632;  369.200; -802.000; -663.000
425.756;  485.100; -256.000; -146.000
425.881; 6920.975; -831.000; -857.000
426.006;18845.050; -604.000; -355.000
426.130; 2883.225; -696.000; -508.000
426.255;  359.425; -611.000; -491.000
426.379;  154.775; -189.000; -577.000
426.504;  394.025;  660.000;  544.000
426.629; 4074.050; -519.000; -466.000
426.753; 2807.675;   64.000;  -46.000
426.878;  304.100; -252.000; -288.000
427.002;  143.825; -651.000; -668.000
427.127; 1597.075;  -35.000; -158.000
427.251;11785.775;  372.000;  401.000
427.375; 3333.850; -191.000; -173.000
427.500; 2034.325; -616.000; -610.000
427.624;  652.425; -234.000; -400.000
427.749;   70.225; -216.000; -225.000
427.873;  -51.475; -499.000; -412.000
427.997;  -25.475; -222.000; -230.000
428.122;   74.900;  795.000;  703.000
428.246;   51.150;  433.000;  434.000
428.371; -141.850; -869.000; -773.000
428.495; -101.475; -624.000; -646.000
428.619;  -54.125; -186.000; -117.000
428.743;   14.950;   65.000;  132.000
428.868;  -17.200; -732.000; -643.000
428.992; 1191.100; -219.000; -326.000
429.116;  447.550; -329.000; -357.000
429.240;  234.400;  419.000;  426.000
429.365;  -25.550; -454.000; -574.000
429.489;  -46.700; -638.000; -647.000
429.613;   -0.150; -236.000; -177.000
429.737;   28.875; -563.000; -432.000
429.861;  256.275; -247.000; -133.000
429.985; 5701.375; -425.000; -305.000
430.109; 6248.400; -770.000; -908.000
430.234;  723.550;   76.000;  -50.000
430.358;   61.725; -250.000; -160.000
430.482;  -69.275; -672.000; -564.000
430.606;  -93.475; -655.000; -375.000
430.730;  -21.300; -437.000; -388.000
430.854;   60.250; -909.000; -835.000
430.978;  -79.825; -795.000; -764.000
431.102;  -98.950; -499.000; -422.000
431.226; -125.425; -874.000; -815.000
431.350;   20.250;  345.000;  422.000
431.474;  -65.100; -661.000; -373.000
431.597; -158.150;-1060.000; -848.000
431.721;  -66.825; -276.000; -267.000
431.845; -132.575; -704.000; -472.000
431.969;  -69.900; -304.000; -349.000
432.093; -106.125; -395.000; -317.000
432.217;  -17.200;   32.000;   82.000
432.341;  -93.125; -523.000; -518.000
432.464;   12.775;   96.000;   40.000
432.588;  117.900; -401.000; -329.000
432.712;   55.375;  -52.000;  -52.000
432.836;   45.250;  213.000;  263.000
432.959;   -7.275; -372.000; -311.000
433.083;   85.125;   11.000;    2.000
433.207;  396.325;  285.000;  930.000
433.330; 5235.950; -391.000; -200.000
433.454; 6468.475; -654.000; -638.000
433.578; 3688.250;  583.000;  278.000
433.701;  682.250; -623.000; -675.000
433.825;  103.075; -292.000; -299.000
433.949;  110.075;   28.000;  -72.000
434.072;    9.700; -410.000; -323.000
434.196;  -15.850; -309.000; -117.000
434.319; 3729.000;25482.000;25124.000
434.443;  740.275; -656.000; -603.000
434.566; 2726.300;  281.000;   62.000
434.690;  460.000; -637.000; -383.000
434.813;   44.975; -251.000; -173.000
434.937;  -76.425; -569.000; -696.000
435.060;  -66.500; -423.000; -332.000
435.184;  178.400; -492.000; -217.000
435.307;   89.525;  159.000;  102.000
435.431;  -21.300;  -40.000;   24.000
435.554;  -91.350; -399.000; -240.000
435.677;  -74.725; -350.000; -258.000
435.801;  -46.475;  -25.000;   49.000
435.924;  -29.375;    1.000;  -67.000
436.048; -144.100;-1019.000; -732.000
436.171;  -68.900; -240.000;  -66.000
436.294;  -45.850; -248.000; -229.000
436.417;   93.700; -963.000; -849.000
436.541;  -98.225; -814.000; -840.000
436.664;  -60.175; -242.000; -316.000
436.787;  -54.075;   13.000;  113.000
436.910; -111.425; -792.000; -422.000
437.034;  -26.800;  142.000;  143.000
437.157;   32.125;  -11.000;    0.000
437.280;  -62.825; -392.000; -292.000
437.403; -102.750; -982.000; -869.000
437.526;  420.275; -903.000; -865.000
437.649; 1719.675; -505.000; -332.000
437.772;  201.775; -692.000; -540.000
437.896;  102.175;  700.000;  544.000
438.019; -113.725; -758.000; -503.000
438.142;  -84.600; -596.000; -506.000
438.265;  -56.925; -639.000; -670.000
438.388;  413.500; -520.000; -410.000
438.511;   20.700; -597.000; -394.000
438.634;  -44.925; -247.000; -125.000
438.757; -150.950; -693.000; -619.000
438.880;  -12.775;  -34.000;  -57.000
439.003;  -98.150; -417.000; -437.000
439.126;  -65.300; -287.000; -167.000
439.248;  -77.700;  -98.000; -139.000
439.371;  -42.925;    9.000;  -53.000
439.494;   20.150;  510.000;  439.000
439.617;  -60.150;   65.000;  -88.000
439.740; -196.750; -968.000; -816.000
439.863; -139.000; -755.000; -595.000
439.986; -130.625; -476.000; -431.000
440.108;  -52.000; -161.000; -112.000
440.231; -183.175; -950.000; -836.000
440.354;  -44.550;  -64.000; -150.000
440.477;  -29.300; -566.000; -542.000
440.599;   -8.000; -200.000; -225.000
440.722; -136.425; -709.000; -586.000
440.845;   72.725;  751.000;  928.000
440.968; -110.775; -415.000; -311.000
441.090;  -76.575; -199.000;  -33.000
441.213; -169.075;-1021.000; -825.000
441.336;  -42.450; -159.000;   -5.000
441.458;  -93.375; -549.000; -396.000
441.581;  -99.975; -628.000; -629.000
441.703;  -82.500; -152.000;   13.000
441.826; -117.100; -557.000; -400.000
441.948;  -59.400;   56.000;   51.000
442.071;   32.325;  555.000;  424.000
442.193; -131.025; -531.000; -485.000
442.316;   21.400;  152.000;   97.000
442.438;   32.600; -233.000;  -10.000
442.561;   64.800;  272.000;  262.000
442.683;  380.850; -809.000; -522.000
442.806;  906.200;   -8.000;   74.000
442.928;  -22.950; -859.000; -604.000
443.051;  -81.075; -577.000; -373.000
443.173; -102.525; -341.000; -339.000
443.295;  -78.775; -263.000; -371.000
443.418;  -96.300; -321.000;  -29.000
443.540;   -2.375; -106.000;   -4.000
443.662; -136.400; -563.000; -465.000
443.785;   -8.000;  335.000;  199.000
443.907; -113.575; -362.000; -208.000
444.029; -133.275; -767.000; -494.000
444.152; -150.875; -644.000; -554.000
444.274;  -39.600;  -18.000;  -24.000
444.396; -121.125; -461.000; -221.000
444.518; -134.225; -691.000; -454.000
444.640; -108.050; -268.000; -111.000
444.763;  -14.425;  388.000;  249.000
444.885; -117.550; -432.000; -392.000
445.007;  -32.300;   35.000;   86.000
445.129; -138.100; -610.000; -515.000
445.251; -100.375; -372.000; -439.000
445.373; -143.525; -537.000; -386.000
445.495;    1.400;  242.000;  350.000
445.617;   45.375;  853.000;  753.000
445.739;  -63.275; -215.000;  -97.000
445.861;  -49.050; -245.000; -112.000
445.984;  -29.975; -267.000; -101.000
446.105;  124.250; -418.000; -251.000
446.227;  471.050; -176.000;  -19.000
446.349;  -19.500; -358.000; -249.000
446.471; -102.850; -615.000; -448.000
446.593;  -79.025; -316.000;   19.000
446.715;  -11.525;  -67.000;   41.000
446.837;   47.650;  697.000;  832.000
446.959;  -91.575; -457.000; -478.000
447.081; -164.275; -628.000; -518.000
447.203;   65.750;  862.000;  834.000
447.325;  -96.675; -270.000;   42.000
447.446;   -1.100;  286.000;  530.000
447.568; -167.950; -921.000; -803.000
447.690;  -86.300; -236.000; -245.000
447.812; -163.800; -798.000; -519.000
447.933;  -20.625;  155.000;  127.000
448.055;  -82.600; -306.000; -261.000
448.177;  122.800;   31.000;   79.000
448.299;   19.725; -935.000; -727.000
448.420;    8.100;  -25.000;  159.000
448.542;  -53.375;   -3.000;   33.000
448.664;   -9.150;  109.000;  322.000
448.785;  -46.900;  265.000;   83.000
448.907;  -88.950; -614.000; -353.000
449.028;  -67.150; -771.000; -471.000
449.150;   66.350;  492.000;  589.000
449.272; -187.050;-1044.000; -913.000
449.393;   28.325;  612.000;  694.000
449.515; -154.175; -634.000; -581.000
449.636;  -75.150; -264.000; -155.000
449.758;   50.825;  763.000;  622.000
449.879;  -82.600; -498.000; -396.000
450.001;  -90.725; -149.000;  -49.000
450.122;  -33.425;  -95.000;  162.000
450.244;  -43.075;   37.000;  364.000
450.365;  -80.475; -495.000; -301.000
450.486;  -39.225;   80.000;  268.000
450.608;   34.175;  393.000;  326.000
450.729;   58.675;  578.000;  645.000
450.850;   12.400; -574.000; -466.000
450.972;  800.325; -552.000; -389.000
451.093; 5178.000;  190.000;  588.000
451.214; 2210.550; -516.000; -337.000
451.336;  412.125;  773.000;  579.000
451.457;   57.375;  264.000;  393.000
451.578;  -38.325; -118.000;  -74.000
451.699; -125.525; -546.000; -540.000
451.821;  -56.650; -284.000;  -50.000
451.942;  -13.425;  278.000;  285.000
452.063;   27.275;  228.000;  419.000
452.184;  543.150;  -54.000;  -49.000
452.305; 1130.050;  103.000;  170.000
452.427;  133.625; -549.000; -301.000
452.548;  -14.475;   23.000;   79.000
452.669;  -74.750; -257.000;  -89.000
452.790;  -47.300;    3.000;  -18.000
452.911;  -25.050;  195.000;  259.000
453.032;  -55.650; -289.000;  -60.000
453.153;  -51.625;  -29.000;   81.000
453.274;   65.350;  737.000;  868.000
453.395;  -64.175;  -51.000;  175.000
453.516;  119.175; 1317.000; 1388.000
453.637;  -80.575; -205.000; -150.000
453.758;  -54.075;   15.000;   69.000
453.879; -125.225; -462.000; -250.000
454.000;   78.600; 1086.000;  948.000
454.121; -113.750; -554.000; -326.000
454.242; -113.475; -599.000; -383.000
454.362;  -80.575;  -99.000;  114.000
454.483;  -34.775; -309.000; -229.000
454.604;   33.725;  512.000;  580.000
454.725; -128.950; -627.000; -555.000
454.846; -142.525; -474.000; -406.000
454.967;  -21.425;  230.000;  539.000
455.087;  -42.475;  179.000;  153.000
455.208;    2.225;  554.000;  856.000
455.329;  -69.875;  -22.000;   82.000
455.450;   45.125;  473.000;  633.000
455.570;  -89.000; -234.000; -211.000
455.691;  -43.950;  201.000;  407.000
455.812; -118.750; -270.000;  -92.000
455.932;  -50.000;  107.000;  -97.000
456.053;  -80.750;   36.000;   24.000
456.173; -116.950; -433.000; -355.000
456.294; -147.150; -476.000; -303.000
456.415;  -60.550;  -73.000;   70.000
456.535;  -33.925;  297.000;  273.000
456.656;  -38.825;  132.000;  240.000
456.776;  -81.550;    3.000;  298.000
456.897;    1.000;  308.000;  513.000
457.017;  -82.000; -153.000;   -3.000
457.138; -111.725; -402.000; -249.000
457.258;  -38.725;  263.000;  224.000
457.379;  -18.225;  509.000;  521.000
457.499;  -42.375;  443.000;  432.000
457.620; -108.050; -407.000; -231.000
457.740; -110.650; -132.000;  -11.000
457.860;  -48.200;   87.000;   44.000
457.981;  -56.625;  132.000;  124.000
458.101;  -77.050;  -89.000;   40.000
458.221;  -31.600;  336.000;  402.000
458.342;  -54.275;   -4.000;  -37.000
458.462;    8.800;  617.000;  352.000
458.582;  -26.400; -302.000; -294.000
458.703;    6.025;  303.000;  154.000
458.823;  -16.100;   22.000;  163.000
458.943;   21.575;  341.000;  467.000
459.063;  -27.400; 1124.000;  192.000
459.183;  -54.850;  328.000;  313.000
459.304;   10.175;  315.000;  517.000
459.424;  -67.425; -246.000;  -89.000
459.544;  342.325;  388.000;  764.000
459.664;  853.550;  499.000;  506.000
459.784;  328.075; 1004.000; 1175.000
459.904;   46.650;  867.000;  744.000
460.024;   70.525;  867.000;  684.000
460.144;  -16.625;  449.000;  554.000
460.264;   -2.025;  515.000;  327.000
460.385;  -94.550; -145.000; -119.000
460.505;   42.075;  905.000;  858.000
460.625; -112.950;  -17.000;  -68.000
460.745;   -5.050;  396.000;  541.000
460.864;  -52.625;  153.000;  469.000
460.984;   14.150;  499.000;  573.000
461.104;  127.475; 1656.000; 1775.000
461.224;   27.250;  657.000;  650.000
461.344;  -40.025;  431.000;  360.000
461.464;  -37.450;  258.000;  513.000
461.584;  -35.500;  283.000;  466.000
461.704;  -56.175;   58.000;  108.000
461.824;  -71.625;  238.000;  259.000
461.943;  -47.350;  191.000;  130.000
462.063;  -79.200;    2.000;  324.000
462.183;   42.375;  639.000;  717.000
462.303;  101.800; 1678.000; 1230.000
462.422;   40.600;  781.000;  840.000
462.542;  -55.100;  271.000;  391.000
462.662;   38.925;  353.000;  380.000
462.782;  247.075;  833.000;  572.000
462.901;  481.525;  545.000;  717.000
463.021;  283.550; 1702.000; 1638.000
463.141;   -6.900;  337.000;  770.000
463.260;  -13.900;  614.000;  474.000
463.380;    6.500;  902.000;  884.000
463.499;  -51.375;  342.000;  332.000
463.619;  -32.750;  581.000;  559.000
463.738;  100.250; 1644.000;  903.000
463.858;   14.825;  657.000;  811.000
463.978;  -43.150;  542.000;  396.000
464.097;   57.075;  921.000; 1114.000
464.217;  114.725; 1196.000; 1143.000
464.336;  126.500; 1068.000; 1130.000
464.455;  -42.300;  328.000;  659.000
464.575;   37.950;  597.000;  602.000
464.694;  147.150; 1204.000; 1179.000
464.814;  138.800; 1190.000; 1138.000
464.933;   58.675; 1095.000; 1027.000
465.052;   90.900; 1412.000; 1054.000
465.172;   57.800;  922.000;  799.000
465.291;  144.525; 1376.000; 1320.000
465.410;   -2.050;  462.000;  735.000
465.530;   81.775; 1355.000; 1310.000
465.649;   63.600; 1209.000; 1273.000
465.768;  130.925; 1673.000; 1508.000
465.888;   34.650;  941.000; 1174.000
466.007;   94.050; 1335.000; 1440.000
466.126;   -9.700;  721.000;  641.000
466.245;   43.200; 1176.000; 1187.000
466.364;    7.575;  950.000; 1060.000
466.484;   53.650; 1024.000; 1213.000
466.603;   26.075; 1101.000; 1222.000
466.722;  111.475; 1490.000; 1769.000
466.841;   67.025; 1151.000; 1401.000
466.960;   35.750; 1069.000;  972.000
467.079;  117.600; 1971.000; 1786.000
467.198;   74.725; 1238.000; 1181.000
467.317;   83.975; 1768.000; 1162.000
467.436;   91.700; 1709.000; 1261.000
467.555;  126.800; 1796.000; 1746.000
467.674;   74.700; 1227.000; 1329.000
467.793;   42.475; 1376.000; 1374.000
467.912;   93.750; 1658.000; 1539.000
468.031;  138.075; 2038.000; 1930.000
468.150;  148.425; 1842.000; 1837.000
468.269;  184.050; 2313.000; 2090.000
468.388;  200.125; 2168.000; 2339.000
468.507;  249.750; 2884.000; 2903.000
468.626;  233.100; 2555.000; 2541.000
468.744;  135.450; 2018.000; 2174.000
468.863;  196.900; 2312.000; 2523.000
468.982;   85.000; 1503.000; 1555.000
469.101;  217.400; 2788.000; 2692.000
469.220;  148.750; 2333.000; 2176.000
469.338;  249.400; 2935.000; 3051.000
469.457;  169.700; 2719.000; 2545.000
469.576;  371.175; 3953.000; 3784.000
469.695;  228.550; 2877.000; 3066.000
469.813;  426.550; 4148.000; 4192.000
469.932;  420.000; 4255.000; 4485.000
470.051;  435.200; 4075.000; 4161.000
470.169;  877.000; 4470.000; 4338.000
470.288; 1523.725; 4700.000; 4809.000
470.406;  861.450; 5059.000; 5194.000
470.525;  635.050; 6101.000; 5787.000
470.644;  655.900; 6847.000; 6794.000
470.762;  821.900; 8397.000; 7873.000
470.881;  902.325; 8651.000; 8464.000
470.999; 1061.150; 9685.000; 9151.000
471.118; 1103.250;11174.000;10711.000

