
Integration time [ms]: 200.000
Averaging Nr. [scans]: 10
Smoothing Nr. [pixels]: 0
Data measured with spectrometer [name]: 2101012U2
Wave   ;Sample   ;Dark     ;Reference
[nm]   ;[counts] ;[counts] ;[counts] 

197.733;   72.400;  516.000;  404.000
197.879; -183.200; -610.000; -634.000
198.025;  -95.600; -475.000; -420.000
198.171; -181.700; -602.000; -612.000
198.317;  -52.000; -401.000; -316.000
198.463; -156.900; -655.000; -404.000
198.609;   58.300;  181.000; -137.000
198.755; -160.300; -644.000; -410.000
198.901; -131.300; -505.000; -424.000
199.047; -162.400; -615.000; -488.000
199.193;  -61.500; -230.000; -468.000
199.339;  -98.200; -222.000; -369.000
199.485;   86.600;  330.000;  271.000
199.631;   31.600;  227.000;  310.000
199.777; -104.300; -466.000; -398.000
199.923; -137.900; -610.000; -424.000
200.069;   10.500; -141.000;  -58.000
200.215;   83.900;  128.000;  453.000
200.361;   73.900;  243.000;  477.000
200.507; -176.800; -600.000; -373.000
200.653;  -26.900; -371.000; -194.000
200.798;  -42.600; -215.000; -125.000
200.944;   -3.400; -146.000;  -41.000
201.090;   83.600;   61.000;  222.000
201.236;    5.000; -116.000; -158.000
201.382;  257.700;  874.000;  903.000
201.528;  -10.900;  -58.000;  -48.000
201.674;  -63.300; -386.000; -293.000
201.819; -122.500; -540.000; -439.000
201.965; -181.900; -699.000; -447.000
202.111;  -50.500; -273.000; -226.000
202.257;  -85.300; -250.000; -238.000
202.402;    5.900;   13.000;  -36.000
202.548;  -68.500; -169.000; -116.000
202.694;  154.700;  410.000; -183.000
202.840; -174.700; -603.000; -531.000
202.985; -172.200; -681.000; -639.000
203.131; -238.100; -832.000; -666.000
203.277;  -40.400; -199.000; -262.000
203.423; -123.200; -434.000; -520.000
203.568;  -73.300; -462.000; -237.000
203.714; -117.900; -535.000; -542.000
203.860; -166.900; -682.000; -641.000
204.005;   37.500;  112.000;  167.000
204.151;  186.900;  561.000;  556.000
204.296;  -94.300; -354.000; -221.000
204.442; -146.900; -600.000; -547.000
204.588; -156.700; -592.000; -579.000
204.733;   37.800;  178.000;  168.000
204.879; -262.300;-1018.000; -822.000
205.025;    5.700;  -99.000;  126.000
205.170;   12.800;  -17.000;   94.000
205.316;  166.500;  438.000;  661.000
205.461; -181.600; -698.000; -554.000
205.607;  185.300;  609.000;  665.000
205.752; -153.200; -626.000; -551.000
205.898; -119.300; -501.000; -391.000
206.043; -117.600; -578.000; -506.000
206.189;  -95.000; -243.000; -285.000
206.334;  169.800;  554.000;  606.000
206.480;  169.600;  409.000;  239.000
206.625; -195.800; -529.000; -552.000
206.771;  -85.900; -451.000; -373.000
206.916;  -87.900; -210.000; -537.000
207.062; -138.000; -545.000; -591.000
207.207; -119.400; -546.000; -443.000
207.353;   97.900;  185.000;  460.000
207.498;   30.200;  196.000;   85.000
207.643; -136.500; -501.000; -370.000
207.789; -276.800;-1069.000; -910.000
207.934; -201.200; -665.000; -713.000
208.080;  -43.000; -154.000;   66.000
208.225;  -17.100;  -22.000;  -57.000
208.370; -175.000; -727.000; -619.000
208.516; -160.700; -741.000; -487.000
208.661;  -65.700; -127.000;  -69.000
208.806;  -47.000; -165.000; -171.000
208.952; -244.300;-1044.000; -731.000
209.097;  148.400;  378.000;  349.000
209.242;  -86.700; -307.000; -382.000
209.387;  138.500;  392.000;  350.000
209.533; -125.100; -321.000; -350.000
209.678;  138.700;  472.000;  543.000
209.823; -118.200; -408.000; -310.000
209.969; -196.400; -860.000; -757.000
210.114; -224.700; -907.000; -719.000
210.259; -240.700; -939.000; -889.000
210.404;   -9.100; -171.000;  103.000
210.549;    1.500;  108.000;    3.000
210.695;  -10.000;   -3.000;  -95.000
210.840;   48.400;   94.000;   67.000
210.985; -128.900; -484.000; -303.000
211.130;  157.900;  268.000;  406.000
211.275;   16.100;  207.000;  199.000
211.420;  -71.400; -300.000; -289.000
211.566; -150.000; -536.000; -489.000
211.711;   41.000;  218.000;  157.000
211.856; -130.600; -545.000; -519.000
212.001;   14.500;  151.000;   44.000
212.146;   45.000;  153.000;   49.000
212.291;  -56.600; -210.000; -186.000
212.436;  -46.100; -280.000;   -6.000
212.581; -179.100; -685.000; -653.000
212.726; -146.700; -487.000; -538.000
212.871; -109.300; -552.000; -217.000
213.016; -301.300;-1172.000;-1029.000
213.161;  153.200;  406.000;  291.000
213.306; -145.800; -435.000; -577.000
213.451; -207.600; -778.000; -689.000
213.596;  -79.300; -455.000; -347.000
213.741; -115.500; -448.000; -538.000
213.886; -160.500; -498.000; -517.000
214.031;  -64.600; -294.000; -124.000
214.176; -109.000; -408.000; -341.000
214.321;  -45.600; -296.000; -157.000
214.466;  -21.700; -163.000;  -43.000
214.611;   -3.600;  -61.000;  -10.000
214.756; -270.100; -948.000; -858.000
214.901;  -37.000; -388.000; -226.000
215.046; -228.800; -797.000; -825.000
215.191;   67.000;  128.000;   35.000
215.336;  -23.600; -157.000;  -19.000
215.480; -121.100; -684.000; -505.000
215.625;  -31.600; -175.000;  -19.000
215.770; -180.800; -757.000; -662.000
215.915;    1.100;   -5.000;  -97.000
216.060;  -36.700; -113.000;  -21.000
216.205; -218.800; -731.000; -779.000
216.349; -132.400; -470.000; -533.000
216.494; -272.900; -939.000; -867.000
216.639; -245.600; -823.000; -888.000
216.784; -183.300; -577.000; -525.000
216.929;  103.600;  392.000;  281.000
217.073;  -20.900; -244.000;  -31.000
217.218;    8.600;   78.000;  -47.000
217.363; -189.700; -656.000; -618.000
217.507; -190.400; -623.000; -588.000
217.652; -271.700; -845.000; -874.000
217.797; -162.700; -708.000; -659.000
217.942; -233.900; -856.000; -720.000
218.086;  151.200;  608.000;  539.000
218.231;  -54.200; -174.000;  -26.000
218.376;  -75.800; -337.000; -229.000
218.520;   26.600;  -41.000;   96.000
218.665;  -62.200; -338.000; -204.000
218.810;  -96.600; -275.000; -233.000
218.954;   24.300;  201.000;   35.000
219.099; -226.200; -713.000; -963.000
219.243; -137.000; -589.000; -554.000
219.388;  -80.000; -264.000; -136.000
219.532;  -33.000; -116.000; -116.000
219.677; -168.200; -564.000; -521.000
219.822;    3.700;   33.000;   89.000
219.966;   39.100;   17.000;  -99.000
220.111;  -37.400; -328.000;  -40.000
220.255; -185.700; -797.000; -750.000
220.400;  -50.400; -180.000; -146.000
220.544; -138.700; -516.000; -450.000
220.689;  -77.400; -422.000; -451.000
220.833;  -48.300; -123.000;  -58.000
220.978;  -64.900; -393.000; -563.000
221.122;   49.300;  319.000;  307.000
221.267; -250.200; -906.000; -837.000
221.411; -151.100; -478.000; -394.000
221.555;  -10.000; -104.000;  -23.000
221.700; -103.000; -329.000; -222.000
221.844;   81.100;  255.000;  272.000
221.989;  -93.200; -328.000; -311.000
222.133;  -58.600; -289.000; -307.000
222.277;   -2.600;    5.000;   78.000
222.422;   50.500;  227.000;  113.000
222.566;  -58.500; -381.000; -214.000
222.711;  -82.700; -414.000; -479.000
222.855; -154.800; -643.000; -586.000
222.999; -190.600; -642.000; -717.000
223.144;  -63.900; -195.000; -194.000
223.288;  120.100;  423.000;  251.000
223.432;    8.000;  184.000;  230.000
223.576;   60.200;  152.000;  -21.000
223.721;  107.100;  364.000;  273.000
223.865; -109.400; -472.000; -475.000
224.009;  496.900; 1673.000; 1631.000
224.153; -161.500; -660.000; -671.000
224.298; -136.900; -531.000; -489.000
224.442;  -12.600;  -74.000;  -33.000
224.586;  -35.200; -169.000; -106.000
224.730; -176.200; -858.000; -670.000
224.875; -209.400; -739.000; -688.000
225.019;   61.900;  102.000;  188.000
225.163;  122.000;  208.000;  341.000
225.307;   37.300;   97.000;  -91.000
225.451;  109.300;  360.000;  481.000
225.595;   53.200;  264.000;  176.000
225.739;  -58.300; -170.000;  -94.000
225.884;   32.400;   86.000;    5.000
226.028; -221.900; -760.000; -626.000
226.172;  -77.000; -260.000; -273.000
226.316; -259.000; -941.000; -902.000
226.460; -143.800; -645.000; -493.000
226.604;  -91.400; -406.000; -400.000
226.748; -205.000; -836.000; -733.000
226.892;  -69.000; -227.000; -181.000
227.036;  -91.500; -537.000; -447.000
227.180; -122.900; -551.000; -375.000
227.324; -156.700; -561.000; -580.000
227.468; -224.700; -819.000; -717.000
227.612;   56.400;  242.000;  -28.000
227.756; -215.900; -845.000; -698.000
227.900;  139.200;  342.000;  441.000
228.044; -145.200; -509.000; -290.000
228.188;   94.200;  448.000;  568.000
228.332; -179.800; -546.000; -472.000
228.476;  -36.400; -223.000; -149.000
228.620;  -50.000; -210.000; -150.000
228.764;  140.300;  431.000;  349.000
228.908;    0.000; -155.000;   30.000
229.052; -104.200; -615.000; -528.000
229.195;  -18.500; -172.000;   13.000
229.339;  -43.800; -235.000; -305.000
229.483;  -57.800;    5.000; -162.000
229.627;  -25.600; -156.000;  139.000
229.771;  -80.200; -218.000; -294.000
229.915;   40.700;  230.000;   79.000
230.059; -202.400; -648.000; -663.000
230.202;  -57.600; -370.000; -317.000
230.346;  -30.900; -107.000;  107.000
230.490; -136.800; -489.000; -521.000
230.634; -231.000; -736.000; -553.000
230.777;  148.400;  478.000;  509.000
230.921; -124.400; -450.000; -359.000
231.065;  -64.400; -246.000; -286.000
231.209;   84.400;  261.000;  265.000
231.352;   65.400;   54.000;   40.000
231.496;   58.800;  568.000;  188.000
231.640; -176.300; -693.000; -621.000
231.783;  125.800;  546.000;  525.000
231.927;  -96.600; -294.000; -365.000
232.071; -260.400; -962.000; -736.000
232.214; -223.300; -980.000; -764.000
232.358; -213.600; -683.000; -599.000
232.502;   13.900;  -19.000;    7.000
232.645; -273.800;-1090.000; -927.000
232.789;  -46.600; -257.000; -218.000
232.933;  -86.000; -407.000; -224.000
233.076; -264.400;-1038.000; -897.000
233.220; -238.600; -752.000; -777.000
233.363; -150.900; -669.000; -477.000
233.507;  118.800;  371.000;  129.000
233.650; -198.300; -764.000; -834.000
233.794;  115.400;  438.000;  461.000
233.938; -125.400; -530.000; -362.000
234.081;  -35.400;  -93.000;   31.000
234.225; -133.700; -631.000; -539.000
234.368; -213.200; -773.000; -723.000
234.512;  -49.100; -385.000; -299.000
234.655; -205.400; -582.000; -555.000
234.798; -148.000; -493.000; -466.000
234.942; -263.200; -884.000;-1002.000
235.085; -174.100; -651.000; -443.000
235.229; -163.300; -405.000; -410.000
235.372;  -97.600; -247.000; -191.000
235.516; -145.800; -397.000; -321.000
235.659;   38.600;   92.000;  121.000
235.802;   13.900;  -38.000;  -22.000
235.946;   84.500;  335.000;  215.000
236.089;   81.500;  126.000;  250.000
236.233;  119.100;  275.000;  298.000
236.376;  -68.800; -235.000; -378.000
236.519;  -98.600; -297.000; -319.000
236.663;  -49.200; -215.000; -117.000
236.806; -271.400;-1029.000; -999.000
236.949;  132.700;  543.000;  431.000
237.092;  132.300;  412.000;  391.000
237.236; -190.900; -589.000; -502.000
237.379;  140.600;  352.000;  428.000
237.522; -227.400; -879.000; -768.000
237.666;  -23.000; -271.000;   18.000
237.809; -236.900; -851.000; -823.000
237.952;   85.300;  469.000;  271.000
238.095; -131.300; -447.000; -442.000
238.238;  195.800;  688.000;  700.000
238.382;  -17.900;  166.000;  103.000
238.525; -143.100; -598.000; -511.000
238.668; -289.900;-1060.000; -985.000
238.811; -144.200; -638.000; -643.000
238.954; -108.900; -483.000; -334.000
239.097;  208.400;  617.000;  664.000
239.241;   62.300;  394.000;  326.000
239.384;  -64.300; -254.000; -214.000
239.527; -107.900; -424.000; -224.000
239.670; -292.400; -994.000;-1091.000
239.813; -205.900; -696.000; -658.000
239.956;  157.100;  579.000;  473.000
240.099; -256.300; -778.000; -725.000
240.242;  130.400;  428.000;  432.000
240.385;   93.900;  466.000;  450.000
240.528; -120.600; -706.000; -473.000
240.671;   45.700;  189.000;  134.000
240.814;  -72.600; -441.000; -158.000
240.957; -177.500; -767.000; -578.000
241.100; -190.800; -779.000; -755.000
241.243; -309.100;-1234.000; -893.000
241.386; -130.600; -508.000; -379.000
241.529; -182.800; -735.000; -547.000
241.672; -115.500; -566.000; -495.000
241.815; -236.900; -832.000; -808.000
241.958;  -74.600; -125.000; -182.000
242.101; -144.600; -545.000; -390.000
242.244;  -81.800; -270.000; -325.000
242.387;  -74.500; -304.000; -246.000
242.530;  141.300;  470.000;  134.000
242.673;  -94.100; -381.000; -309.000
242.815; -240.600; -925.000; -899.000
242.958; -102.200; -482.000; -381.000
243.101;   28.900;  132.000;  187.000
243.244; -169.700; -564.000; -521.000
243.387;  -89.000; -313.000; -316.000
243.530; -208.400; -657.000; -674.000
243.672;   -5.000;   43.000;  -92.000
243.815; -125.300; -355.000; -283.000
243.958;   13.000;   98.000;  -26.000
244.101;  -21.700;   59.000;  -16.000
244.243;   -5.400;  -47.000;  101.000
244.386; -197.700; -761.000; -630.000
244.529;  -43.800; -132.000; -139.000
244.672; -293.200;-1154.000; -951.000
244.814; -196.700; -621.000; -794.000
244.957; -120.100; -380.000; -304.000
245.100; -145.500; -489.000; -489.000
245.242; -118.100; -387.000; -374.000
245.385;   11.000;  -59.000;  -39.000
245.528; -251.100; -871.000; -705.000
245.670;  212.200;  612.000;  634.000
245.813; -177.100; -599.000; -547.000
245.956;  -60.000; -324.000; -275.000
246.098; -138.900; -508.000; -650.000
246.241;   14.300;  194.000;   48.000
246.383;  -27.300; -119.000;  -73.000
246.526; -155.100; -454.000; -525.000
246.669; -226.700; -889.000; -780.000
246.811;   53.200;  172.000;   -1.000
246.954; -117.500; -512.000; -426.000
247.096;  -14.700;  -84.000;   -6.000
247.239; -165.100; -482.000; -445.000
247.381; -128.200; -647.000; -488.000
247.524;  164.100;  645.000;  679.000
247.666;  -18.200;   58.000;   11.000
247.809; -232.200; -887.000; -691.000
247.951;  -15.100;  -75.000;  138.000
248.094;   74.700;  432.000;  308.000
248.236; -333.000;-1262.000;-1238.000
248.378;    6.800; -356.000;  -81.000
248.521;  -36.800; -334.000; -337.000
248.663;  -62.600; -236.000; -267.000
248.806;  -35.800; -300.000; -266.000
248.948; -177.500; -886.000; -763.000
249.090;  -71.600; -428.000; -398.000
249.233;  -96.500; -344.000; -381.000
249.375; -109.700; -474.000; -451.000
249.518;  -10.300;  -83.000; -133.000
249.660;    3.300; -103.000;    3.000
249.802; -331.600;-1303.000;-1189.000
249.945; -134.000; -612.000; -540.000
250.087; -210.000; -834.000; -768.000
250.229;  -89.500; -362.000; -480.000
250.371; -156.100; -494.000; -439.000
250.514; -102.600; -310.000; -244.000
250.656;  -17.600;   69.000;  102.000
250.798; -229.400; -849.000; -800.000
250.940; -130.800; -322.000; -322.000
251.083;  -28.100; -335.000; -111.000
251.225;  127.500;  338.000;  310.000
251.367;  -36.700; -274.000; -373.000
251.509;  -57.300; -265.000; -210.000
251.651; -186.800; -731.000; -671.000
251.794;  150.000;  538.000;  632.000
251.936; -195.700; -821.000; -747.000
252.078; -143.700; -540.000; -461.000
252.220; -125.900; -645.000; -477.000
252.362;  184.300;  344.000;  462.000
252.504; -145.500; -677.000; -584.000
252.646; -227.300; -875.000; -722.000
252.788;   27.900;   14.000; -128.000
252.931;  -48.900; -257.000; -253.000
253.073;  -87.200; -376.000; -317.000
253.215;   15.500;  141.000;  122.000
253.357;  -19.800;   82.000; -153.000
253.499;  -97.300; -374.000; -234.000
253.641; -199.100; -749.000; -594.000
253.783; -195.300; -609.000; -527.000
253.925; -155.600; -586.000; -591.000
254.067; -216.400; -744.000; -667.000
254.209;  -53.600; -391.000; -259.000
254.351; -272.500; -865.000; -883.000
254.493; -134.200; -441.000; -417.000
254.635; -228.400; -936.000; -818.000
254.777; -174.000; -752.000; -687.000
254.918; -141.900; -512.000; -430.000
255.060; -130.100; -551.000; -395.000
255.202;  -98.700; -473.000; -261.000
255.344; -171.200; -658.000; -455.000
255.486; -167.200; -471.000; -406.000
255.628; -206.500; -780.000; -781.000
255.770; -197.200; -676.000; -536.000
255.912; -101.900; -559.000; -468.000
256.053; -201.400; -730.000; -508.000
256.195;  342.000; 1008.000;  903.000
256.337; -207.000; -861.000; -595.000
256.479;  162.200;  532.000;  416.000
256.621;  -81.500; -394.000; -212.000
256.762; -190.100; -789.000; -742.000
256.904;  130.100;  485.000;  487.000
257.046;  -61.200; -381.000; -271.000
257.188; -106.100; -351.000; -264.000
257.329; -146.200; -525.000; -464.000
257.471; -209.700; -939.000; -807.000
257.613; -118.500; -584.000; -498.000
257.755; -313.400;-1073.000; -982.000
257.896;  124.400;  286.000;  392.000
258.038; -105.900; -403.000; -352.000
258.180;  -63.800; -354.000; -279.000
258.321; -181.300; -581.000; -457.000
258.463;   -4.800;  -71.000;  133.000
258.605; -147.300; -562.000; -570.000
258.746; -211.100; -886.000; -772.000
258.888; -291.800;-1026.000;-1020.000
259.029;   60.400;  121.000;   -8.000
259.171; -171.300; -614.000; -550.000
259.313;   -7.500;  -49.000;  -47.000
259.454; -154.500; -536.000; -414.000
259.596;  -93.500; -483.000; -390.000
259.737; -145.300; -590.000; -474.000
259.879;  113.400;  217.000;  311.000
260.020;  178.300;  901.000;  636.000
260.162;  -31.200; -146.000; -253.000
260.303; -230.800; -768.000; -687.000
260.445; -179.800; -609.000; -613.000
260.586;   81.300;  392.000;  157.000
260.728;  -48.100; -360.000; -248.000
260.869; -108.200; -350.000; -343.000
261.011;  175.000;  706.000;  537.000
261.152;  -93.200; -479.000; -319.000
261.293; -127.100; -576.000; -595.000
261.435;  -62.500; -219.000; -184.000
261.576;  -66.200; -455.000; -325.000
261.718;  114.100;  420.000;  470.000
261.859; -230.700; -940.000; -949.000
262.000; -268.600; -951.000;-1016.000
262.142;  -12.000;  -52.000;  -60.000
262.283; -242.600; -808.000; -691.000
262.424; -163.800; -666.000; -625.000
262.566; -290.900;-1161.000; -983.000
262.707; -213.300; -840.000; -830.000
262.848; -217.400; -769.000; -726.000
262.990; -117.400; -362.000; -345.000
263.131;  219.800;  650.000;  681.000
263.272;   -3.800;  -61.000;  -41.000
263.413; -206.800; -589.000; -561.000
263.555; -125.600; -669.000; -143.000
263.696; -183.100; -550.000; -641.000
263.837; -113.000; -449.000; -551.000
263.978;   -2.400;   -5.000;  -77.000
264.119;  -78.200; -283.000; -264.000
264.261; -218.900; -847.000; -630.000
264.402;   26.800;   33.000;   40.000
264.543; -133.300; -509.000; -524.000
264.684;   -5.500;   61.000;  -50.000
264.825; -123.000; -816.000; -538.000
264.966;    1.700;  -84.000;  -67.000
265.107; -207.800; -646.000; -670.000
265.248; -212.800; -825.000; -812.000
265.390;    9.700;  152.000;   -9.000
265.531;  -22.700; -238.000; -107.000
265.672; -164.300; -557.000; -630.000
265.813;  170.400;  563.000;  439.000
265.954; -271.000; -959.000; -940.000
266.095;   -9.400; -372.000; -322.000
266.236; -170.700; -686.000; -548.000
266.377;  -42.300; -243.000; -297.000
266.518; -129.800; -619.000; -547.000
266.659;   77.900;  170.000;  268.000
266.800;   31.700;   83.000;   85.000
266.941; -141.100; -487.000; -478.000
267.082;   36.000;  354.000;   99.000
267.223;  -93.200; -344.000; -273.000
267.364; -227.900; -892.000; -686.000
267.504;    0.100;    3.000;  135.000
267.645;    7.300;  160.000;   67.000
267.786;  -32.700; -147.000;  -86.000
267.927; -110.200; -473.000; -379.000
268.068;  -19.300; -186.000;  -61.000
268.209;  -66.500; -175.000; -413.000
268.350; -102.500; -388.000; -532.000
268.490; -171.800; -648.000; -521.000
268.631;   71.400;  127.000;  225.000
268.772; -202.500; -874.000; -647.000
268.913;  -96.200; -328.000; -476.000
269.054;    2.900; -117.000;   12.000
269.194;  -97.800; -418.000; -402.000
269.335; -301.300;-1137.000;-1074.000
269.476;   12.200;   33.000;  -35.000
269.617; -104.200; -347.000; -392.000
269.757; -169.500; -713.000; -646.000
269.898; -198.800; -856.000; -613.000
270.039;  -79.600; -415.000; -405.000
270.180; -294.500; -952.000; -816.000
270.320;  -47.200; -190.000; -250.000
270.461;  -54.000; -277.000; -249.000
270.602;  -23.200; -186.000; -156.000
270.742; -211.700; -868.000; -943.000
270.883; -121.500; -442.000; -390.000
271.023; -117.900; -358.000; -357.000
271.164; -124.100; -607.000; -528.000
271.305; -207.000; -666.000; -654.000
271.445; -179.800; -722.000; -683.000
271.586; -133.100; -462.000; -283.000
271.726;  -67.800; -397.000; -322.000
271.867; -118.400; -594.000; -534.000
272.008;  300.500; -473.000; -285.000
272.148;  262.500;  462.000;  468.000
272.289;   30.000; -113.000; -181.000
272.429;   57.900;   19.000;  185.000
272.570; -184.200; -633.000; -737.000
272.710; -163.000; -825.000; -775.000
272.851;  -60.100;  113.000; -130.000
272.991; -304.800;-1173.000;-1077.000
273.131; -123.900; -419.000; -459.000
273.272; -186.200; -683.000; -723.000
273.412;   32.300; -143.000;  -31.000
273.553;  -63.000; -488.000; -507.000
273.693;  262.200;  913.000;  858.000
273.834; -182.500; -894.000; -692.000
273.974; -136.000; -664.000; -615.000
274.114; -198.900; -772.000; -560.000
274.255;  180.100;  414.000;  373.000
274.395;   38.300; -180.000; -125.000
274.535;  118.800;  199.000;  350.000
274.676;   33.600;  225.000;   94.000
274.816;   41.900;  110.000;   34.000
274.956; -158.600; -624.000; -690.000
275.097; -146.700;-1014.000; -922.000
275.237; -219.700; -913.000; -803.000
275.377; -190.500; -778.000; -689.000
275.517; -282.600; -878.000; -937.000
275.658;  -74.400; -590.000; -555.000
275.798; -110.000; -606.000; -413.000
275.938;   45.300;  215.000;  323.000
276.078; -198.600; -626.000; -395.000
276.218;   32.200;   99.000;  104.000
276.359; -275.100;-1026.000;-1024.000
276.499; -105.600; -605.000; -446.000
276.639;  -26.500; -305.000; -151.000
276.779;  -82.100; -475.000; -357.000
276.919; -197.600; -783.000; -624.000
277.059;  -25.500; -261.000; -212.000
277.199;  -50.500; -357.000; -259.000
277.340;  136.900;  287.000;  175.000
277.480; -191.700; -840.000; -693.000
277.620;   79.400;  192.000;   16.000
277.760; -418.900;-1533.000;-1294.000
277.900;   61.700;  113.000;   33.000
278.040;   36.000;  137.000;  159.000
278.180;  118.800;  270.000;  170.000
278.320;   34.600;   21.000;   56.000
278.460; -101.200; -443.000; -469.000
278.600; -168.700; -708.000; -598.000
278.740;  104.600;  448.000;  224.000
278.880;  -93.900; -768.000; -791.000
279.020;   31.000; -194.000; -144.000
279.160; -145.200; -672.000; -595.000
279.300; -226.900; -926.000; -873.000
279.440; -153.800; -709.000; -622.000
279.579;  -45.100;-1014.000; -929.000
279.719;  -95.900; -410.000; -394.000
279.859;  126.500;   -4.000;   41.000
279.999;   63.000; -208.000;  101.000
280.139;  -38.900; -435.000; -387.000
280.279; -178.400; -708.000; -745.000
280.419;  -10.400; -229.000; -147.000
280.559;  -53.200; -259.000; -180.000
280.698; -119.600; -790.000; -639.000
280.838; -142.600; -778.000; -800.000
280.978; -176.700; -846.000; -790.000
281.118; -229.000; -811.000; -704.000
281.257;   23.400;   24.000;    6.000
281.397; -212.300;-1094.000; -960.000
281.537; -146.300; -599.000; -712.000
281.677;  -41.500; -150.000; -101.000
281.816; -170.500; -700.000; -630.000
281.956;  -28.700; -193.000; -257.000
282.096; -101.200; -539.000; -396.000
282.235; -183.600; -672.000; -638.000
282.375;  -16.100; -243.000;  -98.000
282.515; -168.800; -715.000; -707.000
282.654;   94.000;   29.000;  106.000
282.794;   93.000;  388.000;  244.000
282.934;  -80.400; -530.000; -491.000
283.073; -238.700;-1030.000; -857.000
283.213;  -81.900; -460.000; -467.000
283.353;  -48.500; -408.000; -349.000
283.492;  -37.100; -264.000; -296.000
283.632;  -50.300; -254.000; -168.000
283.771; -178.700; -859.000; -730.000
283.911;  -78.000; -369.000; -260.000
284.050; -201.800; -794.000; -748.000
284.190; -289.000;-1229.000;-1096.000
284.329; -259.300;-1055.000; -964.000
284.469; -116.200; -516.000; -591.000
284.608; -102.000; -559.000; -598.000
284.748; -163.300; -614.000; -570.000
284.887;    4.700;  -87.000;  -20.000
285.027; -243.600; -844.000; -892.000
285.166;  -33.000; -192.000; -249.000
285.306;   42.700; -116.000;  -33.000
285.445;  -45.500; -229.000; -343.000
285.584; -157.200; -630.000; -494.000
285.724;  -59.900; -282.000; -322.000
285.863; -220.900; -857.000; -507.000
286.002;  -63.900; -366.000; -276.000
286.142; -191.700; -715.000; -622.000
286.281; -123.800; -525.000; -493.000
286.420; -122.700; -554.000; -417.000
286.560;  215.900;  653.000;  623.000
286.699; -220.800; -958.000; -912.000
286.838; -115.900; -590.000; -591.000
286.978; -194.500; -533.000; -537.000
287.117; -253.000;-1085.000; -950.000
287.256;  -59.500; -228.000; -211.000
287.395; -106.800; -197.000; -378.000
287.535;  -51.600; -370.000; -298.000
287.674; -121.500; -509.000; -484.000
287.813;  168.800;  661.000;  533.000
287.952; -235.200;-1010.000; -871.000
288.091; -262.800;-1049.000; -915.000
288.231;   66.800;   13.000;   15.000
288.370; -335.600;-1217.000;-1200.000
288.509; -156.600; -728.000; -645.000
288.648; -187.400; -770.000; -548.000
288.787;  -35.900; -243.000;  -87.000
288.926;  -99.600; -454.000; -475.000
289.065;  261.800;  859.000;  672.000
289.204;  -80.600; -377.000; -217.000
289.344; -154.400; -791.000; -690.000
289.483;   80.200;  416.000;  304.000
289.622;  -29.700; -291.000; -149.000
289.761;  -13.600; -309.000; -166.000
289.900; -221.300; -785.000; -626.000
290.039;  -12.400;  -12.000;  -95.000
290.178;  -58.500; -274.000; -180.000
290.317; -129.200; -618.000; -479.000
290.456;  -87.000; -463.000; -451.000
290.595; -270.400; -961.000; -833.000
290.734; -269.300; -904.000; -891.000
290.873; -130.600; -456.000; -420.000
291.011; -165.700; -833.000; -843.000
291.150; -195.100; -770.000; -682.000
291.289;  -21.300; -343.000; -110.000
291.428; -211.400; -599.000; -480.000
291.567;  -62.700; -370.000; -442.000
291.706;   16.600;  109.000;  154.000
291.845; -169.000; -597.000; -505.000
291.984; -308.000;-1234.000;-1061.000
292.122;  167.300;  602.000;  582.000
292.261;  138.300;  620.000;  463.000
292.400;   24.300; -144.000;  211.000
292.539; -224.600; -959.000; -813.000
292.678;  -19.600; -325.000; -300.000
292.816; -280.000;-1136.000; -965.000
292.955; -171.200; -844.000; -684.000
293.094;  -12.300; -173.000; -337.000
293.233; -104.200; -556.000; -400.000
293.371;  -35.500; -225.000;  -84.000
293.510; -169.300; -866.000; -780.000
293.649; -235.100; -959.000; -924.000
293.787; -120.600;-1083.000;-1012.000
293.926;    8.400; -113.000;  -32.000
294.065;  -63.200; -379.000; -290.000
294.203;  142.000;  298.000;  406.000
294.342;   97.800;   74.000;  156.000
294.481;11150.500;51180.000; -836.000
294.619;  -30.300; -425.000; -582.000
294.758; -266.300;-1230.000;-1137.000
294.896;  131.300; -125.000;    5.000
295.035; -229.700;-1040.000;-1006.000
295.174; -208.800;-1082.000; -954.000
295.312;  -58.700; -323.000; -203.000
295.451;   25.400; -307.000; -428.000
295.589; -112.100; -389.000; -518.000
295.728;   98.200; -292.000; -165.000
295.866;   47.100;  -36.000;  -51.000
296.005; -109.700; -584.000; -341.000
296.143; -138.100; -558.000; -596.000
296.282; -179.300; -957.000; -881.000
296.420; -121.900; -657.000; -557.000
296.559; -138.300; -892.000; -633.000
296.697;   51.500; -847.000; -665.000
296.835;  120.600;-1141.000;-1002.000
296.974;  111.300;  -23.000;   39.000
297.112;   43.600; -443.000; -504.000
297.251; -132.600; -815.000; -755.000
297.389;  195.300; -576.000; -438.000
297.527;  112.700; -145.000;  -83.000
297.666;  -98.400; -486.000; -438.000
297.804;  -65.700; -404.000; -264.000
297.942;   48.300; -136.000; -161.000
298.081;   32.200; -183.000;   63.000
298.219;  163.000;  -17.000;  -19.000
298.357;  105.400; -144.000;  -71.000
298.495;   68.800; -810.000; -812.000
298.634;  203.900;  245.000;  219.000
298.772;  130.400; -220.000; -338.000
298.910;  -35.700; -309.000; -182.000
299.048;   23.900; -130.000; -153.000
299.187;  -45.700; -350.000; -250.000
299.325;   87.900;   52.000;  122.000
299.463;   80.000; -389.000; -299.000
299.601;  241.300; -327.000; -271.000
299.739; -205.400; -908.000; -883.000
299.877; -145.800; -791.000; -703.000
300.016;  -94.000;-1095.000; -935.000
300.154;  334.600;  -19.000; -161.000
300.292;  114.400; -428.000; -348.000
300.430;   76.500; -408.000; -291.000
300.568; -206.900; -940.000; -874.000
300.706;  -65.900; -366.000; -469.000
300.844; -155.600;-1108.000; -979.000
300.982;  280.500;  246.000;  282.000
301.120; -222.200; -965.000; -866.000
301.258; -136.600; -812.000; -705.000
301.396;  114.300;  104.000;  -41.000
301.534;  168.100; -218.000; -293.000
301.672;   20.900; -664.000; -521.000
301.810;   52.700; -613.000; -545.000
301.948;  311.700;   53.000;  149.000
302.086; 1069.100; -250.000;  -32.000
302.224; 1731.100; -610.000; -585.000
302.362;   72.900; -558.000; -622.000
302.500;  -53.300; -923.000; -893.000
302.638;  217.700;  128.000;  245.000
302.776;   39.900; -352.000; -408.000
302.913;  135.300;  447.000;  236.000
303.051;   -6.500;  -86.000;  -23.000
303.189;  151.500;   90.000;  118.000
303.327;  -48.400; -341.000; -256.000
303.465; -104.200; -832.000; -588.000
303.603; -173.700; -805.000; -604.000
303.740;  196.800;  417.000;  241.000
303.878;   62.500; -800.000; -759.000
304.016; -146.500; -915.000; -790.000
304.154; -252.500;-1123.000;-1152.000
304.291;  -28.300; -505.000; -554.000
304.429;   38.600;  102.000;   74.000
304.567; -241.400; -908.000; -893.000
304.705; -112.900; -408.000; -515.000
304.842;  160.300; -616.000; -540.000
304.980;  158.600;  215.000;   35.000
305.118;  106.500; -367.000; -365.000
305.255; -103.400; -945.000; -927.000
305.393;  154.700;  178.000;  239.000
305.531; -170.400;-1173.000; -956.000
305.668; -118.500; -663.000; -582.000
305.806;  142.400; -358.000; -439.000
305.943;  192.700; -629.000; -637.000
306.081;  106.600; -378.000; -267.000
306.219; -184.100; -863.000; -748.000
306.356;   73.500;  158.000;   27.000
306.494;  275.800;  981.000;  761.000
306.631;   50.000;  -11.000;  -55.000
306.769;   52.700; -613.000; -485.000
306.906;   18.500; -284.000; -258.000
307.044;  -70.900; -473.000; -488.000
307.181;  -76.300; -410.000; -332.000
307.319;   63.300;  112.000;   87.000
307.456; -311.900;-1191.000;-1153.000
307.594; -169.000; -980.000; -727.000
307.731;   11.800; -371.000; -164.000
307.868;   64.000;  -15.000;   20.000
308.006; -211.200; -961.000; -847.000
308.143;  -65.900; -618.000; -330.000
308.281;  389.300;  -37.000; -254.000
308.418;   27.600; -748.000; -640.000
308.555; -104.300; -400.000; -250.000
308.693;  -99.000; -577.000; -573.000
308.830; -176.500; -712.000; -657.000
308.967;   -2.600; -215.000;  -95.000
309.105;  -37.700; -507.000; -396.000
309.242;  148.000; -468.000; -367.000
309.379;  762.200; -577.000; -655.000
309.517;  -37.100; -936.000; -948.000
309.654; -140.500; -910.000; -734.000
309.791; -100.500; -662.000; -580.000
309.928; -197.300; -977.000; -914.000
310.065;  413.000;  819.000;  697.000
310.203;  -14.200; -825.000; -850.000
310.340;   73.900; -465.000; -321.000
310.477; -149.600; -412.000; -516.000
310.614; -108.600; -383.000; -473.000
310.751;  -77.700; -427.000; -518.000
310.889;   19.000;    1.000;   11.000
311.026; -276.600;-1161.000; -939.000
311.163;  -38.000; -386.000; -380.000
311.300; -114.700; -512.000; -479.000
311.437; -126.700; -658.000; -619.000
311.574; -304.800;-1226.000; -985.000
311.711;  -62.800; -595.000; -433.000
311.848;  -28.300; -380.000; -388.000
311.985;   77.200;  270.000;   93.000
312.122; -200.500; -932.000; -762.000
312.259; -197.200; -941.000; -994.000
312.396; -109.000; -508.000; -551.000
312.533; -109.500; -812.000; -790.000
312.670; -201.100;-1070.000; -898.000
312.807;  -30.600; -352.000; -367.000
312.944; -105.200; -513.000; -611.000
313.081;  -13.800; -150.000; -415.000
313.218; -166.300;-1111.000; -867.000
313.355;   34.900; -531.000; -449.000
313.492;   57.200; -455.000; -292.000
313.629;  332.700;  815.000;  735.000
313.766; -273.600;-1176.000;-1008.000
313.902;   45.300; -186.000;   21.000
314.039;  -65.200; -372.000; -289.000
314.176;  138.800;  286.000;  192.000
314.313; -114.100; -569.000; -473.000
314.450; -107.400; -788.000; -684.000
314.587;  -82.800; -468.000; -480.000
314.723;   50.600;  -78.000;  130.000
314.860;  140.400;  318.000;  332.000
314.997;  114.500;  223.000;  142.000
315.134;  -64.900; -385.000; -368.000
315.270;   -5.600; -480.000; -496.000
315.407; -217.800;-1094.000; -967.000
315.544;  -37.900; -657.000; -538.000
315.681; -107.900; -681.000; -565.000
315.817;  101.900; -133.000; -176.000
315.954;   39.300; -613.000; -392.000
316.091; -217.200;-1045.000;-1023.000
316.227;   13.900;  -71.000; -179.000
316.364;   54.000;   23.000;    6.000
316.500;  -69.600; -113.000; -300.000
316.637;  -33.100; -181.000; -302.000
316.774; -144.900; -625.000; -358.000
316.910; -118.600; -598.000; -629.000
317.047;  -87.300; -487.000; -351.000
317.183;  -68.100; -435.000; -566.000
317.320;   -2.800; -367.000; -321.000
317.456; -118.700; -733.000; -805.000
317.593; -118.600; -598.000; -641.000
317.729;   41.200;  168.000;  -67.000
317.866; -363.200;-1434.000;-1285.000
318.002; -161.000; -708.000; -948.000
318.139; -154.900; -883.000; -867.000
318.275; -188.300;-1003.000; -738.000
318.412;  -68.300; -517.000; -336.000
318.548;  -28.500; -751.000; -720.000
318.685; -167.900; -985.000; -888.000
318.821; -150.400; -762.000; -735.000
318.957;   27.800;   34.000;  -23.000
319.094;  154.400;  297.000;  154.000
319.230;  -82.600; -756.000; -742.000
319.367;  224.800; -471.000; -520.000
319.503;  128.400; -538.000; -436.000
319.639; -170.100; -877.000; -793.000
319.775;  -57.100; -750.000; -685.000
319.912;  -67.700; -424.000; -519.000
320.048; -153.600;-1184.000;-1184.000
320.184;  210.500;   59.000;   70.000
320.321;  -81.000; -497.000; -467.000
320.457;  176.500;  475.000;  662.000
320.593;  -77.300; -375.000; -382.000
320.729; -185.700; -732.000; -734.000
320.866; -100.700; -577.000; -635.000
321.002; -124.900; -759.000; -809.000
321.138;  -13.500; -135.000; -211.000
321.274;  173.600; -148.000; -115.000
321.410;   15.100; -585.000; -353.000
321.546;  -47.300;-1011.000; -911.000
321.683;  156.000;  400.000;  185.000
321.819;   65.400;  -48.000; -117.000
321.955; -190.500; -743.000; -722.000
322.091;  -73.600; -585.000; -540.000
322.227;   -4.600; -382.000; -202.000
322.363;   -2.500; -320.000; -215.000
322.499;  -62.200; -343.000; -331.000
322.635;  364.000;  636.000;  443.000
322.771;   89.300; -139.000;   12.000
322.907;  219.400;  129.000;  327.000
323.043;  -20.700; -115.000; -206.000
323.179;  -38.100; -394.000; -363.000
323.315;  110.100; -401.000; -371.000
323.451;  232.000; -328.000; -236.000
323.587;  143.000;  -60.000;  -77.000
323.723;   55.800; -682.000; -601.000
323.859;   -4.400; -258.000;  -76.000
323.995;  -28.700; -467.000; -409.000
324.131; -214.400; -967.000; -892.000
324.267;  -34.600; -254.000; -276.000
324.402; -235.800; -960.000; -983.000
324.538;   23.100; -279.000; -104.000
324.674;   68.200;  164.000;   77.000
324.810;  383.400;  226.000;  308.000
324.946;   59.800; -810.000; -658.000
325.082; -100.500; -568.000; -475.000
325.217;   -7.800;  -62.000;   16.000
325.353; -155.500; -764.000; -659.000
325.489; -143.000; -540.000; -506.000
325.625;  -77.900; -579.000; -525.000
325.760;  157.000;  517.000;  376.000
325.896;  -47.100; -515.000; -702.000
326.032;  -62.500; -403.000; -352.000
326.168;  -86.100; -462.000; -369.000
326.303;  -95.100; -352.000; -461.000
326.439;  -36.200; -336.000; -276.000
326.575;   17.700; -190.000;  -29.000
326.710;   28.200; -156.000;  -30.000
326.846;   29.600;  146.000;  103.000
326.982; -139.400; -530.000; -548.000
327.117;  -91.000; -481.000; -442.000
327.253; -156.100; -745.000; -742.000
327.388; -283.700;-1137.000;-1153.000
327.524;  -14.200; -811.000; -578.000
327.659;   11.000;  -58.000;  -22.000
327.795;   37.100;   69.000;   45.000
327.931; -150.700; -723.000; -499.000
328.066;  -36.600; -417.000; -276.000
328.202;  -12.400;   12.000; -129.000
328.337;  262.600;  957.000;  713.000
328.473;   46.900;  -12.000;  -74.000
328.608;  -10.800; -256.000; -267.000
328.743; -132.500; -799.000; -664.000
328.879;   80.000;  214.000;  114.000
329.014;  -92.400; -102.000; -122.000
329.150; -125.800; -358.000; -483.000
329.285;  -97.600; -465.000; -466.000
329.421;  -29.000; -548.000; -246.000
329.556;   -3.400;  -36.000;   85.000
329.691; -153.400; -633.000; -615.000
329.827; -129.400; -626.000; -480.000
329.962;  -45.800;  131.000; -301.000
330.097; -164.800; -673.000; -585.000
330.233;  -50.400; -410.000; -223.000
330.368; -222.900; -839.000; -628.000
330.503;   16.300;    3.000;   98.000
330.638;   59.700;  -93.000; -125.000
330.774;  -75.100; -609.000; -530.000
330.909;  -24.100; -434.000; -244.000
331.044; -171.100; -714.000; -708.000
331.179; -311.900;-1217.000;-1109.000
331.315;   58.200;   77.000;   20.000
331.450;   81.500;  157.000;  285.000
331.585; -148.100; -805.000; -706.000
331.720; -126.100; -510.000; -460.000
331.855;   14.800;  -35.000; -102.000
331.990;  469.800;   62.000;  138.000
332.126;  236.800; -110.000;   71.000
332.261;  -22.200; -379.000; -265.000
332.396;   39.100; -135.000; -242.000
332.531; -174.000;-1074.000;-1031.000
332.666;   68.900; -519.000; -363.000
332.801; -188.400; -726.000; -807.000
332.936;   13.100; -192.000; -122.000
333.071; -209.000; -870.000; -817.000
333.206;   90.900;  307.000;  379.000
333.341;   99.900;  344.000;  418.000
333.476; -118.200; -627.000; -623.000
333.611;  -19.900; -251.000; -173.000
333.746;  -55.300; -381.000; -464.000
333.881; -163.000; -973.000; -935.000
334.016; -236.100; -936.000; -917.000
334.151; -220.000; -746.000; -702.000
334.286;   88.600;  152.000;  186.000
334.421;  -14.200; -125.000; -178.000
334.556; -134.900; -611.000; -567.000
334.690; -127.900; -631.000; -577.000
334.825;  162.400;  381.000;   83.000
334.960; -108.300; -285.000; -413.000
335.095;   51.000;  135.000;  -91.000
335.230; -169.200; -722.000; -738.000
335.365; -244.400;-1084.000; -990.000
335.499; -226.200;-1108.000;-1037.000
335.634;   82.600;    9.000;  534.000
335.769; -179.700; -755.000; -720.000
335.904;  -70.600; -603.000; -561.000
336.038;  -85.500; -735.000; -657.000
336.173; -193.600;-1206.000;-1194.000
336.308;   28.800; -116.000; -189.000
336.443;   44.100; -544.000; -634.000
336.577; -125.400; -936.000; -787.000
336.712;  123.300;   -4.000;  -12.000
336.847;  -62.200; -724.000; -607.000
336.981;  169.300; -272.000; -208.000
337.116;  523.300;  615.000;  501.000
337.250;  342.100; -434.000; -421.000
337.385;  422.300; -297.000; -208.000
337.520;  180.400; -632.000; -603.000
337.654;  -36.100; -215.000; -126.000
337.789; -214.900; -989.000; -933.000
337.923;  -40.200; -104.000; -205.000
338.058; -153.600; -673.000; -738.000
338.192;  -35.600; -611.000; -488.000
338.327;   47.000;  -18.000; -155.000
338.461;  -62.800; -299.000; -469.000
338.596; -123.700; -780.000; -638.000
338.730; -168.500; -767.000; -803.000
338.865;  188.900;  -46.000; -140.000
338.999;  -97.900; -846.000; -702.000
339.134;  -34.000; -634.000; -536.000
339.268;   65.800; -741.000; -603.000
339.403;  620.300; -740.000; -775.000
339.537;  199.200; -894.000; -820.000
339.671; -209.600; -829.000; -813.000
339.806;  -83.700; -556.000; -512.000
339.940;   41.800; -261.000; -235.000
340.074; -142.200; -685.000; -510.000
340.209;  -44.400; -351.000; -230.000
340.343; -144.200; -517.000; -573.000
340.477;  364.400;  998.000; 1036.000
340.612; -120.400;-1033.000; -900.000
340.746;  273.300; -199.000; -243.000
340.880; -109.200; -924.000; -785.000
341.014;   37.200;  -45.000; -154.000
341.149; -191.100; -756.000; -718.000
341.283; -191.100; -839.000; -754.000
341.417; -151.200;-1124.000; -938.000
341.551;  261.000; -768.000; -708.000
341.685;  -26.900; -633.000; -611.000
341.820; -103.200; -562.000; -493.000
341.954;  -69.800; -218.000; -349.000
342.088; -251.400;-1102.000;-1019.000
342.222;  130.100;  565.000;  618.000
342.356;  -81.700; -395.000; -335.000
342.490; -139.000; -880.000; -841.000
342.624;  -32.900; -339.000; -242.000
342.758;   16.000; -364.000; -312.000
342.892;  -86.900; -710.000; -585.000
343.026;  -10.800;  -58.000; -116.000
343.160;  -67.800; -426.000; -376.000
343.294; -120.200; -474.000; -337.000
343.428;    8.900; -488.000; -448.000
343.562;   19.200; -172.000;  -23.000
343.696;  -28.400; -385.000; -314.000
343.830;   -9.800; -362.000; -356.000
343.964;   91.500; -231.000; -168.000
344.098; 1669.800;  199.000;   70.000
344.232; 1469.600; -266.000; -127.000
344.366;  174.000; -567.000; -453.000
344.500;  189.000; -665.000; -744.000
344.634;  108.000; -324.000; -164.000
344.768;    7.700; -531.000; -341.000
344.902;   91.000;  278.000;  256.000
345.035; -118.600; -556.000; -496.000
345.169; -219.900; -933.000; -656.000
345.303;   -7.200; -308.000; -482.000
345.437;  -81.800; -826.000; -717.000
345.571;  -92.500; -675.000; -594.000
345.704;  -86.100; -309.000; -532.000
345.838;    1.400; -331.000; -284.000
345.972;  -49.700; -543.000; -495.000
346.106;  344.700; -179.000; -190.000
346.239;  735.100; -312.000; -243.000
346.373;   39.200; -343.000; -302.000
346.507; -253.800; -950.000; -962.000
346.640;  304.500;  -30.000;   13.000
346.774;  -49.100; -650.000; -797.000
346.908;    6.400; -138.000;  -11.000
347.041; -137.200; -646.000; -593.000
347.175;   64.300;  259.000;   27.000
347.309; -133.500; -698.000; -628.000
347.442; -186.100; -883.000; -732.000
347.576;  589.400;  670.000;  668.000
347.709;  402.800; -123.000;  -52.000
347.843; -139.800; -933.000; -825.000
347.976;  136.500;  235.000;  294.000
348.110; -331.000;-1268.000;-1186.000
348.243; -167.300; -679.000; -772.000
348.377;   55.800;  -26.000;   60.000
348.510;  186.700;  403.000;  540.000
348.644;  -40.300;  -37.000; -159.000
348.777;   64.300;  180.000;  191.000
348.911;  -44.400; -142.000; -112.000
349.044;  327.100;  471.000;  448.000
349.178;  263.500;-1069.000;-1006.000
349.311;  220.400;  141.000;  255.000
349.444;    2.100; -927.000; -813.000
349.578;    8.900; -347.000; -200.000
349.711; -163.300; -959.000; -862.000
349.845;   23.300; -661.000; -591.000
349.978; -247.700;-1224.000;-1137.000
350.111; -118.300; -546.000; -612.000
350.244; -118.700; -596.000; -700.000
350.378;   33.200; -392.000; -393.000
350.511; -107.900; -393.000; -426.000
350.644; -175.400; -808.000; -806.000
350.778;   48.900;  168.000;  104.000
350.911;   64.400;  134.000;  140.000
351.044; -133.000; -685.000; -615.000
351.177;   -4.200; -321.000; -281.000
351.310;   36.500;    3.000; -131.000
351.444; -116.400; -888.000; -788.000
351.577;  238.600;  140.000;   90.000
351.710;  248.200;  593.000;  417.000
351.843;  -13.100; -165.000;  -77.000
351.976;   40.700;  149.000;  -79.000
352.109; -164.400; -621.000; -612.000
352.242;    6.500; -464.000; -419.000
352.376;  -61.200; -580.000; -636.000
352.509;  392.900; -437.000; -356.000
352.642;   20.500; -654.000; -604.000
352.775;  153.700; -141.000;  -98.000
352.908; -186.400; -933.000; -904.000
353.041; -172.300; -814.000; -824.000
353.174;  -65.800; -551.000; -424.000
353.307; -150.000; -753.000; -764.000
353.440;  187.200;  541.000;  453.000
353.573; -182.000; -957.000;-1008.000
353.706;  -29.100; -384.000; -558.000
353.839;   -7.600; -264.000; -220.000
353.971; -114.200; -657.000; -512.000
354.104; -146.200; -896.000; -835.000
354.237;  -52.100; -627.000; -662.000
354.370;  -99.900; -846.000; -879.000
354.503; -337.800;-1231.000;-1308.000
354.636;  -44.200; -529.000; -348.000
354.769; -228.300; -937.000; -860.000
354.902;  -15.200; -230.000; -139.000
355.034;   16.600; -164.000; -220.000
355.167;    8.700; -262.000; -162.000
355.300; -153.500;-1061.000; -880.000
355.433; 1686.400;  -71.000;  -14.000
355.565; 2614.600; -402.000; -384.000
355.698;  657.800; -356.000; -296.000
355.831;  -16.700; -882.000; -801.000
355.964;  219.300; -285.000; -170.000
356.096; -123.100; -856.000; -843.000
356.229;   24.500; -523.000; -530.000
356.362;  574.500; -373.000; -266.000
356.494; 1065.500; -229.000; -162.000
356.627;  932.100;  269.000;  377.000
356.760; 1223.500;  120.000;   53.000
356.892; 1664.200; -286.000; -601.000
357.025; 1290.600;  403.000;  389.000
357.157; 1148.700; -167.000; -179.000
357.290; 1058.600; -856.000; -713.000
357.423;  326.000; -667.000; -556.000
357.555;  228.800; -217.000; -228.000
357.688;  246.800; -483.000; -364.000
357.820;  752.500; -870.000; -877.000
357.953; 6501.600; -563.000; -589.000
358.085; 1429.100; -632.000; -612.000
358.218; 2229.900;-1131.000; -932.000
358.350;  450.500;  -58.000;  312.000
358.483; -194.700;-1300.000;-1187.000
358.615;   19.200;-1182.000;-1078.000
358.747;  -58.900;-1187.000;-1058.000
358.880;  110.000; -810.000; -744.000
359.012;    8.100; -376.000; -202.000
359.145;  -32.700; -480.000; -511.000
359.277;   92.800; -962.000; -913.000
359.409; 5419.300;  536.000;  231.000
359.542; 1353.800; -738.000; -688.000
359.674;  155.900;   46.000;   13.000
359.806;  -57.300; -565.000; -438.000
359.939;  -47.600; -617.000; -516.000
360.071;    6.400; -583.000; -579.000
360.203;   23.500; -411.000; -364.000
360.335;  147.800;  164.000;  -16.000
360.468;  375.600; -249.000; -307.000
360.600; 4264.800; -547.000; -454.000
360.732; 4772.400; -546.000; -423.000
360.864;  621.600;-1216.000;-1044.000
360.996;  559.200; -516.000; -554.000
361.129;  118.800; -389.000; -598.000
361.261;   93.400;  110.000; -113.000
361.393;  -11.400; -252.000; -214.000
361.525;   99.600;   94.000;  244.000
361.657;  -48.800; -821.000; -703.000
361.789;   85.400; -139.000; -155.000
361.921;  463.900; -642.000; -593.000
362.053;  548.900;  524.000;  541.000
362.185;  147.400;  288.000;   72.000
362.318; -120.300; -709.000; -705.000
362.450;  313.900;  294.000;  444.000
362.582;  299.400; -913.000; -870.000
362.714;  -62.200; -353.000; -332.000
362.846; -109.900; -606.000; -490.000
362.978; -227.900; -941.000; -811.000
363.109;  128.300; -161.000; -260.000
363.241;  912.200; -739.000; -749.000
363.373;  733.900; -649.000; -564.000
363.505; 1172.900; -186.000;  -91.000
363.637;  256.700; -787.000; -601.000
363.769; -230.600;-1067.000;-1080.000
363.901;  -84.300; -596.000; -654.000
364.033; -200.800;-1103.000;-1062.000
364.165;   35.500; -283.000; -283.000
364.296;  184.400; -316.000; -177.000
364.428;  119.900;-1344.000;-1220.000
364.560;  -82.600; -679.000; -661.000
364.692;  -82.100; -738.000; -835.000
364.824;  558.300; -588.000; -456.000
364.955;  819.600; -402.000; -564.000
365.087; 1451.200;-1097.000; -852.000
365.219;   75.500; -686.000; -816.000
365.351; -100.000; -526.000; -572.000
365.482;  174.500;  300.000;  240.000
365.614;  -17.900; -402.000; -314.000
365.746; -154.500; -729.000; -752.000
365.877; -156.300; -706.000; -672.000
366.009;  471.000;  -35.000;  -62.000
366.141; -171.300;-1249.000;-1134.000
366.272; -175.900; -803.000; -719.000
366.404; -204.200;-1005.000; -874.000
366.535;   44.800; -139.000;  -12.000
366.667; -163.100; -644.000; -649.000
366.799;  114.100;  353.000;  203.000
366.930; -200.700; -862.000; -996.000
367.062;  232.400; -639.000; -613.000
367.193;  206.900; -872.000; -842.000
367.325;  -78.600; -580.000; -684.000
367.456;  156.100; -246.000;   31.000
367.588;  319.200; -371.000; -318.000
367.719;   99.000;  -44.000;  -45.000
367.851;   50.100; -222.000; -241.000
367.982;  -86.700; -875.000; -732.000
368.113;  241.700; -475.000; -358.000
368.245; -193.600; -960.000; -841.000
368.376;   26.400; -254.000; -302.000
368.508;  -31.000; -188.000; -263.000
368.639; -251.800;-1166.000;-1034.000
368.770;    1.800; -670.000; -589.000
368.902;  -68.400; -836.000; -926.000
369.033; -170.800; -906.000; -855.000
369.164;  -70.900; -720.000; -653.000
369.296; -155.000; -452.000; -601.000
369.427;   66.200; -209.000; -144.000
369.558;  -31.000; -593.000; -377.000
369.689; -118.000; -721.000; -569.000
369.821; -225.900; -951.000; -845.000
369.952;   22.800;   42.000; -108.000
370.083;  -39.600; -229.000; -108.000
370.214; -106.800; -735.000; -650.000
370.345;   70.700;   65.000;   81.000
370.477; -131.000; -810.000; -790.000
370.608;  521.400; -328.000; -264.000
370.739;  -70.300;-1233.000;-1292.000
370.870;  -76.700;-1102.000; -923.000
371.001;  230.600; -378.000; -467.000
371.132; -105.700; -754.000; -735.000
371.263;   31.200;  -42.000; -148.000
371.394; -247.100; -841.000; -748.000
371.525;  136.700;  345.000;  225.000
371.657; -177.600; -808.000; -670.000
371.788;  184.700;  103.000;  199.000
371.919;  307.400; -384.000; -304.000
372.050; 6553.000;  -91.000; -156.000
372.181; 1926.400; -188.000; -294.000
372.311;  690.900;   42.000; -127.000
372.442;  130.700; -457.000; -451.000
372.573;   -0.300; -444.000; -340.000
372.704; -185.100;-1008.000; -980.000
372.835;  214.700; -228.000; -289.000
372.966;  -59.200; -646.000; -554.000
373.097;  -53.800; -575.000; -711.000
373.228;  -74.700; -717.000; -542.000
373.359;  281.300; -824.000; -536.000
373.490; 1770.800; -881.000; -727.000
373.620; 2083.100;-1001.000; -803.000
373.751; 3321.500; -332.000; -396.000
373.882; 1448.500; -663.000; -733.000
374.013;  164.600; -449.000; -262.000
374.143;  -56.800; -581.000; -659.000
374.274; -169.900; -987.000; -908.000
374.405;  379.700; -388.000; -276.000
374.536;  902.400; -526.000; -387.000
374.666; 2080.100; -759.000; -807.000
374.797;  398.700; -817.000; -868.000
374.928; 1660.500; -710.000; -560.000
375.058; 1707.300; -535.000; -500.000
375.189;  163.800;  -59.000;  -93.000
375.320; -175.300; -928.000;-1034.000
375.450;  -57.200; -625.000; -616.000
375.581;  -78.400; -526.000; -436.000
375.712;  -27.100; -574.000; -250.000
375.842;  577.700; -438.000; -415.000
375.973;  455.000; -554.000; -513.000
376.103;  -27.400; -665.000; -648.000
376.234; -105.800; -531.000; -552.000
376.364;  -43.200; -944.000; -867.000
376.495;  675.100;  925.000;  529.000
376.625;   17.200; -472.000; -485.000
376.756;  194.400; -709.000; -678.000
376.886; -133.500;-1178.000;-1026.000
377.017;   95.000;-1048.000;-1061.000
377.147;  582.800; -786.000; -782.000
377.278;  195.600;  174.000;  228.000
377.408; -195.200; -801.000; -815.000
377.538; -167.700; -707.000; -693.000
377.669; -112.200; -537.000; -613.000
377.799; -102.600; -645.000; -635.000
377.929;  -55.800; -610.000; -428.000
378.060; -201.200; -781.000; -847.000
378.190;  -52.800; -726.000; -531.000
378.320;  -34.800; -401.000; -406.000
378.451;   31.800; -131.000;  -22.000
378.581;   63.300;  -67.000; -110.000
378.711;  360.700; 1035.000;  866.000
378.841;   -7.500; -533.000; -675.000
378.972;  -93.900; -871.000; -751.000
379.102;   34.800; -652.000; -579.000
379.232;   12.200; -126.000;  -73.000
379.362; -150.800;-1001.000; -885.000
379.492;   80.000; -373.000; -424.000
379.623;  256.900;    0.000;  111.000
379.753; -161.200;-1107.000; -974.000
379.883;  482.100;   59.000;  156.000
380.013;   41.200;-1081.000;-1017.000
380.143; -148.800;-1097.000;-1056.000
380.273; -130.200; -985.000; -861.000
380.403;   19.400; -344.000; -257.000
380.533;   -1.400; -651.000; -664.000
380.663;  219.700;  173.000;  128.000
380.793; -161.900;-1027.000;-1074.000
380.923;   23.900; -103.000;  -34.000
381.053; -132.800; -613.000; -623.000
381.183;   -2.500; -106.000; -248.000
381.313;  101.400; -656.000; -470.000
381.443;  105.400; -692.000; -473.000
381.573;  459.500; -402.000; -409.000
381.703;  557.800;-1249.000;-1095.000
381.833; -206.000;-1454.000;-1336.000
381.963;  231.800; -134.000;  -87.000
382.093; 2543.500; -925.000; -909.000
382.223;  770.400; -713.000; -602.000
382.353;   12.200; -801.000; -608.000
382.482;  740.000;-1091.000; -964.000
382.612; 1411.600; -872.000; -644.000
382.742;  807.400; -695.000; -622.000
382.872;  545.900; -565.000; -551.000
383.002;  188.300;  347.000; -132.000
383.131;   10.300; -226.000; -160.000
383.261;  -27.500; -706.000; -768.000
383.391;  570.000; -552.000; -377.000
383.521; 5478.600;  451.000;  263.000
383.650; 1198.100; -947.000; -904.000
383.780;   -7.800; -783.000; -656.000
383.910;  278.500;  880.000;  802.000
384.039;   64.900; -794.000; -656.000
384.169;  424.500;-1205.000;-1017.000
384.299;   13.300; -650.000; -662.000
384.428; -148.600; -764.000; -680.000
384.558;   13.500; -308.000; -275.000
384.687;   -4.000; -414.000; -334.000
384.817;  142.200;   75.000;   -2.000
384.947;  117.700; -234.000; -141.000
385.076;  678.500;  982.000;  912.000
385.206;  282.000;  369.000;  480.000
385.335;   12.000; -549.000; -417.000
385.465;  -65.800; -655.000; -663.000
385.594;  338.500;  -53.000;  -44.000
385.724;  856.300; -868.000; -838.000
385.853;  273.800; -296.000; -270.000
385.982; 2644.500; -743.000; -787.000
386.112; 3914.500;-1052.000; -871.000
386.241;  281.700; -307.000; -312.000
386.371;  113.600; -174.000;  -87.000
386.500;   76.000; -825.000; -789.000
386.629;  125.300; -874.000; -817.000
386.759;  206.900;  -43.000;   68.000
386.888;   88.500; -170.000; -250.000
387.017;  -62.900; -648.000; -620.000
387.147;  -87.300; -771.000; -798.000
387.276;   93.500; -410.000; -397.000
387.405;  144.100; -398.000; -342.000
387.535;  -43.100; -452.000; -361.000
387.664;  -66.900; -692.000; -620.000
387.793;  189.200; -198.000; -113.000
387.922; 1055.600;  255.000;  200.000
388.052;  100.200; -576.000; -423.000
388.181;  136.000; -342.000; -472.000
388.310;  145.900; -889.000; -710.000
388.439;  -15.400; -749.000; -742.000
388.568;  421.900;  365.000;  244.000
388.697; 1994.900; -756.000; -653.000
388.826;  426.200; -768.000; -666.000
388.956;  200.900; -285.000; -307.000
389.085;   10.100; -347.000; -287.000
389.214; -133.200; -842.000; -872.000
389.343;  -57.300; -645.000; -413.000
389.472;  824.100;  126.000;  149.000
389.601;  977.700;   91.000;    0.000
389.730;   83.800; -568.000; -687.000
389.859;  182.200;  226.000;   46.000
389.988;  378.500; -423.000; -408.000
390.117;  280.800; -168.000; -146.000
390.246;   59.700; -331.000; -320.000
390.375;  283.000; -673.000; -626.000
390.504;  -76.900; -703.000; -621.000
390.633; -130.300; -672.000; -726.000
390.761;  -69.600; -732.000; -645.000
390.890;  133.500;   -4.000; -130.000
391.019;   35.700; -421.000; -441.000
391.148; -189.500; -826.000; -855.000
391.277;  -58.300; -576.000; -493.000
391.406;  -89.700; -821.000; -805.000
391.534;  132.900;  574.000; -301.000
391.663;  -49.200; -583.000; -645.000
391.792;  -86.100; -673.000; -701.000
391.921;  274.600;   -3.000;   15.000
392.050;  438.300; -287.000; -228.000
392.178;  -23.600;-1206.000;-1061.000
392.307;  264.300; -758.000; -712.000
392.436;  139.900; -427.000; -641.000
392.564;   99.000;  166.000;   -6.000
392.693; -104.300; -860.000; -682.000
392.822;  439.900; -529.000; -534.000
392.950;  224.600; -880.000; -714.000
393.079;  659.400; -188.000; -328.000
393.208;   96.500; -488.000; -511.000
393.336;   39.200; -170.000; -145.000
393.465;  -26.200; -317.000; -199.000
393.593;   55.900;   62.000;   79.000
393.722; -257.200;-1121.000; -916.000
393.850;   53.900; -188.000;  -61.000
393.979; -249.500; -926.000; -805.000
394.107;  -59.500; -517.000; -537.000
394.236;  -14.400; -570.000; -507.000
394.364;  525.500;  383.000;  206.000
394.493;  797.900; -911.000; -767.000
394.621;   22.100; -955.000; -916.000
394.750; 1357.900; -873.000; -923.000
394.878; 5346.600; -247.000; -149.000
395.007; 6801.100; -721.000; -807.000
395.135;  470.800; -790.000; -721.000
395.263; -119.400;-1038.000;-1040.000
395.392;   81.500;  -25.000; -107.000
395.520; -179.800; -818.000; -679.000
395.648; -120.900; -865.000; -915.000
395.777;   36.400; -366.000; -405.000
395.905;  -62.800; -449.000; -564.000
396.033;   93.000;  217.000;  172.000
396.162; 1331.700; -399.000; -453.000
396.290; 1141.200;  -17.000;   -2.000
396.418;  253.700; -555.000; -514.000
396.546; -109.800; -571.000; -466.000
396.674; -172.600; -850.000; -878.000
396.803;   69.800;  -72.000;  -23.000
396.931;  219.000; -179.000; -199.000
397.059;  137.300;-1026.000; -989.000
397.187; -136.700;-1026.000; -975.000
397.315; -187.800; -884.000; -649.000
397.443; -119.600; -592.000; -443.000
397.572; -145.600; -578.000; -424.000
397.700;   29.600; -607.000; -614.000
397.828;   56.400;  120.000;  -90.000
397.956;  -15.600; -508.000; -478.000
398.084; -110.600; -767.000; -626.000
398.212;  125.900;  137.000;  124.000
398.340;   69.800;  -56.000;  159.000
398.468;  123.600; -390.000; -169.000
398.596; -217.900; -993.000; -953.000
398.724; -172.700; -762.000; -767.000
398.852; -277.700;-1024.000; -976.000
398.980;  -78.800; -560.000; -560.000
399.108;  -38.400; -982.000; -735.000
399.236;  102.200;   13.000;    8.000
399.363;   86.300;  222.000;  196.000
399.491;  -69.500; -404.000; -398.000
399.619; -205.900; -829.000; -800.000
399.747; -147.700; -859.000; -771.000
399.875;  206.500;  220.000;  234.000
400.003;  -59.000; -359.000; -284.000
400.130; -113.000; -421.000; -341.000
400.258;  -14.200;  -83.000;   38.000
400.386;  -69.500; -352.000; -168.000
400.514;  -27.300; -526.000; -587.000
400.641; -131.000; -928.000; -802.000
400.769; -219.100; -979.000; -888.000
400.897; -153.400; -838.000; -793.000
401.025;   21.200; -166.000; -152.000
401.152;   79.400;  220.000;   38.000
401.280;  -84.900; -430.000; -429.000
401.408; -216.400; -712.000; -576.000
401.535; -131.400; -735.000; -758.000
401.663; -335.300;-1134.000;-1054.000
401.790;  -91.800; -514.000; -525.000
401.918;  142.300;  436.000;  405.000
402.046;   40.400;  134.000;  122.000
402.173;   12.500;  -18.000;    7.000
402.301;  -60.000; -519.000; -397.000
402.428;  124.700;  528.000;  383.000
402.556; -234.300;-1188.000; -913.000
402.683;  -19.000;  -20.000;   -1.000
402.811;   49.400;  -37.000; -206.000
402.938;   27.300;   20.000;   27.000
403.066;  407.600; -574.000; -558.000
403.193;  609.300;  299.000;  239.000
403.321;  513.000; -396.000; -574.000
403.448;  636.600;   83.000;   27.000
403.575;  288.100;  -90.000;  -46.000
403.703; -107.300; -732.000; -557.000
403.830;  -83.100; -531.000; -496.000
403.957; -212.700;-1117.000;-1023.000
404.085;   93.000;  -61.000; -172.000
404.212;  263.800;  -50.000;   63.000
404.339;  588.500; -566.000; -306.000
404.467;10494.000; -612.000; -524.000
404.594; 6713.100; -287.000; -227.000
404.721; 1592.900; -869.000; -764.000
404.848;  194.800; -113.000; -202.000
404.976; -146.900; -856.000; -783.000
405.103;   80.600;  -14.000;  -82.000
405.230;   76.900;  190.000;  226.000
405.357;  138.500;  117.000;   44.000
405.484;  537.200;  -49.000;    5.000
405.612;  121.800; -548.000; -563.000
405.739;  -59.400; -488.000; -243.000
405.866;  243.700;  669.000;  385.000
405.993;  -14.900; -398.000; -102.000
406.120; -231.600; -801.000; -887.000
406.247;  -50.400; -323.000; -342.000
406.374;  980.900;  540.000;  629.000
406.501;  233.700; -632.000; -702.000
406.628;  -88.400; -621.000; -589.000
406.755; -144.600; -803.000; -620.000
406.882;  -20.800; -228.000; -277.000
407.009; -150.100; -719.000; -628.000
407.136;  188.300; -480.000; -401.000
407.263;  274.000; -939.000; -829.000
407.390;  -90.200; -692.000; -614.000
407.517; -258.600;-1139.000;-1187.000
407.644;  -78.900; -332.000; -256.000
407.771;  -69.600; -249.000; -287.000
407.898;   81.000;  168.000;  328.000
408.025;  -50.900; -421.000; -313.000
408.151;   43.900;   82.000;  153.000
408.278;  -84.000; -267.000; -216.000
408.405; -192.600; -931.000; -899.000
408.532;  -78.300; -549.000; -542.000
408.659; -192.600; -677.000; -648.000
408.785; -357.100;-1298.000;-1170.000
408.912;  -58.100; -412.000; -296.000
409.039; -194.900; -610.000; -686.000
409.166; -158.700; -591.000; -555.000
409.292; -141.900; -571.000; -534.000
409.419; -173.500; -665.000; -649.000
409.546;  -83.700; -431.000; -192.000
409.672; -140.400; -713.000; -545.000
409.799;   33.100;  -36.000;   34.000
409.926;  -17.800; -180.000; -179.000
410.052; -290.800;-1127.000;-1091.000
410.179;  -46.200; -368.000; -392.000
410.305; -122.700; -375.000; -493.000
410.432;  -11.800; -220.000; -333.000
410.558; -171.200; -305.000; -380.000
410.685; -171.100; -688.000; -431.000
410.812; -141.000; -409.000; -588.000
410.938; -241.800; -964.000; -808.000
411.065; -126.000; -671.000; -645.000
411.191;   26.600; -189.000; -174.000
411.317; -200.800; -823.000; -742.000
411.444;  -59.100; -317.000; -246.000
411.570;  -80.300; -339.000; -294.000
411.697; -202.700; -758.000; -752.000
411.823; -299.500; -989.000; -999.000
411.949;  -16.900;  -56.000;   17.000
412.076; -185.200; -539.000; -519.000
412.202; -147.100; -758.000; -757.000
412.329; -196.600; -798.000; -752.000
412.455; -190.000; -821.000; -657.000
412.581;   31.400;  -15.000;  172.000
412.707;  -60.600; -540.000; -457.000
412.834;   82.600;  156.000;  219.000
412.960; -119.800; -785.000; -784.000
413.086; -139.100; -743.000; -701.000
413.212;  355.100;  604.000;  578.000
413.339;  -83.800; -685.000; -701.000
413.465;   66.100; -364.000; -310.000
413.591; -126.800; -757.000; -474.000
413.717;  -61.300; -358.000; -366.000
413.843; -207.500; -839.000; -861.000
413.969;  -63.100;  -47.000; -292.000
414.096; -163.200; -679.000; -679.000
414.222;   37.800;  -33.000;   85.000
414.348;   -4.300; -652.000; -385.000
414.474;  234.000;   38.000;  -52.000
414.600;   30.200; -126.000; -144.000
414.726;   60.900;  -96.000;  -55.000
414.852;  -54.500; -365.000; -342.000
414.978;  110.100;  104.000;  -18.000
415.104;  159.300;   38.000;   80.000
415.230;   40.700; -329.000; -330.000
415.356;  115.700; -409.000; -514.000
415.482;  415.100;   13.000;  -35.000
415.608;  527.600; -247.000; -323.000
415.734; 1821.500;   67.000;   38.000
415.860;37826.300; -875.000; -767.000
415.986;24772.200; -685.000; -607.000
416.111; 2045.000; -798.000; -652.000
416.237;  471.900; -424.000; -571.000
416.363; 2230.700; -765.000; -733.000
416.489; 7307.600; -324.000; -251.000
416.615;  719.200; -707.000; -742.000
416.741;  -12.800; -677.000; -784.000
416.866; -146.900; -673.000; -736.000
416.992; -179.600; -801.000; -818.000
417.118;   24.600;  -41.000;  -80.000
417.244;  -90.900; -798.000; -531.000
417.369; -107.200; -801.000; -612.000
417.495;   49.500; -325.000; -254.000
417.621; -107.500;-1015.000; -803.000
417.746;   44.400; -579.000; -572.000
417.872;  179.400; -254.000; -144.000
417.998;  127.700; -515.000; -530.000
418.123; 2141.400;-1073.000; -845.000
418.249; 9550.700; -512.000; -601.000
418.374; 1233.900; -916.000; -824.000
418.500;  231.300; -383.000; -482.000
418.626;  264.000;   70.000;  -59.000
418.751;  230.500; -549.000; -448.000
418.877;  430.300; -637.000; -643.000
419.002; 3608.900; -688.000; -560.000
419.128;22536.100; -930.000; -721.000
419.253; 4928.900; -967.000; -837.000
419.379;  706.700; -391.000; -338.000
419.504;  755.000;  325.000;  415.000
419.629; 1000.700; -393.000; -212.000
419.755; 6811.300; -317.000; -254.000
419.880;36302.600;  -98.000;   67.000
420.006;20833.300; -280.000; -221.000
420.131;50760.400; -662.000; -775.000
420.256; 6681.800; -315.000; -316.000
420.382;  975.800; -665.000; -687.000
420.507;  147.300; -649.000; -778.000
420.632;  346.300; -337.000; -339.000
420.758;  520.300; -251.000; -425.000
420.883;  -98.200; -876.000; -672.000
421.008; -156.800; -775.000; -619.000
421.133; -103.800; -509.000; -467.000
421.259;  -15.200; -325.000; -259.000
421.384; -185.700; -834.000; -693.000
421.509;  -39.300;-1052.000; -862.000
421.634; 2380.000; -936.000; -820.000
421.759;  958.400; -359.000; -327.000
421.885;  -52.800; -717.000; -656.000
422.010; -123.700; -673.000; -542.000
422.135; -198.400; -695.000; -727.000
422.260;  148.600;  340.000;  280.000
422.385;  -10.400;   12.000;  -98.000
422.510;  104.700;  151.000;  -26.000
422.635;  127.600;  -87.000;  -43.000
422.760;  222.500; -766.000; -791.000
422.885;  165.100;  -57.000;  -80.000
423.010;   28.500; -112.000; -169.000
423.135; -111.500; -481.000; -561.000
423.260;   28.200; -150.000; -245.000
423.385;  194.900;  476.000;  222.000
423.510;  128.000;   71.000;  -22.000
423.635;  217.900;  133.000;   45.000
423.760;  207.000;  383.000;  328.000
423.885;  152.900;  336.000;  391.000
424.010;   63.500;  -68.000;  -13.000
424.135;   15.900;    5.000;  -33.000
424.259;  -91.800; -654.000; -457.000
424.384;  -29.200; -279.000; -272.000
424.509;   41.600; -260.000; -186.000
424.634; -125.500; -761.000; -623.000
424.759;    9.400; -688.000; -544.000
424.883;   12.600; -506.000; -527.000
425.008;  389.300; -502.000; -410.000
425.133; 3701.500; -679.000; -653.000
425.258; 1532.800; -517.000; -381.000
425.382; 2024.600; -867.000; -774.000
425.507; 4684.400; -487.000; -543.000
425.632;  754.000; -802.000; -663.000
425.756;  919.200; -256.000; -146.000
425.881;12129.000; -831.000; -857.000
426.006;29083.800; -604.000; -355.000
426.130; 4264.600; -696.000; -508.000
426.255;  607.800; -611.000; -491.000
426.379;  330.700; -189.000; -577.000
426.504;  728.800;  660.000;  544.000
426.629; 7672.500; -519.000; -466.000
426.753; 4749.700;   64.000;  -46.000
426.878;  610.700; -252.000; -288.000
427.002;  383.200; -651.000; -668.000
427.127; 3140.900;  -35.000; -158.000
427.251;20633.800;  372.000;  401.000
427.375; 5252.700; -191.000; -173.000
427.500; 4162.300; -616.000; -610.000
427.624; 1315.800; -234.000; -400.000
427.749;  218.100; -216.000; -225.000
427.873;   -0.700; -499.000; -412.000
427.997;   -4.500; -222.000; -230.000
428.122;  223.900;  795.000;  703.000
428.246;  225.800;  433.000;  434.000
428.371; -179.000; -869.000; -773.000
428.495; -143.100; -624.000; -646.000
428.619;   10.400; -186.000; -117.000
428.743;   88.100;   65.000;  132.000
428.868;   79.400; -732.000; -643.000
428.992; 2611.100; -219.000; -326.000
429.116; 1025.700; -329.000; -357.000
429.240;  586.100;  419.000;  426.000
429.365;   16.900; -454.000; -574.000
429.489;   -9.500; -638.000; -647.000
429.613;  131.100; -236.000; -177.000
429.737;  154.000; -563.000; -432.000
429.861;  571.000; -247.000; -133.000
429.985;10738.000; -425.000; -305.000
430.109;10480.900; -770.000; -908.000
430.234; 1241.300;   76.000;  -50.000
430.358;  182.000; -250.000; -160.000
430.482;  -26.700; -672.000; -564.000
430.606;  -46.800; -655.000; -375.000
430.730;  125.800; -437.000; -388.000
430.854;  316.400; -909.000; -835.000
430.978;  -53.200; -795.000; -764.000
431.102;  -46.500; -499.000; -422.000
431.226; -117.100; -874.000; -815.000
431.350;  167.600;  345.000;  422.000
431.474;  -85.800; -661.000; -373.000
431.597; -260.900;-1060.000; -848.000
431.721;  -81.000; -276.000; -267.000
431.845; -213.400; -704.000; -472.000
431.969;  -73.200; -304.000; -349.000
432.093; -115.000; -395.000; -317.000
432.217;    9.500;   32.000;   82.000
432.341; -124.800; -523.000; -518.000
432.464;   99.600;   96.000;   40.000
432.588;  464.300; -401.000; -329.000
432.712;  244.600;  -52.000;  -52.000
432.836;  140.100;  213.000;  263.000
432.959;   23.800; -372.000; -311.000
433.083;  217.000;   11.000;    2.000
433.207;  779.100;  285.000;  930.000
433.330; 9583.900; -391.000; -200.000
433.454;10612.900; -654.000; -638.000
433.578; 6317.500;  583.000;  278.000
433.701; 1103.500; -623.000; -675.000
433.825;  323.700; -292.000; -299.000
433.949;  435.000;   28.000;  -72.000
434.072;  167.400; -410.000; -323.000
434.196;   70.600; -309.000; -117.000
434.319; 7666.600;25482.000;25124.000
434.443; 1521.300; -656.000; -603.000
434.566; 4751.000;  281.000;   62.000
434.690;  710.800; -637.000; -383.000
434.813;  151.800; -251.000; -173.000
434.937;  -75.600; -569.000; -696.000
435.060;   -5.800; -423.000; -332.000
435.184;  785.100; -492.000; -217.000
435.307;  390.600;  159.000;  102.000
435.431;   31.700;  -40.000;   24.000
435.554;  -90.700; -399.000; -240.000
435.677;  -71.000; -350.000; -258.000
435.801;  -15.800;  -25.000;   49.000
435.924;   84.700;    1.000;  -67.000
436.048; -185.100;-1019.000; -732.000
436.171;  -71.000; -240.000;  -66.000
436.294;   -2.600; -248.000; -229.000
436.417;  213.500; -963.000; -849.000
436.541; -110.800; -814.000; -840.000
436.664;  -20.600; -242.000; -316.000
436.787;   58.300;   13.000;  113.000
436.910; -152.400; -792.000; -422.000
437.034;   92.000;  142.000;  143.000
437.157;  210.800;  -11.000;    0.000
437.280;  -58.400; -392.000; -292.000
437.403;  -92.500; -982.000; -869.000
437.526; 1346.500; -903.000; -865.000
437.649; 4511.700; -505.000; -332.000
437.772;  634.200; -692.000; -540.000
437.896;  292.400;  700.000;  544.000
438.019; -126.400; -758.000; -503.000
438.142;  -79.200; -596.000; -506.000
438.265;   47.400; -639.000; -670.000
438.388; 1150.500; -520.000; -410.000
438.511;  195.300; -597.000; -394.000
438.634;  -16.700; -247.000; -125.000
438.757; -226.100; -693.000; -619.000
438.880;   46.100;  -34.000;  -57.000
439.003;  -83.900; -417.000; -437.000
439.126;  -40.300; -287.000; -167.000
439.248;  -60.200;  -98.000; -139.000
439.371;   -4.700;    9.000;  -53.000
439.494;   94.800;  510.000;  439.000
439.617;  -66.300;   65.000;  -88.000
439.740; -274.000; -968.000; -816.000
439.863; -236.600; -755.000; -595.000
439.986; -177.400; -476.000; -431.000
440.108;   10.400; -161.000; -112.000
440.231; -257.700; -950.000; -836.000
440.354;  -16.800;  -64.000; -150.000
440.477;  133.300; -566.000; -542.000
440.599;   69.400; -200.000; -225.000
440.722; -187.900; -709.000; -586.000
440.845;  230.500;  751.000;  928.000
440.968; -157.600; -415.000; -311.000
441.090;  -98.000; -199.000;  -33.000
441.213; -289.900;-1021.000; -825.000
441.336;   -4.800; -159.000;   -5.000
441.458;  -94.800; -549.000; -396.000
441.581;  -77.700; -628.000; -629.000
441.703;  -66.200; -152.000;   13.000
441.826; -144.100; -557.000; -400.000
441.948;  -19.500;   56.000;   51.000
442.071;  114.900;  555.000;  424.000
442.193; -170.300; -531.000; -485.000
442.316;  112.000;  152.000;   97.000
442.438;   97.500; -233.000;  -10.000
442.561;  218.500;  272.000;  262.000
442.683; 1133.700; -809.000; -522.000
442.806; 2235.700;   -8.000;   74.000
442.928;   66.700; -859.000; -604.000
443.051;  -68.500; -577.000; -373.000
443.173; -121.300; -341.000; -339.000
443.295;  -97.800; -263.000; -371.000
443.418;  -70.100; -321.000;  -29.000
443.540;   62.700; -106.000;   -4.000
443.662; -188.400; -563.000; -465.000
443.785;   24.200;  335.000;  199.000
443.907; -157.000; -362.000; -208.000
444.029; -195.900; -767.000; -494.000
444.152; -210.400; -644.000; -554.000
444.274;    2.500;  -18.000;  -24.000
444.396; -173.200; -461.000; -221.000
444.518; -204.000; -691.000; -454.000
444.640; -131.600; -268.000; -111.000
444.763;   37.200;  388.000;  249.000
444.885; -177.600; -432.000; -392.000
445.007;   30.000;   35.000;   86.000
445.129; -187.200; -610.000; -515.000
445.251; -153.300; -372.000; -439.000
445.373; -233.300; -537.000; -386.000
445.495;   54.700;  242.000;  350.000
445.617;  185.400;  853.000;  753.000
445.739;  -97.100; -215.000;  -97.000
445.861;  -10.200; -245.000; -112.000
445.984;  -38.600; -267.000; -101.000
446.105;  485.000; -418.000; -251.000
446.227; 1175.700; -176.000;  -19.000
446.349;   21.000; -358.000; -249.000
446.471; -154.200; -615.000; -448.000
446.593;  -89.100; -316.000;   19.000
446.715;   66.600;  -67.000;   41.000
446.837;  182.400;  697.000;  832.000
446.959; -141.000; -457.000; -478.000
447.081; -242.500; -628.000; -518.000
447.203;  205.300;  862.000;  834.000
447.325; -107.500; -270.000;   42.000
447.446;   79.500;  286.000;  530.000
447.568; -261.600; -921.000; -803.000
447.690; -105.500; -236.000; -245.000
447.812; -261.600; -798.000; -519.000
447.933;    8.600;  155.000;  127.000
448.055;  -76.700; -306.000; -261.000
448.177;  359.400;   31.000;   79.000
448.299;  195.700; -935.000; -727.000
448.420;  113.100;  -25.000;  159.000
448.542;  -19.500;   -3.000;   33.000
448.664;   41.500;  109.000;  322.000
448.785;  -30.700;  265.000;   83.000
448.907;  -82.600; -614.000; -353.000
449.028;  -54.000; -771.000; -471.000
449.150;  196.100;  492.000;  589.000
449.272; -334.200;-1044.000; -913.000
449.393;  134.300;  612.000;  694.000
449.515; -234.800; -634.000; -581.000
449.636;  -42.200; -264.000; -155.000
449.758;  232.700;  763.000;  622.000
449.879; -107.600; -498.000; -396.000
450.001;  -87.500; -149.000;  -49.000
450.122;    8.300;  -95.000;  162.000
450.244;   43.900;   37.000;  364.000
450.365;  -99.500; -495.000; -301.000
450.486;  -18.700;   80.000;  268.000
450.608;  108.100;  393.000;  326.000
450.729;  217.600;  578.000;  645.000
450.850;   48.700; -574.000; -466.000
450.972; 1454.500; -552.000; -389.000
451.093; 8838.700;  190.000;  588.000
451.214; 3365.700; -516.000; -337.000
451.336;  730.100;  773.000;  579.000
451.457;  159.000;  264.000;  393.000
451.578;    1.400; -118.000;  -74.000
451.699; -171.100; -546.000; -540.000
451.821;  -63.900; -284.000;  -50.000
451.942;   65.400;  278.000;  285.000
452.063;  110.400;  228.000;  419.000
452.184; 1126.700;  -54.000;  -49.000
452.305; 1905.300;  103.000;  170.000
452.427;  212.000; -549.000; -301.000
452.548;   50.900;   23.000;   79.000
452.669;  -50.100; -257.000;  -89.000
452.790;   -6.900;    3.000;  -18.000
452.911;   80.100;  195.000;  259.000
453.032;  -66.500; -289.000;  -60.000
453.153;   19.400;  -29.000;   81.000
453.274;  200.100;  737.000;  868.000
453.395;  -55.700;  -51.000;  175.000
453.516;  340.700; 1317.000; 1388.000
453.637;  -44.400; -205.000; -150.000
453.758;  -14.800;   15.000;   69.000
453.879; -168.000; -462.000; -250.000
454.000;  219.700; 1086.000;  948.000
454.121; -170.100; -554.000; -326.000
454.242; -173.200; -599.000; -383.000
454.362;  -42.000;  -99.000;  114.000
454.483;    0.400; -309.000; -229.000
454.604;  152.200;  512.000;  580.000
454.725; -163.200; -627.000; -555.000
454.846; -181.400; -474.000; -406.000
454.967;   19.400;  230.000;  539.000
455.087;  -32.200;  179.000;  153.000
455.208;  123.700;  554.000;  856.000
455.329;  -57.000;  -22.000;   82.000
455.450;  150.000;  473.000;  633.000
455.570; -101.000; -234.000; -211.000
455.691;   -4.100;  201.000;  407.000
455.812; -160.900; -270.000;  -92.000
455.932;  -38.700;  107.000;  -97.000
456.053;  -85.800;   36.000;   24.000
456.173; -145.800; -433.000; -355.000
456.294; -214.300; -476.000; -303.000
456.415;  -87.400;  -73.000;   70.000
456.535;    2.100;  297.000;  273.000
456.656;  -34.200;  132.000;  240.000
456.776;  -59.300;    3.000;  298.000
456.897;   43.100;  308.000;  513.000
457.017;  -69.100; -153.000;   -3.000
457.138; -155.200; -402.000; -249.000
457.258;  -22.200;  263.000;  224.000
457.379;   34.100;  509.000;  521.000
457.499;    3.600;  443.000;  432.000
457.620; -201.900; -407.000; -231.000
457.740; -105.600; -132.000;  -11.000
457.860;  -23.200;   87.000;   44.000
457.981;  -48.600;  132.000;  124.000
458.101;  -78.100;  -89.000;   40.000
458.221;   30.900;  336.000;  402.000
458.342;  -43.200;   -4.000;  -37.000
458.462;  111.700;  617.000;  352.000
458.582;  -41.000; -302.000; -294.000
458.703;   59.300;  303.000;  154.000
458.823;  -13.000;   22.000;  163.000
458.943;  126.200;  341.000;  467.000
459.063;   62.100; 1124.000;  192.000
459.183;   11.300;  328.000;  313.000
459.304;   79.400;  315.000;  517.000
459.424;  -60.500; -246.000;  -89.000
459.544;  718.300;  388.000;  764.000
459.664; 1573.700;  499.000;  506.000
459.784;  604.400; 1004.000; 1175.000
459.904;  187.500;  867.000;  744.000
460.024;  236.300;  867.000;  684.000
460.144;  102.800;  449.000;  554.000
460.264;   70.000;  515.000;  327.000
460.385; -105.900; -145.000; -119.000
460.505;  160.300;  905.000;  858.000
460.625; -122.500;  -17.000;  -68.000
460.745;   46.800;  396.000;  541.000
460.864;  -27.900;  153.000;  469.000
460.984;  112.300;  499.000;  573.000
461.104;  392.200; 1656.000; 1775.000
461.224;  108.400;  657.000;  650.000
461.344;   -0.100;  431.000;  360.000
461.464;   15.000;  258.000;  513.000
461.584;   24.800;  283.000;  466.000
461.704;  -33.900;   58.000;  108.000
461.824;  -61.300;  238.000;  259.000
461.943;   -4.900;  191.000;  130.000
462.063;  -91.600;    2.000;  324.000
462.183;  131.500;  639.000;  717.000
462.303;  281.500; 1678.000; 1230.000
462.422;  136.800;  781.000;  840.000
462.542;   13.200;  271.000;  391.000
462.662;  133.300;  353.000;  380.000
462.782;  499.200;  833.000;  572.000
462.901;  962.800;  545.000;  717.000
463.021;  568.800; 1702.000; 1638.000
463.141;   62.800;  337.000;  770.000
463.260;   -0.300;  614.000;  474.000
463.380;   90.600;  902.000;  884.000
463.499;   20.800;  342.000;  332.000
463.619;   -4.900;  581.000;  559.000
463.738;  303.200; 1644.000;  903.000
463.858;   96.600;  657.000;  811.000
463.978;   24.600;  542.000;  396.000
464.097;  161.900;  921.000; 1114.000
464.217;  310.400; 1196.000; 1143.000
464.336;  315.300; 1068.000; 1130.000
464.455;   23.700;  328.000;  659.000
464.575;  127.600;  597.000;  602.000
464.694;  379.100; 1204.000; 1179.000
464.814;  318.900; 1190.000; 1138.000
464.933;  214.600; 1095.000; 1027.000
465.052;  292.300; 1412.000; 1054.000
465.172;  261.100;  922.000;  799.000
465.291;  308.300; 1376.000; 1320.000
465.410;   78.600;  462.000;  735.000
465.530;  218.500; 1355.000; 1310.000
465.649;  239.700; 1209.000; 1273.000
465.768;  401.100; 1673.000; 1508.000
465.888;  193.300;  941.000; 1174.000
466.007;  232.700; 1335.000; 1440.000
466.126;   84.800;  721.000;  641.000
466.245;  187.100; 1176.000; 1187.000
466.364;  120.800;  950.000; 1060.000
466.484;  203.700; 1024.000; 1213.000
466.603;  160.100; 1101.000; 1222.000
466.722;  321.600; 1490.000; 1769.000
466.841;  243.400; 1151.000; 1401.000
466.960;  148.800; 1069.000;  972.000
467.079;  324.800; 1971.000; 1786.000
467.198;  194.700; 1238.000; 1181.000
467.317;  262.400; 1768.000; 1162.000
467.436;  233.500; 1709.000; 1261.000
467.555;  309.200; 1796.000; 1746.000
467.674;  230.100; 1227.000; 1329.000
467.793;  136.800; 1376.000; 1374.000
467.912;  286.600; 1658.000; 1539.000
468.031;  368.100; 2038.000; 1930.000
468.150;  430.500; 1842.000; 1837.000
468.269;  431.000; 2313.000; 2090.000
468.388;  473.800; 2168.000; 2339.000
468.507;  614.000; 2884.000; 2903.000
468.626;  632.500; 2555.000; 2541.000
468.744;  356.100; 2018.000; 2174.000
468.863;  527.300; 2312.000; 2523.000
468.982;  248.900; 1503.000; 1555.000
469.101;  535.400; 2788.000; 2692.000
469.220;  399.000; 2333.000; 2176.000
469.338;  622.300; 2935.000; 3051.000
469.457;  462.900; 2719.000; 2545.000
469.576;  791.600; 3953.000; 3784.000
469.695;  563.400; 2877.000; 3066.000
469.813;  910.400; 4148.000; 4192.000
469.932;  875.000; 4255.000; 4485.000
470.051;  987.800; 4075.000; 4161.000
470.169; 1806.700; 4470.000; 4338.000
470.288; 2824.000; 4700.000; 4809.000
470.406; 1643.900; 5059.000; 5194.000
470.525; 1346.300; 6101.000; 5787.000
470.644; 1385.800; 6847.000; 6794.000
470.762; 1726.400; 8397.000; 7873.000
470.881; 1927.600; 8651.000; 8464.000
470.999; 2137.600; 9685.000; 9151.000
471.118; 2328.700;11174.000;10711.000

