
Integration time [ms]: 100.000
Averaging Nr. [scans]: 40
Smoothing Nr. [pixels]: 0
Data measured with spectrometer [name]: 2101012U2
Wave   ;Sample   ;Dark     ;Reference
[nm]   ;[counts] ;[counts] ;[counts] 

197.733;   55.750;  516.000;  404.000
197.879;  -79.375; -610.000; -634.000
198.025;  -41.375; -475.000; -420.000
198.171;  -76.375; -602.000; -612.000
198.317;  -23.425; -401.000; -316.000
198.463;  -54.500; -655.000; -404.000
198.609;   31.675;  181.000; -137.000
198.755;  -88.225; -644.000; -410.000
198.901;  -53.350; -505.000; -424.000
199.047;  -63.375; -615.000; -488.000
199.193;  -40.225; -230.000; -468.000
199.339;  -41.600; -222.000; -369.000
199.485;   39.250;  330.000;  271.000
199.631;   15.575;  227.000;  310.000
199.777;  -48.825; -466.000; -398.000
199.923;  -44.300; -610.000; -424.000
200.069;   -1.950; -141.000;  -58.000
200.215;   50.875;  128.000;  453.000
200.361;   45.800;  243.000;  477.000
200.507;  -48.500; -600.000; -373.000
200.653;  -17.775; -371.000; -194.000
200.798;  -44.150; -215.000; -125.000
200.944;    5.850; -146.000;  -41.000
201.090;   29.325;   61.000;  222.000
201.236;    2.875; -116.000; -158.000
201.382;  128.850;  874.000;  903.000
201.528;   12.950;  -58.000;  -48.000
201.674;  -42.100; -386.000; -293.000
201.819;  -54.050; -540.000; -439.000
201.965;  -70.325; -699.000; -447.000
202.111;  -33.050; -273.000; -226.000
202.257;  -32.475; -250.000; -238.000
202.402;    4.100;   13.000;  -36.000
202.548;  -30.525; -169.000; -116.000
202.694;   77.775;  410.000; -183.000
202.840;  -70.875; -603.000; -531.000
202.985;  -60.975; -681.000; -639.000
203.131; -103.175; -832.000; -666.000
203.277;  -12.375; -199.000; -262.000
203.423;  -53.375; -434.000; -520.000
203.568;  -20.900; -462.000; -237.000
203.714;  -59.025; -535.000; -542.000
203.860;  -73.050; -682.000; -641.000
204.005;   15.975;  112.000;  167.000
204.151;   87.550;  561.000;  556.000
204.296;  -53.625; -354.000; -221.000
204.442;  -61.225; -600.000; -547.000
204.588;  -71.875; -592.000; -579.000
204.733;   29.125;  178.000;  168.000
204.879; -120.850;-1018.000; -822.000
205.025;   31.900;  -99.000;  126.000
205.170;    6.900;  -17.000;   94.000
205.316;   75.000;  438.000;  661.000
205.461;  -79.500; -698.000; -554.000
205.607;   99.275;  609.000;  665.000
205.752;  -73.000; -626.000; -551.000
205.898;  -40.000; -501.000; -391.000
206.043;  -57.200; -578.000; -506.000
206.189;  -28.500; -243.000; -285.000
206.334;   73.875;  554.000;  606.000
206.480;   77.200;  409.000;  239.000
206.625;  -83.625; -529.000; -552.000
206.771;  -48.575; -451.000; -373.000
206.916;  -16.375; -210.000; -537.000
207.062;  -62.225; -545.000; -591.000
207.207;  -54.550; -546.000; -443.000
207.353;   57.825;  185.000;  460.000
207.498;   18.700;  196.000;   85.000
207.643;  -39.700; -501.000; -370.000
207.789; -131.500;-1069.000; -910.000
207.934;  -86.400; -665.000; -713.000
208.080;  -21.050; -154.000;   66.000
208.225;    2.625;  -22.000;  -57.000
208.370;  -85.200; -727.000; -619.000
208.516;  -63.000; -741.000; -487.000
208.661;  -33.975; -127.000;  -69.000
208.806;  -16.625; -165.000; -171.000
208.952; -115.425;-1044.000; -731.000
209.097;   77.750;  378.000;  349.000
209.242;  -48.100; -307.000; -382.000
209.387;   73.900;  392.000;  350.000
209.533;  -49.000; -321.000; -350.000
209.678;   81.050;  472.000;  543.000
209.823;  -58.550; -408.000; -310.000
209.969;  -89.200; -860.000; -757.000
210.114; -101.850; -907.000; -719.000
210.259; -112.400; -939.000; -889.000
210.404;   -5.850; -171.000;  103.000
210.549;   22.900;  108.000;    3.000
210.695;   -0.150;   -3.000;  -95.000
210.840;   49.350;   94.000;   67.000
210.985;  -71.100; -484.000; -303.000
211.130;   69.800;  268.000;  406.000
211.275;   14.725;  207.000;  199.000
211.420;  -42.675; -300.000; -289.000
211.566;  -64.275; -536.000; -489.000
211.711;   18.350;  218.000;  157.000
211.856;  -81.475; -545.000; -519.000
212.001;   18.025;  151.000;   44.000
212.146;   17.150;  153.000;   49.000
212.291;   -9.325; -210.000; -186.000
212.436;  -21.800; -280.000;   -6.000
212.581;  -78.975; -685.000; -653.000
212.726;  -72.775; -487.000; -538.000
212.871;  -39.600; -552.000; -217.000
213.016; -144.675;-1172.000;-1029.000
213.161;   66.350;  406.000;  291.000
213.306;  -79.575; -435.000; -577.000
213.451;  -96.300; -778.000; -689.000
213.596;  -49.825; -455.000; -347.000
213.741;  -37.900; -448.000; -538.000
213.886;  -71.625; -498.000; -517.000
214.031;  -31.350; -294.000; -124.000
214.176;  -51.075; -408.000; -341.000
214.321;  -13.950; -296.000; -157.000
214.466;  -28.700; -163.000;  -43.000
214.611;    8.625;  -61.000;  -10.000
214.756; -128.700; -948.000; -858.000
214.901;  -11.925; -388.000; -226.000
215.046; -103.175; -797.000; -825.000
215.191;   11.400;  128.000;   35.000
215.336;  -29.425; -157.000;  -19.000
215.480;  -61.350; -684.000; -505.000
215.625;  -12.200; -175.000;  -19.000
215.770;  -78.125; -757.000; -662.000
215.915;    0.275;   -5.000;  -97.000
216.060;    6.200; -113.000;  -21.000
216.205; -115.475; -731.000; -779.000
216.349;  -66.325; -470.000; -533.000
216.494; -139.150; -939.000; -867.000
216.639; -111.275; -823.000; -888.000
216.784;  -84.350; -577.000; -525.000
216.929;   51.925;  392.000;  281.000
217.073;  -20.800; -244.000;  -31.000
217.218;   14.375;   78.000;  -47.000
217.363;  -91.900; -656.000; -618.000
217.507;  -64.925; -623.000; -588.000
217.652; -120.925; -845.000; -874.000
217.797;  -71.000; -708.000; -659.000
217.942; -100.175; -856.000; -720.000
218.086;   78.125;  608.000;  539.000
218.231;  -20.825; -174.000;  -26.000
218.376;  -22.750; -337.000; -229.000
218.520;   -3.825;  -41.000;   96.000
218.665;  -16.725; -338.000; -204.000
218.810;  -36.125; -275.000; -233.000
218.954;   18.550;  201.000;   35.000
219.099; -104.850; -713.000; -963.000
219.243;  -60.200; -589.000; -554.000
219.388;  -31.625; -264.000; -136.000
219.532;    2.400; -116.000; -116.000
219.677;  -75.975; -564.000; -521.000
219.822;    2.050;   33.000;   89.000
219.966;    8.250;   17.000;  -99.000
220.111;  -33.475; -328.000;  -40.000
220.255;  -95.750; -797.000; -750.000
220.400;  -28.975; -180.000; -146.000
220.544;  -69.100; -516.000; -450.000
220.689;  -52.575; -422.000; -451.000
220.833;   -9.425; -123.000;  -58.000
220.978;  -50.800; -393.000; -563.000
221.122;   13.725;  319.000;  307.000
221.267; -108.750; -906.000; -837.000
221.411;  -73.600; -478.000; -394.000
221.555;    0.725; -104.000;  -23.000
221.700;  -39.875; -329.000; -222.000
221.844;   39.150;  255.000;  272.000
221.989;  -28.250; -328.000; -311.000
222.133;  -27.825; -289.000; -307.000
222.277;   -0.700;    5.000;   78.000
222.422;   11.025;  227.000;  113.000
222.566;  -37.650; -381.000; -214.000
222.711;  -45.250; -414.000; -479.000
222.855;  -74.950; -643.000; -586.000
222.999;  -87.575; -642.000; -717.000
223.144;  -31.775; -195.000; -194.000
223.288;   50.750;  423.000;  251.000
223.432;   17.125;  184.000;  230.000
223.576;   22.625;  152.000;  -21.000
223.721;   34.700;  364.000;  273.000
223.865;  -62.375; -472.000; -475.000
224.009;  245.475; 1673.000; 1631.000
224.153;  -75.300; -660.000; -671.000
224.298;  -62.475; -531.000; -489.000
224.442;   -4.475;  -74.000;  -33.000
224.586;  -20.925; -169.000; -106.000
224.730;  -93.500; -858.000; -670.000
224.875; -112.600; -739.000; -688.000
225.019;   15.050;  102.000;  188.000
225.163;   39.550;  208.000;  341.000
225.307;   20.350;   97.000;  -91.000
225.451;   46.125;  360.000;  481.000
225.595;   32.725;  264.000;  176.000
225.739;  -15.900; -170.000;  -94.000
225.884;    7.150;   86.000;    5.000
226.028;  -92.450; -760.000; -626.000
226.172;  -36.375; -260.000; -273.000
226.316; -123.550; -941.000; -902.000
226.460;  -62.000; -645.000; -493.000
226.604;  -55.175; -406.000; -400.000
226.748;  -84.350; -836.000; -733.000
226.892;  -42.525; -227.000; -181.000
227.036;  -41.250; -537.000; -447.000
227.180;  -58.575; -551.000; -375.000
227.324;  -70.500; -561.000; -580.000
227.468; -112.275; -819.000; -717.000
227.612;   14.800;  242.000;  -28.000
227.756;  -96.100; -845.000; -698.000
227.900;   68.975;  342.000;  441.000
228.044;  -47.550; -509.000; -290.000
228.188;   57.975;  448.000;  568.000
228.332;  -85.975; -546.000; -472.000
228.476;  -27.400; -223.000; -149.000
228.620;  -37.300; -210.000; -150.000
228.764;   71.025;  431.000;  349.000
228.908;  -16.175; -155.000;   30.000
229.052;  -59.425; -615.000; -528.000
229.195;   -9.700; -172.000;   13.000
229.339;  -22.025; -235.000; -305.000
229.483;  -19.825;    5.000; -162.000
229.627;   -5.100; -156.000;  139.000
229.771;  -38.425; -218.000; -294.000
229.915;   31.600;  230.000;   79.000
230.059;  -82.900; -648.000; -663.000
230.202;  -33.225; -370.000; -317.000
230.346;  -31.650; -107.000;  107.000
230.490;  -54.175; -489.000; -521.000
230.634; -105.650; -736.000; -553.000
230.777;   68.175;  478.000;  509.000
230.921;  -55.375; -450.000; -359.000
231.065;  -33.250; -246.000; -286.000
231.209;   32.625;  261.000;  265.000
231.352;   21.225;   54.000;   40.000
231.496;   16.425;  568.000;  188.000
231.640;  -70.500; -693.000; -621.000
231.783;   66.350;  546.000;  525.000
231.927;  -32.000; -294.000; -365.000
232.071; -125.100; -962.000; -736.000
232.214;  -99.125; -980.000; -764.000
232.358;  -94.350; -683.000; -599.000
232.502;   12.300;  -19.000;    7.000
232.645; -136.075;-1090.000; -927.000
232.789;  -24.600; -257.000; -218.000
232.933;  -49.975; -407.000; -224.000
233.076; -109.625;-1038.000; -897.000
233.220; -107.525; -752.000; -777.000
233.363;  -72.900; -669.000; -477.000
233.507;   49.525;  371.000;  129.000
233.650;  -93.175; -764.000; -834.000
233.794;   32.650;  438.000;  461.000
233.938;  -56.425; -530.000; -362.000
234.081;  -15.175;  -93.000;   31.000
234.225;  -77.350; -631.000; -539.000
234.368; -112.225; -773.000; -723.000
234.512;  -23.300; -385.000; -299.000
234.655;  -85.200; -582.000; -555.000
234.798;  -48.675; -493.000; -466.000
234.942; -124.150; -884.000;-1002.000
235.085;  -72.775; -651.000; -443.000
235.229;  -66.175; -405.000; -410.000
235.372;  -41.425; -247.000; -191.000
235.516;  -52.725; -397.000; -321.000
235.659;   30.750;   92.000;  121.000
235.802;  -15.825;  -38.000;  -22.000
235.946;   27.750;  335.000;  215.000
236.089;   25.400;  126.000;  250.000
236.233;   41.400;  275.000;  298.000
236.376;  -45.050; -235.000; -378.000
236.519;  -51.825; -297.000; -319.000
236.663;  -31.575; -215.000; -117.000
236.806; -118.800;-1029.000; -999.000
236.949;   40.275;  543.000;  431.000
237.092;   54.800;  412.000;  391.000
237.236;  -88.825; -589.000; -502.000
237.379;   58.600;  352.000;  428.000
237.522; -112.225; -879.000; -768.000
237.666;  -22.725; -271.000;   18.000
237.809; -122.475; -851.000; -823.000
237.952;   45.400;  469.000;  271.000
238.095;  -63.425; -447.000; -442.000
238.238;  100.275;  688.000;  700.000
238.382;  -10.725;  166.000;  103.000
238.525;  -66.175; -598.000; -511.000
238.668; -150.575;-1060.000; -985.000
238.811;  -74.475; -638.000; -643.000
238.954;  -68.575; -483.000; -334.000
239.097;   82.675;  617.000;  664.000
239.241;   26.425;  394.000;  326.000
239.384;  -28.725; -254.000; -214.000
239.527;  -54.975; -424.000; -224.000
239.670; -132.775; -994.000;-1091.000
239.813;  -98.600; -696.000; -658.000
239.956;   74.300;  579.000;  473.000
240.099; -110.125; -778.000; -725.000
240.242;   57.975;  428.000;  432.000
240.385;   39.900;  466.000;  450.000
240.528;  -61.175; -706.000; -473.000
240.671;   12.500;  189.000;  134.000
240.814;  -30.900; -441.000; -158.000
240.957; -113.200; -767.000; -578.000
241.100;  -79.175; -779.000; -755.000
241.243; -139.475;-1234.000; -893.000
241.386;  -70.550; -508.000; -379.000
241.529;  -88.750; -735.000; -547.000
241.672;  -60.150; -566.000; -495.000
241.815; -111.875; -832.000; -808.000
241.958;  -27.150; -125.000; -182.000
242.101;  -82.875; -545.000; -390.000
242.244;  -34.250; -270.000; -325.000
242.387;  -51.075; -304.000; -246.000
242.530;   53.800;  470.000;  134.000
242.673;  -42.425; -381.000; -309.000
242.815; -110.250; -925.000; -899.000
242.958;  -68.700; -482.000; -381.000
243.101;   11.975;  132.000;  187.000
243.244;  -78.425; -564.000; -521.000
243.387;  -39.975; -313.000; -316.000
243.530;  -97.975; -657.000; -674.000
243.672;   11.100;   43.000;  -92.000
243.815;  -58.100; -355.000; -283.000
243.958;    3.700;   98.000;  -26.000
244.101;   -3.850;   59.000;  -16.000
244.243;   -7.725;  -47.000;  101.000
244.386; -113.700; -761.000; -630.000
244.529;  -11.750; -132.000; -139.000
244.672; -159.850;-1154.000; -951.000
244.814;  -97.375; -621.000; -794.000
244.957;  -39.500; -380.000; -304.000
245.100;  -71.550; -489.000; -489.000
245.242;  -63.000; -387.000; -374.000
245.385;   -9.225;  -59.000;  -39.000
245.528; -125.500; -871.000; -705.000
245.670;   86.225;  612.000;  634.000
245.813;  -85.400; -599.000; -547.000
245.956;  -30.775; -324.000; -275.000
246.098;  -70.275; -508.000; -650.000
246.241;    2.300;  194.000;   48.000
246.383;  -20.900; -119.000;  -73.000
246.526;  -74.375; -454.000; -525.000
246.669; -117.225; -889.000; -780.000
246.811;   18.775;  172.000;   -1.000
246.954;  -65.650; -512.000; -426.000
247.096;  -18.275;  -84.000;   -6.000
247.239;  -61.025; -482.000; -445.000
247.381;  -62.525; -647.000; -488.000
247.524;   66.475;  645.000;  679.000
247.666;   -6.250;   58.000;   11.000
247.809; -111.900; -887.000; -691.000
247.951;  -12.125;  -75.000;  138.000
248.094;   19.975;  432.000;  308.000
248.236; -148.400;-1262.000;-1238.000
248.378;    4.950; -356.000;  -81.000
248.521;  -17.625; -334.000; -337.000
248.663;  -49.175; -236.000; -267.000
248.806;  -16.025; -300.000; -266.000
248.948;  -81.100; -886.000; -763.000
249.090;  -35.675; -428.000; -398.000
249.233;  -38.475; -344.000; -381.000
249.375;  -51.400; -474.000; -451.000
249.518;  -22.150;  -83.000; -133.000
249.660;   -2.100; -103.000;    3.000
249.802; -164.200;-1303.000;-1189.000
249.945;  -66.825; -612.000; -540.000
250.087; -110.700; -834.000; -768.000
250.229;  -50.550; -362.000; -480.000
250.371;  -68.225; -494.000; -439.000
250.514;  -55.825; -310.000; -244.000
250.656;  -63.425;   69.000;  102.000
250.798; -105.975; -849.000; -800.000
250.940;  -69.500; -322.000; -322.000
251.083;  -26.150; -335.000; -111.000
251.225;   42.200;  338.000;  310.000
251.367;  -33.500; -274.000; -373.000
251.509;  -42.100; -265.000; -210.000
251.651; -102.700; -731.000; -671.000
251.794;   39.950;  538.000;  632.000
251.936;  -95.275; -821.000; -747.000
252.078;  -77.700; -540.000; -461.000
252.220;  -75.600; -645.000; -477.000
252.362;   85.475;  344.000;  462.000
252.504;  -69.050; -677.000; -584.000
252.646; -100.650; -875.000; -722.000
252.788;    4.275;   14.000; -128.000
252.931;  -37.775; -257.000; -253.000
253.073;  -32.775; -376.000; -317.000
253.215;   -8.375;  141.000;  122.000
253.357;  -18.600;   82.000; -153.000
253.499;  -48.425; -374.000; -234.000
253.641;  -78.325; -749.000; -594.000
253.783;  -75.550; -609.000; -527.000
253.925;  -79.150; -586.000; -591.000
254.067; -112.200; -744.000; -667.000
254.209;  -19.525; -391.000; -259.000
254.351; -132.950; -865.000; -883.000
254.493;  -46.500; -441.000; -417.000
254.635; -128.075; -936.000; -818.000
254.777;  -90.250; -752.000; -687.000
254.918;  -78.575; -512.000; -430.000
255.060;  -54.825; -551.000; -395.000
255.202;  -55.775; -473.000; -261.000
255.344;  -69.600; -658.000; -455.000
255.486;  -69.525; -471.000; -406.000
255.628; -102.500; -780.000; -781.000
255.770;  -86.075; -676.000; -536.000
255.912;  -67.100; -559.000; -468.000
256.053;  -83.500; -730.000; -508.000
256.195;  154.425; 1008.000;  903.000
256.337; -107.775; -861.000; -595.000
256.479;   62.075;  532.000;  416.000
256.621;  -45.025; -394.000; -212.000
256.762;  -84.000; -789.000; -742.000
256.904;   53.725;  485.000;  487.000
257.046;  -40.475; -381.000; -271.000
257.188;  -42.200; -351.000; -264.000
257.329;  -69.175; -525.000; -464.000
257.471; -116.375; -939.000; -807.000
257.613;  -50.400; -584.000; -498.000
257.755; -145.075;-1073.000; -982.000
257.896;   44.550;  286.000;  392.000
258.038;  -70.250; -403.000; -352.000
258.180;  -36.100; -354.000; -279.000
258.321;  -92.800; -581.000; -457.000
258.463;   -0.275;  -71.000;  133.000
258.605;  -86.775; -562.000; -570.000
258.746; -105.725; -886.000; -772.000
258.888; -163.950;-1026.000;-1020.000
259.029;   24.275;  121.000;   -8.000
259.171;  -98.775; -614.000; -550.000
259.313;   -6.150;  -49.000;  -47.000
259.454;  -65.450; -536.000; -414.000
259.596;  -60.925; -483.000; -390.000
259.737;  -69.075; -590.000; -474.000
259.879;   40.625;  217.000;  311.000
260.020;   90.275;  901.000;  636.000
260.162;  -28.400; -146.000; -253.000
260.303; -117.175; -768.000; -687.000
260.445;  -74.650; -609.000; -613.000
260.586;   36.975;  392.000;  157.000
260.728;  -40.200; -360.000; -248.000
260.869; -109.575; -350.000; -343.000
261.011;   88.425;  706.000;  537.000
261.152;  -66.325; -479.000; -319.000
261.293;  -80.325; -576.000; -595.000
261.435;  -25.075; -219.000; -184.000
261.576;  -49.375; -455.000; -325.000
261.718;   46.350;  420.000;  470.000
261.859; -123.225; -940.000; -949.000
262.000; -127.650; -951.000;-1016.000
262.142;  -21.800;  -52.000;  -60.000
262.283; -109.825; -808.000; -691.000
262.424;  -86.050; -666.000; -625.000
262.566; -156.950;-1161.000; -983.000
262.707; -114.250; -840.000; -830.000
262.848; -116.150; -769.000; -726.000
262.990;  -59.775; -362.000; -345.000
263.131;   65.475;  650.000;  681.000
263.272;   -5.325;  -61.000;  -41.000
263.413;  -88.825; -589.000; -561.000
263.555;  -59.275; -669.000; -143.000
263.696;  -72.700; -550.000; -641.000
263.837;  -43.225; -449.000; -551.000
263.978;  -12.350;   -5.000;  -77.000
264.119;  -40.800; -283.000; -264.000
264.261; -116.550; -847.000; -630.000
264.402;    5.800;   33.000;   40.000
264.543;  -62.675; -509.000; -524.000
264.684;   -9.050;   61.000;  -50.000
264.825;  -81.400; -816.000; -538.000
264.966;   -7.450;  -84.000;  -67.000
265.107; -113.850; -646.000; -670.000
265.248; -105.200; -825.000; -812.000
265.390;   -7.225;  152.000;   -9.000
265.531;  -30.250; -238.000; -107.000
265.672;  -88.325; -557.000; -630.000
265.813;   55.475;  563.000;  439.000
265.954; -151.275; -959.000; -940.000
266.095;  -16.475; -372.000; -322.000
266.236; -101.050; -686.000; -548.000
266.377;  -45.625; -243.000; -297.000
266.518;  -73.075; -619.000; -547.000
266.659;   36.500;  170.000;  268.000
266.800;    3.200;   83.000;   85.000
266.941;  -81.100; -487.000; -478.000
267.082;   15.350;  354.000;   99.000
267.223;  -38.000; -344.000; -273.000
267.364; -111.400; -892.000; -686.000
267.504;  -11.100;    3.000;  135.000
267.645;  -17.850;  160.000;   67.000
267.786;  -17.300; -147.000;  -86.000
267.927;  -72.125; -473.000; -379.000
268.068;  -13.125; -186.000;  -61.000
268.209;  -42.475; -175.000; -413.000
268.350;  -47.450; -388.000; -532.000
268.490;  -82.350; -648.000; -521.000
268.631;   19.650;  127.000;  225.000
268.772; -105.850; -874.000; -647.000
268.913;  -43.650; -328.000; -476.000
269.054;  -14.450; -117.000;   12.000
269.194;  -38.700; -418.000; -402.000
269.335; -156.500;-1137.000;-1074.000
269.476;  -19.800;   33.000;  -35.000
269.617;  -45.625; -347.000; -392.000
269.757;  -83.000; -713.000; -646.000
269.898; -105.100; -856.000; -613.000
270.039;  -65.425; -415.000; -405.000
270.180; -132.825; -952.000; -816.000
270.320;  -32.750; -190.000; -250.000
270.461;  -40.175; -277.000; -249.000
270.602;  -11.100; -186.000; -156.000
270.742; -120.525; -868.000; -943.000
270.883;  -54.700; -442.000; -390.000
271.023;  -52.900; -358.000; -357.000
271.164;  -63.625; -607.000; -528.000
271.305; -111.600; -666.000; -654.000
271.445;  -78.425; -722.000; -683.000
271.586;  -64.100; -462.000; -283.000
271.726;  -34.025; -397.000; -322.000
271.867;  -52.775; -594.000; -534.000
272.008;  192.600; -473.000; -285.000
272.148;  125.225;  462.000;  468.000
272.289;   10.100; -113.000; -181.000
272.429;    3.375;   19.000;  185.000
272.570;  -89.200; -633.000; -737.000
272.710;  -75.200; -825.000; -775.000
272.851;  -12.150;  113.000; -130.000
272.991; -159.525;-1173.000;-1077.000
273.131;  -58.300; -419.000; -459.000
273.272; -101.800; -683.000; -723.000
273.412;   21.100; -143.000;  -31.000
273.553;  -54.275; -488.000; -507.000
273.693;  145.225;  913.000;  858.000
273.834;  -80.200; -894.000; -692.000
273.974;  -69.625; -664.000; -615.000
274.114; -105.825; -772.000; -560.000
274.255;   89.000;  414.000;  373.000
274.395;   17.225; -180.000; -125.000
274.535;   41.475;  199.000;  350.000
274.676;   13.050;  225.000;   94.000
274.816;    7.275;  110.000;   34.000
274.956;  -82.025; -624.000; -690.000
275.097;  -28.150;-1014.000; -922.000
275.237; -100.775; -913.000; -803.000
275.377;  -89.075; -778.000; -689.000
275.517; -153.950; -878.000; -937.000
275.658;  -42.675; -590.000; -555.000
275.798;  -47.675; -606.000; -413.000
275.938;   15.625;  215.000;  323.000
276.078;  -74.700; -626.000; -395.000
276.218;    3.600;   99.000;  104.000
276.359; -124.725;-1026.000;-1024.000
276.499;  -68.975; -605.000; -446.000
276.639;  -37.300; -305.000; -151.000
276.779;  -48.825; -475.000; -357.000
276.919;  -96.025; -783.000; -624.000
277.059;  -26.750; -261.000; -212.000
277.199;  -35.375; -357.000; -259.000
277.340;   52.300;  287.000;  175.000
277.480; -112.075; -840.000; -693.000
277.620;   25.950;  192.000;   16.000
277.760; -189.825;-1533.000;-1294.000
277.900;   22.850;  113.000;   33.000
278.040;   13.075;  137.000;  159.000
278.180;   41.150;  270.000;  170.000
278.320;   -2.225;   21.000;   56.000
278.460;  -69.450; -443.000; -469.000
278.600;  -85.325; -708.000; -598.000
278.740;   60.100;  448.000;  224.000
278.880;  -43.075; -768.000; -791.000
279.020;   -7.325; -194.000; -144.000
279.160;  -76.900; -672.000; -595.000
279.300; -111.875; -926.000; -873.000
279.440;  -91.025; -709.000; -622.000
279.579;    2.125;-1014.000; -929.000
279.719;  -50.425; -410.000; -394.000
279.859;   83.750;   -4.000;   41.000
279.999;   23.075; -208.000;  101.000
280.139;  -10.400; -435.000; -387.000
280.279;  -71.525; -708.000; -745.000
280.419;  -27.575; -229.000; -147.000
280.559;  -24.300; -259.000; -180.000
280.698;  -73.625; -790.000; -639.000
280.838;  -92.550; -778.000; -800.000
280.978;  -93.325; -846.000; -790.000
281.118; -121.950; -811.000; -704.000
281.257;   -7.325;   24.000;    6.000
281.397;  -98.650;-1094.000; -960.000
281.537;  -79.825; -599.000; -712.000
281.677;  -22.100; -150.000; -101.000
281.816;  -86.675; -700.000; -630.000
281.956;  -34.900; -193.000; -257.000
282.096;  -57.650; -539.000; -396.000
282.235; -107.425; -672.000; -638.000
282.375;   -8.950; -243.000;  -98.000
282.515;  -87.725; -715.000; -707.000
282.654;   37.575;   29.000;  106.000
282.794;   23.575;  388.000;  244.000
282.934;  -49.425; -530.000; -491.000
283.073; -125.325;-1030.000; -857.000
283.213;  -57.075; -460.000; -467.000
283.353;  -30.150; -408.000; -349.000
283.492;  -31.800; -264.000; -296.000
283.632;  -39.625; -254.000; -168.000
283.771;  -88.750; -859.000; -730.000
283.911;  -35.750; -369.000; -260.000
284.050;  -99.175; -794.000; -748.000
284.190; -151.150;-1229.000;-1096.000
284.329; -131.275;-1055.000; -964.000
284.469;  -57.850; -516.000; -591.000
284.608;  -46.775; -559.000; -598.000
284.748;  -85.250; -614.000; -570.000
284.887;   -7.475;  -87.000;  -20.000
285.027; -129.000; -844.000; -892.000
285.166;  -30.650; -192.000; -249.000
285.306;   12.125; -116.000;  -33.000
285.445;  -30.400; -229.000; -343.000
285.584;  -97.950; -630.000; -494.000
285.724;  -44.850; -282.000; -322.000
285.863; -103.250; -857.000; -507.000
286.002;  -40.000; -366.000; -276.000
286.142; -112.425; -715.000; -622.000
286.281;  -74.650; -525.000; -493.000
286.420;  -75.600; -554.000; -417.000
286.560;   89.075;  653.000;  623.000
286.699; -130.475; -958.000; -912.000
286.838;  -67.450; -590.000; -591.000
286.978;  -83.775; -533.000; -537.000
287.117; -119.150;-1085.000; -950.000
287.256;  -39.025; -228.000; -211.000
287.395;  -51.575; -197.000; -378.000
287.535;  -53.650; -370.000; -298.000
287.674;  -80.375; -509.000; -484.000
287.813;   48.700;  661.000;  533.000
287.952; -116.325;-1010.000; -871.000
288.091; -154.500;-1049.000; -915.000
288.231;   12.150;   13.000;   15.000
288.370; -169.425;-1217.000;-1200.000
288.509;  -83.650; -728.000; -645.000
288.648;  -91.725; -770.000; -548.000
288.787;  -29.475; -243.000;  -87.000
288.926;  -63.375; -454.000; -475.000
289.065;  111.550;  859.000;  672.000
289.204;  -54.350; -377.000; -217.000
289.344;  -75.450; -791.000; -690.000
289.483;   26.825;  416.000;  304.000
289.622;  -10.000; -291.000; -149.000
289.761;  -22.850; -309.000; -166.000
289.900;  -96.300; -785.000; -626.000
290.039;  -31.875;  -12.000;  -95.000
290.178;  -36.275; -274.000; -180.000
290.317;  -85.100; -618.000; -479.000
290.456;  -55.650; -463.000; -451.000
290.595; -123.975; -961.000; -833.000
290.734; -116.950; -904.000; -891.000
290.873;  -68.450; -456.000; -420.000
291.011;  -91.225; -833.000; -843.000
291.150;  -81.600; -770.000; -682.000
291.289;   -4.800; -343.000; -110.000
291.428; -112.175; -599.000; -480.000
291.567;  -43.550; -370.000; -442.000
291.706;   -9.500;  109.000;  154.000
291.845;  -88.200; -597.000; -505.000
291.984; -159.450;-1234.000;-1061.000
292.122;   72.025;  602.000;  582.000
292.261;   38.150;  620.000;  463.000
292.400;    8.925; -144.000;  211.000
292.539; -131.350; -959.000; -813.000
292.678;  -21.100; -325.000; -300.000
292.816; -147.375;-1136.000; -965.000
292.955;  -71.375; -844.000; -684.000
293.094;  -29.700; -173.000; -337.000
293.233;  -53.325; -556.000; -400.000
293.371;  -37.575; -225.000;  -84.000
293.510; -100.525; -866.000; -780.000
293.649; -123.425; -959.000; -924.000
293.787;  -34.050;-1083.000;-1012.000
293.926;  -15.075; -113.000;  -32.000
294.065;  -41.350; -379.000; -290.000
294.203;   35.125;  298.000;  406.000
294.342;   26.500;   74.000;  156.000
294.481; 5118.825;51180.000; -836.000
294.619;  -13.650; -425.000; -582.000
294.758; -132.575;-1230.000;-1137.000
294.896;   85.775; -125.000;    5.000
295.035; -125.275;-1040.000;-1006.000
295.174; -110.925;-1082.000; -954.000
295.312;  -32.625; -323.000; -203.000
295.451;    4.925; -307.000; -428.000
295.589;  -55.700; -389.000; -518.000
295.728;   36.750; -292.000; -165.000
295.866;   -0.275;  -36.000;  -51.000
296.005;  -59.275; -584.000; -341.000
296.143;  -69.075; -558.000; -596.000
296.282; -100.950; -957.000; -881.000
296.420;  -78.775; -657.000; -557.000
296.559;  -72.725; -892.000; -633.000
296.697;   49.825; -847.000; -665.000
296.835;   99.175;-1141.000;-1002.000
296.974;   43.525;  -23.000;   39.000
297.112;   24.875; -443.000; -504.000
297.251;  -70.500; -815.000; -755.000
297.389;  128.525; -576.000; -438.000
297.527;   36.150; -145.000;  -83.000
297.666;  -40.775; -486.000; -438.000
297.804;  -57.850; -404.000; -264.000
297.942;   -9.650; -136.000; -161.000
298.081;  -12.600; -183.000;   63.000
298.219;   81.200;  -17.000;  -19.000
298.357;   65.675; -144.000;  -71.000
298.495;   60.800; -810.000; -812.000
298.634;   83.000;  245.000;  219.000
298.772;   71.325; -220.000; -338.000
298.910;  -35.475; -309.000; -182.000
299.048;   -3.675; -130.000; -153.000
299.187;  -12.000; -350.000; -250.000
299.325;   32.425;   52.000;  122.000
299.463;   73.825; -389.000; -299.000
299.601;  133.450; -327.000; -271.000
299.739; -102.250; -908.000; -883.000
299.877;  -52.100; -791.000; -703.000
300.016;  -30.575;-1095.000; -935.000
300.154;  194.300;  -19.000; -161.000
300.292;   78.650; -428.000; -348.000
300.430;   50.250; -408.000; -291.000
300.568;  -95.250; -940.000; -874.000
300.706;  -30.925; -366.000; -469.000
300.844;  -77.350;-1108.000; -979.000
300.982;  122.250;  246.000;  282.000
301.120; -101.000; -965.000; -866.000
301.258;  -52.450; -812.000; -705.000
301.396;   56.050;  104.000;  -41.000
301.534;  118.300; -218.000; -293.000
301.672;   -1.375; -664.000; -521.000
301.810;   62.350; -613.000; -545.000
301.948;  131.300;   53.000;  149.000
302.086;  708.375; -250.000;  -32.000
302.224; 1067.900; -610.000; -585.000
302.362;   70.700; -558.000; -622.000
302.500;   -7.275; -923.000; -893.000
302.638;  118.700;  128.000;  245.000
302.776;    5.150; -352.000; -408.000
302.913;   55.675;  447.000;  236.000
303.051;    6.350;  -86.000;  -23.000
303.189;   62.300;   90.000;  118.000
303.327;  -41.825; -341.000; -256.000
303.465;  -87.725; -832.000; -588.000
303.603; -100.625; -805.000; -604.000
303.740;  119.925;  417.000;  241.000
303.878;   40.925; -800.000; -759.000
304.016;  -78.600; -915.000; -790.000
304.154; -109.000;-1123.000;-1152.000
304.291;  -26.350; -505.000; -554.000
304.429;   11.225;  102.000;   74.000
304.567; -116.600; -908.000; -893.000
304.705;  -51.300; -408.000; -515.000
304.842;  126.900; -616.000; -540.000
304.980;   47.725;  215.000;   35.000
305.118;   70.650; -367.000; -365.000
305.255;  -55.075; -945.000; -927.000
305.393;   59.200;  178.000;  239.000
305.531;  -93.025;-1173.000; -956.000
305.668;  -59.350; -663.000; -582.000
305.806;  114.175; -358.000; -439.000
305.943;  135.950; -629.000; -637.000
306.081;   63.875; -378.000; -267.000
306.219; -106.400; -863.000; -748.000
306.356;    6.575;  158.000;   27.000
306.494;  110.525;  981.000;  761.000
306.631;   -0.550;  -11.000;  -55.000
306.769;   23.250; -613.000; -485.000
306.906;  -16.225; -284.000; -258.000
307.044;  -49.225; -473.000; -488.000
307.181;  -59.950; -410.000; -332.000
307.319;   23.125;  112.000;   87.000
307.456; -150.050;-1191.000;-1153.000
307.594;  -85.500; -980.000; -727.000
307.731;    4.125; -371.000; -164.000
307.868;    6.225;  -15.000;   20.000
308.006; -136.000; -961.000; -847.000
308.143;  -54.550; -618.000; -330.000
308.281;  203.400;  -37.000; -254.000
308.418;   10.975; -748.000; -640.000
308.555;  -61.300; -400.000; -250.000
308.693;  -64.175; -577.000; -573.000
308.830; -105.350; -712.000; -657.000
308.967;   -8.375; -215.000;  -95.000
309.105;  -32.700; -507.000; -396.000
309.242;   75.775; -468.000; -367.000
309.379;  402.650; -577.000; -655.000
309.517;  -28.900; -936.000; -948.000
309.654; -107.675; -910.000; -734.000
309.791;  -61.675; -662.000; -580.000
309.928; -121.025; -977.000; -914.000
310.065;  186.125;  819.000;  697.000
310.203;    7.175; -825.000; -850.000
310.340;   12.500; -465.000; -321.000
310.477;  -69.000; -412.000; -516.000
310.614;  -53.650; -383.000; -473.000
310.751;  -78.575; -427.000; -518.000
310.889;   -9.975;    1.000;   11.000
311.026; -143.075;-1161.000; -939.000
311.163;  -39.175; -386.000; -380.000
311.300;  -66.250; -512.000; -479.000
311.437;  -67.075; -658.000; -619.000
311.574; -151.025;-1226.000; -985.000
311.711;  -52.125; -595.000; -433.000
311.848;  -44.000; -380.000; -388.000
311.985;    8.475;  270.000;   93.000
312.122; -116.700; -932.000; -762.000
312.259; -113.375; -941.000; -994.000
312.396;  -72.200; -508.000; -551.000
312.533;  -78.600; -812.000; -790.000
312.670; -121.775;-1070.000; -898.000
312.807;  -31.975; -352.000; -367.000
312.944;  -83.850; -513.000; -611.000
313.081;  -26.200; -150.000; -415.000
313.218;  -93.075;-1111.000; -867.000
313.355;   20.875; -531.000; -449.000
313.492;   15.550; -455.000; -292.000
313.629;  127.225;  815.000;  735.000
313.766; -153.400;-1176.000;-1008.000
313.902;  -10.775; -186.000;   21.000
314.039;  -47.450; -372.000; -289.000
314.176;   21.350;  286.000;  192.000
314.313;  -71.450; -569.000; -473.000
314.450;  -66.300; -788.000; -684.000
314.587;  -50.225; -468.000; -480.000
314.723;    7.625;  -78.000;  130.000
314.860;   27.900;  318.000;  332.000
314.997;   33.600;  223.000;  142.000
315.134;  -42.200; -385.000; -368.000
315.270;  -18.075; -480.000; -496.000
315.407; -116.400;-1094.000; -967.000
315.544;  -24.850; -657.000; -538.000
315.681;  -55.875; -681.000; -565.000
315.817;   37.275; -133.000; -176.000
315.954;   25.275; -613.000; -392.000
316.091; -113.225;-1045.000;-1023.000
316.227;  -23.675;  -71.000; -179.000
316.364;   11.675;   23.000;    6.000
316.500;  -44.275; -113.000; -300.000
316.637;  -32.600; -181.000; -302.000
316.774;  -77.600; -625.000; -358.000
316.910;  -96.475; -598.000; -629.000
317.047;  -65.000; -487.000; -351.000
317.183;  -25.950; -435.000; -566.000
317.320;  -21.050; -367.000; -321.000
317.456;  -79.550; -733.000; -805.000
317.593;  -88.250; -598.000; -641.000
317.729;   10.725;  168.000;  -67.000
317.866; -180.275;-1434.000;-1285.000
318.002;  -76.975; -708.000; -948.000
318.139;  -88.650; -883.000; -867.000
318.275;  -92.725;-1003.000; -738.000
318.412;  -60.025; -517.000; -336.000
318.548;  -15.650; -751.000; -720.000
318.685;  -87.325; -985.000; -888.000
318.821;  -75.425; -762.000; -735.000
318.957;  -19.600;   34.000;  -23.000
319.094;   38.900;  297.000;  154.000
319.230;  -50.975; -756.000; -742.000
319.367;  169.300; -471.000; -520.000
319.503;   81.875; -538.000; -436.000
319.639;  -90.975; -877.000; -793.000
319.775;  -58.000; -750.000; -685.000
319.912;  -48.700; -424.000; -519.000
320.048;  -74.725;-1184.000;-1184.000
320.184;   88.150;   59.000;   70.000
320.321;  -64.800; -497.000; -467.000
320.457;   61.350;  475.000;  662.000
320.593;  -70.025; -375.000; -382.000
320.729;  -94.925; -732.000; -734.000
320.866;  -76.450; -577.000; -635.000
321.002;  -78.775; -759.000; -809.000
321.138;   -8.950; -135.000; -211.000
321.274;   85.750; -148.000; -115.000
321.410;  -32.875; -585.000; -353.000
321.546;  -10.200;-1011.000; -911.000
321.683;   62.675;  400.000;  185.000
321.819;   23.450;  -48.000; -117.000
321.955; -108.525; -743.000; -722.000
322.091;  -31.875; -585.000; -540.000
322.227;   -6.125; -382.000; -202.000
322.363;  -11.050; -320.000; -215.000
322.499;  -41.200; -343.000; -331.000
322.635;  183.150;  636.000;  443.000
322.771;   22.875; -139.000;   12.000
322.907;   92.975;  129.000;  327.000
323.043;  -26.525; -115.000; -206.000
323.179;  -30.150; -394.000; -363.000
323.315;   20.275; -401.000; -371.000
323.451;  130.875; -328.000; -236.000
323.587;   73.600;  -60.000;  -77.000
323.723;   34.275; -682.000; -601.000
323.859;   -9.975; -258.000;  -76.000
323.995;  -25.100; -467.000; -409.000
324.131; -110.950; -967.000; -892.000
324.267;  -42.550; -254.000; -276.000
324.402; -117.475; -960.000; -983.000
324.538;   -5.800; -279.000; -104.000
324.674;   24.250;  164.000;   77.000
324.810;  158.925;  226.000;  308.000
324.946;   10.950; -810.000; -658.000
325.082;  -57.550; -568.000; -475.000
325.217;  -11.650;  -62.000;   16.000
325.353;  -91.525; -764.000; -659.000
325.489;  -88.250; -540.000; -506.000
325.625;  -69.875; -579.000; -525.000
325.760;   63.150;  517.000;  376.000
325.896;  -19.675; -515.000; -702.000
326.032;  -56.850; -403.000; -352.000
326.168;  -53.525; -462.000; -369.000
326.303;  -70.725; -352.000; -461.000
326.439;  -11.350; -336.000; -276.000
326.575;   10.075; -190.000;  -29.000
326.710;   14.050; -156.000;  -30.000
326.846;  -13.775;  146.000;  103.000
326.982;  -89.250; -530.000; -548.000
327.117;  -68.400; -481.000; -442.000
327.253;  -73.975; -745.000; -742.000
327.388; -154.400;-1137.000;-1153.000
327.524;  -39.150; -811.000; -578.000
327.659;  -27.575;  -58.000;  -22.000
327.795;   -3.900;   69.000;   45.000
327.931;  -89.625; -723.000; -499.000
328.066;  -11.800; -417.000; -276.000
328.202;  -30.550;   12.000; -129.000
328.337;  100.525;  957.000;  713.000
328.473;   36.725;  -12.000;  -74.000
328.608;  -15.975; -256.000; -267.000
328.743;  -82.850; -799.000; -664.000
328.879;   20.475;  214.000;  114.000
329.014;  -39.050; -102.000; -122.000
329.150;  -76.475; -358.000; -483.000
329.285;  -71.275; -465.000; -466.000
329.421;  -45.750; -548.000; -246.000
329.556;  -21.625;  -36.000;   85.000
329.691;  -83.325; -633.000; -615.000
329.827;  -85.000; -626.000; -480.000
329.962;  -32.875;  131.000; -301.000
330.097;  -93.725; -673.000; -585.000
330.233;  -43.200; -410.000; -223.000
330.368; -132.125; -839.000; -628.000
330.503;  -25.800;    3.000;   98.000
330.638;    2.625;  -93.000; -125.000
330.774;  -56.000; -609.000; -530.000
330.909;  -55.000; -434.000; -244.000
331.044;  -90.525; -714.000; -708.000
331.179; -170.425;-1217.000;-1109.000
331.315;   13.150;   77.000;   20.000
331.450;   23.100;  157.000;  285.000
331.585;  -73.975; -805.000; -706.000
331.720;  -95.650; -510.000; -460.000
331.855;    4.800;  -35.000; -102.000
331.990;  239.400;   62.000;  138.000
332.126;  127.025; -110.000;   71.000
332.261;  -13.725; -379.000; -265.000
332.396;  -12.800; -135.000; -242.000
332.531;  -93.825;-1074.000;-1031.000
332.666;   24.250; -519.000; -363.000
332.801;  -90.725; -726.000; -807.000
332.936;  -26.550; -192.000; -122.000
333.071; -136.275; -870.000; -817.000
333.206;   10.050;  307.000;  379.000
333.341;   28.725;  344.000;  418.000
333.476;  -83.125; -627.000; -623.000
333.611;  -36.450; -251.000; -173.000
333.746;  -41.675; -381.000; -464.000
333.881; -109.475; -973.000; -935.000
334.016; -121.950; -936.000; -917.000
334.151; -123.000; -746.000; -702.000
334.286;   42.750;  152.000;  186.000
334.421;  -26.200; -125.000; -178.000
334.556;  -72.050; -611.000; -567.000
334.690;  -87.075; -631.000; -577.000
334.825;   54.250;  381.000;   83.000
334.960;  -57.600; -285.000; -413.000
335.095;   13.225;  135.000;  -91.000
335.230;  -96.100; -722.000; -738.000
335.365; -119.200;-1084.000; -990.000
335.499; -117.375;-1108.000;-1037.000
335.634;   22.325;    9.000;  534.000
335.769;  -90.200; -755.000; -720.000
335.904;  -50.125; -603.000; -561.000
336.038;  -49.900; -735.000; -657.000
336.173; -104.925;-1206.000;-1194.000
336.308;   16.600; -116.000; -189.000
336.443;    6.850; -544.000; -634.000
336.577;  -65.225; -936.000; -787.000
336.712;   79.400;   -4.000;  -12.000
336.847;  -13.425; -724.000; -607.000
336.981;   92.100; -272.000; -208.000
337.116;  290.400;  615.000;  501.000
337.250;  181.575; -434.000; -421.000
337.385;  230.075; -297.000; -208.000
337.520;   88.350; -632.000; -603.000
337.654;  -34.550; -215.000; -126.000
337.789; -109.800; -989.000; -933.000
337.923;  -32.475; -104.000; -205.000
338.058;  -77.500; -673.000; -738.000
338.192;  -33.675; -611.000; -488.000
338.327;   -1.300;  -18.000; -155.000
338.461;  -55.875; -299.000; -469.000
338.596;  -86.025; -780.000; -638.000
338.730;  -96.325; -767.000; -803.000
338.865;   85.950;  -46.000; -140.000
338.999;  -65.100; -846.000; -702.000
339.134;  -33.325; -634.000; -536.000
339.268;   35.050; -741.000; -603.000
339.403;  359.300; -740.000; -775.000
339.537;  106.025; -894.000; -820.000
339.671; -102.400; -829.000; -813.000
339.806;  -58.700; -556.000; -512.000
339.940;   10.375; -261.000; -235.000
340.074;  -91.375; -685.000; -510.000
340.209;  -38.250; -351.000; -230.000
340.343;  -87.700; -517.000; -573.000
340.477;  144.850;  998.000; 1036.000
340.612;  -70.250;-1033.000; -900.000
340.746;  123.725; -199.000; -243.000
340.880;  -55.550; -924.000; -785.000
341.014;  -14.600;  -45.000; -154.000
341.149; -129.250; -756.000; -718.000
341.283; -100.975; -839.000; -754.000
341.417;  -80.650;-1124.000; -938.000
341.551;  175.250; -768.000; -708.000
341.685;  -38.000; -633.000; -611.000
341.820;  -46.675; -562.000; -493.000
341.954;  -48.750; -218.000; -349.000
342.088; -144.700;-1102.000;-1019.000
342.222;   51.125;  565.000;  618.000
342.356;  -56.950; -395.000; -335.000
342.490;  -82.925; -880.000; -841.000
342.624;  -43.850; -339.000; -242.000
342.758;    5.425; -364.000; -312.000
342.892;  -46.450; -710.000; -585.000
343.026;  -50.400;  -58.000; -116.000
343.160;  -57.900; -426.000; -376.000
343.294;  -75.000; -474.000; -337.000
343.428;    0.625; -488.000; -448.000
343.562;   -4.475; -172.000;  -23.000
343.696;   -7.525; -385.000; -314.000
343.830;    3.825; -362.000; -356.000
343.964;   22.400; -231.000; -168.000
344.098; 1040.550;  199.000;   70.000
344.232;  862.475; -266.000; -127.000
344.366;   85.325; -567.000; -453.000
344.500;   93.500; -665.000; -744.000
344.634;   52.650; -324.000; -164.000
344.768;  -11.075; -531.000; -341.000
344.902;   27.775;  278.000;  256.000
345.035;  -65.450; -556.000; -496.000
345.169; -120.225; -933.000; -656.000
345.303;  -13.200; -308.000; -482.000
345.437;  -59.350; -826.000; -717.000
345.571;  -75.625; -675.000; -594.000
345.704;  -50.650; -309.000; -532.000
345.838;  -13.175; -331.000; -284.000
345.972;  -28.775; -543.000; -495.000
346.106;  162.975; -179.000; -190.000
346.239;  435.475; -312.000; -243.000
346.373;   23.075; -343.000; -302.000
346.507; -128.200; -950.000; -962.000
346.640;  179.875;  -30.000;   13.000
346.774;  -28.325; -650.000; -797.000
346.908;  -11.025; -138.000;  -11.000
347.041; -107.900; -646.000; -593.000
347.175;    8.600;  259.000;   27.000
347.309;  -75.350; -698.000; -628.000
347.442;  -90.350; -883.000; -732.000
347.576;  295.600;  670.000;  668.000
347.709;  232.850; -123.000;  -52.000
347.843;  -77.850; -933.000; -825.000
347.976;   29.600;  235.000;  294.000
348.110; -174.275;-1268.000;-1186.000
348.243;  -89.025; -679.000; -772.000
348.377;   -3.375;  -26.000;   60.000
348.510;   52.850;  403.000;  540.000
348.644;  -28.725;  -37.000; -159.000
348.777;  -14.775;  180.000;  191.000
348.911;  -44.175; -142.000; -112.000
349.044;  181.675;  471.000;  448.000
349.178;  198.575;-1069.000;-1006.000
349.311;  110.850;  141.000;  255.000
349.444;  -13.300; -927.000; -813.000
349.578;  -15.300; -347.000; -200.000
349.711;  -87.975; -959.000; -862.000
349.845;   14.775; -661.000; -591.000
349.978; -145.750;-1224.000;-1137.000
350.111;  -67.725; -546.000; -612.000
350.244;  -65.850; -596.000; -700.000
350.378;   28.000; -392.000; -393.000
350.511;  -70.925; -393.000; -426.000
350.644; -100.350; -808.000; -806.000
350.778;   10.125;  168.000;  104.000
350.911;    7.250;  134.000;  140.000
351.044; -101.950; -685.000; -615.000
351.177;  -12.375; -321.000; -281.000
351.310;  -16.200;    3.000; -131.000
351.444;  -52.675; -888.000; -788.000
351.577;  122.025;  140.000;   90.000
351.710;  101.750;  593.000;  417.000
351.843;  -35.400; -165.000;  -77.000
351.976;    9.200;  149.000;  -79.000
352.109;  -86.475; -621.000; -612.000
352.242;   -3.775; -464.000; -419.000
352.376;  -58.500; -580.000; -636.000
352.509;  211.425; -437.000; -356.000
352.642;   36.200; -654.000; -604.000
352.775;   59.275; -141.000;  -98.000
352.908; -109.025; -933.000; -904.000
353.041;  -95.450; -814.000; -824.000
353.174;  -55.950; -551.000; -424.000
353.307;  -77.700; -753.000; -764.000
353.440;   75.775;  541.000;  453.000
353.573;  -91.100; -957.000;-1008.000
353.706;  -30.100; -384.000; -558.000
353.839;    2.825; -264.000; -220.000
353.971;  -78.925; -657.000; -512.000
354.104;  -64.450; -896.000; -835.000
354.237;  -18.575; -627.000; -662.000
354.370;  -79.075; -846.000; -879.000
354.503; -171.525;-1231.000;-1308.000
354.636;  -22.850; -529.000; -348.000
354.769; -126.050; -937.000; -860.000
354.902;    3.725; -230.000; -139.000
355.034;  -29.150; -164.000; -220.000
355.167;  -19.675; -262.000; -162.000
355.300;  -76.775;-1061.000; -880.000
355.433;  961.350;  -71.000;  -14.000
355.565; 1493.850; -402.000; -384.000
355.698;  380.075; -356.000; -296.000
355.831;   11.975; -882.000; -801.000
355.964;   85.850; -285.000; -170.000
356.096;  -56.550; -856.000; -843.000
356.229;   20.625; -523.000; -530.000
356.362;  323.400; -373.000; -266.000
356.494;  586.050; -229.000; -162.000
356.627;  540.475;  269.000;  377.000
356.760;  668.600;  120.000;   53.000
356.892;  926.600; -286.000; -601.000
357.025;  750.750;  403.000;  389.000
357.157;  699.525; -167.000; -179.000
357.290;  635.400; -856.000; -713.000
357.423;  187.700; -667.000; -556.000
357.555;  127.425; -217.000; -228.000
357.688;  155.800; -483.000; -364.000
357.820;  517.950; -870.000; -877.000
357.953; 4013.275; -563.000; -589.000
358.085;  940.625; -632.000; -612.000
358.218; 1385.625;-1131.000; -932.000
358.350;  260.050;  -58.000;  312.000
358.483; -111.750;-1300.000;-1187.000
358.615;   17.950;-1182.000;-1078.000
358.747;  -34.350;-1187.000;-1058.000
358.880;   45.600; -810.000; -744.000
359.012;    8.500; -376.000; -202.000
359.145;  -33.950; -480.000; -511.000
359.277;   93.975; -962.000; -913.000
359.409; 3330.150;  536.000;  231.000
359.542;  918.525; -738.000; -688.000
359.674;   85.750;   46.000;   13.000
359.806;  -51.025; -565.000; -438.000
359.939;  -50.175; -617.000; -516.000
360.071;   -9.200; -583.000; -579.000
360.203;  -11.600; -411.000; -364.000
360.335;   77.025;  164.000;  -16.000
360.468;  219.350; -249.000; -307.000
360.600; 2647.825; -547.000; -454.000
360.732; 2743.050; -546.000; -423.000
360.864;  395.625;-1216.000;-1044.000
360.996;  351.575; -516.000; -554.000
361.129;   64.000; -389.000; -598.000
361.261;   29.525;  110.000; -113.000
361.393;  -35.250; -252.000; -214.000
361.525;   26.025;   94.000;  244.000
361.657;  -35.975; -821.000; -703.000
361.789;   34.100; -139.000; -155.000
361.921;  290.725; -642.000; -593.000
362.053;  300.500;  524.000;  541.000
362.185;   55.550;  288.000;   72.000
362.318;  -71.100; -709.000; -705.000
362.450;  138.650;  294.000;  444.000
362.582;  174.475; -913.000; -870.000
362.714;  -26.050; -353.000; -332.000
362.846;  -77.800; -606.000; -490.000
362.978; -142.375; -941.000; -811.000
363.109;   73.775; -161.000; -260.000
363.241;  521.375; -739.000; -749.000
363.373;  447.850; -649.000; -564.000
363.505;  620.500; -186.000;  -91.000
363.637;  169.325; -787.000; -601.000
363.769; -114.750;-1067.000;-1080.000
363.901;  -65.550; -596.000; -654.000
364.033; -107.025;-1103.000;-1062.000
364.165;    4.800; -283.000; -283.000
364.296;   75.150; -316.000; -177.000
364.428;   72.625;-1344.000;-1220.000
364.560;  -71.575; -679.000; -661.000
364.692;  -50.950; -738.000; -835.000
364.824;  329.875; -588.000; -456.000
364.955;  449.525; -402.000; -564.000
365.087;  848.825;-1097.000; -852.000
365.219;   35.925; -686.000; -816.000
365.351;  -69.925; -526.000; -572.000
365.482;   58.925;  300.000;  240.000
365.614;  -34.775; -402.000; -314.000
365.746;  -84.350; -729.000; -752.000
365.877;  -95.425; -706.000; -672.000
366.009;  258.225;  -35.000;  -62.000
366.141;  -83.550;-1249.000;-1134.000
366.272; -104.525; -803.000; -719.000
366.404; -115.800;-1005.000; -874.000
366.535;   10.800; -139.000;  -12.000
366.667;  -99.675; -644.000; -649.000
366.799;   33.300;  353.000;  203.000
366.930; -104.125; -862.000; -996.000
367.062;  121.750; -639.000; -613.000
367.193;  141.925; -872.000; -842.000
367.325;  -50.050; -580.000; -684.000
367.456;   82.850; -246.000;   31.000
367.588;  153.000; -371.000; -318.000
367.719;   11.275;  -44.000;  -45.000
367.851;  -24.350; -222.000; -241.000
367.982;  -40.400; -875.000; -732.000
368.113;  136.550; -475.000; -358.000
368.245; -116.575; -960.000; -841.000
368.376;   -1.500; -254.000; -302.000
368.508;  -27.825; -188.000; -263.000
368.639; -122.825;-1166.000;-1034.000
368.770;    1.175; -670.000; -589.000
368.902;  -42.450; -836.000; -926.000
369.033;  -89.775; -906.000; -855.000
369.164;  -50.700; -720.000; -653.000
369.296;  -98.150; -452.000; -601.000
369.427;   14.700; -209.000; -144.000
369.558;  -36.825; -593.000; -377.000
369.689;  -75.850; -721.000; -569.000
369.821; -126.900; -951.000; -845.000
369.952;  -13.075;   42.000; -108.000
370.083;  -47.300; -229.000; -108.000
370.214;  -83.825; -735.000; -650.000
370.345;   -6.025;   65.000;   81.000
370.477;  -71.175; -810.000; -790.000
370.608;  253.800; -328.000; -264.000
370.739;  -27.900;-1233.000;-1292.000
370.870;  -22.775;-1102.000; -923.000
371.001;  127.075; -378.000; -467.000
371.132;  -78.100; -754.000; -735.000
371.263;  -20.500;  -42.000; -148.000
371.394; -122.700; -841.000; -748.000
371.525;   28.900;  345.000;  225.000
371.657;  -84.750; -808.000; -670.000
371.788;   78.925;  103.000;  199.000
371.919;  180.475; -384.000; -304.000
372.050; 4025.025;  -91.000; -156.000
372.181; 1257.975; -188.000; -294.000
372.311;  427.025;   42.000; -127.000
372.442;   54.250; -457.000; -451.000
372.573;   -3.300; -444.000; -340.000
372.704; -117.425;-1008.000; -980.000
372.835;  104.700; -228.000; -289.000
372.966;  -47.525; -646.000; -554.000
373.097;  -47.925; -575.000; -711.000
373.228;  -23.425; -717.000; -542.000
373.359;  179.225; -824.000; -536.000
373.490; 1063.400; -881.000; -727.000
373.620; 1378.025;-1001.000; -803.000
373.751; 2011.325; -332.000; -396.000
373.882;  941.625; -663.000; -733.000
374.013;   80.675; -449.000; -262.000
374.143;  -27.625; -581.000; -659.000
374.274;  -85.950; -987.000; -908.000
374.405;  201.950; -388.000; -276.000
374.536;  524.275; -526.000; -387.000
374.666; 1299.475; -759.000; -807.000
374.797;  299.150; -817.000; -868.000
374.928; 1009.875; -710.000; -560.000
375.058; 1046.725; -535.000; -500.000
375.189;  114.400;  -59.000;  -93.000
375.320;  -88.400; -928.000;-1034.000
375.450;  -20.675; -625.000; -616.000
375.581;  -60.175; -526.000; -436.000
375.712;   -9.550; -574.000; -250.000
375.842;  363.750; -438.000; -415.000
375.973;  277.550; -554.000; -513.000
376.103;  -14.650; -665.000; -648.000
376.234;  -79.450; -531.000; -552.000
376.364;  -31.550; -944.000; -867.000
376.495;  371.850;  925.000;  529.000
376.625;    8.625; -472.000; -485.000
376.756;   96.675; -709.000; -678.000
376.886;  -40.825;-1178.000;-1026.000
377.017;   34.150;-1048.000;-1061.000
377.147;  337.500; -786.000; -782.000
377.278;   53.675;  174.000;  228.000
377.408; -116.475; -801.000; -815.000
377.538;  -88.325; -707.000; -693.000
377.669;  -75.875; -537.000; -613.000
377.799;  -76.350; -645.000; -635.000
377.929;  -40.175; -610.000; -428.000
378.060; -113.550; -781.000; -847.000
378.190;  -72.450; -726.000; -531.000
378.320;  -43.500; -401.000; -406.000
378.451;   -4.500; -131.000;  -22.000
378.581;   -5.750;  -67.000; -110.000
378.711;  155.050; 1035.000;  866.000
378.841;    3.475; -533.000; -675.000
378.972;  -56.525; -871.000; -751.000
379.102;    8.100; -652.000; -579.000
379.232;  -15.725; -126.000;  -73.000
379.362;  -97.150;-1001.000; -885.000
379.492;   17.450; -373.000; -424.000
379.623;  116.325;    0.000;  111.000
379.753;  -85.550;-1107.000; -974.000
379.883;  215.425;   59.000;  156.000
380.013;   48.100;-1081.000;-1017.000
380.143;  -97.200;-1097.000;-1056.000
380.273;  -93.500; -985.000; -861.000
380.403;    0.825; -344.000; -257.000
380.533;   -0.725; -651.000; -664.000
380.663;   92.025;  173.000;  128.000
380.793;  -69.175;-1027.000;-1074.000
380.923;  -22.725; -103.000;  -34.000
381.053;  -82.925; -613.000; -623.000
381.183;  -20.875; -106.000; -248.000
381.313;   46.325; -656.000; -470.000
381.443;   76.400; -692.000; -473.000
381.573;  236.675; -402.000; -409.000
381.703;  376.175;-1249.000;-1095.000
381.833;  -93.050;-1454.000;-1336.000
381.963;  127.900; -134.000;  -87.000
382.093; 1569.575; -925.000; -909.000
382.223;  552.675; -713.000; -602.000
382.353;   -3.675; -801.000; -608.000
382.482;  455.550;-1091.000; -964.000
382.612;  901.125; -872.000; -644.000
382.742;  543.575; -695.000; -622.000
382.872;  331.150; -565.000; -551.000
383.002;   87.750;  347.000; -132.000
383.131;  -16.650; -226.000; -160.000
383.261;  -30.075; -706.000; -768.000
383.391;  279.900; -552.000; -377.000
383.521; 3034.975;  451.000;  263.000
383.650;  748.275; -947.000; -904.000
383.780;    4.450; -783.000; -656.000
383.910;  108.825;  880.000;  802.000
384.039;   56.200; -794.000; -656.000
384.169;  284.275;-1205.000;-1017.000
384.299;   19.275; -650.000; -662.000
384.428;  -86.625; -764.000; -680.000
384.558;  -15.600; -308.000; -275.000
384.687;  -29.625; -414.000; -334.000
384.817;   35.425;   75.000;   -2.000
384.947;   13.525; -234.000; -141.000
385.076;  312.375;  982.000;  912.000
385.206;  132.750;  369.000;  480.000
385.335;  -12.925; -549.000; -417.000
385.465;  -53.525; -655.000; -663.000
385.594;  165.000;  -53.000;  -44.000
385.724;  521.125; -868.000; -838.000
385.853;  152.875; -296.000; -270.000
385.982; 1511.500; -743.000; -787.000
386.112; 2536.425;-1052.000; -871.000
386.241;  206.425; -307.000; -312.000
386.371;   26.525; -174.000;  -87.000
386.500;   23.825; -825.000; -789.000
386.629;   41.600; -874.000; -817.000
386.759;   92.075;  -43.000;   68.000
386.888;   21.025; -170.000; -250.000
387.017;  -58.750; -648.000; -620.000
387.147;  -64.650; -771.000; -798.000
387.276;   20.000; -410.000; -397.000
387.405;   32.025; -398.000; -342.000
387.535;  -28.025; -452.000; -361.000
387.664;  -58.550; -692.000; -620.000
387.793;   75.600; -198.000; -113.000
387.922;  597.350;  255.000;  200.000
388.052;   54.650; -576.000; -423.000
388.181;   43.700; -342.000; -472.000
388.310;   40.875; -889.000; -710.000
388.439;   -7.000; -749.000; -742.000
388.568;  212.075;  365.000;  244.000
388.697; 1220.800; -756.000; -653.000
388.826;  286.475; -768.000; -666.000
388.956;   80.800; -285.000; -307.000
389.085;  -16.225; -347.000; -287.000
389.214; -108.875; -842.000; -872.000
389.343;  -56.625; -645.000; -413.000
389.472;  385.925;  126.000;  149.000
389.601;  537.525;   91.000;    0.000
389.730;   35.200; -568.000; -687.000
389.859;   78.225;  226.000;   46.000
389.988;  222.175; -423.000; -408.000
390.117;  167.600; -168.000; -146.000
390.246;   -8.275; -331.000; -320.000
390.375;  143.700; -673.000; -626.000
390.504;  -41.850; -703.000; -621.000
390.633;  -97.300; -672.000; -726.000
390.761;  -52.475; -732.000; -645.000
390.890;   41.425;   -4.000; -130.000
391.019;  -20.350; -421.000; -441.000
391.148; -114.450; -826.000; -855.000
391.277;  -53.650; -576.000; -493.000
391.406;  -63.350; -821.000; -805.000
391.534;   35.225;  574.000; -301.000
391.663;  -54.400; -583.000; -645.000
391.792;  -76.725; -673.000; -701.000
391.921;  133.600;   -3.000;   15.000
392.050;  241.950; -287.000; -228.000
392.178;  -12.950;-1206.000;-1061.000
392.307;  191.050; -758.000; -712.000
392.436;  114.525; -427.000; -641.000
392.564;   37.875;  166.000;   -6.000
392.693;  -81.225; -860.000; -682.000
392.822;  257.750; -529.000; -534.000
392.950;  130.925; -880.000; -714.000
393.079;  381.000; -188.000; -328.000
393.208;   63.650; -488.000; -511.000
393.336;  -17.350; -170.000; -145.000
393.465;  -46.850; -317.000; -199.000
393.593;    3.075;   62.000;   79.000
393.722; -154.100;-1121.000; -916.000
393.850;  -24.450; -188.000;  -61.000
393.979; -147.400; -926.000; -805.000
394.107;  -57.725; -517.000; -537.000
394.236;  -16.325; -570.000; -507.000
394.364;  246.375;  383.000;  206.000
394.493;  471.825; -911.000; -767.000
394.621;   11.725; -955.000; -916.000
394.750;  689.100; -873.000; -923.000
394.878; 2817.950; -247.000; -149.000
395.007; 4023.550; -721.000; -807.000
395.135;  326.600; -790.000; -721.000
395.263;  -91.850;-1038.000;-1040.000
395.392;   16.775;  -25.000; -107.000
395.520; -124.950; -818.000; -679.000
395.648;  -74.925; -865.000; -915.000
395.777;   -0.725; -366.000; -405.000
395.905;  -37.375; -449.000; -564.000
396.033;   24.675;  217.000;  172.000
396.162;  710.125; -399.000; -453.000
396.290;  641.875;  -17.000;   -2.000
396.418;  123.425; -555.000; -514.000
396.546;  -54.925; -571.000; -466.000
396.674;  -85.900; -850.000; -878.000
396.803;   12.000;  -72.000;  -23.000
396.931;  125.075; -179.000; -199.000
397.059;   95.100;-1026.000; -989.000
397.187;  -97.425;-1026.000; -975.000
397.315; -133.975; -884.000; -649.000
397.443;  -83.100; -592.000; -443.000
397.572;  -99.850; -578.000; -424.000
397.700;   -5.375; -607.000; -614.000
397.828;   12.400;  120.000;  -90.000
397.956;  -40.550; -508.000; -478.000
398.084;  -62.525; -767.000; -626.000
398.212;   48.575;  137.000;  124.000
398.340;   16.225;  -56.000;  159.000
398.468;   40.925; -390.000; -169.000
398.596; -128.775; -993.000; -953.000
398.724; -102.775; -762.000; -767.000
398.852; -157.825;-1024.000; -976.000
398.980;  -63.700; -560.000; -560.000
399.108;  -34.275; -982.000; -735.000
399.236;   43.350;   13.000;    8.000
399.363;   21.875;  222.000;  196.000
399.491;  -66.325; -404.000; -398.000
399.619; -125.050; -829.000; -800.000
399.747;  -96.050; -859.000; -771.000
399.875;   83.825;  220.000;  234.000
400.003;  -37.725; -359.000; -284.000
400.130;  -84.975; -421.000; -341.000
400.258;  -24.150;  -83.000;   38.000
400.386;  -68.600; -352.000; -168.000
400.514;  -48.200; -526.000; -587.000
400.641;  -68.925; -928.000; -802.000
400.769; -139.300; -979.000; -888.000
400.897;  -93.975; -838.000; -793.000
401.025;    2.775; -166.000; -152.000
401.152;   -4.600;  220.000;   38.000
401.280;  -80.550; -430.000; -429.000
401.408; -108.175; -712.000; -576.000
401.535;  -87.350; -735.000; -758.000
401.663; -184.725;-1134.000;-1054.000
401.790;  -82.475; -514.000; -525.000
401.918;   35.225;  436.000;  405.000
402.046;  -17.625;  134.000;  122.000
402.173;  -34.850;  -18.000;    7.000
402.301;  -65.450; -519.000; -397.000
402.428;   21.175;  528.000;  383.000
402.556; -135.675;-1188.000; -913.000
402.683;  -25.025;  -20.000;   -1.000
402.811;  -13.075;  -37.000; -206.000
402.938;   -9.800;   20.000;   27.000
403.066;  238.775; -574.000; -558.000
403.193;  384.850;  299.000;  239.000
403.321;  296.375; -396.000; -574.000
403.448;  363.150;   83.000;   27.000
403.575;  197.000;  -90.000;  -46.000
403.703;  -97.850; -732.000; -557.000
403.830;  -62.400; -531.000; -496.000
403.957; -127.125;-1117.000;-1023.000
404.085;   11.775;  -61.000; -172.000
404.212;  116.125;  -50.000;   63.000
404.339;  270.900; -566.000; -306.000
404.467; 5481.150; -612.000; -524.000
404.594; 3991.900; -287.000; -227.000
404.721; 1022.300; -869.000; -764.000
404.848;   96.450; -113.000; -202.000
404.976;  -99.800; -856.000; -783.000
405.103;   -4.475;  -14.000;  -82.000
405.230;  -12.425;  190.000;  226.000
405.357;   29.125;  117.000;   44.000
405.484;  246.550;  -49.000;    5.000
405.612;   63.550; -548.000; -563.000
405.739;  -50.000; -488.000; -243.000
405.866;   94.650;  669.000;  385.000
405.993;  -37.150; -398.000; -102.000
406.120; -139.525; -801.000; -887.000
406.247;  -65.300; -323.000; -342.000
406.374;  490.700;  540.000;  629.000
406.501;  173.800; -632.000; -702.000
406.628;  -73.850; -621.000; -589.000
406.755; -104.200; -803.000; -620.000
406.882;  -16.875; -228.000; -277.000
407.009; -104.000; -719.000; -628.000
407.136;   70.125; -480.000; -401.000
407.263;  166.900; -939.000; -829.000
407.390;  -57.975; -692.000; -614.000
407.517; -160.425;-1139.000;-1187.000
407.644;  -56.300; -332.000; -256.000
407.771;  -58.375; -249.000; -287.000
407.898;    7.475;  168.000;  328.000
408.025;  -60.100; -421.000; -313.000
408.151;   -6.275;   82.000;  153.000
408.278;  -70.800; -267.000; -216.000
408.405; -110.075; -931.000; -899.000
408.532;  -67.900; -549.000; -542.000
408.659;  -99.800; -677.000; -648.000
408.785; -191.975;-1298.000;-1170.000
408.912;  -52.125; -412.000; -296.000
409.039;  -99.075; -610.000; -686.000
409.166;  -99.550; -591.000; -555.000
409.292; -109.550; -571.000; -534.000
409.419; -111.950; -665.000; -649.000
409.546;  -90.675; -431.000; -192.000
409.672; -107.325; -713.000; -545.000
409.799;  -18.825;  -36.000;   34.000
409.926;  -26.075; -180.000; -179.000
410.052; -168.450;-1127.000;-1091.000
410.179;  -48.875; -368.000; -392.000
410.305;  -91.525; -375.000; -493.000
410.432;  -47.100; -220.000; -333.000
410.558;  -94.475; -305.000; -380.000
410.685; -103.550; -688.000; -431.000
410.812;  -88.575; -409.000; -588.000
410.938; -129.500; -964.000; -808.000
411.065; -101.300; -671.000; -645.000
411.191;  -10.275; -189.000; -174.000
411.317; -101.650; -823.000; -742.000
411.444;  -62.350; -317.000; -246.000
411.570;  -83.675; -339.000; -294.000
411.697; -111.125; -758.000; -752.000
411.823; -173.050; -989.000; -999.000
411.949;  -21.875;  -56.000;   17.000
412.076; -105.400; -539.000; -519.000
412.202; -112.975; -758.000; -757.000
412.329; -126.350; -798.000; -752.000
412.455; -101.725; -821.000; -657.000
412.581;  -17.750;  -15.000;  172.000
412.707;  -50.850; -540.000; -457.000
412.834;   20.100;  156.000;  219.000
412.960;  -75.100; -785.000; -784.000
413.086;  -95.275; -743.000; -701.000
413.212;  157.650;  604.000;  578.000
413.339;  -48.375; -685.000; -701.000
413.465;   17.775; -364.000; -310.000
413.591;  -89.650; -757.000; -474.000
413.717;  -42.025; -358.000; -366.000
413.843; -137.625; -839.000; -861.000
413.969;  -53.000;  -47.000; -292.000
414.096;  -97.975; -679.000; -679.000
414.222;   -9.550;  -33.000;   85.000
414.348;  -21.475; -652.000; -385.000
414.474;  126.925;   38.000;  -52.000
414.600;  -16.275; -126.000; -144.000
414.726;    4.850;  -96.000;  -55.000
414.852;  -63.400; -365.000; -342.000
414.978;   41.425;  104.000;  -18.000
415.104;   33.950;   38.000;   80.000
415.230;   22.425; -329.000; -330.000
415.356;   46.600; -409.000; -514.000
415.482;  208.000;   13.000;  -35.000
415.608;  278.000; -247.000; -323.000
415.734;  920.500;   67.000;   38.000
415.860;19195.200; -875.000; -767.000
415.986;15303.800; -685.000; -607.000
416.111; 1359.850; -798.000; -652.000
416.237;  267.050; -424.000; -571.000
416.363; 1003.525; -765.000; -733.000
416.489; 4113.500; -324.000; -251.000
416.615;  509.125; -707.000; -742.000
416.741;  -17.600; -677.000; -784.000
416.866; -104.075; -673.000; -736.000
416.992; -110.975; -801.000; -818.000
417.118;  -17.150;  -41.000;  -80.000
417.244;  -54.900; -798.000; -531.000
417.369;  -71.300; -801.000; -612.000
417.495;   -9.675; -325.000; -254.000
417.621;  -68.400;-1015.000; -803.000
417.746;   19.750; -579.000; -572.000
417.872;   55.925; -254.000; -144.000
417.998;   61.725; -515.000; -530.000
418.123;  946.000;-1073.000; -845.000
418.249; 5347.600; -512.000; -601.000
418.374;  812.250; -916.000; -824.000
418.500;  132.200; -383.000; -482.000
418.626;  107.925;   70.000;  -59.000
418.751;  141.850; -549.000; -448.000
418.877;  206.975; -637.000; -643.000
419.002; 1622.800; -688.000; -560.000
419.128;12258.500; -930.000; -721.000
419.253; 3322.850; -967.000; -837.000
419.379;  430.650; -391.000; -338.000
419.504;  402.025;  325.000;  415.000
419.629;  492.650; -393.000; -212.000
419.755; 3189.700; -317.000; -254.000
419.880;20213.875;  -98.000;   67.000
420.006;11085.925; -280.000; -221.000
420.131;29453.900; -662.000; -775.000
420.256; 4663.575; -315.000; -316.000
420.382;  617.425; -665.000; -687.000
420.507;   76.550; -649.000; -778.000
420.632;  132.625; -337.000; -339.000
420.758;  318.475; -251.000; -425.000
420.883;  -62.025; -876.000; -672.000
421.008;  -91.575; -775.000; -619.000
421.133;  -69.600; -509.000; -467.000
421.259;  -22.750; -325.000; -259.000
421.384; -106.000; -834.000; -693.000
421.509;  -27.950;-1052.000; -862.000
421.634; 1337.350; -936.000; -820.000
421.759;  671.975; -359.000; -327.000
421.885;  -22.675; -717.000; -656.000
422.010;  -67.675; -673.000; -542.000
422.135; -146.175; -695.000; -727.000
422.260;   32.575;  340.000;  280.000
422.385;  -53.675;   12.000;  -98.000
422.510;   17.300;  151.000;  -26.000
422.635;   20.975;  -87.000;  -43.000
422.760;  123.675; -766.000; -791.000
422.885;   59.925;  -57.000;  -80.000
423.010;  -22.550; -112.000; -169.000
423.135;  -96.475; -481.000; -561.000
423.260;  -15.300; -150.000; -245.000
423.385;   68.025;  476.000;  222.000
423.510;   40.000;   71.000;  -22.000
423.635;   92.300;  133.000;   45.000
423.760;   50.500;  383.000;  328.000
423.885;   54.150;  336.000;  391.000
424.010;   26.825;  -68.000;  -13.000
424.135;  -17.600;    5.000;  -33.000
424.259;  -76.400; -654.000; -457.000
424.384;  -56.575; -279.000; -272.000
424.509;  -23.075; -260.000; -186.000
424.634;  -83.200; -761.000; -623.000
424.759;   -5.825; -688.000; -544.000
424.883;   -7.875; -506.000; -527.000
425.008;  165.050; -502.000; -410.000
425.133; 1936.325; -679.000; -653.000
425.258; 1010.675; -517.000; -381.000
425.382; 1049.925; -867.000; -774.000
425.507; 2948.650; -487.000; -543.000
425.632;  506.400; -802.000; -663.000
425.756;  464.175; -256.000; -146.000
425.881; 5756.125; -831.000; -857.000
426.006;17087.575; -604.000; -355.000
426.130; 2926.950; -696.000; -508.000
426.255;  382.075; -611.000; -491.000
426.379;  163.875; -189.000; -577.000
426.504;  372.025;  660.000;  544.000
426.629; 3869.875; -519.000; -466.000
426.753; 2958.175;   64.000;  -46.000
426.878;  341.075; -252.000; -288.000
427.002;  205.850; -651.000; -668.000
427.127; 1468.875;  -35.000; -158.000
427.251;10996.525;  372.000;  401.000
427.375; 3523.975; -191.000; -173.000
427.500; 2517.350; -616.000; -610.000
427.624;  971.175; -234.000; -400.000
427.749;  135.200; -216.000; -225.000
427.873;  -22.925; -499.000; -412.000
427.997;  -21.000; -222.000; -230.000
428.122;   73.600;  795.000;  703.000
428.246;   80.875;  433.000;  434.000
428.371; -119.400; -869.000; -773.000
428.495;  -93.800; -624.000; -646.000
428.619;  -31.900; -186.000; -117.000
428.743;   31.225;   65.000;  132.000
428.868;   20.950; -732.000; -643.000
428.992; 1556.800; -219.000; -326.000
429.116;  684.725; -329.000; -357.000
429.240;  328.975;  419.000;  426.000
429.365;    2.075; -454.000; -574.000
429.489;  -30.200; -638.000; -647.000
429.613;   29.325; -236.000; -177.000
429.737;   39.375; -563.000; -432.000
429.861;  278.075; -247.000; -133.000
429.985; 5233.100; -425.000; -305.000
430.109; 6313.950; -770.000; -908.000
430.234;  773.275;   76.000;  -50.000
430.358;   84.325; -250.000; -160.000
430.482;  -40.125; -672.000; -564.000
430.606;  -50.200; -655.000; -375.000
430.730;   46.275; -437.000; -388.000
430.854;  174.975; -909.000; -835.000
430.978;  -54.150; -795.000; -764.000
431.102;  -83.575; -499.000; -422.000
431.226; -110.550; -874.000; -815.000
431.350;   10.900;  345.000;  422.000
431.474;  -66.725; -661.000; -373.000
431.597; -148.875;-1060.000; -848.000
431.721;  -62.650; -276.000; -267.000
431.845; -124.075; -704.000; -472.000
431.969;  -80.625; -304.000; -349.000
432.093;  -96.050; -395.000; -317.000
432.217;   -9.675;   32.000;   82.000
432.341;  -87.075; -523.000; -518.000
432.464;   24.750;   96.000;   40.000
432.588;  235.500; -401.000; -329.000
432.712;  142.825;  -52.000;  -52.000
432.836;   48.550;  213.000;  263.000
432.959;   -3.850; -372.000; -311.000
433.083;   85.000;   11.000;    2.000
433.207;  372.375;  285.000;  930.000
433.330; 4669.250; -391.000; -200.000
433.454; 6318.300; -654.000; -638.000
433.578; 3599.425;  583.000;  278.000
433.701;  742.200; -623.000; -675.000
433.825;  175.725; -292.000; -299.000
433.949;  218.075;   28.000;  -72.000
434.072;   87.575; -410.000; -323.000
434.196;    0.800; -309.000; -117.000
434.319; 3568.400;25482.000;25124.000
434.443;  684.150; -656.000; -603.000
434.566; 2635.225;  281.000;   62.000
434.690;  495.550; -637.000; -383.000
434.813;   64.525; -251.000; -173.000
434.937;  -66.000; -569.000; -696.000
435.060;  -31.325; -423.000; -332.000
435.184;  374.700; -492.000; -217.000
435.307;  218.500;  159.000;  102.000
435.431;   -2.150;  -40.000;   24.000
435.554;  -68.225; -399.000; -240.000
435.677;  -88.750; -350.000; -258.000
435.801;  -62.750;  -25.000;   49.000
435.924;    0.425;    1.000;  -67.000
436.048; -102.925;-1019.000; -732.000
436.171;  -56.200; -240.000;  -66.000
436.294;  -29.425; -248.000; -229.000
436.417;  105.550; -963.000; -849.000
436.541;  -70.200; -814.000; -840.000
436.664;  -38.600; -242.000; -316.000
436.787;  -15.150;   13.000;  113.000
436.910; -102.125; -792.000; -422.000
437.034;    8.600;  142.000;  143.000
437.157;   75.675;  -11.000;    0.000
437.280;  -30.250; -392.000; -292.000
437.403;  -64.650; -982.000; -869.000
437.526;  686.950; -903.000; -865.000
437.649; 2688.075; -505.000; -332.000
437.772;  481.450; -692.000; -540.000
437.896;  149.225;  700.000;  544.000
438.019;  -85.575; -758.000; -503.000
438.142;  -69.825; -596.000; -506.000
438.265;   -7.100; -639.000; -670.000
438.388;  656.850; -520.000; -410.000
438.511;  159.225; -597.000; -394.000
438.634;  -28.200; -247.000; -125.000
438.757; -136.250; -693.000; -619.000
438.880;  -14.850;  -34.000;  -57.000
439.003;  -69.525; -417.000; -437.000
439.126;  -74.375; -287.000; -167.000
439.248;  -54.775;  -98.000; -139.000
439.371;  -40.675;    9.000;  -53.000
439.494;   21.375;  510.000;  439.000
439.617;  -36.025;   65.000;  -88.000
439.740; -172.025; -968.000; -816.000
439.863; -139.175; -755.000; -595.000
439.986; -118.750; -476.000; -431.000
440.108;  -36.450; -161.000; -112.000
440.231; -149.050; -950.000; -836.000
440.354;  -19.875;  -64.000; -150.000
440.477;   61.225; -566.000; -542.000
440.599;   27.725; -200.000; -225.000
440.722; -112.075; -709.000; -586.000
440.845;   70.025;  751.000;  928.000
440.968; -112.650; -415.000; -311.000
441.090;  -85.725; -199.000;  -33.000
441.213; -167.725;-1021.000; -825.000
441.336;  -48.400; -159.000;   -5.000
441.458;  -70.725; -549.000; -396.000
441.581;  -69.425; -628.000; -629.000
441.703;  -72.050; -152.000;   13.000
441.826; -106.925; -557.000; -400.000
441.948;  -53.750;   56.000;   51.000
442.071;   30.750;  555.000;  424.000
442.193; -122.375; -531.000; -485.000
442.316;   26.200;  152.000;   97.000
442.438;   45.925; -233.000;  -10.000
442.561;   86.650;  272.000;  262.000
442.683;  571.400; -809.000; -522.000
442.806; 1395.325;   -8.000;   74.000
442.928;   96.100; -859.000; -604.000
443.051;  -47.625; -577.000; -373.000
443.173;  -93.500; -341.000; -339.000
443.295;  -81.975; -263.000; -371.000
443.418;  -65.775; -321.000;  -29.000
443.540;    0.250; -106.000;   -4.000
443.662; -114.100; -563.000; -465.000
443.785;   -3.100;  335.000;  199.000
443.907;  -91.625; -362.000; -208.000
444.029; -127.400; -767.000; -494.000
444.152; -146.475; -644.000; -554.000
444.274;  -28.550;  -18.000;  -24.000
444.396; -104.075; -461.000; -221.000
444.518; -128.450; -691.000; -454.000
444.640; -101.500; -268.000; -111.000
444.763;  -18.900;  388.000;  249.000
444.885; -121.425; -432.000; -392.000
445.007;  -32.900;   35.000;   86.000
445.129; -118.850; -610.000; -515.000
445.251;  -96.675; -372.000; -439.000
445.373; -137.725; -537.000; -386.000
445.495;   -3.950;  242.000;  350.000
445.617;   43.025;  853.000;  753.000
445.739;  -68.525; -215.000;  -97.000
445.861;  -30.200; -245.000; -112.000
445.984;  -22.275; -267.000; -101.000
446.105;  224.225; -418.000; -251.000
446.227;  691.100; -176.000;  -19.000
446.349;   38.900; -358.000; -249.000
446.471;  -83.475; -615.000; -448.000
446.593;  -70.650; -316.000;   19.000
446.715;    8.150;  -67.000;   41.000
446.837;   54.650;  697.000;  832.000
446.959;  -94.225; -457.000; -478.000
447.081; -123.600; -628.000; -518.000
447.203;   54.325;  862.000;  834.000
447.325;  -84.175; -270.000;   42.000
447.446;  -11.575;  286.000;  530.000
447.568; -151.150; -921.000; -803.000
447.690;  -62.900; -236.000; -245.000
447.812; -150.175; -798.000; -519.000
447.933;  -27.700;  155.000;  127.000
448.055;  -76.500; -306.000; -261.000
448.177;  157.000;   31.000;   79.000
448.299;  127.925; -935.000; -727.000
448.420;   45.350;  -25.000;  159.000
448.542;  -53.375;   -3.000;   33.000
448.664;  -26.150;  109.000;  322.000
448.785;  -55.225;  265.000;   83.000
448.907;  -79.700; -614.000; -353.000
449.028;  -17.450; -771.000; -471.000
449.150;   64.700;  492.000;  589.000
449.272; -163.825;-1044.000; -913.000
449.393;   35.600;  612.000;  694.000
449.515; -152.100; -634.000; -581.000
449.636;  -46.675; -264.000; -155.000
449.758;   73.375;  763.000;  622.000
449.879;  -84.775; -498.000; -396.000
450.001;  -82.275; -149.000;  -49.000
450.122;  -34.575;  -95.000;  162.000
450.244;  -22.900;   37.000;  364.000
450.365; -103.375; -495.000; -301.000
450.486;  -29.025;   80.000;  268.000
450.608;   20.250;  393.000;  326.000
450.729;   59.475;  578.000;  645.000
450.850;   12.075; -574.000; -466.000
450.972;  640.750; -552.000; -389.000
451.093; 4614.850;  190.000;  588.000
451.214; 2233.350; -516.000; -337.000
451.336;  425.825;  773.000;  579.000
451.457;   65.200;  264.000;  393.000
451.578;  -35.625; -118.000;  -74.000
451.699; -108.025; -546.000; -540.000
451.821;  -67.725; -284.000;  -50.000
451.942;    0.600;  278.000;  285.000
452.063;   30.550;  228.000;  419.000
452.184;  511.075;  -54.000;  -49.000
452.305; 1098.900;  103.000;  170.000
452.427;  158.100; -549.000; -301.000
452.548;   -8.825;   23.000;   79.000
452.669;  -45.175; -257.000;  -89.000
452.790;  -42.100;    3.000;  -18.000
452.911;  -11.600;  195.000;  259.000
453.032;  -53.250; -289.000;  -60.000
453.153;  -52.175;  -29.000;   81.000
453.274;   57.500;  737.000;  868.000
453.395;  -54.325;  -51.000;  175.000
453.516;  125.650; 1317.000; 1388.000
453.637;  -55.575; -205.000; -150.000
453.758;  -47.025;   15.000;   69.000
453.879; -117.850; -462.000; -250.000
454.000;   79.525; 1086.000;  948.000
454.121; -114.925; -554.000; -326.000
454.242; -117.275; -599.000; -383.000
454.362;  -68.325;  -99.000;  114.000
454.483;  -30.675; -309.000; -229.000
454.604;   72.000;  512.000;  580.000
454.725; -114.975; -627.000; -555.000
454.846; -120.175; -474.000; -406.000
454.967;  -23.300;  230.000;  539.000
455.087;  -46.175;  179.000;  153.000
455.208;   14.300;  554.000;  856.000
455.329;  -58.800;  -22.000;   82.000
455.450;   25.150;  473.000;  633.000
455.570;  -91.700; -234.000; -211.000
455.691;  -35.975;  201.000;  407.000
455.812; -122.250; -270.000;  -92.000
455.932;  -45.000;  107.000;  -97.000
456.053;  -73.000;   36.000;   24.000
456.173; -113.975; -433.000; -355.000
456.294; -135.450; -476.000; -303.000
456.415;  -58.400;  -73.000;   70.000
456.535;  -36.275;  297.000;  273.000
456.656;  -28.650;  132.000;  240.000
456.776;  -72.175;    3.000;  298.000
456.897;   -0.325;  308.000;  513.000
457.017;  -77.725; -153.000;   -3.000
457.138;  -91.250; -402.000; -249.000
457.258;  -23.100;  263.000;  224.000
457.379;   -9.000;  509.000;  521.000
457.499;  -29.125;  443.000;  432.000
457.620; -115.200; -407.000; -231.000
457.740; -104.925; -132.000;  -11.000
457.860;  -31.675;   87.000;   44.000
457.981;  -40.925;  132.000;  124.000
458.101;  -51.725;  -89.000;   40.000
458.221;  -23.775;  336.000;  402.000
458.342;  -66.075;   -4.000;  -37.000
458.462;    2.775;  617.000;  352.000
458.582;  -19.750; -302.000; -294.000
458.703;   -5.150;  303.000;  154.000
458.823;  -25.125;   22.000;  163.000
458.943;   24.675;  341.000;  467.000
459.063;  -26.500; 1124.000;  192.000
459.183;  -17.925;  328.000;  313.000
459.304;   15.100;  315.000;  517.000
459.424;  -68.650; -246.000;  -89.000
459.544;  315.750;  388.000;  764.000
459.664;  820.600;  499.000;  506.000
459.784;  320.625; 1004.000; 1175.000
459.904;   62.050;  867.000;  744.000
460.024;   75.025;  867.000;  684.000
460.144;   17.900;  449.000;  554.000
460.264;   -7.700;  515.000;  327.000
460.385;  -87.050; -145.000; -119.000
460.505;   29.900;  905.000;  858.000
460.625;  -99.850;  -17.000;  -68.000
460.745;    1.100;  396.000;  541.000
460.864;  -43.025;  153.000;  469.000
460.984;   25.500;  499.000;  573.000
461.104;  142.775; 1656.000; 1775.000
461.224;   10.275;  657.000;  650.000
461.344;  -27.450;  431.000;  360.000
461.464;  -21.250;  258.000;  513.000
461.584;  -14.600;  283.000;  466.000
461.704;  -48.450;   58.000;  108.000
461.824;  -59.425;  238.000;  259.000
461.943;  -42.275;  191.000;  130.000
462.063;  -82.975;    2.000;  324.000
462.183;   23.425;  639.000;  717.000
462.303;   95.775; 1678.000; 1230.000
462.422;   25.025;  781.000;  840.000
462.542;  -30.625;  271.000;  391.000
462.662;   35.575;  353.000;  380.000
462.782;  216.250;  833.000;  572.000
462.901;  479.400;  545.000;  717.000
463.021;  288.000; 1702.000; 1638.000
463.141;    3.750;  337.000;  770.000
463.260;  -22.625;  614.000;  474.000
463.380;   12.800;  902.000;  884.000
463.499;  -40.350;  342.000;  332.000
463.619;  -13.450;  581.000;  559.000
463.738;  110.050; 1644.000;  903.000
463.858;   14.000;  657.000;  811.000
463.978;  -20.525;  542.000;  396.000
464.097;   44.925;  921.000; 1114.000
464.217;  120.550; 1196.000; 1143.000
464.336;  118.700; 1068.000; 1130.000
464.455;  -37.450;  328.000;  659.000
464.575;   55.475;  597.000;  602.000
464.694;  177.700; 1204.000; 1179.000
464.814;  115.850; 1190.000; 1138.000
464.933;   63.325; 1095.000; 1027.000
465.052;  104.250; 1412.000; 1054.000
465.172;   87.275;  922.000;  799.000
465.291;  148.300; 1376.000; 1320.000
465.410;   21.650;  462.000;  735.000
465.530;   88.175; 1355.000; 1310.000
465.649;   72.150; 1209.000; 1273.000
465.768;  141.150; 1673.000; 1508.000
465.888;   46.300;  941.000; 1174.000
466.007;  102.500; 1335.000; 1440.000
466.126;    4.525;  721.000;  641.000
466.245;   38.525; 1176.000; 1187.000
466.364;   23.075;  950.000; 1060.000
466.484;   62.300; 1024.000; 1213.000
466.603;   42.150; 1101.000; 1222.000
466.722;  126.325; 1490.000; 1769.000
466.841;   78.475; 1151.000; 1401.000
466.960;   53.875; 1069.000;  972.000
467.079;  145.350; 1971.000; 1786.000
467.198;   65.525; 1238.000; 1181.000
467.317;   94.875; 1768.000; 1162.000
467.436;   74.750; 1709.000; 1261.000
467.555;  119.775; 1796.000; 1746.000
467.674;   64.650; 1227.000; 1329.000
467.793;   56.250; 1376.000; 1374.000
467.912;   95.175; 1658.000; 1539.000
468.031;  122.075; 2038.000; 1930.000
468.150;  156.750; 1842.000; 1837.000
468.269;  207.375; 2313.000; 2090.000
468.388;  182.550; 2168.000; 2339.000
468.507;  246.300; 2884.000; 2903.000
468.626;  268.550; 2555.000; 2541.000
468.744;  142.650; 2018.000; 2174.000
468.863;  184.175; 2312.000; 2523.000
468.982;   99.850; 1503.000; 1555.000
469.101;  215.475; 2788.000; 2692.000
469.220;  164.550; 2333.000; 2176.000
469.338;  266.450; 2935.000; 3051.000
469.457;  179.450; 2719.000; 2545.000
469.576;  334.875; 3953.000; 3784.000
469.695;  246.550; 2877.000; 3066.000
469.813;  419.700; 4148.000; 4192.000
469.932;  396.025; 4255.000; 4485.000
470.051;  425.700; 4075.000; 4161.000
470.169;  810.025; 4470.000; 4338.000
470.288; 1454.075; 4700.000; 4809.000
470.406;  933.475; 5059.000; 5194.000
470.525;  636.600; 6101.000; 5787.000
470.644;  644.300; 6847.000; 6794.000
470.762;  809.000; 8397.000; 7873.000
470.881;  869.125; 8651.000; 8464.000
470.999; 1036.675; 9685.000; 9151.000
471.118; 1087.675;11174.000;10711.000

