
Integration time [ms]: 100.000
Averaging Nr. [scans]: 40
Smoothing Nr. [pixels]: 0
Data measured with spectrometer [name]: 2101012U2
Wave   ;Sample   ;Dark     ;Reference
[nm]   ;[counts] ;[counts] ;[counts] 

197.733;   79.600;  516.000;  404.000
197.879;  -81.400; -610.000; -634.000
198.025;  -42.150; -475.000; -420.000
198.171;  -66.475; -602.000; -612.000
198.317;  -20.275; -401.000; -316.000
198.463;  -67.075; -655.000; -404.000
198.609;   30.000;  181.000; -137.000
198.755;  -80.850; -644.000; -410.000
198.901;  -58.325; -505.000; -424.000
199.047;  -58.975; -615.000; -488.000
199.193;  -35.725; -230.000; -468.000
199.339;  -44.475; -222.000; -369.000
199.485;   44.675;  330.000;  271.000
199.631;    8.150;  227.000;  310.000
199.777;  -41.200; -466.000; -398.000
199.923;  -67.275; -610.000; -424.000
200.069;   -4.275; -141.000;  -58.000
200.215;   57.925;  128.000;  453.000
200.361;   52.825;  243.000;  477.000
200.507;  -60.000; -600.000; -373.000
200.653;  -13.700; -371.000; -194.000
200.798;  -35.175; -215.000; -125.000
200.944;   -7.975; -146.000;  -41.000
201.090;   52.450;   61.000;  222.000
201.236;    0.000; -116.000; -158.000
201.382;  126.775;  874.000;  903.000
201.528;   11.325;  -58.000;  -48.000
201.674;  -49.075; -386.000; -293.000
201.819;  -56.825; -540.000; -439.000
201.965;  -89.625; -699.000; -447.000
202.111;   -6.450; -273.000; -226.000
202.257;  -32.775; -250.000; -238.000
202.402;    4.675;   13.000;  -36.000
202.548;  -27.100; -169.000; -116.000
202.694;   95.500;  410.000; -183.000
202.840;  -84.775; -603.000; -531.000
202.985;  -80.775; -681.000; -639.000
203.131; -100.950; -832.000; -666.000
203.277;  -10.575; -199.000; -262.000
203.423;  -58.625; -434.000; -520.000
203.568;  -21.850; -462.000; -237.000
203.714;  -62.925; -535.000; -542.000
203.860;  -82.475; -682.000; -641.000
204.005;   17.100;  112.000;  167.000
204.151;   74.925;  561.000;  556.000
204.296;  -52.650; -354.000; -221.000
204.442;  -74.525; -600.000; -547.000
204.588;  -73.300; -592.000; -579.000
204.733;   17.275;  178.000;  168.000
204.879; -133.075;-1018.000; -822.000
205.025;   14.300;  -99.000;  126.000
205.170;  -17.500;  -17.000;   94.000
205.316;   88.925;  438.000;  661.000
205.461;  -71.150; -698.000; -554.000
205.607;   87.300;  609.000;  665.000
205.752;  -73.350; -626.000; -551.000
205.898;  -49.625; -501.000; -391.000
206.043;  -57.250; -578.000; -506.000
206.189;  -20.575; -243.000; -285.000
206.334;   89.550;  554.000;  606.000
206.480;   84.200;  409.000;  239.000
206.625;  -82.350; -529.000; -552.000
206.771;  -48.150; -451.000; -373.000
206.916;  -33.950; -210.000; -537.000
207.062;  -65.300; -545.000; -591.000
207.207;  -71.900; -546.000; -443.000
207.353;   47.650;  185.000;  460.000
207.498;   10.625;  196.000;   85.000
207.643;  -44.175; -501.000; -370.000
207.789; -136.125;-1069.000; -910.000
207.934;  -88.875; -665.000; -713.000
208.080;  -19.450; -154.000;   66.000
208.225;   -3.100;  -22.000;  -57.000
208.370;  -81.975; -727.000; -619.000
208.516;  -61.650; -741.000; -487.000
208.661;  -35.950; -127.000;  -69.000
208.806;  -26.900; -165.000; -171.000
208.952; -134.775;-1044.000; -731.000
209.097;   83.075;  378.000;  349.000
209.242;  -49.300; -307.000; -382.000
209.387;   79.725;  392.000;  350.000
209.533;  -49.775; -321.000; -350.000
209.678;   96.250;  472.000;  543.000
209.823;  -58.675; -408.000; -310.000
209.969; -105.650; -860.000; -757.000
210.114; -101.850; -907.000; -719.000
210.259; -120.800; -939.000; -889.000
210.404;  -11.500; -171.000;  103.000
210.549;   11.850;  108.000;    3.000
210.695;  -24.875;   -3.000;  -95.000
210.840;   40.375;   94.000;   67.000
210.985;  -70.775; -484.000; -303.000
211.130;   69.650;  268.000;  406.000
211.275;   18.875;  207.000;  199.000
211.420;  -63.225; -300.000; -289.000
211.566;  -73.900; -536.000; -489.000
211.711;   33.200;  218.000;  157.000
211.856;  -58.900; -545.000; -519.000
212.001;    5.525;  151.000;   44.000
212.146;   21.775;  153.000;   49.000
212.291;  -17.425; -210.000; -186.000
212.436;  -19.250; -280.000;   -6.000
212.581;  -86.000; -685.000; -653.000
212.726;  -86.000; -487.000; -538.000
212.871;  -47.250; -552.000; -217.000
213.016; -161.700;-1172.000;-1029.000
213.161;   75.775;  406.000;  291.000
213.306;  -86.100; -435.000; -577.000
213.451;  -86.075; -778.000; -689.000
213.596;  -48.800; -455.000; -347.000
213.741;  -50.700; -448.000; -538.000
213.886;  -74.775; -498.000; -517.000
214.031;  -11.925; -294.000; -124.000
214.176;  -64.825; -408.000; -341.000
214.321;  -21.975; -296.000; -157.000
214.466;  -29.850; -163.000;  -43.000
214.611;   -0.850;  -61.000;  -10.000
214.756; -138.250; -948.000; -858.000
214.901;  -14.675; -388.000; -226.000
215.046; -127.075; -797.000; -825.000
215.191;   23.075;  128.000;   35.000
215.336;  -18.475; -157.000;  -19.000
215.480;  -61.325; -684.000; -505.000
215.625;  -24.325; -175.000;  -19.000
215.770;  -82.525; -757.000; -662.000
215.915;   -5.925;   -5.000;  -97.000
216.060;   -7.600; -113.000;  -21.000
216.205; -107.200; -731.000; -779.000
216.349;  -71.525; -470.000; -533.000
216.494; -137.500; -939.000; -867.000
216.639; -111.425; -823.000; -888.000
216.784;  -89.125; -577.000; -525.000
216.929;   42.900;  392.000;  281.000
217.073;  -12.500; -244.000;  -31.000
217.218;   10.625;   78.000;  -47.000
217.363;  -79.425; -656.000; -618.000
217.507;  -77.250; -623.000; -588.000
217.652; -118.775; -845.000; -874.000
217.797;  -89.325; -708.000; -659.000
217.942; -108.225; -856.000; -720.000
218.086;   85.425;  608.000;  539.000
218.231;  -26.575; -174.000;  -26.000
218.376;  -22.475; -337.000; -229.000
218.520;   -5.000;  -41.000;   96.000
218.665;  -15.750; -338.000; -204.000
218.810;  -40.600; -275.000; -233.000
218.954;   41.750;  201.000;   35.000
219.099; -102.650; -713.000; -963.000
219.243;  -64.075; -589.000; -554.000
219.388;  -33.425; -264.000; -136.000
219.532;   -3.600; -116.000; -116.000
219.677;  -77.650; -564.000; -521.000
219.822;    6.975;   33.000;   89.000
219.966;   -3.700;   17.000;  -99.000
220.111;  -31.900; -328.000;  -40.000
220.255;  -96.425; -797.000; -750.000
220.400;  -17.300; -180.000; -146.000
220.544;  -62.775; -516.000; -450.000
220.689;  -42.400; -422.000; -451.000
220.833;  -26.950; -123.000;  -58.000
220.978;  -34.350; -393.000; -563.000
221.122;   17.375;  319.000;  307.000
221.267; -111.350; -906.000; -837.000
221.411;  -80.550; -478.000; -394.000
221.555;   -4.350; -104.000;  -23.000
221.700;  -55.125; -329.000; -222.000
221.844;   34.625;  255.000;  272.000
221.989;  -47.525; -328.000; -311.000
222.133;  -29.900; -289.000; -307.000
222.277;  -19.100;    5.000;   78.000
222.422;   32.775;  227.000;  113.000
222.566;  -45.975; -381.000; -214.000
222.711;  -53.050; -414.000; -479.000
222.855;  -75.525; -643.000; -586.000
222.999;  -80.700; -642.000; -717.000
223.144;  -23.650; -195.000; -194.000
223.288;   46.850;  423.000;  251.000
223.432;   29.200;  184.000;  230.000
223.576;   19.950;  152.000;  -21.000
223.721;   31.475;  364.000;  273.000
223.865;  -45.775; -472.000; -475.000
224.009;  246.550; 1673.000; 1631.000
224.153;  -78.625; -660.000; -671.000
224.298;  -70.275; -531.000; -489.000
224.442;   -6.050;  -74.000;  -33.000
224.586;  -14.000; -169.000; -106.000
224.730;  -96.075; -858.000; -670.000
224.875; -111.425; -739.000; -688.000
225.019;   17.375;  102.000;  188.000
225.163;   50.225;  208.000;  341.000
225.307;   27.025;   97.000;  -91.000
225.451;   41.125;  360.000;  481.000
225.595;   35.300;  264.000;  176.000
225.739;  -21.275; -170.000;  -94.000
225.884;    8.250;   86.000;    5.000
226.028; -104.000; -760.000; -626.000
226.172;  -17.575; -260.000; -273.000
226.316; -131.600; -941.000; -902.000
226.460;  -70.125; -645.000; -493.000
226.604;  -62.100; -406.000; -400.000
226.748;  -94.500; -836.000; -733.000
226.892;  -30.925; -227.000; -181.000
227.036;  -36.625; -537.000; -447.000
227.180;  -69.800; -551.000; -375.000
227.324;  -66.350; -561.000; -580.000
227.468; -114.450; -819.000; -717.000
227.612;   16.550;  242.000;  -28.000
227.756; -106.725; -845.000; -698.000
227.900;   52.600;  342.000;  441.000
228.044;  -57.575; -509.000; -290.000
228.188;   70.225;  448.000;  568.000
228.332;  -90.900; -546.000; -472.000
228.476;  -19.100; -223.000; -149.000
228.620;  -23.350; -210.000; -150.000
228.764;   62.175;  431.000;  349.000
228.908;  -22.250; -155.000;   30.000
229.052;  -54.875; -615.000; -528.000
229.195;  -14.900; -172.000;   13.000
229.339;  -13.300; -235.000; -305.000
229.483;  -30.150;    5.000; -162.000
229.627;    9.025; -156.000;  139.000
229.771;  -53.475; -218.000; -294.000
229.915;   17.650;  230.000;   79.000
230.059;  -99.400; -648.000; -663.000
230.202;  -37.925; -370.000; -317.000
230.346;   -2.150; -107.000;  107.000
230.490;  -59.425; -489.000; -521.000
230.634; -112.275; -736.000; -553.000
230.777;   82.900;  478.000;  509.000
230.921;  -51.625; -450.000; -359.000
231.065;  -42.050; -246.000; -286.000
231.209;   22.475;  261.000;  265.000
231.352;   20.750;   54.000;   40.000
231.496;    1.300;  568.000;  188.000
231.640;  -83.875; -693.000; -621.000
231.783;   64.475;  546.000;  525.000
231.927;  -36.825; -294.000; -365.000
232.071; -124.500; -962.000; -736.000
232.214; -101.975; -980.000; -764.000
232.358;  -90.225; -683.000; -599.000
232.502;   -3.350;  -19.000;    7.000
232.645; -147.725;-1090.000; -927.000
232.789;  -15.475; -257.000; -218.000
232.933;  -38.725; -407.000; -224.000
233.076; -124.800;-1038.000; -897.000
233.220; -106.475; -752.000; -777.000
233.363;  -75.600; -669.000; -477.000
233.507;   66.400;  371.000;  129.000
233.650;  -86.625; -764.000; -834.000
233.794;   37.000;  438.000;  461.000
233.938;  -60.550; -530.000; -362.000
234.081;  -18.850;  -93.000;   31.000
234.225;  -63.625; -631.000; -539.000
234.368; -111.425; -773.000; -723.000
234.512;  -36.525; -385.000; -299.000
234.655;  -91.050; -582.000; -555.000
234.798;  -70.850; -493.000; -466.000
234.942; -133.825; -884.000;-1002.000
235.085;  -72.275; -651.000; -443.000
235.229;  -78.775; -405.000; -410.000
235.372;  -40.100; -247.000; -191.000
235.516;  -62.400; -397.000; -321.000
235.659;   21.500;   92.000;  121.000
235.802;  -18.050;  -38.000;  -22.000
235.946;   28.450;  335.000;  215.000
236.089;   25.275;  126.000;  250.000
236.233;   69.675;  275.000;  298.000
236.376;  -51.550; -235.000; -378.000
236.519;  -44.825; -297.000; -319.000
236.663;  -27.850; -215.000; -117.000
236.806; -126.500;-1029.000; -999.000
236.949;   69.800;  543.000;  431.000
237.092;   61.050;  412.000;  391.000
237.236; -100.275; -589.000; -502.000
237.379;   76.675;  352.000;  428.000
237.522; -120.575; -879.000; -768.000
237.666;  -12.425; -271.000;   18.000
237.809; -130.475; -851.000; -823.000
237.952;   47.425;  469.000;  271.000
238.095;  -68.800; -447.000; -442.000
238.238;   83.225;  688.000;  700.000
238.382;    8.175;  166.000;  103.000
238.525;  -59.425; -598.000; -511.000
238.668; -145.975;-1060.000; -985.000
238.811;  -71.325; -638.000; -643.000
238.954;  -69.750; -483.000; -334.000
239.097;  103.950;  617.000;  664.000
239.241;   22.275;  394.000;  326.000
239.384;  -32.975; -254.000; -214.000
239.527;  -67.050; -424.000; -224.000
239.670; -139.550; -994.000;-1091.000
239.813; -117.375; -696.000; -658.000
239.956;   83.600;  579.000;  473.000
240.099; -110.075; -778.000; -725.000
240.242;   63.650;  428.000;  432.000
240.385;   51.775;  466.000;  450.000
240.528;  -60.625; -706.000; -473.000
240.671;    0.675;  189.000;  134.000
240.814;  -31.850; -441.000; -158.000
240.957;  -95.650; -767.000; -578.000
241.100;  -93.750; -779.000; -755.000
241.243; -152.325;-1234.000; -893.000
241.386;  -64.800; -508.000; -379.000
241.529;  -96.450; -735.000; -547.000
241.672;  -54.925; -566.000; -495.000
241.815; -131.100; -832.000; -808.000
241.958;  -23.950; -125.000; -182.000
242.101;  -86.875; -545.000; -390.000
242.244;  -45.975; -270.000; -325.000
242.387;  -50.950; -304.000; -246.000
242.530;   66.575;  470.000;  134.000
242.673;  -46.050; -381.000; -309.000
242.815; -112.975; -925.000; -899.000
242.958;  -73.350; -482.000; -381.000
243.101;   21.250;  132.000;  187.000
243.244;  -89.475; -564.000; -521.000
243.387;  -31.625; -313.000; -316.000
243.530; -103.625; -657.000; -674.000
243.672;   -4.750;   43.000;  -92.000
243.815;  -56.375; -355.000; -283.000
243.958;   19.325;   98.000;  -26.000
244.101;    3.625;   59.000;  -16.000
244.243;  -15.775;  -47.000;  101.000
244.386; -120.825; -761.000; -630.000
244.529;  -27.400; -132.000; -139.000
244.672; -166.100;-1154.000; -951.000
244.814;  -97.950; -621.000; -794.000
244.957;  -61.850; -380.000; -304.000
245.100;  -64.050; -489.000; -489.000
245.242;  -71.150; -387.000; -374.000
245.385;    7.075;  -59.000;  -39.000
245.528; -119.700; -871.000; -705.000
245.670;  100.600;  612.000;  634.000
245.813;  -90.875; -599.000; -547.000
245.956;  -16.975; -324.000; -275.000
246.098;  -87.025; -508.000; -650.000
246.241;   14.900;  194.000;   48.000
246.383;  -16.650; -119.000;  -73.000
246.526;  -72.875; -454.000; -525.000
246.669; -124.675; -889.000; -780.000
246.811;   20.525;  172.000;   -1.000
246.954;  -72.700; -512.000; -426.000
247.096;  -12.150;  -84.000;   -6.000
247.239;  -68.725; -482.000; -445.000
247.381;  -72.150; -647.000; -488.000
247.524;   87.500;  645.000;  679.000
247.666;   -3.225;   58.000;   11.000
247.809; -121.275; -887.000; -691.000
247.951;   -6.025;  -75.000;  138.000
248.094;   29.450;  432.000;  308.000
248.236; -163.050;-1262.000;-1238.000
248.378;    4.250; -356.000;  -81.000
248.521;  -13.725; -334.000; -337.000
248.663;  -44.750; -236.000; -267.000
248.806;  -24.800; -300.000; -266.000
248.948;  -83.150; -886.000; -763.000
249.090;  -45.375; -428.000; -398.000
249.233;  -54.825; -344.000; -381.000
249.375;  -44.875; -474.000; -451.000
249.518;  -38.275;  -83.000; -133.000
249.660;  -12.150; -103.000;    3.000
249.802; -183.825;-1303.000;-1189.000
249.945;  -58.375; -612.000; -540.000
250.087; -132.525; -834.000; -768.000
250.229;  -39.175; -362.000; -480.000
250.371;  -74.000; -494.000; -439.000
250.514;  -46.350; -310.000; -244.000
250.656;  -42.750;   69.000;  102.000
250.798; -100.900; -849.000; -800.000
250.940;  -72.875; -322.000; -322.000
251.083;  -24.425; -335.000; -111.000
251.225;   65.975;  338.000;  310.000
251.367;  -44.575; -274.000; -373.000
251.509;  -39.975; -265.000; -210.000
251.651;  -89.125; -731.000; -671.000
251.794;   82.800;  538.000;  632.000
251.936; -100.550; -821.000; -747.000
252.078;  -95.975; -540.000; -461.000
252.220;  -64.025; -645.000; -477.000
252.362;   82.525;  344.000;  462.000
252.504;  -76.375; -677.000; -584.000
252.646; -105.650; -875.000; -722.000
252.788;    1.025;   14.000; -128.000
252.931;  -51.150; -257.000; -253.000
253.073;  -27.400; -376.000; -317.000
253.215;  -16.275;  141.000;  122.000
253.357;   -0.850;   82.000; -153.000
253.499;  -45.975; -374.000; -234.000
253.641;  -89.025; -749.000; -594.000
253.783;  -99.125; -609.000; -527.000
253.925;  -75.950; -586.000; -591.000
254.067; -105.325; -744.000; -667.000
254.209;  -12.225; -391.000; -259.000
254.351; -132.975; -865.000; -883.000
254.493;  -55.950; -441.000; -417.000
254.635; -144.700; -936.000; -818.000
254.777;  -92.600; -752.000; -687.000
254.918;  -68.125; -512.000; -430.000
255.060;  -55.375; -551.000; -395.000
255.202;  -61.250; -473.000; -261.000
255.344;  -77.875; -658.000; -455.000
255.486;  -69.975; -471.000; -406.000
255.628;  -94.800; -780.000; -781.000
255.770;  -94.175; -676.000; -536.000
255.912;  -64.900; -559.000; -468.000
256.053; -115.525; -730.000; -508.000
256.195;  155.300; 1008.000;  903.000
256.337; -109.800; -861.000; -595.000
256.479;   64.150;  532.000;  416.000
256.621;  -43.525; -394.000; -212.000
256.762;  -95.500; -789.000; -742.000
256.904;   41.675;  485.000;  487.000
257.046;  -39.325; -381.000; -271.000
257.188;  -57.250; -351.000; -264.000
257.329;  -72.900; -525.000; -464.000
257.471; -130.075; -939.000; -807.000
257.613;  -69.475; -584.000; -498.000
257.755; -140.725;-1073.000; -982.000
257.896;   38.725;  286.000;  392.000
258.038;  -73.425; -403.000; -352.000
258.180;  -26.425; -354.000; -279.000
258.321;  -98.950; -581.000; -457.000
258.463;   11.150;  -71.000;  133.000
258.605;  -86.850; -562.000; -570.000
258.746;  -99.450; -886.000; -772.000
258.888; -161.850;-1026.000;-1020.000
259.029;   20.625;  121.000;   -8.000
259.171; -101.325; -614.000; -550.000
259.313;    0.875;  -49.000;  -47.000
259.454;  -89.000; -536.000; -414.000
259.596;  -48.225; -483.000; -390.000
259.737;  -82.175; -590.000; -474.000
259.879;   37.500;  217.000;  311.000
260.020;   83.275;  901.000;  636.000
260.162;  -44.200; -146.000; -253.000
260.303; -117.350; -768.000; -687.000
260.445;  -86.825; -609.000; -613.000
260.586;   14.350;  392.000;  157.000
260.728;  -32.075; -360.000; -248.000
260.869;  -83.175; -350.000; -343.000
261.011;   83.400;  706.000;  537.000
261.152;  -66.900; -479.000; -319.000
261.293;  -79.050; -576.000; -595.000
261.435;  -44.925; -219.000; -184.000
261.576;  -40.925; -455.000; -325.000
261.718;   56.325;  420.000;  470.000
261.859; -118.650; -940.000; -949.000
262.000; -134.600; -951.000;-1016.000
262.142;  -21.325;  -52.000;  -60.000
262.283; -123.775; -808.000; -691.000
262.424;  -89.525; -666.000; -625.000
262.566; -158.675;-1161.000; -983.000
262.707; -114.900; -840.000; -830.000
262.848; -123.500; -769.000; -726.000
262.990;  -41.950; -362.000; -345.000
263.131;   79.950;  650.000;  681.000
263.272;    1.575;  -61.000;  -41.000
263.413; -102.150; -589.000; -561.000
263.555;  -64.100; -669.000; -143.000
263.696; -112.750; -550.000; -641.000
263.837;  -56.075; -449.000; -551.000
263.978;  -16.500;   -5.000;  -77.000
264.119;  -53.900; -283.000; -264.000
264.261; -126.275; -847.000; -630.000
264.402;    0.525;   33.000;   40.000
264.543;  -79.275; -509.000; -524.000
264.684;  -19.675;   61.000;  -50.000
264.825;  -81.275; -816.000; -538.000
264.966;   -9.825;  -84.000;  -67.000
265.107; -127.825; -646.000; -670.000
265.248; -116.750; -825.000; -812.000
265.390;  -21.925;  152.000;   -9.000
265.531;  -18.325; -238.000; -107.000
265.672;  -91.400; -557.000; -630.000
265.813;   70.175;  563.000;  439.000
265.954; -140.825; -959.000; -940.000
266.095;   -7.825; -372.000; -322.000
266.236; -112.600; -686.000; -548.000
266.377;  -40.925; -243.000; -297.000
266.518;  -72.750; -619.000; -547.000
266.659;   28.600;  170.000;  268.000
266.800;   11.075;   83.000;   85.000
266.941;  -75.875; -487.000; -478.000
267.082;   21.850;  354.000;   99.000
267.223;  -52.750; -344.000; -273.000
267.364; -126.650; -892.000; -686.000
267.504;  -20.325;    3.000;  135.000
267.645;   -4.175;  160.000;   67.000
267.786;  -22.450; -147.000;  -86.000
267.927;  -81.450; -473.000; -379.000
268.068;  -17.300; -186.000;  -61.000
268.209;  -39.400; -175.000; -413.000
268.350;  -48.925; -388.000; -532.000
268.490;  -72.400; -648.000; -521.000
268.631;   26.750;  127.000;  225.000
268.772; -109.700; -874.000; -647.000
268.913;  -52.400; -328.000; -476.000
269.054;  -14.450; -117.000;   12.000
269.194;  -49.075; -418.000; -402.000
269.335; -151.725;-1137.000;-1074.000
269.476;  -24.450;   33.000;  -35.000
269.617;  -59.125; -347.000; -392.000
269.757;  -88.050; -713.000; -646.000
269.898; -119.650; -856.000; -613.000
270.039;  -60.475; -415.000; -405.000
270.180; -130.850; -952.000; -816.000
270.320;  -27.125; -190.000; -250.000
270.461;  -38.975; -277.000; -249.000
270.602;   -5.125; -186.000; -156.000
270.742; -122.975; -868.000; -943.000
270.883;  -62.200; -442.000; -390.000
271.023;  -70.025; -358.000; -357.000
271.164;  -72.875; -607.000; -528.000
271.305; -105.150; -666.000; -654.000
271.445;  -87.775; -722.000; -683.000
271.586;  -80.000; -462.000; -283.000
271.726;  -57.400; -397.000; -322.000
271.867;  -69.175; -594.000; -534.000
272.008;  160.300; -473.000; -285.000
272.148;  130.350;  462.000;  468.000
272.289;   22.075; -113.000; -181.000
272.429;   11.975;   19.000;  185.000
272.570;  -91.050; -633.000; -737.000
272.710; -106.450; -825.000; -775.000
272.851;  -30.025;  113.000; -130.000
272.991; -159.700;-1173.000;-1077.000
273.131;  -70.200; -419.000; -459.000
273.272; -101.750; -683.000; -723.000
273.412;   -5.325; -143.000;  -31.000
273.553;  -63.600; -488.000; -507.000
273.693;  126.375;  913.000;  858.000
273.834; -100.550; -894.000; -692.000
273.974;  -70.825; -664.000; -615.000
274.114; -114.050; -772.000; -560.000
274.255;   77.300;  414.000;  373.000
274.395;    0.800; -180.000; -125.000
274.535;   36.050;  199.000;  350.000
274.676;   21.325;  225.000;   94.000
274.816;    8.700;  110.000;   34.000
274.956;  -91.650; -624.000; -690.000
275.097;  -70.550;-1014.000; -922.000
275.237; -103.800; -913.000; -803.000
275.377;  -94.400; -778.000; -689.000
275.517; -143.075; -878.000; -937.000
275.658;  -66.900; -590.000; -555.000
275.798;  -69.125; -606.000; -413.000
275.938;   23.000;  215.000;  323.000
276.078; -107.700; -626.000; -395.000
276.218;    5.050;   99.000;  104.000
276.359; -132.425;-1026.000;-1024.000
276.499;  -67.525; -605.000; -446.000
276.639;  -44.800; -305.000; -151.000
276.779;  -42.575; -475.000; -357.000
276.919; -105.825; -783.000; -624.000
277.059;  -22.625; -261.000; -212.000
277.199;  -48.375; -357.000; -259.000
277.340;   43.750;  287.000;  175.000
277.480; -113.025; -840.000; -693.000
277.620;   29.500;  192.000;   16.000
277.760; -201.925;-1533.000;-1294.000
277.900;   23.250;  113.000;   33.000
278.040;    9.450;  137.000;  159.000
278.180;   39.525;  270.000;  170.000
278.320;  -14.850;   21.000;   56.000
278.460;  -73.650; -443.000; -469.000
278.600;  -94.425; -708.000; -598.000
278.740;   65.350;  448.000;  224.000
278.880;  -79.775; -768.000; -791.000
279.020;  -11.425; -194.000; -144.000
279.160;  -92.300; -672.000; -595.000
279.300; -116.875; -926.000; -873.000
279.440;  -95.425; -709.000; -622.000
279.579;   -7.675;-1014.000; -929.000
279.719;  -59.050; -410.000; -394.000
279.859;   58.200;   -4.000;   41.000
279.999;   18.350; -208.000;  101.000
280.139;  -14.525; -435.000; -387.000
280.279;  -65.950; -708.000; -745.000
280.419;   -9.425; -229.000; -147.000
280.559;  -46.950; -259.000; -180.000
280.698;  -75.675; -790.000; -639.000
280.838;  -89.475; -778.000; -800.000
280.978; -107.575; -846.000; -790.000
281.118; -114.400; -811.000; -704.000
281.257;   12.350;   24.000;    6.000
281.397; -122.550;-1094.000; -960.000
281.537;  -90.100; -599.000; -712.000
281.677;  -41.300; -150.000; -101.000
281.816;  -90.700; -700.000; -630.000
281.956;  -44.675; -193.000; -257.000
282.096;  -58.900; -539.000; -396.000
282.235; -110.050; -672.000; -638.000
282.375;  -20.700; -243.000;  -98.000
282.515; -109.350; -715.000; -707.000
282.654;   26.275;   29.000;  106.000
282.794;   20.175;  388.000;  244.000
282.934;  -69.975; -530.000; -491.000
283.073; -135.225;-1030.000; -857.000
283.213;  -54.625; -460.000; -467.000
283.353;  -50.250; -408.000; -349.000
283.492;  -37.125; -264.000; -296.000
283.632;  -47.125; -254.000; -168.000
283.771;  -98.975; -859.000; -730.000
283.911;  -58.600; -369.000; -260.000
284.050; -108.275; -794.000; -748.000
284.190; -157.875;-1229.000;-1096.000
284.329; -149.875;-1055.000; -964.000
284.469;  -77.075; -516.000; -591.000
284.608;  -59.200; -559.000; -598.000
284.748;  -87.250; -614.000; -570.000
284.887;    2.600;  -87.000;  -20.000
285.027; -131.425; -844.000; -892.000
285.166;  -37.900; -192.000; -249.000
285.306;  -11.100; -116.000;  -33.000
285.445;  -23.075; -229.000; -343.000
285.584; -102.700; -630.000; -494.000
285.724;  -43.775; -282.000; -322.000
285.863; -114.925; -857.000; -507.000
286.002;  -48.875; -366.000; -276.000
286.142; -122.500; -715.000; -622.000
286.281;  -74.600; -525.000; -493.000
286.420;  -83.625; -554.000; -417.000
286.560;   95.700;  653.000;  623.000
286.699; -145.600; -958.000; -912.000
286.838;  -74.475; -590.000; -591.000
286.978;  -98.475; -533.000; -537.000
287.117; -135.000;-1085.000; -950.000
287.256;  -47.200; -228.000; -211.000
287.395;  -47.025; -197.000; -378.000
287.535;  -49.000; -370.000; -298.000
287.674;  -80.325; -509.000; -484.000
287.813;   44.575;  661.000;  533.000
287.952; -138.325;-1010.000; -871.000
288.091; -154.225;-1049.000; -915.000
288.231;   18.550;   13.000;   15.000
288.370; -179.450;-1217.000;-1200.000
288.509; -100.050; -728.000; -645.000
288.648; -103.950; -770.000; -548.000
288.787;  -33.975; -243.000;  -87.000
288.926;  -59.450; -454.000; -475.000
289.065;  116.475;  859.000;  672.000
289.204;  -58.975; -377.000; -217.000
289.344;  -90.025; -791.000; -690.000
289.483;   23.750;  416.000;  304.000
289.622;  -29.900; -291.000; -149.000
289.761;  -24.600; -309.000; -166.000
289.900; -116.700; -785.000; -626.000
290.039;  -33.675;  -12.000;  -95.000
290.178;  -55.850; -274.000; -180.000
290.317;  -84.775; -618.000; -479.000
290.456;  -66.000; -463.000; -451.000
290.595; -145.750; -961.000; -833.000
290.734; -135.025; -904.000; -891.000
290.873;  -76.650; -456.000; -420.000
291.011; -114.425; -833.000; -843.000
291.150; -116.850; -770.000; -682.000
291.289;  -40.425; -343.000; -110.000
291.428;  -91.475; -599.000; -480.000
291.567;  -62.525; -370.000; -442.000
291.706;   -5.000;  109.000;  154.000
291.845;  -77.025; -597.000; -505.000
291.984; -172.650;-1234.000;-1061.000
292.122;   72.525;  602.000;  582.000
292.261;   56.150;  620.000;  463.000
292.400;    5.425; -144.000;  211.000
292.539; -132.875; -959.000; -813.000
292.678;  -50.475; -325.000; -300.000
292.816; -163.375;-1136.000; -965.000
292.955;  -82.800; -844.000; -684.000
293.094;  -41.475; -173.000; -337.000
293.233;  -41.200; -556.000; -400.000
293.371;  -58.575; -225.000;  -84.000
293.510; -112.225; -866.000; -780.000
293.649; -142.350; -959.000; -924.000
293.787;  -64.950;-1083.000;-1012.000
293.926;   -4.600; -113.000;  -32.000
294.065;  -36.475; -379.000; -290.000
294.203;   47.375;  298.000;  406.000
294.342;   23.575;   74.000;  156.000
294.481; 5604.250;51180.000; -836.000
294.619;  -28.075; -425.000; -582.000
294.758; -157.275;-1230.000;-1137.000
294.896;   59.250; -125.000;    5.000
295.035; -148.675;-1040.000;-1006.000
295.174; -118.425;-1082.000; -954.000
295.312;  -39.575; -323.000; -203.000
295.451;   -4.425; -307.000; -428.000
295.589;  -74.250; -389.000; -518.000
295.728;   19.725; -292.000; -165.000
295.866;  -11.700;  -36.000;  -51.000
296.005;  -74.275; -584.000; -341.000
296.143;  -65.250; -558.000; -596.000
296.282;  -92.375; -957.000; -881.000
296.420;  -96.825; -657.000; -557.000
296.559;  -88.650; -892.000; -633.000
296.697;    1.800; -847.000; -665.000
296.835;   25.325;-1141.000;-1002.000
296.974;   45.475;  -23.000;   39.000
297.112;    6.625; -443.000; -504.000
297.251;  -98.275; -815.000; -755.000
297.389;   75.025; -576.000; -438.000
297.527;   32.075; -145.000;  -83.000
297.666;  -53.600; -486.000; -438.000
297.804;  -59.200; -404.000; -264.000
297.942;   -1.400; -136.000; -161.000
298.081;   -9.850; -183.000;   63.000
298.219;   58.500;  -17.000;  -19.000
298.357;   38.575; -144.000;  -71.000
298.495;   18.650; -810.000; -812.000
298.634;   50.975;  245.000;  219.000
298.772;   49.400; -220.000; -338.000
298.910;  -43.275; -309.000; -182.000
299.048;   -6.325; -130.000; -153.000
299.187;  -36.275; -350.000; -250.000
299.325;   22.625;   52.000;  122.000
299.463;   34.650; -389.000; -299.000
299.601;   91.400; -327.000; -271.000
299.739; -119.125; -908.000; -883.000
299.877;  -82.050; -791.000; -703.000
300.016;  -62.225;-1095.000; -935.000
300.154;  156.875;  -19.000; -161.000
300.292;   31.700; -428.000; -348.000
300.430;   27.950; -408.000; -291.000
300.568; -127.650; -940.000; -874.000
300.706;  -57.875; -366.000; -469.000
300.844;  -86.025;-1108.000; -979.000
300.982;  103.625;  246.000;  282.000
301.120; -125.550; -965.000; -866.000
301.258;  -69.950; -812.000; -705.000
301.396;   16.375;  104.000;  -41.000
301.534;   71.500; -218.000; -293.000
301.672;  -34.975; -664.000; -521.000
301.810;   13.325; -613.000; -545.000
301.948;   94.575;   53.000;  149.000
302.086;  563.300; -250.000;  -32.000
302.224;  846.625; -610.000; -585.000
302.362;   23.150; -558.000; -622.000
302.500;  -45.175; -923.000; -893.000
302.638;   98.125;  128.000;  245.000
302.776;  -16.400; -352.000; -408.000
302.913;   41.900;  447.000;  236.000
303.051;   -6.025;  -86.000;  -23.000
303.189;   35.700;   90.000;  118.000
303.327;  -38.150; -341.000; -256.000
303.465;  -81.325; -832.000; -588.000
303.603;  -98.675; -805.000; -604.000
303.740;   85.075;  417.000;  241.000
303.878;    4.075; -800.000; -759.000
304.016;  -96.275; -915.000; -790.000
304.154; -130.425;-1123.000;-1152.000
304.291;  -37.725; -505.000; -554.000
304.429;   15.100;  102.000;   74.000
304.567; -130.850; -908.000; -893.000
304.705;  -48.025; -408.000; -515.000
304.842;   81.950; -616.000; -540.000
304.980;   49.975;  215.000;   35.000
305.118;   40.625; -367.000; -365.000
305.255;  -84.400; -945.000; -927.000
305.393;   45.525;  178.000;  239.000
305.531; -123.625;-1173.000; -956.000
305.668;  -67.850; -663.000; -582.000
305.806;   84.700; -358.000; -439.000
305.943;   98.075; -629.000; -637.000
306.081;   39.950; -378.000; -267.000
306.219;  -98.000; -863.000; -748.000
306.356;   -5.200;  158.000;   27.000
306.494;  104.200;  981.000;  761.000
306.631;   -3.325;  -11.000;  -55.000
306.769;   -4.875; -613.000; -485.000
306.906;  -35.650; -284.000; -258.000
307.044;  -59.600; -473.000; -488.000
307.181;  -84.550; -410.000; -332.000
307.319;   16.750;  112.000;   87.000
307.456; -168.075;-1191.000;-1153.000
307.594;  -96.275; -980.000; -727.000
307.731;  -26.300; -371.000; -164.000
307.868;   -1.650;  -15.000;   20.000
308.006; -142.575; -961.000; -847.000
308.143;  -62.100; -618.000; -330.000
308.281;  118.300;  -37.000; -254.000
308.418;  -28.850; -748.000; -640.000
308.555;  -81.300; -400.000; -250.000
308.693;  -83.850; -577.000; -573.000
308.830; -107.725; -712.000; -657.000
308.967;  -14.900; -215.000;  -95.000
309.105;  -62.850; -507.000; -396.000
309.242;   28.000; -468.000; -367.000
309.379;  204.525; -577.000; -655.000
309.517;  -75.250; -936.000; -948.000
309.654; -117.925; -910.000; -734.000
309.791;  -71.175; -662.000; -580.000
309.928; -145.050; -977.000; -914.000
310.065;  171.225;  819.000;  697.000
310.203;  -29.175; -825.000; -850.000
310.340;  -26.350; -465.000; -321.000
310.477;  -89.375; -412.000; -516.000
310.614;  -58.675; -383.000; -473.000
310.751;  -78.800; -427.000; -518.000
310.889;  -19.875;    1.000;   11.000
311.026; -157.100;-1161.000; -939.000
311.163;  -54.000; -386.000; -380.000
311.300;  -92.450; -512.000; -479.000
311.437;  -82.825; -658.000; -619.000
311.574; -157.000;-1226.000; -985.000
311.711;  -69.600; -595.000; -433.000
311.848;  -50.275; -380.000; -388.000
311.985;    9.050;  270.000;   93.000
312.122; -112.650; -932.000; -762.000
312.259; -127.075; -941.000; -994.000
312.396;  -94.925; -508.000; -551.000
312.533;  -89.300; -812.000; -790.000
312.670; -123.525;-1070.000; -898.000
312.807;  -35.750; -352.000; -367.000
312.944;  -72.450; -513.000; -611.000
313.081;  -36.400; -150.000; -415.000
313.218; -119.800;-1111.000; -867.000
313.355;   -1.100; -531.000; -449.000
313.492;  -16.200; -455.000; -292.000
313.629;  136.900;  815.000;  735.000
313.766; -164.150;-1176.000;-1008.000
313.902;  -19.000; -186.000;   21.000
314.039;  -59.725; -372.000; -289.000
314.176;   22.450;  286.000;  192.000
314.313;  -93.175; -569.000; -473.000
314.450;  -80.025; -788.000; -684.000
314.587;  -70.250; -468.000; -480.000
314.723;   -2.900;  -78.000;  130.000
314.860;   15.950;  318.000;  332.000
314.997;   25.050;  223.000;  142.000
315.134;  -51.850; -385.000; -368.000
315.270;  -31.400; -480.000; -496.000
315.407; -129.275;-1094.000; -967.000
315.544;  -44.950; -657.000; -538.000
315.681;  -89.300; -681.000; -565.000
315.817;   27.475; -133.000; -176.000
315.954;   -7.000; -613.000; -392.000
316.091; -122.075;-1045.000;-1023.000
316.227;  -25.100;  -71.000; -179.000
316.364;    4.250;   23.000;    6.000
316.500;  -50.600; -113.000; -300.000
316.637;  -50.250; -181.000; -302.000
316.774;  -82.300; -625.000; -358.000
316.910;  -92.050; -598.000; -629.000
317.047;  -79.625; -487.000; -351.000
317.183;  -42.750; -435.000; -566.000
317.320;   -7.875; -367.000; -321.000
317.456;  -73.500; -733.000; -805.000
317.593;  -93.000; -598.000; -641.000
317.729;   -4.525;  168.000;  -67.000
317.866; -203.675;-1434.000;-1285.000
318.002;  -88.550; -708.000; -948.000
318.139; -112.950; -883.000; -867.000
318.275; -107.150;-1003.000; -738.000
318.412;  -80.475; -517.000; -336.000
318.548;  -23.900; -751.000; -720.000
318.685; -103.150; -985.000; -888.000
318.821;  -90.700; -762.000; -735.000
318.957;  -12.350;   34.000;  -23.000
319.094;   31.325;  297.000;  154.000
319.230;  -75.625; -756.000; -742.000
319.367;  109.200; -471.000; -520.000
319.503;   45.225; -538.000; -436.000
319.639;  -98.800; -877.000; -793.000
319.775;  -77.500; -750.000; -685.000
319.912;  -61.750; -424.000; -519.000
320.048; -102.675;-1184.000;-1184.000
320.184;   75.700;   59.000;   70.000
320.321;  -78.375; -497.000; -467.000
320.457;   66.825;  475.000;  662.000
320.593;  -56.950; -375.000; -382.000
320.729; -108.850; -732.000; -734.000
320.866;  -77.775; -577.000; -635.000
321.002;  -68.050; -759.000; -809.000
321.138;  -23.575; -135.000; -211.000
321.274;   66.225; -148.000; -115.000
321.410;  -32.925; -585.000; -353.000
321.546;  -46.100;-1011.000; -911.000
321.683;   42.950;  400.000;  185.000
321.819;   -9.525;  -48.000; -117.000
321.955; -122.450; -743.000; -722.000
322.091;  -49.975; -585.000; -540.000
322.227;  -18.475; -382.000; -202.000
322.363;  -17.350; -320.000; -215.000
322.499;  -52.200; -343.000; -331.000
322.635;  153.025;  636.000;  443.000
322.771;    5.250; -139.000;   12.000
322.907;   99.225;  129.000;  327.000
323.043;  -29.375; -115.000; -206.000
323.179;  -40.200; -394.000; -363.000
323.315;    0.075; -401.000; -371.000
323.451;   81.000; -328.000; -236.000
323.587;   49.300;  -60.000;  -77.000
323.723;    4.625; -682.000; -601.000
323.859;  -27.050; -258.000;  -76.000
323.995;  -27.500; -467.000; -409.000
324.131; -138.275; -967.000; -892.000
324.267;  -38.850; -254.000; -276.000
324.402; -136.225; -960.000; -983.000
324.538;   -7.375; -279.000; -104.000
324.674;    9.925;  164.000;   77.000
324.810;  106.750;  226.000;  308.000
324.946;  -19.350; -810.000; -658.000
325.082;  -65.375; -568.000; -475.000
325.217;  -27.000;  -62.000;   16.000
325.353;  -95.650; -764.000; -659.000
325.489;  -99.775; -540.000; -506.000
325.625;  -74.450; -579.000; -525.000
325.760;   63.750;  517.000;  376.000
325.896;  -19.725; -515.000; -702.000
326.032;  -57.700; -403.000; -352.000
326.168;  -61.700; -462.000; -369.000
326.303;  -70.600; -352.000; -461.000
326.439;  -32.625; -336.000; -276.000
326.575;  -11.400; -190.000;  -29.000
326.710;    5.050; -156.000;  -30.000
326.846;  -17.850;  146.000;  103.000
326.982;  -94.250; -530.000; -548.000
327.117;  -99.100; -481.000; -442.000
327.253;  -77.700; -745.000; -742.000
327.388; -166.475;-1137.000;-1153.000
327.524;  -55.300; -811.000; -578.000
327.659;  -25.625;  -58.000;  -22.000
327.795;  -16.175;   69.000;   45.000
327.931;  -94.225; -723.000; -499.000
328.066;  -28.350; -417.000; -276.000
328.202;  -42.450;   12.000; -129.000
328.337;   86.350;  957.000;  713.000
328.473;   18.650;  -12.000;  -74.000
328.608;  -21.550; -256.000; -267.000
328.743;  -96.750; -799.000; -664.000
328.879;   14.750;  214.000;  114.000
329.014;  -45.650; -102.000; -122.000
329.150;  -86.950; -358.000; -483.000
329.285;  -73.825; -465.000; -466.000
329.421;  -49.625; -548.000; -246.000
329.556;  -25.000;  -36.000;   85.000
329.691;  -98.650; -633.000; -615.000
329.827;  -75.575; -626.000; -480.000
329.962;  -44.400;  131.000; -301.000
330.097;  -96.350; -673.000; -585.000
330.233;  -47.050; -410.000; -223.000
330.368; -144.925; -839.000; -628.000
330.503;   -9.200;    3.000;   98.000
330.638;   -1.825;  -93.000; -125.000
330.774;  -47.650; -609.000; -530.000
330.909;  -55.625; -434.000; -244.000
331.044;  -77.675; -714.000; -708.000
331.179; -196.825;-1217.000;-1109.000
331.315;    7.175;   77.000;   20.000
331.450;    4.250;  157.000;  285.000
331.585; -100.250; -805.000; -706.000
331.720;  -84.000; -510.000; -460.000
331.855;    2.000;  -35.000; -102.000
331.990;  258.350;   62.000;  138.000
332.126;  134.250; -110.000;   71.000
332.261;  -22.475; -379.000; -265.000
332.396;    1.025; -135.000; -242.000
332.531;  -96.950;-1074.000;-1031.000
332.666;   29.325; -519.000; -363.000
332.801; -100.350; -726.000; -807.000
332.936;  -23.100; -192.000; -122.000
333.071; -134.350; -870.000; -817.000
333.206;   24.925;  307.000;  379.000
333.341;   26.525;  344.000;  418.000
333.476;  -84.100; -627.000; -623.000
333.611;  -57.925; -251.000; -173.000
333.746;  -48.575; -381.000; -464.000
333.881; -123.225; -973.000; -935.000
334.016; -124.800; -936.000; -917.000
334.151; -133.725; -746.000; -702.000
334.286;   16.750;  152.000;  186.000
334.421;  -22.575; -125.000; -178.000
334.556;  -86.675; -611.000; -567.000
334.690;  -92.475; -631.000; -577.000
334.825;   54.850;  381.000;   83.000
334.960;  -67.600; -285.000; -413.000
335.095;    5.300;  135.000;  -91.000
335.230; -125.125; -722.000; -738.000
335.365; -125.225;-1084.000; -990.000
335.499; -137.200;-1108.000;-1037.000
335.634;   33.200;    9.000;  534.000
335.769; -112.925; -755.000; -720.000
335.904;  -67.950; -603.000; -561.000
336.038;  -75.825; -735.000; -657.000
336.173; -120.775;-1206.000;-1194.000
336.308;   -5.525; -116.000; -189.000
336.443;   11.450; -544.000; -634.000
336.577;  -83.000; -936.000; -787.000
336.712;   43.400;   -4.000;  -12.000
336.847;  -47.475; -724.000; -607.000
336.981;   55.675; -272.000; -208.000
337.116;  267.650;  615.000;  501.000
337.250;  116.125; -434.000; -421.000
337.385;  260.275; -297.000; -208.000
337.520;   97.750; -632.000; -603.000
337.654;  -49.675; -215.000; -126.000
337.789; -124.875; -989.000; -933.000
337.923;  -33.325; -104.000; -205.000
338.058;  -96.675; -673.000; -738.000
338.192;  -41.625; -611.000; -488.000
338.327;  -21.275;  -18.000; -155.000
338.461;  -68.800; -299.000; -469.000
338.596;  -92.225; -780.000; -638.000
338.730; -111.100; -767.000; -803.000
338.865;   96.850;  -46.000; -140.000
338.999;  -47.525; -846.000; -702.000
339.134;  -21.100; -634.000; -536.000
339.268;   -4.275; -741.000; -603.000
339.403;  363.975; -740.000; -775.000
339.537;  122.125; -894.000; -820.000
339.671; -119.625; -829.000; -813.000
339.806;  -72.775; -556.000; -512.000
339.940;   17.525; -261.000; -235.000
340.074; -109.100; -685.000; -510.000
340.209;  -39.500; -351.000; -230.000
340.343;  -93.850; -517.000; -573.000
340.477;  155.700;  998.000; 1036.000
340.612;  -61.350;-1033.000; -900.000
340.746;  144.400; -199.000; -243.000
340.880;  -76.825; -924.000; -785.000
341.014;  -34.700;  -45.000; -154.000
341.149; -109.450; -756.000; -718.000
341.283; -112.150; -839.000; -754.000
341.417;  -98.575;-1124.000; -938.000
341.551;   99.950; -768.000; -708.000
341.685;  -48.125; -633.000; -611.000
341.820;  -56.450; -562.000; -493.000
341.954;  -62.150; -218.000; -349.000
342.088; -153.800;-1102.000;-1019.000
342.222;   43.275;  565.000;  618.000
342.356;  -63.700; -395.000; -335.000
342.490; -109.025; -880.000; -841.000
342.624;  -36.000; -339.000; -242.000
342.758;  -21.650; -364.000; -312.000
342.892;  -62.750; -710.000; -585.000
343.026;  -46.275;  -58.000; -116.000
343.160;  -47.125; -426.000; -376.000
343.294;  -85.775; -474.000; -337.000
343.428;  -22.550; -488.000; -448.000
343.562;  -14.550; -172.000;  -23.000
343.696;  -18.900; -385.000; -314.000
343.830;  -32.675; -362.000; -356.000
343.964;   26.400; -231.000; -168.000
344.098;  801.450;  199.000;   70.000
344.232;  677.625; -266.000; -127.000
344.366;   73.475; -567.000; -453.000
344.500;   43.650; -665.000; -744.000
344.634;    1.925; -324.000; -164.000
344.768;  -18.025; -531.000; -341.000
344.902;   21.500;  278.000;  256.000
345.035;  -70.225; -556.000; -496.000
345.169; -146.225; -933.000; -656.000
345.303;  -39.100; -308.000; -482.000
345.437;  -81.475; -826.000; -717.000
345.571;  -69.275; -675.000; -594.000
345.704;  -75.300; -309.000; -532.000
345.838;  -13.375; -331.000; -284.000
345.972;  -53.675; -543.000; -495.000
346.106;  178.275; -179.000; -190.000
346.239;  375.325; -312.000; -243.000
346.373;    7.625; -343.000; -302.000
346.507; -152.625; -950.000; -962.000
346.640;  125.925;  -30.000;   13.000
346.774;  -47.275; -650.000; -797.000
346.908;  -21.200; -138.000;  -11.000
347.041; -111.250; -646.000; -593.000
347.175;   -1.450;  259.000;   27.000
347.309;  -80.175; -698.000; -628.000
347.442; -106.950; -883.000; -732.000
347.576;  248.800;  670.000;  668.000
347.709;  167.200; -123.000;  -52.000
347.843; -103.400; -933.000; -825.000
347.976;   41.500;  235.000;  294.000
348.110; -189.400;-1268.000;-1186.000
348.243;  -80.850; -679.000; -772.000
348.377;  -10.250;  -26.000;   60.000
348.510;   54.500;  403.000;  540.000
348.644;  -41.450;  -37.000; -159.000
348.777;   -4.150;  180.000;  191.000
348.911;  -43.400; -142.000; -112.000
349.044;  161.375;  471.000;  448.000
349.178;  121.700;-1069.000;-1006.000
349.311;   99.600;  141.000;  255.000
349.444;   -8.550; -927.000; -813.000
349.578;  -19.300; -347.000; -200.000
349.711; -109.650; -959.000; -862.000
349.845;    0.675; -661.000; -591.000
349.978; -152.925;-1224.000;-1137.000
350.111;  -99.725; -546.000; -612.000
350.244;  -88.975; -596.000; -700.000
350.378;   -7.600; -392.000; -393.000
350.511;  -68.100; -393.000; -426.000
350.644; -118.525; -808.000; -806.000
350.778;    0.300;  168.000;  104.000
350.911;    4.800;  134.000;  140.000
351.044;  -95.300; -685.000; -615.000
351.177;  -43.750; -321.000; -281.000
351.310;  -29.000;    3.000; -131.000
351.444;  -90.000; -888.000; -788.000
351.577;   82.850;  140.000;   90.000
351.710;   80.650;  593.000;  417.000
351.843;  -34.850; -165.000;  -77.000
351.976;   -8.325;  149.000;  -79.000
352.109; -110.450; -621.000; -612.000
352.242;  -16.050; -464.000; -419.000
352.376;  -73.375; -580.000; -636.000
352.509;  150.800; -437.000; -356.000
352.642;  -26.700; -654.000; -604.000
352.775;   47.575; -141.000;  -98.000
352.908; -133.275; -933.000; -904.000
353.041;  -98.775; -814.000; -824.000
353.174;  -78.250; -551.000; -424.000
353.307;  -87.875; -753.000; -764.000
353.440;   72.075;  541.000;  453.000
353.573; -117.150; -957.000;-1008.000
353.706;  -36.350; -384.000; -558.000
353.839;  -23.200; -264.000; -220.000
353.971;  -92.775; -657.000; -512.000
354.104;  -95.650; -896.000; -835.000
354.237;  -56.900; -627.000; -662.000
354.370;  -85.850; -846.000; -879.000
354.503; -199.750;-1231.000;-1308.000
354.636;  -33.950; -529.000; -348.000
354.769; -141.800; -937.000; -860.000
354.902;   -8.425; -230.000; -139.000
355.034;  -33.200; -164.000; -220.000
355.167;  -10.000; -262.000; -162.000
355.300; -101.300;-1061.000; -880.000
355.433;  977.150;  -71.000;  -14.000
355.565; 1521.800; -402.000; -384.000
355.698;  399.600; -356.000; -296.000
355.831;  -17.125; -882.000; -801.000
355.964;   61.525; -285.000; -170.000
356.096; -103.975; -856.000; -843.000
356.229;  -15.250; -523.000; -530.000
356.362;  324.950; -373.000; -266.000
356.494;  612.300; -229.000; -162.000
356.627;  427.575;  269.000;  377.000
356.760;  650.175;  120.000;   53.000
356.892;  971.375; -286.000; -601.000
357.025;  566.550;  403.000;  389.000
357.157;  524.450; -167.000; -179.000
357.290;  697.625; -856.000; -713.000
357.423;  194.800; -667.000; -556.000
357.555;  104.150; -217.000; -228.000
357.688;  114.800; -483.000; -364.000
357.820;  404.225; -870.000; -877.000
357.953; 3417.700; -563.000; -589.000
358.085;  720.800; -632.000; -612.000
358.218;  944.875;-1131.000; -932.000
358.350;  174.850;  -58.000;  312.000
358.483; -135.000;-1300.000;-1187.000
358.615;  -40.000;-1182.000;-1078.000
358.747;  -89.125;-1187.000;-1058.000
358.880;    7.825; -810.000; -744.000
359.012;   -8.325; -376.000; -202.000
359.145;  -45.425; -480.000; -511.000
359.277;   30.625; -962.000; -913.000
359.409; 2831.625;  536.000;  231.000
359.542;  725.825; -738.000; -688.000
359.674;   62.225;   46.000;   13.000
359.806;  -63.125; -565.000; -438.000
359.939;  -38.325; -617.000; -516.000
360.071;  -10.775; -583.000; -579.000
360.203;  -10.000; -411.000; -364.000
360.335;   49.300;  164.000;  -16.000
360.468;  188.550; -249.000; -307.000
360.600; 2328.125; -547.000; -454.000
360.732; 2963.325; -546.000; -423.000
360.864;  392.950;-1216.000;-1044.000
360.996;  234.950; -516.000; -554.000
361.129;   23.050; -389.000; -598.000
361.261;   23.350;  110.000; -113.000
361.393;  -37.600; -252.000; -214.000
361.525;   26.775;   94.000;  244.000
361.657;  -52.875; -821.000; -703.000
361.789;    7.475; -139.000; -155.000
361.921;  203.825; -642.000; -593.000
362.053;  218.850;  524.000;  541.000
362.185;   41.250;  288.000;   72.000
362.318;  -82.900; -709.000; -705.000
362.450;   93.850;  294.000;  444.000
362.582;   57.350; -913.000; -870.000
362.714;  -51.650; -353.000; -332.000
362.846;  -80.350; -606.000; -490.000
362.978; -152.950; -941.000; -811.000
363.109;   34.225; -161.000; -260.000
363.241;  357.675; -739.000; -749.000
363.373;  439.925; -649.000; -564.000
363.505;  673.425; -186.000;  -91.000
363.637;  159.425; -787.000; -601.000
363.769; -130.600;-1067.000;-1080.000
363.901;  -79.225; -596.000; -654.000
364.033; -130.475;-1103.000;-1062.000
364.165;    3.400; -283.000; -283.000
364.296;   60.500; -316.000; -177.000
364.428;   78.925;-1344.000;-1220.000
364.560;  -74.325; -679.000; -661.000
364.692;  -53.325; -738.000; -835.000
364.824;  203.800; -588.000; -456.000
364.955;  422.775; -402.000; -564.000
365.087;  975.725;-1097.000; -852.000
365.219;   14.075; -686.000; -816.000
365.351;  -74.250; -526.000; -572.000
365.482;   57.750;  300.000;  240.000
365.614;  -63.150; -402.000; -314.000
365.746;  -86.700; -729.000; -752.000
365.877;  -93.050; -706.000; -672.000
366.009;  278.325;  -35.000;  -62.000
366.141;  -88.925;-1249.000;-1134.000
366.272; -107.425; -803.000; -719.000
366.404; -123.500;-1005.000; -874.000
366.535;  -16.500; -139.000;  -12.000
366.667;  -99.625; -644.000; -649.000
366.799;   26.750;  353.000;  203.000
366.930; -132.100; -862.000; -996.000
367.062;  120.100; -639.000; -613.000
367.193;  152.375; -872.000; -842.000
367.325;  -49.600; -580.000; -684.000
367.456;   44.775; -246.000;   31.000
367.588;  159.975; -371.000; -318.000
367.719;   16.525;  -44.000;  -45.000
367.851;  -16.450; -222.000; -241.000
367.982;  -68.600; -875.000; -732.000
368.113;   78.925; -475.000; -358.000
368.245; -124.525; -960.000; -841.000
368.376;  -34.675; -254.000; -302.000
368.508;  -48.625; -188.000; -263.000
368.639; -130.500;-1166.000;-1034.000
368.770;  -32.450; -670.000; -589.000
368.902;  -79.625; -836.000; -926.000
369.033; -121.075; -906.000; -855.000
369.164;  -45.475; -720.000; -653.000
369.296; -117.075; -452.000; -601.000
369.427;   -9.625; -209.000; -144.000
369.558;  -65.000; -593.000; -377.000
369.689;  -82.100; -721.000; -569.000
369.821; -138.350; -951.000; -845.000
369.952;  -12.225;   42.000; -108.000
370.083;  -54.975; -229.000; -108.000
370.214;  -87.450; -735.000; -650.000
370.345;   -8.075;   65.000;   81.000
370.477;  -84.600; -810.000; -790.000
370.608;  196.075; -328.000; -264.000
370.739;  -78.025;-1233.000;-1292.000
370.870;  -58.725;-1102.000; -923.000
371.001;   69.650; -378.000; -467.000
371.132;  -84.775; -754.000; -735.000
371.263;  -19.575;  -42.000; -148.000
371.394; -137.200; -841.000; -748.000
371.525;   24.775;  345.000;  225.000
371.657;  -97.825; -808.000; -670.000
371.788;   63.800;  103.000;  199.000
371.919;  151.525; -384.000; -304.000
372.050; 3264.975;  -91.000; -156.000
372.181;  965.700; -188.000; -294.000
372.311;  331.750;   42.000; -127.000
372.442;   18.825; -457.000; -451.000
372.573;  -17.675; -444.000; -340.000
372.704; -136.275;-1008.000; -980.000
372.835;   63.775; -228.000; -289.000
372.966;  -75.075; -646.000; -554.000
373.097;  -57.800; -575.000; -711.000
373.228;  -58.200; -717.000; -542.000
373.359;   99.125; -824.000; -536.000
373.490;  830.925; -881.000; -727.000
373.620; 1023.450;-1001.000; -803.000
373.751; 1601.975; -332.000; -396.000
373.882;  714.125; -663.000; -733.000
374.013;   51.250; -449.000; -262.000
374.143;  -43.250; -581.000; -659.000
374.274; -110.400; -987.000; -908.000
374.405;  147.000; -388.000; -276.000
374.536;  384.400; -526.000; -387.000
374.666;  971.550; -759.000; -807.000
374.797;  166.950; -817.000; -868.000
374.928;  748.950; -710.000; -560.000
375.058;  768.400; -535.000; -500.000
375.189;   70.175;  -59.000;  -93.000
375.320; -126.600; -928.000;-1034.000
375.450;  -46.875; -625.000; -616.000
375.581;  -48.125; -526.000; -436.000
375.712;  -34.900; -574.000; -250.000
375.842;  248.400; -438.000; -415.000
375.973;  177.375; -554.000; -513.000
376.103;  -67.075; -665.000; -648.000
376.234;  -79.700; -531.000; -552.000
376.364;  -55.825; -944.000; -867.000
376.495;  295.200;  925.000;  529.000
376.625;  -18.950; -472.000; -485.000
376.756;   41.450; -709.000; -678.000
376.886;  -95.850;-1178.000;-1026.000
377.017;   60.625;-1048.000;-1061.000
377.147;  370.175; -786.000; -782.000
377.278;   52.250;  174.000;  228.000
377.408; -126.850; -801.000; -815.000
377.538; -113.650; -707.000; -693.000
377.669;  -90.550; -537.000; -613.000
377.799;  -98.000; -645.000; -635.000
377.929;  -67.700; -610.000; -428.000
378.060; -130.075; -781.000; -847.000
378.190;  -70.000; -726.000; -531.000
378.320;  -49.125; -401.000; -406.000
378.451;  -14.100; -131.000;  -22.000
378.581;  -17.850;  -67.000; -110.000
378.711;  114.575; 1035.000;  866.000
378.841;  -31.800; -533.000; -675.000
378.972;  -91.675; -871.000; -751.000
379.102;  -31.200; -652.000; -579.000
379.232;  -37.550; -126.000;  -73.000
379.362; -116.025;-1001.000; -885.000
379.492;    2.200; -373.000; -424.000
379.623;   93.025;    0.000;  111.000
379.753; -105.100;-1107.000; -974.000
379.883;  191.525;   59.000;  156.000
380.013;  -28.675;-1081.000;-1017.000
380.143; -104.150;-1097.000;-1056.000
380.273;  -99.125; -985.000; -861.000
380.403;  -23.925; -344.000; -257.000
380.533;  -54.800; -651.000; -664.000
380.663;   55.350;  173.000;  128.000
380.793; -113.450;-1027.000;-1074.000
380.923;  -22.925; -103.000;  -34.000
381.053; -111.100; -613.000; -623.000
381.183;  -36.175; -106.000; -248.000
381.313;   10.675; -656.000; -470.000
381.443;   38.450; -692.000; -473.000
381.573;  139.200; -402.000; -409.000
381.703;  218.250;-1249.000;-1095.000
381.833; -145.575;-1454.000;-1336.000
381.963;  102.325; -134.000;  -87.000
382.093; 1248.250; -925.000; -909.000
382.223;  374.250; -713.000; -602.000
382.353;  -39.100; -801.000; -608.000
382.482;  307.575;-1091.000; -964.000
382.612;  681.275; -872.000; -644.000
382.742;  382.325; -695.000; -622.000
382.872;  194.900; -565.000; -551.000
383.002;   64.600;  347.000; -132.000
383.131;  -16.450; -226.000; -160.000
383.261;  -42.800; -706.000; -768.000
383.391;  284.900; -552.000; -377.000
383.521; 3345.275;  451.000;  263.000
383.650;  789.575; -947.000; -904.000
383.780;  -17.925; -783.000; -656.000
383.910;   93.450;  880.000;  802.000
384.039;    0.475; -794.000; -656.000
384.169;  135.800;-1205.000;-1017.000
384.299;  -29.850; -650.000; -662.000
384.428;  -96.875; -764.000; -680.000
384.558;  -35.175; -308.000; -275.000
384.687;  -61.175; -414.000; -334.000
384.817;    4.775;   75.000;   -2.000
384.947;   14.300; -234.000; -141.000
385.076;  265.325;  982.000;  912.000
385.206;   82.375;  369.000;  480.000
385.335;  -38.725; -549.000; -417.000
385.465;  -99.175; -655.000; -663.000
385.594;  124.375;  -53.000;  -44.000
385.724;  357.675; -868.000; -838.000
385.853;   87.025; -296.000; -270.000
385.982; 1183.075; -743.000; -787.000
386.112; 1909.400;-1052.000; -871.000
386.241;  126.300; -307.000; -312.000
386.371;   15.625; -174.000;  -87.000
386.500;  -10.825; -825.000; -789.000
386.629;   13.925; -874.000; -817.000
386.759;   58.025;  -43.000;   68.000
386.888;  -23.350; -170.000; -250.000
387.017;  -84.275; -648.000; -620.000
387.147;  -85.100; -771.000; -798.000
387.276;  -14.500; -410.000; -397.000
387.405;   22.675; -398.000; -342.000
387.535;  -62.475; -452.000; -361.000
387.664;  -62.150; -692.000; -620.000
387.793;   37.075; -198.000; -113.000
387.922;  464.100;  255.000;  200.000
388.052;   -3.500; -576.000; -423.000
388.181;   -6.925; -342.000; -472.000
388.310;  -22.850; -889.000; -710.000
388.439;  -53.850; -749.000; -742.000
388.568;  167.300;  365.000;  244.000
388.697;  909.200; -756.000; -653.000
388.826;  166.550; -768.000; -666.000
388.956;   37.975; -285.000; -307.000
389.085;  -43.125; -347.000; -287.000
389.214; -109.450; -842.000; -872.000
389.343;  -87.475; -645.000; -413.000
389.472;  399.825;  126.000;  149.000
389.601;  492.200;   91.000;    0.000
389.730;    4.275; -568.000; -687.000
389.859;   50.000;  226.000;   46.000
389.988;  162.125; -423.000; -408.000
390.117;   97.700; -168.000; -146.000
390.246;  -26.700; -331.000; -320.000
390.375;   55.625; -673.000; -626.000
390.504;  -63.850; -703.000; -621.000
390.633; -102.000; -672.000; -726.000
390.761;  -88.925; -732.000; -645.000
390.890;    6.200;   -4.000; -130.000
391.019;  -44.900; -421.000; -441.000
391.148; -138.200; -826.000; -855.000
391.277;  -81.650; -576.000; -493.000
391.406; -101.625; -821.000; -805.000
391.534;   16.950;  574.000; -301.000
391.663;  -76.050; -583.000; -645.000
391.792;  -87.125; -673.000; -701.000
391.921;   78.275;   -3.000;   15.000
392.050;  145.400; -287.000; -228.000
392.178;  -75.300;-1206.000;-1061.000
392.307;  109.150; -758.000; -712.000
392.436;   39.000; -427.000; -641.000
392.564;   12.950;  166.000;   -6.000
392.693;  -98.075; -860.000; -682.000
392.822;  174.475; -529.000; -534.000
392.950;   41.875; -880.000; -714.000
393.079;  279.350; -188.000; -328.000
393.208;    8.050; -488.000; -511.000
393.336;  -19.650; -170.000; -145.000
393.465;  -55.500; -317.000; -199.000
393.593;   -4.450;   62.000;   79.000
393.722; -162.750;-1121.000; -916.000
393.850;  -34.750; -188.000;  -61.000
393.979; -163.175; -926.000; -805.000
394.107;  -54.750; -517.000; -537.000
394.236;  -50.625; -570.000; -507.000
394.364;  192.800;  383.000;  206.000
394.493;  260.500; -911.000; -767.000
394.621;  -21.050; -955.000; -916.000
394.750;  704.975; -873.000; -923.000
394.878; 3001.100; -247.000; -149.000
395.007; 4079.075; -721.000; -807.000
395.135;  312.875; -790.000; -721.000
395.263;  -97.600;-1038.000;-1040.000
395.392;    6.100;  -25.000; -107.000
395.520; -151.775; -818.000; -679.000
395.648; -105.475; -865.000; -915.000
395.777;  -36.325; -366.000; -405.000
395.905;  -57.675; -449.000; -564.000
396.033;    4.475;  217.000;  172.000
396.162;  463.125; -399.000; -453.000
396.290;  387.550;  -17.000;   -2.000
396.418;   70.950; -555.000; -514.000
396.546;  -83.200; -571.000; -466.000
396.674;  -97.800; -850.000; -878.000
396.803;   -2.225;  -72.000;  -23.000
396.931;   62.900; -179.000; -199.000
397.059;    7.475;-1026.000; -989.000
397.187; -111.875;-1026.000; -975.000
397.315; -142.750; -884.000; -649.000
397.443; -110.525; -592.000; -443.000
397.572; -117.425; -578.000; -424.000
397.700;  -24.050; -607.000; -614.000
397.828;  -10.425;  120.000;  -90.000
397.956;  -55.850; -508.000; -478.000
398.084;  -75.200; -767.000; -626.000
398.212;   37.375;  137.000;  124.000
398.340;   -2.250;  -56.000;  159.000
398.468;   17.075; -390.000; -169.000
398.596; -155.875; -993.000; -953.000
398.724; -126.850; -762.000; -767.000
398.852; -173.200;-1024.000; -976.000
398.980;  -62.800; -560.000; -560.000
399.108;  -78.725; -982.000; -735.000
399.236;   17.975;   13.000;    8.000
399.363;   -3.475;  222.000;  196.000
399.491;  -67.950; -404.000; -398.000
399.619; -138.825; -829.000; -800.000
399.747; -111.600; -859.000; -771.000
399.875;   71.675;  220.000;  234.000
400.003;  -48.650; -359.000; -284.000
400.130;  -93.200; -421.000; -341.000
400.258;  -24.000;  -83.000;   38.000
400.386;  -78.100; -352.000; -168.000
400.514;  -57.500; -526.000; -587.000
400.641;  -99.050; -928.000; -802.000
400.769; -145.875; -979.000; -888.000
400.897; -125.400; -838.000; -793.000
401.025;  -19.100; -166.000; -152.000
401.152;  -20.000;  220.000;   38.000
401.280;  -79.875; -430.000; -429.000
401.408; -122.000; -712.000; -576.000
401.535; -118.800; -735.000; -758.000
401.663; -190.225;-1134.000;-1054.000
401.790;  -89.475; -514.000; -525.000
401.918;   26.375;  436.000;  405.000
402.046;  -14.575;  134.000;  122.000
402.173;  -44.325;  -18.000;    7.000
402.301;  -72.875; -519.000; -397.000
402.428;   23.100;  528.000;  383.000
402.556; -144.775;-1188.000; -913.000
402.683;  -42.675;  -20.000;   -1.000
402.811;  -23.225;  -37.000; -206.000
402.938;   -7.650;   20.000;   27.000
403.066;  171.475; -574.000; -558.000
403.193;  277.600;  299.000;  239.000
403.321;  233.050; -396.000; -574.000
403.448;  295.000;   83.000;   27.000
403.575;  118.075;  -90.000;  -46.000
403.703; -108.850; -732.000; -557.000
403.830;  -64.300; -531.000; -496.000
403.957; -156.125;-1117.000;-1023.000
404.085;    1.325;  -61.000; -172.000
404.212;   89.100;  -50.000;   63.000
404.339;  265.350; -566.000; -306.000
404.467; 5933.300; -612.000; -524.000
404.594; 3780.325; -287.000; -227.000
404.721;  816.475; -869.000; -764.000
404.848;   81.100; -113.000; -202.000
404.976; -113.800; -856.000; -783.000
405.103;  -17.450;  -14.000;  -82.000
405.230;  -11.525;  190.000;  226.000
405.357;   24.900;  117.000;   44.000
405.484;  262.750;  -49.000;    5.000
405.612;   45.025; -548.000; -563.000
405.739;  -72.625; -488.000; -243.000
405.866;   98.350;  669.000;  385.000
405.993;  -46.675; -398.000; -102.000
406.120; -145.500; -801.000; -887.000
406.247;  -67.625; -323.000; -342.000
406.374;  375.925;  540.000;  629.000
406.501;   71.200; -632.000; -702.000
406.628;  -86.550; -621.000; -589.000
406.755; -103.750; -803.000; -620.000
406.882;  -31.475; -228.000; -277.000
407.009; -109.750; -719.000; -628.000
407.136;   29.775; -480.000; -401.000
407.263;   82.925; -939.000; -829.000
407.390;  -78.475; -692.000; -614.000
407.517; -176.675;-1139.000;-1187.000
407.644;  -59.450; -332.000; -256.000
407.771;  -82.025; -249.000; -287.000
407.898;   13.425;  168.000;  328.000
408.025;  -74.075; -421.000; -313.000
408.151;   -9.350;   82.000;  153.000
408.278;  -77.200; -267.000; -216.000
408.405; -110.100; -931.000; -899.000
408.532;  -83.775; -549.000; -542.000
408.659; -125.150; -677.000; -648.000
408.785; -213.200;-1298.000;-1170.000
408.912;  -81.675; -412.000; -296.000
409.039; -124.625; -610.000; -686.000
409.166; -108.500; -591.000; -555.000
409.292; -114.800; -571.000; -534.000
409.419; -115.825; -665.000; -649.000
409.546;  -81.975; -431.000; -192.000
409.672; -105.675; -713.000; -545.000
409.799;  -39.550;  -36.000;   34.000
409.926;  -55.875; -180.000; -179.000
410.052; -177.650;-1127.000;-1091.000
410.179;  -46.825; -368.000; -392.000
410.305; -104.700; -375.000; -493.000
410.432;  -47.075; -220.000; -333.000
410.558;  -95.750; -305.000; -380.000
410.685; -101.400; -688.000; -431.000
410.812; -102.725; -409.000; -588.000
410.938; -150.375; -964.000; -808.000
411.065; -108.225; -671.000; -645.000
411.191;  -26.325; -189.000; -174.000
411.317; -119.325; -823.000; -742.000
411.444;  -65.300; -317.000; -246.000
411.570;  -82.650; -339.000; -294.000
411.697; -129.300; -758.000; -752.000
411.823; -173.525; -989.000; -999.000
411.949;  -35.450;  -56.000;   17.000
412.076; -119.275; -539.000; -519.000
412.202; -119.000; -758.000; -757.000
412.329; -141.925; -798.000; -752.000
412.455; -105.775; -821.000; -657.000
412.581;  -15.225;  -15.000;  172.000
412.707;  -64.400; -540.000; -457.000
412.834;   11.175;  156.000;  219.000
412.960;  -86.925; -785.000; -784.000
413.086; -110.325; -743.000; -701.000
413.212;  134.275;  604.000;  578.000
413.339;  -78.725; -685.000; -701.000
413.465;  -24.850; -364.000; -310.000
413.591; -104.900; -757.000; -474.000
413.717;  -54.875; -358.000; -366.000
413.843; -141.575; -839.000; -861.000
413.969;  -50.500;  -47.000; -292.000
414.096;  -92.700; -679.000; -679.000
414.222;  -13.425;  -33.000;   85.000
414.348;  -41.875; -652.000; -385.000
414.474;   75.475;   38.000;  -52.000
414.600;  -28.475; -126.000; -144.000
414.726;  -19.300;  -96.000;  -55.000
414.852;  -59.725; -365.000; -342.000
414.978;   24.125;  104.000;  -18.000
415.104;   35.875;   38.000;   80.000
415.230;   26.200; -329.000; -330.000
415.356;   34.375; -409.000; -514.000
415.482;  207.025;   13.000;  -35.000
415.608;  275.550; -247.000; -323.000
415.734;  946.950;   67.000;   38.000
415.860;20168.525; -875.000; -767.000
415.986;14747.100; -685.000; -607.000
416.111; 1241.400; -798.000; -652.000
416.237;  261.375; -424.000; -571.000
416.363; 1176.125; -765.000; -733.000
416.489; 4332.400; -324.000; -251.000
416.615;  471.775; -707.000; -742.000
416.741;  -17.750; -677.000; -784.000
416.866;  -93.275; -673.000; -736.000
416.992; -120.000; -801.000; -818.000
417.118;  -33.775;  -41.000;  -80.000
417.244;  -79.625; -798.000; -531.000
417.369;  -91.800; -801.000; -612.000
417.495;  -18.575; -325.000; -254.000
417.621;  -96.400;-1015.000; -803.000
417.746;    4.750; -579.000; -572.000
417.872;   33.925; -254.000; -144.000
417.998;   44.325; -515.000; -530.000
418.123; 1056.150;-1073.000; -845.000
418.249; 5583.650; -512.000; -601.000
418.374;  773.650; -916.000; -824.000
418.500;  110.375; -383.000; -482.000
418.626;   85.900;   70.000;  -59.000
418.751;  121.500; -549.000; -448.000
418.877;  195.850; -637.000; -643.000
419.002; 1833.350; -688.000; -560.000
419.128;12915.525; -930.000; -721.000
419.253; 3165.700; -967.000; -837.000
419.379;  418.250; -391.000; -338.000
419.504;  404.425;  325.000;  415.000
419.629;  517.775; -393.000; -212.000
419.755; 3696.625; -317.000; -254.000
419.880;22054.725;  -98.000;   67.000
420.006;11796.150; -280.000; -221.000
420.131;30223.000; -662.000; -775.000
420.256; 4351.750; -315.000; -316.000
420.382;  564.675; -665.000; -687.000
420.507;   68.600; -649.000; -778.000
420.632;  101.900; -337.000; -339.000
420.758;  211.275; -251.000; -425.000
420.883;  -92.600; -876.000; -672.000
421.008;  -98.425; -775.000; -619.000
421.133;  -80.725; -509.000; -467.000
421.259;  -46.875; -325.000; -259.000
421.384; -134.350; -834.000; -693.000
421.509;  -63.050;-1052.000; -862.000
421.634;  966.875; -936.000; -820.000
421.759;  442.450; -359.000; -327.000
421.885;  -76.075; -717.000; -656.000
422.010;  -80.050; -673.000; -542.000
422.135; -136.050; -695.000; -727.000
422.260;   23.400;  340.000;  280.000
422.385;  -50.925;   12.000;  -98.000
422.510;   -3.875;  151.000;  -26.000
422.635;   -8.900;  -87.000;  -43.000
422.760;   90.925; -766.000; -791.000
422.885;   25.125;  -57.000;  -80.000
423.010;  -15.125; -112.000; -169.000
423.135; -100.025; -481.000; -561.000
423.260;  -28.300; -150.000; -245.000
423.385;   59.900;  476.000;  222.000
423.510;   24.950;   71.000;  -22.000
423.635;   70.550;  133.000;   45.000
423.760;   55.775;  383.000;  328.000
423.885;   39.550;  336.000;  391.000
424.010;   10.475;  -68.000;  -13.000
424.135;  -38.075;    5.000;  -33.000
424.259;  -77.825; -654.000; -457.000
424.384;  -71.300; -279.000; -272.000
424.509;  -29.900; -260.000; -186.000
424.634;  -98.725; -761.000; -623.000
424.759;  -26.025; -688.000; -544.000
424.883;  -17.950; -506.000; -527.000
425.008;  160.425; -502.000; -410.000
425.133; 2013.725; -679.000; -653.000
425.258;  976.675; -517.000; -381.000
425.382;  931.100; -867.000; -774.000
425.507; 2374.650; -487.000; -543.000
425.632;  408.200; -802.000; -663.000
425.756;  475.525; -256.000; -146.000
425.881; 6853.150; -831.000; -857.000
426.006;18726.125; -604.000; -355.000
426.130; 2902.225; -696.000; -508.000
426.255;  387.225; -611.000; -491.000
426.379;  156.850; -189.000; -577.000
426.504;  379.575;  660.000;  544.000
426.629; 4042.650; -519.000; -466.000
426.753; 2828.275;   64.000;  -46.000
426.878;  320.350; -252.000; -288.000
427.002;  153.875; -651.000; -668.000
427.127; 1598.325;  -35.000; -158.000
427.251;11750.875;  372.000;  401.000
427.375; 3338.850; -191.000; -173.000
427.500; 2109.775; -616.000; -610.000
427.624;  720.800; -234.000; -400.000
427.749;   75.000; -216.000; -225.000
427.873;  -48.900; -499.000; -412.000
427.997;  -41.075; -222.000; -230.000
428.122;   79.275;  795.000;  703.000
428.246;   68.975;  433.000;  434.000
428.371; -137.675; -869.000; -773.000
428.495; -110.075; -624.000; -646.000
428.619;  -20.450; -186.000; -117.000
428.743;   14.225;   65.000;  132.000
428.868;   -6.800; -732.000; -643.000
428.992; 1237.375; -219.000; -326.000
429.116;  518.025; -329.000; -357.000
429.240;  246.450;  419.000;  426.000
429.365;  -29.125; -454.000; -574.000
429.489;  -53.475; -638.000; -647.000
429.613;   17.175; -236.000; -177.000
429.737;   51.525; -563.000; -432.000
429.861;  259.150; -247.000; -133.000
429.985; 5664.825; -425.000; -305.000
430.109; 6270.675; -770.000; -908.000
430.234;  727.500;   76.000;  -50.000
430.358;   44.475; -250.000; -160.000
430.482;  -61.200; -672.000; -564.000
430.606;  -64.325; -655.000; -375.000
430.730;    2.425; -437.000; -388.000
430.854;   75.275; -909.000; -835.000
430.978;  -61.125; -795.000; -764.000
431.102;  -96.300; -499.000; -422.000
431.226; -130.700; -874.000; -815.000
431.350;   30.225;  345.000;  422.000
431.474;  -79.000; -661.000; -373.000
431.597; -162.025;-1060.000; -848.000
431.721;  -76.675; -276.000; -267.000
431.845; -149.450; -704.000; -472.000
431.969;  -83.050; -304.000; -349.000
432.093;  -85.800; -395.000; -317.000
432.217;  -10.100;   32.000;   82.000
432.341; -102.625; -523.000; -518.000
432.464;   13.100;   96.000;   40.000
432.588;  150.675; -401.000; -329.000
432.712;   81.000;  -52.000;  -52.000
432.836;   59.400;  213.000;  263.000
432.959;  -11.850; -372.000; -311.000
433.083;   80.550;   11.000;    2.000
433.207;  388.875;  285.000;  930.000
433.330; 5200.125; -391.000; -200.000
433.454; 6448.350; -654.000; -638.000
433.578; 3708.825;  583.000;  278.000
433.701;  677.200; -623.000; -675.000
433.825;  130.675; -292.000; -299.000
433.949;  139.275;   28.000;  -72.000
434.072;   20.400; -410.000; -323.000
434.196;  -10.250; -309.000; -117.000
434.319; 3732.525;25482.000;25124.000
434.443;  707.150; -656.000; -603.000
434.566; 2701.600;  281.000;   62.000
434.690;  484.675; -637.000; -383.000
434.813;   38.075; -251.000; -173.000
434.937;  -76.850; -569.000; -696.000
435.060;  -49.025; -423.000; -332.000
435.184;  217.250; -492.000; -217.000
435.307;  117.175;  159.000;  102.000
435.431;  -17.875;  -40.000;   24.000
435.554;  -84.100; -399.000; -240.000
435.677;  -88.725; -350.000; -258.000
435.801;  -48.550;  -25.000;   49.000
435.924;  -23.825;    1.000;  -67.000
436.048; -137.075;-1019.000; -732.000
436.171;  -70.400; -240.000;  -66.000
436.294;  -37.850; -248.000; -229.000
436.417;   87.825; -963.000; -849.000
436.541; -100.975; -814.000; -840.000
436.664;  -45.050; -242.000; -316.000
436.787;  -37.500;   13.000;  113.000
436.910; -118.825; -792.000; -422.000
437.034;    0.300;  142.000;  143.000
437.157;   25.450;  -11.000;    0.000
437.280;  -62.300; -392.000; -292.000
437.403;  -92.550; -982.000; -869.000
437.526;  465.225; -903.000; -865.000
437.649; 1878.450; -505.000; -332.000
437.772;  250.150; -692.000; -540.000
437.896;  111.875;  700.000;  544.000
438.019; -111.425; -758.000; -503.000
438.142;  -99.850; -596.000; -506.000
438.265;  -55.700; -639.000; -670.000
438.388;  452.650; -520.000; -410.000
438.511;   49.325; -597.000; -394.000
438.634;  -55.275; -247.000; -125.000
438.757; -143.000; -693.000; -619.000
438.880;  -34.250;  -34.000;  -57.000
439.003;  -94.775; -417.000; -437.000
439.126;  -72.200; -287.000; -167.000
439.248;  -68.275;  -98.000; -139.000
439.371;  -34.400;    9.000;  -53.000
439.494;   23.625;  510.000;  439.000
439.617;  -55.650;   65.000;  -88.000
439.740; -182.700; -968.000; -816.000
439.863; -150.300; -755.000; -595.000
439.986; -129.825; -476.000; -431.000
440.108;  -48.450; -161.000; -112.000
440.231; -171.875; -950.000; -836.000
440.354;  -42.950;  -64.000; -150.000
440.477;    3.600; -566.000; -542.000
440.599;  -14.700; -200.000; -225.000
440.722; -125.125; -709.000; -586.000
440.845;   64.850;  751.000;  928.000
440.968; -133.625; -415.000; -311.000
441.090;  -62.475; -199.000;  -33.000
441.213; -170.575;-1021.000; -825.000
441.336;  -54.575; -159.000;   -5.000
441.458;  -91.400; -549.000; -396.000
441.581; -108.775; -628.000; -629.000
441.703;  -77.400; -152.000;   13.000
441.826; -116.450; -557.000; -400.000
441.948;  -60.575;   56.000;   51.000
442.071;   33.825;  555.000;  424.000
442.193; -124.725; -531.000; -485.000
442.316;   26.175;  152.000;   97.000
442.438;   41.150; -233.000;  -10.000
442.561;   62.675;  272.000;  262.000
442.683;  401.025; -809.000; -522.000
442.806;  955.150;   -8.000;   74.000
442.928;   -0.175; -859.000; -604.000
443.051;  -71.775; -577.000; -373.000
443.173; -116.400; -341.000; -339.000
443.295;  -88.225; -263.000; -371.000
443.418;  -81.325; -321.000;  -29.000
443.540;  -17.050; -106.000;   -4.000
443.662; -128.825; -563.000; -465.000
443.785;  -23.700;  335.000;  199.000
443.907;  -98.975; -362.000; -208.000
444.029; -138.400; -767.000; -494.000
444.152; -144.025; -644.000; -554.000
444.274;  -33.600;  -18.000;  -24.000
444.396; -130.525; -461.000; -221.000
444.518; -115.600; -691.000; -454.000
444.640; -102.650; -268.000; -111.000
444.763;  -14.075;  388.000;  249.000
444.885; -130.025; -432.000; -392.000
445.007;  -44.300;   35.000;   86.000
445.129; -122.575; -610.000; -515.000
445.251;  -91.750; -372.000; -439.000
445.373; -133.500; -537.000; -386.000
445.495;    9.250;  242.000;  350.000
445.617;   54.300;  853.000;  753.000
445.739;  -70.450; -215.000;  -97.000
445.861;  -46.300; -245.000; -112.000
445.984;  -47.800; -267.000; -101.000
446.105;  150.000; -418.000; -251.000
446.227;  512.200; -176.000;  -19.000
446.349;  -11.050; -358.000; -249.000
446.471;  -89.675; -615.000; -448.000
446.593;  -54.625; -316.000;   19.000
446.715;  -10.025;  -67.000;   41.000
446.837;   40.975;  697.000;  832.000
446.959;  -96.575; -457.000; -478.000
447.081; -148.975; -628.000; -518.000
447.203;   58.575;  862.000;  834.000
447.325;  -94.300; -270.000;   42.000
447.446;  -12.850;  286.000;  530.000
447.568; -165.975; -921.000; -803.000
447.690;  -80.200; -236.000; -245.000
447.812; -148.600; -798.000; -519.000
447.933;  -19.675;  155.000;  127.000
448.055;  -84.900; -306.000; -261.000
448.177;  112.575;   31.000;   79.000
448.299;   39.350; -935.000; -727.000
448.420;    5.450;  -25.000;  159.000
448.542;  -64.150;   -3.000;   33.000
448.664;  -31.000;  109.000;  322.000
448.785;  -62.000;  265.000;   83.000
448.907;  -81.200; -614.000; -353.000
449.028;  -68.500; -771.000; -471.000
449.150;   59.075;  492.000;  589.000
449.272; -170.575;-1044.000; -913.000
449.393;   28.375;  612.000;  694.000
449.515; -144.350; -634.000; -581.000
449.636;  -69.100; -264.000; -155.000
449.758;   64.550;  763.000;  622.000
449.879;  -87.450; -498.000; -396.000
450.001;  -97.275; -149.000;  -49.000
450.122;  -26.925;  -95.000;  162.000
450.244;  -36.250;   37.000;  364.000
450.365;  -88.900; -495.000; -301.000
450.486;  -53.400;   80.000;  268.000
450.608;   23.350;  393.000;  326.000
450.729;   52.600;  578.000;  645.000
450.850;    7.525; -574.000; -466.000
450.972;  773.225; -552.000; -389.000
451.093; 5086.950;  190.000;  588.000
451.214; 2232.525; -516.000; -337.000
451.336;  418.100;  773.000;  579.000
451.457;   51.900;  264.000;  393.000
451.578;  -36.750; -118.000;  -74.000
451.699; -125.850; -546.000; -540.000
451.821;  -55.125; -284.000;  -50.000
451.942;  -16.025;  278.000;  285.000
452.063;   31.825;  228.000;  419.000
452.184;  583.475;  -54.000;  -49.000
452.305; 1127.325;  103.000;  170.000
452.427;  132.075; -549.000; -301.000
452.548;  -15.850;   23.000;   79.000
452.669;  -50.975; -257.000;  -89.000
452.790;  -48.475;    3.000;  -18.000
452.911;  -29.000;  195.000;  259.000
453.032;  -77.575; -289.000;  -60.000
453.153;  -49.975;  -29.000;   81.000
453.274;   57.400;  737.000;  868.000
453.395;  -52.600;  -51.000;  175.000
453.516;  124.625; 1317.000; 1388.000
453.637;  -87.225; -205.000; -150.000
453.758;  -45.300;   15.000;   69.000
453.879; -129.800; -462.000; -250.000
454.000;   74.175; 1086.000;  948.000
454.121; -128.750; -554.000; -326.000
454.242; -108.975; -599.000; -383.000
454.362;  -63.400;  -99.000;  114.000
454.483;  -42.875; -309.000; -229.000
454.604;   34.825;  512.000;  580.000
454.725; -130.725; -627.000; -555.000
454.846; -141.500; -474.000; -406.000
454.967;  -14.250;  230.000;  539.000
455.087;  -57.250;  179.000;  153.000
455.208;   10.975;  554.000;  856.000
455.329;  -61.250;  -22.000;   82.000
455.450;   32.050;  473.000;  633.000
455.570;  -89.100; -234.000; -211.000
455.691;  -40.250;  201.000;  407.000
455.812; -106.300; -270.000;  -92.000
455.932;  -57.700;  107.000;  -97.000
456.053;  -85.025;   36.000;   24.000
456.173; -112.400; -433.000; -355.000
456.294; -129.025; -476.000; -303.000
456.415;  -60.050;  -73.000;   70.000
456.535;  -32.275;  297.000;  273.000
456.656;  -48.250;  132.000;  240.000
456.776;  -90.800;    3.000;  298.000
456.897;   -2.525;  308.000;  513.000
457.017;  -79.975; -153.000;   -3.000
457.138; -117.975; -402.000; -249.000
457.258;  -40.350;  263.000;  224.000
457.379;  -14.575;  509.000;  521.000
457.499;  -24.625;  443.000;  432.000
457.620; -129.525; -407.000; -231.000
457.740;  -93.625; -132.000;  -11.000
457.860;  -54.325;   87.000;   44.000
457.981;  -57.800;  132.000;  124.000
458.101;  -58.750;  -89.000;   40.000
458.221;  -10.275;  336.000;  402.000
458.342;  -66.400;   -4.000;  -37.000
458.462;   13.450;  617.000;  352.000
458.582;  -18.300; -302.000; -294.000
458.703;    7.225;  303.000;  154.000
458.823;  -24.100;   22.000;  163.000
458.943;   23.075;  341.000;  467.000
459.063;    9.425; 1124.000;  192.000
459.183;  -32.175;  328.000;  313.000
459.304;    1.025;  315.000;  517.000
459.424;  -76.150; -246.000;  -89.000
459.544;  351.050;  388.000;  764.000
459.664;  846.575;  499.000;  506.000
459.784;  307.175; 1004.000; 1175.000
459.904;   42.125;  867.000;  744.000
460.024;   67.100;  867.000;  684.000
460.144;    0.150;  449.000;  554.000
460.264;   14.325;  515.000;  327.000
460.385; -115.300; -145.000; -119.000
460.505;   27.250;  905.000;  858.000
460.625;  -91.275;  -17.000;  -68.000
460.745;  -19.575;  396.000;  541.000
460.864;  -59.600;  153.000;  469.000
460.984;   -0.400;  499.000;  573.000
461.104;  131.250; 1656.000; 1775.000
461.224;   29.275;  657.000;  650.000
461.344;  -35.225;  431.000;  360.000
461.464;  -26.150;  258.000;  513.000
461.584;  -37.025;  283.000;  466.000
461.704;  -46.250;   58.000;  108.000
461.824;  -69.425;  238.000;  259.000
461.943;  -45.700;  191.000;  130.000
462.063;  -80.375;    2.000;  324.000
462.183;   26.375;  639.000;  717.000
462.303;   83.500; 1678.000; 1230.000
462.422;   19.025;  781.000;  840.000
462.542;  -38.775;  271.000;  391.000
462.662;   31.725;  353.000;  380.000
462.782;  244.275;  833.000;  572.000
462.901;  494.200;  545.000;  717.000
463.021;  274.900; 1702.000; 1638.000
463.141;  -13.500;  337.000;  770.000
463.260;  -33.400;  614.000;  474.000
463.380;   15.175;  902.000;  884.000
463.499;  -39.350;  342.000;  332.000
463.619;  -25.625;  581.000;  559.000
463.738;   99.525; 1644.000;  903.000
463.858;   16.525;  657.000;  811.000
463.978;  -36.225;  542.000;  396.000
464.097;   47.550;  921.000; 1114.000
464.217;  100.550; 1196.000; 1143.000
464.336;  126.175; 1068.000; 1130.000
464.455;  -36.575;  328.000;  659.000
464.575;   47.675;  597.000;  602.000
464.694;  144.375; 1204.000; 1179.000
464.814;  141.950; 1190.000; 1138.000
464.933;   78.400; 1095.000; 1027.000
465.052;  108.200; 1412.000; 1054.000
465.172;   61.600;  922.000;  799.000
465.291;  139.225; 1376.000; 1320.000
465.410;    4.650;  462.000;  735.000
465.530;  101.975; 1355.000; 1310.000
465.649;   54.775; 1209.000; 1273.000
465.768;  132.425; 1673.000; 1508.000
465.888;   42.400;  941.000; 1174.000
466.007;   90.875; 1335.000; 1440.000
466.126;   -4.450;  721.000;  641.000
466.245;   49.475; 1176.000; 1187.000
466.364;   10.150;  950.000; 1060.000
466.484;   59.325; 1024.000; 1213.000
466.603;   29.000; 1101.000; 1222.000
466.722;  120.275; 1490.000; 1769.000
466.841;   81.725; 1151.000; 1401.000
466.960;   37.550; 1069.000;  972.000
467.079;  116.025; 1971.000; 1786.000
467.198;   44.125; 1238.000; 1181.000
467.317;   80.950; 1768.000; 1162.000
467.436;   67.825; 1709.000; 1261.000
467.555;  115.875; 1796.000; 1746.000
467.674;   58.025; 1227.000; 1329.000
467.793;   36.250; 1376.000; 1374.000
467.912;   76.625; 1658.000; 1539.000
468.031;  134.250; 2038.000; 1930.000
468.150;  138.375; 1842.000; 1837.000
468.269;  187.600; 2313.000; 2090.000
468.388;  187.275; 2168.000; 2339.000
468.507;  247.525; 2884.000; 2903.000
468.626;  231.850; 2555.000; 2541.000
468.744;  132.225; 2018.000; 2174.000
468.863;  197.925; 2312.000; 2523.000
468.982;   82.725; 1503.000; 1555.000
469.101;  219.925; 2788.000; 2692.000
469.220;  144.425; 2333.000; 2176.000
469.338;  263.825; 2935.000; 3051.000
469.457;  204.300; 2719.000; 2545.000
469.576;  351.300; 3953.000; 3784.000
469.695;  213.650; 2877.000; 3066.000
469.813;  440.050; 4148.000; 4192.000
469.932;  409.100; 4255.000; 4485.000
470.051;  437.600; 4075.000; 4161.000
470.169;  867.300; 4470.000; 4338.000
470.288; 1503.225; 4700.000; 4809.000
470.406;  884.675; 5059.000; 5194.000
470.525;  631.800; 6101.000; 5787.000
470.644;  649.125; 6847.000; 6794.000
470.762;  826.075; 8397.000; 7873.000
470.881;  897.425; 8651.000; 8464.000
470.999; 1061.825; 9685.000; 9151.000
471.118; 1106.550;11174.000;10711.000

