
Integration time [ms]: 100.000
Averaging Nr. [scans]: 40
Smoothing Nr. [pixels]: 0
Data measured with spectrometer [name]: 2101012U2
Wave   ;Sample   ;Dark     ;Reference
[nm]   ;[counts] ;[counts] ;[counts] 

197.733;   59.575;  516.000;  404.000
197.879;  -93.600; -610.000; -634.000
198.025;  -67.325; -475.000; -420.000
198.171;  -68.225; -602.000; -612.000
198.317;  -36.525; -401.000; -316.000
198.463;  -65.675; -655.000; -404.000
198.609;   23.900;  181.000; -137.000
198.755;  -87.325; -644.000; -410.000
198.901;  -64.975; -505.000; -424.000
199.047;  -50.500; -615.000; -488.000
199.193;  -49.550; -230.000; -468.000
199.339;  -35.875; -222.000; -369.000
199.485;   36.150;  330.000;  271.000
199.631;   21.950;  227.000;  310.000
199.777;  -56.300; -466.000; -398.000
199.923;  -53.000; -610.000; -424.000
200.069;  -18.900; -141.000;  -58.000
200.215;   58.600;  128.000;  453.000
200.361;   35.600;  243.000;  477.000
200.507;  -61.625; -600.000; -373.000
200.653;  -21.300; -371.000; -194.000
200.798;  -29.825; -215.000; -125.000
200.944;  -11.525; -146.000;  -41.000
201.090;   49.700;   61.000;  222.000
201.236;    2.025; -116.000; -158.000
201.382;  143.725;  874.000;  903.000
201.528;   -2.425;  -58.000;  -48.000
201.674;  -46.375; -386.000; -293.000
201.819;  -65.425; -540.000; -439.000
201.965;  -82.925; -699.000; -447.000
202.111;  -17.800; -273.000; -226.000
202.257;  -41.325; -250.000; -238.000
202.402;   11.425;   13.000;  -36.000
202.548;  -24.525; -169.000; -116.000
202.694;   92.900;  410.000; -183.000
202.840;  -77.775; -603.000; -531.000
202.985;  -68.875; -681.000; -639.000
203.131; -107.275; -832.000; -666.000
203.277;  -32.250; -199.000; -262.000
203.423;  -57.375; -434.000; -520.000
203.568;  -54.000; -462.000; -237.000
203.714;  -67.200; -535.000; -542.000
203.860;  -94.500; -682.000; -641.000
204.005;   17.600;  112.000;  167.000
204.151;   72.100;  561.000;  556.000
204.296;  -47.075; -354.000; -221.000
204.442;  -86.600; -600.000; -547.000
204.588;  -81.875; -592.000; -579.000
204.733;   24.725;  178.000;  168.000
204.879; -142.075;-1018.000; -822.000
205.025;   -3.100;  -99.000;  126.000
205.170;  -15.725;  -17.000;   94.000
205.316;   75.025;  438.000;  661.000
205.461;  -81.375; -698.000; -554.000
205.607;   85.250;  609.000;  665.000
205.752;  -83.150; -626.000; -551.000
205.898;  -60.075; -501.000; -391.000
206.043;  -66.925; -578.000; -506.000
206.189;  -58.700; -243.000; -285.000
206.334;   82.750;  554.000;  606.000
206.480;   80.825;  409.000;  239.000
206.625;  -84.625; -529.000; -552.000
206.771;  -57.475; -451.000; -373.000
206.916;  -39.125; -210.000; -537.000
207.062;  -79.125; -545.000; -591.000
207.207;  -74.725; -546.000; -443.000
207.353;   47.450;  185.000;  460.000
207.498;   24.000;  196.000;   85.000
207.643;  -60.950; -501.000; -370.000
207.789; -136.800;-1069.000; -910.000
207.934; -101.050; -665.000; -713.000
208.080;  -14.450; -154.000;   66.000
208.225;  -15.025;  -22.000;  -57.000
208.370;  -95.525; -727.000; -619.000
208.516;  -68.400; -741.000; -487.000
208.661;  -28.800; -127.000;  -69.000
208.806;  -36.025; -165.000; -171.000
208.952; -130.350;-1044.000; -731.000
209.097;   59.700;  378.000;  349.000
209.242;  -35.150; -307.000; -382.000
209.387;   49.250;  392.000;  350.000
209.533;  -49.750; -321.000; -350.000
209.678;   72.550;  472.000;  543.000
209.823;  -55.100; -408.000; -310.000
209.969; -110.875; -860.000; -757.000
210.114; -108.975; -907.000; -719.000
210.259; -124.300; -939.000; -889.000
210.404;  -15.575; -171.000;  103.000
210.549;   -2.775;  108.000;    3.000
210.695;   -3.950;   -3.000;  -95.000
210.840;   27.675;   94.000;   67.000
210.985;  -63.625; -484.000; -303.000
211.130;   55.900;  268.000;  406.000
211.275;   17.475;  207.000;  199.000
211.420;  -54.575; -300.000; -289.000
211.566;  -82.600; -536.000; -489.000
211.711;   13.000;  218.000;  157.000
211.856;  -60.600; -545.000; -519.000
212.001;   -1.200;  151.000;   44.000
212.146;   37.325;  153.000;   49.000
212.291;  -26.650; -210.000; -186.000
212.436;  -25.350; -280.000;   -6.000
212.581; -111.200; -685.000; -653.000
212.726;  -84.925; -487.000; -538.000
212.871;  -53.150; -552.000; -217.000
213.016; -155.675;-1172.000;-1029.000
213.161;   61.375;  406.000;  291.000
213.306;  -62.550; -435.000; -577.000
213.451; -100.850; -778.000; -689.000
213.596;  -57.325; -455.000; -347.000
213.741;  -61.550; -448.000; -538.000
213.886;  -83.475; -498.000; -517.000
214.031;  -36.750; -294.000; -124.000
214.176;  -45.725; -408.000; -341.000
214.321;  -40.150; -296.000; -157.000
214.466;  -24.025; -163.000;  -43.000
214.611;  -11.550;  -61.000;  -10.000
214.756; -122.725; -948.000; -858.000
214.901;  -51.575; -388.000; -226.000
215.046; -125.900; -797.000; -825.000
215.191;   20.400;  128.000;   35.000
215.336;  -16.000; -157.000;  -19.000
215.480;  -78.300; -684.000; -505.000
215.625;  -12.375; -175.000;  -19.000
215.770;  -96.025; -757.000; -662.000
215.915;  -10.400;   -5.000;  -97.000
216.060;   -4.850; -113.000;  -21.000
216.205; -109.250; -731.000; -779.000
216.349;  -84.500; -470.000; -533.000
216.494; -139.325; -939.000; -867.000
216.639; -123.475; -823.000; -888.000
216.784;  -97.975; -577.000; -525.000
216.929;   50.100;  392.000;  281.000
217.073;   -4.200; -244.000;  -31.000
217.218;  -15.375;   78.000;  -47.000
217.363;  -85.450; -656.000; -618.000
217.507;  -85.575; -623.000; -588.000
217.652; -134.350; -845.000; -874.000
217.797;  -97.225; -708.000; -659.000
217.942; -105.800; -856.000; -720.000
218.086;   61.150;  608.000;  539.000
218.231;  -17.775; -174.000;  -26.000
218.376;  -48.575; -337.000; -229.000
218.520;   -9.350;  -41.000;   96.000
218.665;  -31.950; -338.000; -204.000
218.810;  -39.200; -275.000; -233.000
218.954;   18.925;  201.000;   35.000
219.099; -111.275; -713.000; -963.000
219.243;  -93.375; -589.000; -554.000
219.388;  -31.300; -264.000; -136.000
219.532;  -13.900; -116.000; -116.000
219.677;  -76.900; -564.000; -521.000
219.822;   -6.125;   33.000;   89.000
219.966;   10.350;   17.000;  -99.000
220.111;  -55.225; -328.000;  -40.000
220.255;  -88.000; -797.000; -750.000
220.400;  -33.400; -180.000; -146.000
220.544;  -65.825; -516.000; -450.000
220.689;  -62.975; -422.000; -451.000
220.833;  -17.750; -123.000;  -58.000
220.978;  -43.375; -393.000; -563.000
221.122;   12.650;  319.000;  307.000
221.267; -126.250; -906.000; -837.000
221.411;  -65.875; -478.000; -394.000
221.555;  -11.175; -104.000;  -23.000
221.700;  -47.625; -329.000; -222.000
221.844;   26.075;  255.000;  272.000
221.989;  -57.500; -328.000; -311.000
222.133;  -44.225; -289.000; -307.000
222.277;  -13.700;    5.000;   78.000
222.422;   16.575;  227.000;  113.000
222.566;  -48.400; -381.000; -214.000
222.711;  -75.675; -414.000; -479.000
222.855;  -83.450; -643.000; -586.000
222.999;  -88.325; -642.000; -717.000
223.144;  -21.475; -195.000; -194.000
223.288;   43.025;  423.000;  251.000
223.432;   14.350;  184.000;  230.000
223.576;   14.350;  152.000;  -21.000
223.721;   36.225;  364.000;  273.000
223.865;  -74.075; -472.000; -475.000
224.009;  262.075; 1673.000; 1631.000
224.153;  -94.100; -660.000; -671.000
224.298;  -79.950; -531.000; -489.000
224.442;  -27.700;  -74.000;  -33.000
224.586;  -13.725; -169.000; -106.000
224.730; -105.775; -858.000; -670.000
224.875; -112.050; -739.000; -688.000
225.019;    5.900;  102.000;  188.000
225.163;   49.950;  208.000;  341.000
225.307;   19.750;   97.000;  -91.000
225.451;   51.400;  360.000;  481.000
225.595;   16.125;  264.000;  176.000
225.739;  -20.500; -170.000;  -94.000
225.884;  -11.425;   86.000;    5.000
226.028;  -98.450; -760.000; -626.000
226.172;  -54.475; -260.000; -273.000
226.316; -127.875; -941.000; -902.000
226.460;  -79.825; -645.000; -493.000
226.604;  -49.800; -406.000; -400.000
226.748; -111.275; -836.000; -733.000
226.892;  -40.825; -227.000; -181.000
227.036;  -68.575; -537.000; -447.000
227.180;  -58.350; -551.000; -375.000
227.324;  -73.125; -561.000; -580.000
227.468; -120.000; -819.000; -717.000
227.612;    1.075;  242.000;  -28.000
227.756;  -97.150; -845.000; -698.000
227.900;   42.175;  342.000;  441.000
228.044;  -64.075; -509.000; -290.000
228.188;   49.025;  448.000;  568.000
228.332;  -82.300; -546.000; -472.000
228.476;  -22.900; -223.000; -149.000
228.620;  -33.125; -210.000; -150.000
228.764;   63.425;  431.000;  349.000
228.908;  -27.575; -155.000;   30.000
229.052;  -81.075; -615.000; -528.000
229.195;  -18.100; -172.000;   13.000
229.339;  -31.425; -235.000; -305.000
229.483;  -10.625;    5.000; -162.000
229.627;  -10.175; -156.000;  139.000
229.771;  -56.000; -218.000; -294.000
229.915;    0.600;  230.000;   79.000
230.059; -100.575; -648.000; -663.000
230.202;  -44.775; -370.000; -317.000
230.346;  -24.900; -107.000;  107.000
230.490;  -79.850; -489.000; -521.000
230.634; -112.950; -736.000; -553.000
230.777;   68.775;  478.000;  509.000
230.921;  -62.750; -450.000; -359.000
231.065;  -55.925; -246.000; -286.000
231.209;   29.625;  261.000;  265.000
231.352;   16.325;   54.000;   40.000
231.496;   19.000;  568.000;  188.000
231.640;  -93.675; -693.000; -621.000
231.783;   57.375;  546.000;  525.000
231.927;  -51.875; -294.000; -365.000
232.071; -134.650; -962.000; -736.000
232.214; -130.000; -980.000; -764.000
232.358; -118.450; -683.000; -599.000
232.502;    1.450;  -19.000;    7.000
232.645; -136.475;-1090.000; -927.000
232.789;  -34.325; -257.000; -218.000
232.933;  -39.700; -407.000; -224.000
233.076; -140.175;-1038.000; -897.000
233.220; -117.575; -752.000; -777.000
233.363;  -87.775; -669.000; -477.000
233.507;   73.625;  371.000;  129.000
233.650; -103.475; -764.000; -834.000
233.794;   49.450;  438.000;  461.000
233.938;  -77.725; -530.000; -362.000
234.081;  -13.275;  -93.000;   31.000
234.225;  -82.125; -631.000; -539.000
234.368; -113.775; -773.000; -723.000
234.512;  -56.125; -385.000; -299.000
234.655; -111.950; -582.000; -555.000
234.798;  -83.550; -493.000; -466.000
234.942; -132.175; -884.000;-1002.000
235.085;  -73.875; -651.000; -443.000
235.229;  -71.550; -405.000; -410.000
235.372;  -60.775; -247.000; -191.000
235.516;  -59.400; -397.000; -321.000
235.659;    5.450;   92.000;  121.000
235.802;  -10.450;  -38.000;  -22.000
235.946;   15.125;  335.000;  215.000
236.089;   27.125;  126.000;  250.000
236.233;   39.250;  275.000;  298.000
236.376;  -56.575; -235.000; -378.000
236.519;  -62.775; -297.000; -319.000
236.663;  -29.825; -215.000; -117.000
236.806; -147.400;-1029.000; -999.000
236.949;   49.200;  543.000;  431.000
237.092;   46.100;  412.000;  391.000
237.236;  -96.425; -589.000; -502.000
237.379;   53.175;  352.000;  428.000
237.522; -126.925; -879.000; -768.000
237.666;  -23.700; -271.000;   18.000
237.809; -122.450; -851.000; -823.000
237.952;   25.425;  469.000;  271.000
238.095;  -68.475; -447.000; -442.000
238.238;   77.325;  688.000;  700.000
238.382;   -9.675;  166.000;  103.000
238.525;  -89.550; -598.000; -511.000
238.668; -149.900;-1060.000; -985.000
238.811;  -91.700; -638.000; -643.000
238.954;  -58.550; -483.000; -334.000
239.097;   81.125;  617.000;  664.000
239.241;   28.450;  394.000;  326.000
239.384;  -40.350; -254.000; -214.000
239.527;  -60.425; -424.000; -224.000
239.670; -146.550; -994.000;-1091.000
239.813; -111.250; -696.000; -658.000
239.956;   78.425;  579.000;  473.000
240.099; -114.950; -778.000; -725.000
240.242;   56.525;  428.000;  432.000
240.385;   39.750;  466.000;  450.000
240.528;  -88.575; -706.000; -473.000
240.671;   22.450;  189.000;  134.000
240.814;  -47.925; -441.000; -158.000
240.957; -103.300; -767.000; -578.000
241.100; -104.100; -779.000; -755.000
241.243; -142.500;-1234.000; -893.000
241.386;  -71.925; -508.000; -379.000
241.529;  -93.875; -735.000; -547.000
241.672;  -63.175; -566.000; -495.000
241.815; -118.500; -832.000; -808.000
241.958;  -34.775; -125.000; -182.000
242.101;  -72.675; -545.000; -390.000
242.244;  -46.225; -270.000; -325.000
242.387;  -48.325; -304.000; -246.000
242.530;   58.000;  470.000;  134.000
242.673;  -51.575; -381.000; -309.000
242.815; -125.350; -925.000; -899.000
242.958;  -69.625; -482.000; -381.000
243.101;   11.150;  132.000;  187.000
243.244;  -91.975; -564.000; -521.000
243.387;  -47.875; -313.000; -316.000
243.530; -107.700; -657.000; -674.000
243.672;  -21.425;   43.000;  -92.000
243.815;  -59.550; -355.000; -283.000
243.958;  -16.475;   98.000;  -26.000
244.101;   16.500;   59.000;  -16.000
244.243;  -18.450;  -47.000;  101.000
244.386; -111.000; -761.000; -630.000
244.529;  -29.325; -132.000; -139.000
244.672; -162.000;-1154.000; -951.000
244.814; -108.975; -621.000; -794.000
244.957;  -54.550; -380.000; -304.000
245.100;  -80.750; -489.000; -489.000
245.242;  -55.025; -387.000; -374.000
245.385;  -19.875;  -59.000;  -39.000
245.528; -126.575; -871.000; -705.000
245.670;   87.425;  612.000;  634.000
245.813;  -97.975; -599.000; -547.000
245.956;  -48.475; -324.000; -275.000
246.098;  -71.250; -508.000; -650.000
246.241;   -2.875;  194.000;   48.000
246.383;  -25.350; -119.000;  -73.000
246.526; -100.850; -454.000; -525.000
246.669; -127.325; -889.000; -780.000
246.811;    5.150;  172.000;   -1.000
246.954;  -72.500; -512.000; -426.000
247.096;  -32.275;  -84.000;   -6.000
247.239;  -72.000; -482.000; -445.000
247.381;  -85.200; -647.000; -488.000
247.524;   86.950;  645.000;  679.000
247.666;  -20.175;   58.000;   11.000
247.809; -117.825; -887.000; -691.000
247.951;  -17.075;  -75.000;  138.000
248.094;   26.600;  432.000;  308.000
248.236; -176.550;-1262.000;-1238.000
248.378;    2.625; -356.000;  -81.000
248.521;  -41.075; -334.000; -337.000
248.663;  -42.300; -236.000; -267.000
248.806;  -23.900; -300.000; -266.000
248.948; -104.325; -886.000; -763.000
249.090;  -54.600; -428.000; -398.000
249.233;  -55.900; -344.000; -381.000
249.375;  -59.400; -474.000; -451.000
249.518;  -15.800;  -83.000; -133.000
249.660;  -17.950; -103.000;    3.000
249.802; -177.725;-1303.000;-1189.000
249.945;  -85.000; -612.000; -540.000
250.087; -125.875; -834.000; -768.000
250.229;  -63.500; -362.000; -480.000
250.371;  -86.225; -494.000; -439.000
250.514;  -65.250; -310.000; -244.000
250.656;  -63.000;   69.000;  102.000
250.798; -119.175; -849.000; -800.000
250.940;  -51.950; -322.000; -322.000
251.083;  -36.225; -335.000; -111.000
251.225;   52.050;  338.000;  310.000
251.367;  -33.575; -274.000; -373.000
251.509;  -32.325; -265.000; -210.000
251.651; -118.325; -731.000; -671.000
251.794;   59.475;  538.000;  632.000
251.936; -115.475; -821.000; -747.000
252.078;  -80.175; -540.000; -461.000
252.220;  -83.100; -645.000; -477.000
252.362;   88.075;  344.000;  462.000
252.504;  -74.225; -677.000; -584.000
252.646; -121.875; -875.000; -722.000
252.788;  -24.350;   14.000; -128.000
252.931;  -45.650; -257.000; -253.000
253.073;  -60.200; -376.000; -317.000
253.215;   -2.650;  141.000;  122.000
253.357;  -23.725;   82.000; -153.000
253.499;  -54.800; -374.000; -234.000
253.641;  -88.425; -749.000; -594.000
253.783;  -99.875; -609.000; -527.000
253.925;  -98.000; -586.000; -591.000
254.067; -114.575; -744.000; -667.000
254.209;  -32.375; -391.000; -259.000
254.351; -141.000; -865.000; -883.000
254.493;  -76.825; -441.000; -417.000
254.635; -141.125; -936.000; -818.000
254.777;  -94.975; -752.000; -687.000
254.918;  -67.375; -512.000; -430.000
255.060;  -60.850; -551.000; -395.000
255.202;  -67.725; -473.000; -261.000
255.344;  -87.475; -658.000; -455.000
255.486;  -53.525; -471.000; -406.000
255.628; -126.550; -780.000; -781.000
255.770;  -87.950; -676.000; -536.000
255.912;  -66.825; -559.000; -468.000
256.053;  -95.900; -730.000; -508.000
256.195;  150.325; 1008.000;  903.000
256.337;  -99.675; -861.000; -595.000
256.479;   58.125;  532.000;  416.000
256.621;  -53.175; -394.000; -212.000
256.762; -112.725; -789.000; -742.000
256.904;   47.925;  485.000;  487.000
257.046;  -55.550; -381.000; -271.000
257.188;  -49.425; -351.000; -264.000
257.329;  -84.000; -525.000; -464.000
257.471; -124.725; -939.000; -807.000
257.613;  -75.200; -584.000; -498.000
257.755; -146.675;-1073.000; -982.000
257.896;   21.825;  286.000;  392.000
258.038;  -84.025; -403.000; -352.000
258.180;  -54.125; -354.000; -279.000
258.321;  -84.025; -581.000; -457.000
258.463;   -8.300;  -71.000;  133.000
258.605;  -83.400; -562.000; -570.000
258.746; -110.975; -886.000; -772.000
258.888; -152.450;-1026.000;-1020.000
259.029;   11.100;  121.000;   -8.000
259.171;  -92.975; -614.000; -550.000
259.313;  -17.725;  -49.000;  -47.000
259.454;  -80.025; -536.000; -414.000
259.596;  -59.225; -483.000; -390.000
259.737;  -82.575; -590.000; -474.000
259.879;   29.200;  217.000;  311.000
260.020;   95.475;  901.000;  636.000
260.162;  -35.625; -146.000; -253.000
260.303; -124.425; -768.000; -687.000
260.445; -101.925; -609.000; -613.000
260.586;   31.800;  392.000;  157.000
260.728;  -35.875; -360.000; -248.000
260.869; -122.350; -350.000; -343.000
261.011;   73.450;  706.000;  537.000
261.152;  -61.650; -479.000; -319.000
261.293;  -78.050; -576.000; -595.000
261.435;  -26.375; -219.000; -184.000
261.576;  -56.275; -455.000; -325.000
261.718;   60.700;  420.000;  470.000
261.859; -142.800; -940.000; -949.000
262.000; -138.475; -951.000;-1016.000
262.142;  -27.600;  -52.000;  -60.000
262.283; -118.475; -808.000; -691.000
262.424;  -91.725; -666.000; -625.000
262.566; -155.900;-1161.000; -983.000
262.707; -130.650; -840.000; -830.000
262.848; -121.475; -769.000; -726.000
262.990;  -54.525; -362.000; -345.000
263.131;   77.075;  650.000;  681.000
263.272;  -22.900;  -61.000;  -41.000
263.413;  -93.850; -589.000; -561.000
263.555;  -77.850; -669.000; -143.000
263.696;  -95.800; -550.000; -641.000
263.837;  -73.400; -449.000; -551.000
263.978;  -13.600;   -5.000;  -77.000
264.119;  -56.850; -283.000; -264.000
264.261; -124.600; -847.000; -630.000
264.402;  -22.050;   33.000;   40.000
264.543;  -79.100; -509.000; -524.000
264.684;  -14.275;   61.000;  -50.000
264.825;  -73.125; -816.000; -538.000
264.966;  -23.375;  -84.000;  -67.000
265.107; -111.125; -646.000; -670.000
265.248; -124.700; -825.000; -812.000
265.390;  -13.750;  152.000;   -9.000
265.531;  -21.800; -238.000; -107.000
265.672;  -89.375; -557.000; -630.000
265.813;   66.075;  563.000;  439.000
265.954; -146.775; -959.000; -940.000
266.095;  -31.825; -372.000; -322.000
266.236; -104.100; -686.000; -548.000
266.377;  -53.425; -243.000; -297.000
266.518;  -77.600; -619.000; -547.000
266.659;   29.075;  170.000;  268.000
266.800;   14.775;   83.000;   85.000
266.941;  -84.350; -487.000; -478.000
267.082;   24.675;  354.000;   99.000
267.223;  -68.400; -344.000; -273.000
267.364; -120.725; -892.000; -686.000
267.504;  -19.250;    3.000;  135.000
267.645;   -4.975;  160.000;   67.000
267.786;  -32.625; -147.000;  -86.000
267.927;  -79.950; -473.000; -379.000
268.068;  -35.825; -186.000;  -61.000
268.209;  -40.575; -175.000; -413.000
268.350;  -69.525; -388.000; -532.000
268.490;  -95.900; -648.000; -521.000
268.631;   19.275;  127.000;  225.000
268.772; -110.800; -874.000; -647.000
268.913;  -61.525; -328.000; -476.000
269.054;  -10.050; -117.000;   12.000
269.194;  -55.750; -418.000; -402.000
269.335; -160.100;-1137.000;-1074.000
269.476;  -30.200;   33.000;  -35.000
269.617;  -45.650; -347.000; -392.000
269.757; -100.575; -713.000; -646.000
269.898; -107.225; -856.000; -613.000
270.039;  -65.800; -415.000; -405.000
270.180; -144.675; -952.000; -816.000
270.320;  -31.875; -190.000; -250.000
270.461;  -43.200; -277.000; -249.000
270.602;  -31.825; -186.000; -156.000
270.742; -119.100; -868.000; -943.000
270.883;  -59.850; -442.000; -390.000
271.023;  -53.075; -358.000; -357.000
271.164;  -87.550; -607.000; -528.000
271.305;  -94.575; -666.000; -654.000
271.445;  -86.975; -722.000; -683.000
271.586;  -76.150; -462.000; -283.000
271.726;  -46.650; -397.000; -322.000
271.867;  -65.100; -594.000; -534.000
272.008;  170.775; -473.000; -285.000
272.148;  138.050;  462.000;  468.000
272.289;    2.500; -113.000; -181.000
272.429;   12.250;   19.000;  185.000
272.570; -103.300; -633.000; -737.000
272.710;  -99.625; -825.000; -775.000
272.851;  -35.025;  113.000; -130.000
272.991; -171.200;-1173.000;-1077.000
273.131;  -75.950; -419.000; -459.000
273.272; -103.275; -683.000; -723.000
273.412;    5.200; -143.000;  -31.000
273.553;  -54.425; -488.000; -507.000
273.693;  143.050;  913.000;  858.000
273.834;  -87.450; -894.000; -692.000
273.974;  -76.750; -664.000; -615.000
274.114; -101.225; -772.000; -560.000
274.255;   81.900;  414.000;  373.000
274.395;    6.400; -180.000; -125.000
274.535;   28.650;  199.000;  350.000
274.676;   36.325;  225.000;   94.000
274.816;    4.125;  110.000;   34.000
274.956;  -77.450; -624.000; -690.000
275.097;  -63.025;-1014.000; -922.000
275.237; -114.475; -913.000; -803.000
275.377;  -98.400; -778.000; -689.000
275.517; -144.000; -878.000; -937.000
275.658;  -66.400; -590.000; -555.000
275.798;  -66.050; -606.000; -413.000
275.938;   28.975;  215.000;  323.000
276.078;  -82.175; -626.000; -395.000
276.218;    7.825;   99.000;  104.000
276.359; -134.375;-1026.000;-1024.000
276.499;  -83.150; -605.000; -446.000
276.639;  -34.350; -305.000; -151.000
276.779;  -57.325; -475.000; -357.000
276.919; -102.925; -783.000; -624.000
277.059;  -25.625; -261.000; -212.000
277.199;  -50.550; -357.000; -259.000
277.340;   40.400;  287.000;  175.000
277.480; -118.375; -840.000; -693.000
277.620;   23.875;  192.000;   16.000
277.760; -195.400;-1533.000;-1294.000
277.900;   16.825;  113.000;   33.000
278.040;   24.725;  137.000;  159.000
278.180;   29.750;  270.000;  170.000
278.320;   13.075;   21.000;   56.000
278.460;  -75.750; -443.000; -469.000
278.600;  -91.750; -708.000; -598.000
278.740;   43.125;  448.000;  224.000
278.880;  -16.375; -768.000; -791.000
279.020;   -4.525; -194.000; -144.000
279.160;  -84.050; -672.000; -595.000
279.300; -134.825; -926.000; -873.000
279.440;  -78.725; -709.000; -622.000
279.579;  -20.925;-1014.000; -929.000
279.719;  -62.150; -410.000; -394.000
279.859;   50.300;   -4.000;   41.000
279.999;   27.100; -208.000;  101.000
280.139;  -22.925; -435.000; -387.000
280.279;  -81.950; -708.000; -745.000
280.419;   -0.925; -229.000; -147.000
280.559;  -18.925; -259.000; -180.000
280.698;  -92.375; -790.000; -639.000
280.838;  -70.525; -778.000; -800.000
280.978; -115.650; -846.000; -790.000
281.118; -117.425; -811.000; -704.000
281.257;    5.700;   24.000;    6.000
281.397; -100.275;-1094.000; -960.000
281.537;  -82.775; -599.000; -712.000
281.677;  -32.025; -150.000; -101.000
281.816;  -97.450; -700.000; -630.000
281.956;  -33.200; -193.000; -257.000
282.096;  -67.975; -539.000; -396.000
282.235; -106.500; -672.000; -638.000
282.375;  -23.950; -243.000;  -98.000
282.515; -106.325; -715.000; -707.000
282.654;   35.825;   29.000;  106.000
282.794;   26.000;  388.000;  244.000
282.934;  -49.475; -530.000; -491.000
283.073; -130.750;-1030.000; -857.000
283.213;  -60.275; -460.000; -467.000
283.353;  -24.925; -408.000; -349.000
283.492;  -34.325; -264.000; -296.000
283.632;  -32.125; -254.000; -168.000
283.771; -103.725; -859.000; -730.000
283.911;  -57.475; -369.000; -260.000
284.050; -112.375; -794.000; -748.000
284.190; -162.475;-1229.000;-1096.000
284.329; -137.225;-1055.000; -964.000
284.469;  -54.650; -516.000; -591.000
284.608;  -44.700; -559.000; -598.000
284.748;  -80.400; -614.000; -570.000
284.887;   -2.575;  -87.000;  -20.000
285.027; -122.400; -844.000; -892.000
285.166;  -20.700; -192.000; -249.000
285.306;   19.725; -116.000;  -33.000
285.445;  -38.650; -229.000; -343.000
285.584; -105.975; -630.000; -494.000
285.724;  -52.425; -282.000; -322.000
285.863; -113.625; -857.000; -507.000
286.002;  -44.750; -366.000; -276.000
286.142; -116.200; -715.000; -622.000
286.281;  -80.425; -525.000; -493.000
286.420;  -65.775; -554.000; -417.000
286.560;  102.575;  653.000;  623.000
286.699; -134.075; -958.000; -912.000
286.838;  -74.250; -590.000; -591.000
286.978;  -82.925; -533.000; -537.000
287.117; -133.500;-1085.000; -950.000
287.256;  -29.725; -228.000; -211.000
287.395;  -61.300; -197.000; -378.000
287.535;  -48.150; -370.000; -298.000
287.674;  -81.675; -509.000; -484.000
287.813;   52.700;  661.000;  533.000
287.952; -131.425;-1010.000; -871.000
288.091; -146.325;-1049.000; -915.000
288.231;    7.850;   13.000;   15.000
288.370; -177.525;-1217.000;-1200.000
288.509;  -89.600; -728.000; -645.000
288.648;  -93.400; -770.000; -548.000
288.787;  -31.250; -243.000;  -87.000
288.926;  -61.500; -454.000; -475.000
289.065;  123.725;  859.000;  672.000
289.204;  -47.500; -377.000; -217.000
289.344; -100.050; -791.000; -690.000
289.483;   42.950;  416.000;  304.000
289.622;  -37.075; -291.000; -149.000
289.761;   -5.275; -309.000; -166.000
289.900; -117.875; -785.000; -626.000
290.039;   -1.825;  -12.000;  -95.000
290.178;  -34.075; -274.000; -180.000
290.317;  -84.050; -618.000; -479.000
290.456;  -66.875; -463.000; -451.000
290.595; -148.125; -961.000; -833.000
290.734; -140.100; -904.000; -891.000
290.873;  -58.225; -456.000; -420.000
291.011; -105.025; -833.000; -843.000
291.150;  -93.575; -770.000; -682.000
291.289;  -17.750; -343.000; -110.000
291.428; -107.375; -599.000; -480.000
291.567;  -61.475; -370.000; -442.000
291.706;   -6.525;  109.000;  154.000
291.845;  -93.275; -597.000; -505.000
291.984; -175.275;-1234.000;-1061.000
292.122;   65.325;  602.000;  582.000
292.261;   38.525;  620.000;  463.000
292.400;    4.400; -144.000;  211.000
292.539; -132.150; -959.000; -813.000
292.678;  -33.675; -325.000; -300.000
292.816; -149.150;-1136.000; -965.000
292.955; -103.925; -844.000; -684.000
293.094;   -7.125; -173.000; -337.000
293.233;  -51.400; -556.000; -400.000
293.371;  -38.100; -225.000;  -84.000
293.510; -115.750; -866.000; -780.000
293.649; -122.975; -959.000; -924.000
293.787;  -34.950;-1083.000;-1012.000
293.926;   -5.775; -113.000;  -32.000
294.065;  -46.850; -379.000; -290.000
294.203;   69.250;  298.000;  406.000
294.342;   33.075;   74.000;  156.000
294.481; 6339.975;51180.000; -836.000
294.619;  -30.300; -425.000; -582.000
294.758; -142.200;-1230.000;-1137.000
294.896;   84.300; -125.000;    5.000
295.035; -114.725;-1040.000;-1006.000
295.174; -108.850;-1082.000; -954.000
295.312;  -34.925; -323.000; -203.000
295.451;  -11.175; -307.000; -428.000
295.589;  -42.750; -389.000; -518.000
295.728;   24.700; -292.000; -165.000
295.866;   10.675;  -36.000;  -51.000
296.005;  -68.825; -584.000; -341.000
296.143;  -52.975; -558.000; -596.000
296.282; -102.300; -957.000; -881.000
296.420;  -84.700; -657.000; -557.000
296.559;  -89.775; -892.000; -633.000
296.697;   59.100; -847.000; -665.000
296.835;  137.700;-1141.000;-1002.000
296.974;   67.900;  -23.000;   39.000
297.112;   25.525; -443.000; -504.000
297.251;  -61.025; -815.000; -755.000
297.389;  132.900; -576.000; -438.000
297.527;   58.600; -145.000;  -83.000
297.666;  -52.650; -486.000; -438.000
297.804;  -55.300; -404.000; -264.000
297.942;   -0.325; -136.000; -161.000
298.081;   -1.050; -183.000;   63.000
298.219;   83.350;  -17.000;  -19.000
298.357;   57.900; -144.000;  -71.000
298.495;   41.150; -810.000; -812.000
298.634;  112.125;  245.000;  219.000
298.772;  102.175; -220.000; -338.000
298.910;  -26.675; -309.000; -182.000
299.048;    0.675; -130.000; -153.000
299.187;  -22.900; -350.000; -250.000
299.325;   28.125;   52.000;  122.000
299.463;   93.100; -389.000; -299.000
299.601;  149.650; -327.000; -271.000
299.739;  -74.725; -908.000; -883.000
299.877;  -74.750; -791.000; -703.000
300.016;  -41.350;-1095.000; -935.000
300.154;  187.225;  -19.000; -161.000
300.292;  114.850; -428.000; -348.000
300.430;   49.950; -408.000; -291.000
300.568;  -74.550; -940.000; -874.000
300.706;  -46.125; -366.000; -469.000
300.844;  -58.575;-1108.000; -979.000
300.982;  129.275;  246.000;  282.000
301.120;  -92.975; -965.000; -866.000
301.258;  -69.100; -812.000; -705.000
301.396;   58.550;  104.000;  -41.000
301.534;  130.250; -218.000; -293.000
301.672;   32.200; -664.000; -521.000
301.810;   78.775; -613.000; -545.000
301.948;  150.200;   53.000;  149.000
302.086;  693.200; -250.000;  -32.000
302.224; 1170.050; -610.000; -585.000
302.362;   89.250; -558.000; -622.000
302.500;   21.000; -923.000; -893.000
302.638;  122.800;  128.000;  245.000
302.776;    5.475; -352.000; -408.000
302.913;   48.650;  447.000;  236.000
303.051;    7.575;  -86.000;  -23.000
303.189;   61.700;   90.000;  118.000
303.327;  -28.275; -341.000; -256.000
303.465;  -78.500; -832.000; -588.000
303.603;  -92.000; -805.000; -604.000
303.740;  120.575;  417.000;  241.000
303.878;   47.950; -800.000; -759.000
304.016;  -90.675; -915.000; -790.000
304.154; -108.275;-1123.000;-1152.000
304.291;  -31.775; -505.000; -554.000
304.429;   16.050;  102.000;   74.000
304.567; -127.725; -908.000; -893.000
304.705;  -44.025; -408.000; -515.000
304.842;  129.275; -616.000; -540.000
304.980;   73.075;  215.000;   35.000
305.118;   85.550; -367.000; -365.000
305.255;  -34.850; -945.000; -927.000
305.393;   66.200;  178.000;  239.000
305.531;  -84.675;-1173.000; -956.000
305.668;  -77.000; -663.000; -582.000
305.806;   87.850; -358.000; -439.000
305.943;  122.550; -629.000; -637.000
306.081;   69.650; -378.000; -267.000
306.219; -110.275; -863.000; -748.000
306.356;   21.500;  158.000;   27.000
306.494;  110.775;  981.000;  761.000
306.631;    9.475;  -11.000;  -55.000
306.769;    7.350; -613.000; -485.000
306.906;   -3.975; -284.000; -258.000
307.044;  -63.625; -473.000; -488.000
307.181;  -63.225; -410.000; -332.000
307.319;   15.375;  112.000;   87.000
307.456; -174.450;-1191.000;-1153.000
307.594;  -94.000; -980.000; -727.000
307.731;  -10.375; -371.000; -164.000
307.868;   -0.625;  -15.000;   20.000
308.006; -127.675; -961.000; -847.000
308.143;  -50.475; -618.000; -330.000
308.281;  130.500;  -37.000; -254.000
308.418;  -25.775; -748.000; -640.000
308.555;  -66.000; -400.000; -250.000
308.693;  -84.950; -577.000; -573.000
308.830; -112.775; -712.000; -657.000
308.967;  -13.875; -215.000;  -95.000
309.105;  -44.475; -507.000; -396.000
309.242;   21.675; -468.000; -367.000
309.379;  271.125; -577.000; -655.000
309.517;  -64.575; -936.000; -948.000
309.654; -113.025; -910.000; -734.000
309.791;  -78.800; -662.000; -580.000
309.928; -121.475; -977.000; -914.000
310.065;  206.200;  819.000;  697.000
310.203;   30.200; -825.000; -850.000
310.340;   10.200; -465.000; -321.000
310.477;  -74.400; -412.000; -516.000
310.614;  -60.275; -383.000; -473.000
310.751;  -73.425; -427.000; -518.000
310.889;  -19.875;    1.000;   11.000
311.026; -143.050;-1161.000; -939.000
311.163;  -44.950; -386.000; -380.000
311.300;  -75.600; -512.000; -479.000
311.437;  -84.600; -658.000; -619.000
311.574; -148.250;-1226.000; -985.000
311.711;  -65.400; -595.000; -433.000
311.848;  -37.225; -380.000; -388.000
311.985;   14.875;  270.000;   93.000
312.122; -112.350; -932.000; -762.000
312.259; -134.950; -941.000; -994.000
312.396;  -63.975; -508.000; -551.000
312.533;  -93.850; -812.000; -790.000
312.670; -137.125;-1070.000; -898.000
312.807;  -36.875; -352.000; -367.000
312.944;  -62.075; -513.000; -611.000
313.081;  -29.925; -150.000; -415.000
313.218; -107.775;-1111.000; -867.000
313.355;    9.675; -531.000; -449.000
313.492;   29.775; -455.000; -292.000
313.629;  147.075;  815.000;  735.000
313.766; -150.000;-1176.000;-1008.000
313.902;   -8.425; -186.000;   21.000
314.039;  -40.850; -372.000; -289.000
314.176;   45.725;  286.000;  192.000
314.313;  -63.650; -569.000; -473.000
314.450;  -69.600; -788.000; -684.000
314.587;  -38.275; -468.000; -480.000
314.723;   16.850;  -78.000;  130.000
314.860;   41.100;  318.000;  332.000
314.997;   39.975;  223.000;  142.000
315.134;  -37.225; -385.000; -368.000
315.270;  -36.325; -480.000; -496.000
315.407; -116.425;-1094.000; -967.000
315.544;  -49.700; -657.000; -538.000
315.681;  -54.150; -681.000; -565.000
315.817;   35.700; -133.000; -176.000
315.954;   35.400; -613.000; -392.000
316.091; -130.650;-1045.000;-1023.000
316.227;  -10.475;  -71.000; -179.000
316.364;   -3.850;   23.000;    6.000
316.500;  -45.625; -113.000; -300.000
316.637;  -44.750; -181.000; -302.000
316.774;  -86.650; -625.000; -358.000
316.910; -108.100; -598.000; -629.000
317.047;  -73.050; -487.000; -351.000
317.183;  -63.425; -435.000; -566.000
317.320;  -26.650; -367.000; -321.000
317.456;  -89.550; -733.000; -805.000
317.593;  -88.325; -598.000; -641.000
317.729;    6.650;  168.000;  -67.000
317.866; -196.725;-1434.000;-1285.000
318.002;  -91.250; -708.000; -948.000
318.139;  -95.800; -883.000; -867.000
318.275; -104.875;-1003.000; -738.000
318.412;  -47.175; -517.000; -336.000
318.548;  -18.075; -751.000; -720.000
318.685;  -95.800; -985.000; -888.000
318.821; -112.275; -762.000; -735.000
318.957;   -6.125;   34.000;  -23.000
319.094;   16.050;  297.000;  154.000
319.230;  -67.450; -756.000; -742.000
319.367;  162.900; -471.000; -520.000
319.503;   78.400; -538.000; -436.000
319.639; -104.675; -877.000; -793.000
319.775;  -46.925; -750.000; -685.000
319.912;  -44.675; -424.000; -519.000
320.048; -100.425;-1184.000;-1184.000
320.184;   61.575;   59.000;   70.000
320.321;  -68.425; -497.000; -467.000
320.457;   55.700;  475.000;  662.000
320.593;  -59.675; -375.000; -382.000
320.729; -118.050; -732.000; -734.000
320.866;  -86.750; -577.000; -635.000
321.002;  -81.425; -759.000; -809.000
321.138;   -3.325; -135.000; -211.000
321.274;   74.900; -148.000; -115.000
321.410;   -8.500; -585.000; -353.000
321.546;  -26.625;-1011.000; -911.000
321.683;   70.350;  400.000;  185.000
321.819;   12.250;  -48.000; -117.000
321.955; -100.025; -743.000; -722.000
322.091;  -41.250; -585.000; -540.000
322.227;   -6.450; -382.000; -202.000
322.363;   -3.675; -320.000; -215.000
322.499;  -36.175; -343.000; -331.000
322.635;  187.625;  636.000;  443.000
322.771;   37.900; -139.000;   12.000
322.907;  102.425;  129.000;  327.000
323.043;  -17.725; -115.000; -206.000
323.179;  -28.250; -394.000; -363.000
323.315;   87.175; -401.000; -371.000
323.451;  166.125; -328.000; -236.000
323.587;   74.325;  -60.000;  -77.000
323.723;   26.025; -682.000; -601.000
323.859;   -4.925; -258.000;  -76.000
323.995;  -30.600; -467.000; -409.000
324.131; -127.600; -967.000; -892.000
324.267;  -54.350; -254.000; -276.000
324.402; -118.200; -960.000; -983.000
324.538;   -5.700; -279.000; -104.000
324.674;   28.625;  164.000;   77.000
324.810;  181.850;  226.000;  308.000
324.946;   35.475; -810.000; -658.000
325.082;  -71.950; -568.000; -475.000
325.217;    0.575;  -62.000;   16.000
325.353; -113.100; -764.000; -659.000
325.489;  -74.500; -540.000; -506.000
325.625;  -69.525; -579.000; -525.000
325.760;   65.700;  517.000;  376.000
325.896;  -57.350; -515.000; -702.000
326.032;  -50.725; -403.000; -352.000
326.168;  -59.800; -462.000; -369.000
326.303;  -61.175; -352.000; -461.000
326.439;  -25.500; -336.000; -276.000
326.575;   19.000; -190.000;  -29.000
326.710;   -1.100; -156.000;  -30.000
326.846;   -5.825;  146.000;  103.000
326.982;  -95.025; -530.000; -548.000
327.117;  -69.600; -481.000; -442.000
327.253;  -99.775; -745.000; -742.000
327.388; -142.275;-1137.000;-1153.000
327.524;  -33.300; -811.000; -578.000
327.659;  -14.700;  -58.000;  -22.000
327.795;  -22.300;   69.000;   45.000
327.931;  -91.400; -723.000; -499.000
328.066;  -23.275; -417.000; -276.000
328.202;    6.050;   12.000; -129.000
328.337;  107.525;  957.000;  713.000
328.473;   49.625;  -12.000;  -74.000
328.608;  -27.200; -256.000; -267.000
328.743;  -70.125; -799.000; -664.000
328.879;   21.100;  214.000;  114.000
329.014;  -22.125; -102.000; -122.000
329.150;  -76.600; -358.000; -483.000
329.285;  -67.450; -465.000; -466.000
329.421;  -55.375; -548.000; -246.000
329.556;  -19.725;  -36.000;   85.000
329.691; -103.525; -633.000; -615.000
329.827;  -69.200; -626.000; -480.000
329.962;  -48.075;  131.000; -301.000
330.097;  -87.175; -673.000; -585.000
330.233;  -55.550; -410.000; -223.000
330.368; -116.525; -839.000; -628.000
330.503;  -12.650;    3.000;   98.000
330.638;   12.950;  -93.000; -125.000
330.774;  -44.875; -609.000; -530.000
330.909;  -29.225; -434.000; -244.000
331.044; -101.075; -714.000; -708.000
331.179; -167.675;-1217.000;-1109.000
331.315;    9.825;   77.000;   20.000
331.450;   11.425;  157.000;  285.000
331.585;  -85.300; -805.000; -706.000
331.720;  -76.975; -510.000; -460.000
331.855;   -6.425;  -35.000; -102.000
331.990;  164.650;   62.000;  138.000
332.126;   73.925; -110.000;   71.000
332.261;  -28.575; -379.000; -265.000
332.396;   -7.900; -135.000; -242.000
332.531; -114.650;-1074.000;-1031.000
332.666;   -5.375; -519.000; -363.000
332.801; -106.500; -726.000; -807.000
332.936;  -15.900; -192.000; -122.000
333.071; -142.775; -870.000; -817.000
333.206;   11.300;  307.000;  379.000
333.341;   35.225;  344.000;  418.000
333.476;  -81.425; -627.000; -623.000
333.611;  -28.775; -251.000; -173.000
333.746;  -48.950; -381.000; -464.000
333.881;  -88.050; -973.000; -935.000
334.016; -122.675; -936.000; -917.000
334.151; -105.925; -746.000; -702.000
334.286;   39.400;  152.000;  186.000
334.421;   -6.975; -125.000; -178.000
334.556;  -68.325; -611.000; -567.000
334.690;  -67.025; -631.000; -577.000
334.825;   75.250;  381.000;   83.000
334.960;  -53.475; -285.000; -413.000
335.095;   22.700;  135.000;  -91.000
335.230;  -85.625; -722.000; -738.000
335.365; -111.650;-1084.000; -990.000
335.499; -112.050;-1108.000;-1037.000
335.634;   39.750;    9.000;  534.000
335.769;  -93.575; -755.000; -720.000
335.904;  -53.900; -603.000; -561.000
336.038;  -14.525; -735.000; -657.000
336.173;  -82.800;-1206.000;-1194.000
336.308;   31.250; -116.000; -189.000
336.443;   14.450; -544.000; -634.000
336.577;  -55.850; -936.000; -787.000
336.712;  101.625;   -4.000;  -12.000
336.847;    0.850; -724.000; -607.000
336.981;  119.950; -272.000; -208.000
337.116;  356.450;  615.000;  501.000
337.250;  207.650; -434.000; -421.000
337.385;  152.125; -297.000; -208.000
337.520;  -11.500; -632.000; -603.000
337.654;  -42.500; -215.000; -126.000
337.789; -130.875; -989.000; -933.000
337.923;  -33.375; -104.000; -205.000
338.058;  -87.275; -673.000; -738.000
338.192;  -13.400; -611.000; -488.000
338.327;   -0.875;  -18.000; -155.000
338.461;  -59.125; -299.000; -469.000
338.596;  -94.275; -780.000; -638.000
338.730; -111.150; -767.000; -803.000
338.865;   45.400;  -46.000; -140.000
338.999;  -84.000; -846.000; -702.000
339.134;  -66.525; -634.000; -536.000
339.268;   -8.025; -741.000; -603.000
339.403;  226.525; -740.000; -775.000
339.537;   31.875; -894.000; -820.000
339.671; -131.725; -829.000; -813.000
339.806;  -81.325; -556.000; -512.000
339.940;  -12.350; -261.000; -235.000
340.074;  -89.850; -685.000; -510.000
340.209;  -57.300; -351.000; -230.000
340.343;  -82.600; -517.000; -573.000
340.477;  145.000;  998.000; 1036.000
340.612;  -90.925;-1033.000; -900.000
340.746;   59.850; -199.000; -243.000
340.880;  -50.500; -924.000; -785.000
341.014;  -20.275;  -45.000; -154.000
341.149; -122.150; -756.000; -718.000
341.283; -117.650; -839.000; -754.000
341.417;  -70.225;-1124.000; -938.000
341.551;  235.075; -768.000; -708.000
341.685;  -21.050; -633.000; -611.000
341.820;  -62.775; -562.000; -493.000
341.954;  -52.200; -218.000; -349.000
342.088; -148.325;-1102.000;-1019.000
342.222;   61.750;  565.000;  618.000
342.356;  -60.775; -395.000; -335.000
342.490;  -90.025; -880.000; -841.000
342.624;  -34.500; -339.000; -242.000
342.758;   14.525; -364.000; -312.000
342.892;  -48.125; -710.000; -585.000
343.026;  -40.250;  -58.000; -116.000
343.160;  -61.775; -426.000; -376.000
343.294;  -85.675; -474.000; -337.000
343.428;   -6.700; -488.000; -448.000
343.562;   -1.050; -172.000;  -23.000
343.696;  -16.000; -385.000; -314.000
343.830;  -10.875; -362.000; -356.000
343.964;   23.850; -231.000; -168.000
344.098; 1189.325;  199.000;   70.000
344.232; 1004.300; -266.000; -127.000
344.366;   87.475; -567.000; -453.000
344.500;   83.175; -665.000; -744.000
344.634;   66.625; -324.000; -164.000
344.768;   18.550; -531.000; -341.000
344.902;   30.300;  278.000;  256.000
345.035;  -75.275; -556.000; -496.000
345.169; -140.800; -933.000; -656.000
345.303;   -2.525; -308.000; -482.000
345.437;  -46.125; -826.000; -717.000
345.571;  -84.000; -675.000; -594.000
345.704;  -51.725; -309.000; -532.000
345.838;   -4.950; -331.000; -284.000
345.972;  -27.975; -543.000; -495.000
346.106;   93.950; -179.000; -190.000
346.239;  413.475; -312.000; -243.000
346.373;   19.550; -343.000; -302.000
346.507; -146.400; -950.000; -962.000
346.640;  202.625;  -30.000;   13.000
346.774;   -6.550; -650.000; -797.000
346.908;   -6.000; -138.000;  -11.000
347.041;  -94.550; -646.000; -593.000
347.175;    0.225;  259.000;   27.000
347.309;  -54.900; -698.000; -628.000
347.442;  -95.500; -883.000; -732.000
347.576;  356.700;  670.000;  668.000
347.709;  264.425; -123.000;  -52.000
347.843;  -79.150; -933.000; -825.000
347.976;   36.800;  235.000;  294.000
348.110; -175.475;-1268.000;-1186.000
348.243; -112.475; -679.000; -772.000
348.377;   -9.725;  -26.000;   60.000
348.510;   65.600;  403.000;  540.000
348.644;  -29.475;  -37.000; -159.000
348.777;    1.125;  180.000;  191.000
348.911;  -44.950; -142.000; -112.000
349.044;  200.375;  471.000;  448.000
349.178;  244.800;-1069.000;-1006.000
349.311;  106.175;  141.000;  255.000
349.444;  -30.675; -927.000; -813.000
349.578;  -14.150; -347.000; -200.000
349.711;  -72.325; -959.000; -862.000
349.845;   30.100; -661.000; -591.000
349.978; -142.650;-1224.000;-1137.000
350.111;  -86.575; -546.000; -612.000
350.244;  -84.175; -596.000; -700.000
350.378;   21.900; -392.000; -393.000
350.511;  -57.600; -393.000; -426.000
350.644; -119.825; -808.000; -806.000
350.778;   19.725;  168.000;  104.000
350.911;    5.000;  134.000;  140.000
351.044;  -85.725; -685.000; -615.000
351.177;  -16.975; -321.000; -281.000
351.310;  -13.350;    3.000; -131.000
351.444;  -48.525; -888.000; -788.000
351.577;  153.275;  140.000;   90.000
351.710;  110.700;  593.000;  417.000
351.843;  -31.475; -165.000;  -77.000
351.976;    1.750;  149.000;  -79.000
352.109;  -73.150; -621.000; -612.000
352.242;  -13.575; -464.000; -419.000
352.376;  -18.525; -580.000; -636.000
352.509;  261.200; -437.000; -356.000
352.642;   50.175; -654.000; -604.000
352.775;   66.675; -141.000;  -98.000
352.908; -112.925; -933.000; -904.000
353.041; -103.600; -814.000; -824.000
353.174;  -39.650; -551.000; -424.000
353.307;  -85.700; -753.000; -764.000
353.440;   97.650;  541.000;  453.000
353.573; -113.600; -957.000;-1008.000
353.706;  -42.400; -384.000; -558.000
353.839;  -19.450; -264.000; -220.000
353.971;  -86.125; -657.000; -512.000
354.104; -105.150; -896.000; -835.000
354.237;  -16.675; -627.000; -662.000
354.370;  -87.700; -846.000; -879.000
354.503; -164.925;-1231.000;-1308.000
354.636;  -27.150; -529.000; -348.000
354.769; -120.025; -937.000; -860.000
354.902;    1.925; -230.000; -139.000
355.034;   -5.975; -164.000; -220.000
355.167;  -11.550; -262.000; -162.000
355.300; -106.200;-1061.000; -880.000
355.433;  691.900;  -71.000;  -14.000
355.565; 1033.425; -402.000; -384.000
355.698;  258.900; -356.000; -296.000
355.831;    0.450; -882.000; -801.000
355.964;  134.525; -285.000; -170.000
356.096;  -60.450; -856.000; -843.000
356.229;   40.025; -523.000; -530.000
356.362;  207.575; -373.000; -266.000
356.494;  394.400; -229.000; -162.000
356.627;  569.125;  269.000;  377.000
356.760;  526.850;  120.000;   53.000
356.892;  636.500; -286.000; -601.000
357.025;  809.100;  403.000;  389.000
357.157;  796.850; -167.000; -179.000
357.290;  397.225; -856.000; -713.000
357.423;  125.100; -667.000; -556.000
357.555;  150.375; -217.000; -228.000
357.688;  169.900; -483.000; -364.000
357.820;  527.050; -870.000; -877.000
357.953; 4144.050; -563.000; -589.000
358.085; 1015.975; -632.000; -612.000
358.218; 1814.950;-1131.000; -932.000
358.350;  313.525;  -58.000;  312.000
358.483; -104.300;-1300.000;-1187.000
358.615;   46.450;-1182.000;-1078.000
358.747;   -2.775;-1187.000;-1058.000
358.880;   64.400; -810.000; -744.000
359.012;    8.975; -376.000; -202.000
359.145;  -30.375; -480.000; -511.000
359.277;   89.225; -962.000; -913.000
359.409; 3536.600;  536.000;  231.000
359.542;  923.325; -738.000; -688.000
359.674;   77.325;   46.000;   13.000
359.806;  -52.725; -565.000; -438.000
359.939;  -52.875; -617.000; -516.000
360.071;  -37.525; -583.000; -579.000
360.203;  -18.675; -411.000; -364.000
360.335;   59.675;  164.000;  -16.000
360.468;  198.425; -249.000; -307.000
360.600; 2666.700; -547.000; -454.000
360.732; 1880.900; -546.000; -423.000
360.864;  230.950;-1216.000;-1044.000
360.996;  398.675; -516.000; -554.000
361.129;   84.325; -389.000; -598.000
361.261;   24.625;  110.000; -113.000
361.393;  -25.350; -252.000; -214.000
361.525;   22.000;   94.000;  244.000
361.657;  -35.125; -821.000; -703.000
361.789;   16.950; -139.000; -155.000
361.921;  356.800; -642.000; -593.000
362.053;  330.850;  524.000;  541.000
362.185;   83.550;  288.000;   72.000
362.318;  -71.675; -709.000; -705.000
362.450;  203.375;  294.000;  444.000
362.582;  300.900; -913.000; -870.000
362.714;  -15.900; -353.000; -332.000
362.846;  -83.750; -606.000; -490.000
362.978; -152.725; -941.000; -811.000
363.109;   76.200; -161.000; -260.000
363.241;  569.675; -739.000; -749.000
363.373;  306.000; -649.000; -564.000
363.505;  420.250; -186.000;  -91.000
363.637;   90.275; -787.000; -601.000
363.769; -103.600;-1067.000;-1080.000
363.901;  -55.475; -596.000; -654.000
364.033;  -97.100;-1103.000;-1062.000
364.165;    4.925; -283.000; -283.000
364.296;   36.250; -316.000; -177.000
364.428;  -22.225;-1344.000;-1220.000
364.560;  -69.875; -679.000; -661.000
364.692;  -71.650; -738.000; -835.000
364.824;  443.525; -588.000; -456.000
364.955;  383.475; -402.000; -564.000
365.087;  455.025;-1097.000; -852.000
365.219;  -18.775; -686.000; -816.000
365.351;  -80.450; -526.000; -572.000
365.482;   52.850;  300.000;  240.000
365.614;  -41.950; -402.000; -314.000
365.746; -109.525; -729.000; -752.000
365.877; -114.050; -706.000; -672.000
366.009;  163.800;  -35.000;  -62.000
366.141; -116.200;-1249.000;-1134.000
366.272; -107.725; -803.000; -719.000
366.404; -116.125;-1005.000; -874.000
366.535;  -24.650; -139.000;  -12.000
366.667;  -99.475; -644.000; -649.000
366.799;   43.425;  353.000;  203.000
366.930; -107.600; -862.000; -996.000
367.062;   92.825; -639.000; -613.000
367.193;   63.150; -872.000; -842.000
367.325;  -73.625; -580.000; -684.000
367.456;  141.625; -246.000;   31.000
367.588;  106.300; -371.000; -318.000
367.719;   21.525;  -44.000;  -45.000
367.851;   -4.800; -222.000; -241.000
367.982;  -21.150; -875.000; -732.000
368.113;  158.500; -475.000; -358.000
368.245; -100.700; -960.000; -841.000
368.376;  -14.725; -254.000; -302.000
368.508;  -27.050; -188.000; -263.000
368.639; -146.025;-1166.000;-1034.000
368.770;   21.725; -670.000; -589.000
368.902;  -50.550; -836.000; -926.000
369.033; -109.000; -906.000; -855.000
369.164;  -66.075; -720.000; -653.000
369.296; -118.500; -452.000; -601.000
369.427;    2.450; -209.000; -144.000
369.558;  -24.925; -593.000; -377.000
369.689;  -91.200; -721.000; -569.000
369.821; -142.825; -951.000; -845.000
369.952;  -22.300;   42.000; -108.000
370.083;  -34.100; -229.000; -108.000
370.214;  -98.925; -735.000; -650.000
370.345;    8.675;   65.000;   81.000
370.477;  -86.550; -810.000; -790.000
370.608;  323.275; -328.000; -264.000
370.739;  -18.525;-1233.000;-1292.000
370.870;    2.675;-1102.000; -923.000
371.001;  137.025; -378.000; -467.000
371.132;  -67.975; -754.000; -735.000
371.263;  -23.275;  -42.000; -148.000
371.394; -126.625; -841.000; -748.000
371.525;   26.825;  345.000;  225.000
371.657;  -73.025; -808.000; -670.000
371.788;   78.800;  103.000;  199.000
371.919;  245.150; -384.000; -304.000
372.050; 4554.450;  -91.000; -156.000
372.181; 1347.425; -188.000; -294.000
372.311;  489.000;   42.000; -127.000
372.442;   86.425; -457.000; -451.000
372.573;   -5.450; -444.000; -340.000
372.704; -106.350;-1008.000; -980.000
372.835;  111.125; -228.000; -289.000
372.966;  -52.825; -646.000; -554.000
373.097;  -46.700; -575.000; -711.000
373.228;    3.500; -717.000; -542.000
373.359;  219.950; -824.000; -536.000
373.490; 1313.425; -881.000; -727.000
373.620; 1558.500;-1001.000; -803.000
373.751; 2441.300; -332.000; -396.000
373.882; 1067.300; -663.000; -733.000
374.013;  124.275; -449.000; -262.000
374.143;  -32.750; -581.000; -659.000
374.274;  -97.825; -987.000; -908.000
374.405;  214.700; -388.000; -276.000
374.536;  620.175; -526.000; -387.000
374.666; 1541.675; -759.000; -807.000
374.797;  349.850; -817.000; -868.000
374.928; 1219.275; -710.000; -560.000
375.058; 1193.200; -535.000; -500.000
375.189;  116.600;  -59.000;  -93.000
375.320;  -99.350; -928.000;-1034.000
375.450;  -36.175; -625.000; -616.000
375.581;  -43.175; -526.000; -436.000
375.712;  -33.100; -574.000; -250.000
375.842;  419.500; -438.000; -415.000
375.973;  303.650; -554.000; -513.000
376.103;   14.050; -665.000; -648.000
376.234;  -74.475; -531.000; -552.000
376.364;   -0.100; -944.000; -867.000
376.495;  378.450;  925.000;  529.000
376.625;   55.575; -472.000; -485.000
376.756;  123.075; -709.000; -678.000
376.886;  -47.100;-1178.000;-1026.000
377.017;  -28.550;-1048.000;-1061.000
377.147;  185.600; -786.000; -782.000
377.278;   57.475;  174.000;  228.000
377.408; -123.150; -801.000; -815.000
377.538; -114.750; -707.000; -693.000
377.669;  -77.175; -537.000; -613.000
377.799;  -74.900; -645.000; -635.000
377.929;  -27.950; -610.000; -428.000
378.060; -126.900; -781.000; -847.000
378.190;  -51.450; -726.000; -531.000
378.320;  -47.425; -401.000; -406.000
378.451;   16.950; -131.000;  -22.000
378.581;   14.150;  -67.000; -110.000
378.711;  195.600; 1035.000;  866.000
378.841;    3.575; -533.000; -675.000
378.972;  -41.175; -871.000; -751.000
379.102;   28.925; -652.000; -579.000
379.232;   -4.925; -126.000;  -73.000
379.362;  -95.050;-1001.000; -885.000
379.492;   58.975; -373.000; -424.000
379.623;  140.575;    0.000;  111.000
379.753;  -93.875;-1107.000; -974.000
379.883;  239.975;   59.000;  156.000
380.013;   54.350;-1081.000;-1017.000
380.143;  -80.475;-1097.000;-1056.000
380.273;  -74.675; -985.000; -861.000
380.403;   13.850; -344.000; -257.000
380.533;  -12.875; -651.000; -664.000
380.663;  106.450;  173.000;  128.000
380.793;  -66.575;-1027.000;-1074.000
380.923;  -17.725; -103.000;  -34.000
381.053;  -84.625; -613.000; -623.000
381.183;  -34.275; -106.000; -248.000
381.313;   92.325; -656.000; -470.000
381.443;   66.400; -692.000; -473.000
381.573;  315.750; -402.000; -409.000
381.703;  447.375;-1249.000;-1095.000
381.833; -100.600;-1454.000;-1336.000
381.963;  131.475; -134.000;  -87.000
382.093; 1701.425; -925.000; -909.000
382.223;  508.475; -713.000; -602.000
382.353;   23.475; -801.000; -608.000
382.482;  562.350;-1091.000; -964.000
382.612;  967.350; -872.000; -644.000
382.742;  526.650; -695.000; -622.000
382.872;  384.150; -565.000; -551.000
383.002;   74.500;  347.000; -132.000
383.131;   -3.075; -226.000; -160.000
383.261;  -47.000; -706.000; -768.000
383.391;  261.575; -552.000; -377.000
383.521; 1998.575;  451.000;  263.000
383.650;  363.500; -947.000; -904.000
383.780;  -59.050; -783.000; -656.000
383.910;  121.800;  880.000;  802.000
384.039;   61.000; -794.000; -656.000
384.169;  337.275;-1205.000;-1017.000
384.299;    4.425; -650.000; -662.000
384.428;  -79.800; -764.000; -680.000
384.558;  -37.250; -308.000; -275.000
384.687;  -18.275; -414.000; -334.000
384.817;   38.125;   75.000;   -2.000
384.947;   60.025; -234.000; -141.000
385.076;  354.475;  982.000;  912.000
385.206;  136.925;  369.000;  480.000
385.335;  -16.275; -549.000; -417.000
385.465;  -68.450; -655.000; -663.000
385.594;  194.725;  -53.000;  -44.000
385.724;  638.875; -868.000; -838.000
385.853;  171.900; -296.000; -270.000
385.982; 1900.850; -743.000; -787.000
386.112; 2865.000;-1052.000; -871.000
386.241;  203.300; -307.000; -312.000
386.371;   32.500; -174.000;  -87.000
386.500;    8.525; -825.000; -789.000
386.629;   27.725; -874.000; -817.000
386.759;   65.700;  -43.000;   68.000
386.888;   12.200; -170.000; -250.000
387.017;  -58.950; -648.000; -620.000
387.147;  -64.675; -771.000; -798.000
387.276;   44.025; -410.000; -397.000
387.405;   42.725; -398.000; -342.000
387.535;  -22.725; -452.000; -361.000
387.664;  -60.225; -692.000; -620.000
387.793;  107.550; -198.000; -113.000
387.922;  743.600;  255.000;  200.000
388.052;   73.975; -576.000; -423.000
388.181;   91.500; -342.000; -472.000
388.310;  112.450; -889.000; -710.000
388.439;    4.600; -749.000; -742.000
388.568;  275.825;  365.000;  244.000
388.697; 1477.750; -756.000; -653.000
388.826;  318.700; -768.000; -666.000
388.956;   98.175; -285.000; -307.000
389.085;    0.175; -347.000; -287.000
389.214; -109.750; -842.000; -872.000
389.343;  -58.950; -645.000; -413.000
389.472;  293.625;  126.000;  149.000
389.601;  457.125;   91.000;    0.000
389.730;   30.325; -568.000; -687.000
389.859;   99.250;  226.000;   46.000
389.988;  263.375; -423.000; -408.000
390.117;  199.350; -168.000; -146.000
390.246;   23.875; -331.000; -320.000
390.375;  186.625; -673.000; -626.000
390.504;  -64.900; -703.000; -621.000
390.633;  -83.850; -672.000; -726.000
390.761;  -61.875; -732.000; -645.000
390.890;   59.225;   -4.000; -130.000
391.019;  -16.050; -421.000; -441.000
391.148; -111.575; -826.000; -855.000
391.277;  -41.575; -576.000; -493.000
391.406;  -41.550; -821.000; -805.000
391.534;   18.150;  574.000; -301.000
391.663;  -48.225; -583.000; -645.000
391.792;  -77.100; -673.000; -701.000
391.921;  201.850;   -3.000;   15.000
392.050;  331.950; -287.000; -228.000
392.178;   23.100;-1206.000;-1061.000
392.307;  243.050; -758.000; -712.000
392.436;  111.800; -427.000; -641.000
392.564;   28.125;  166.000;   -6.000
392.693;  -78.100; -860.000; -682.000
392.822;  317.950; -529.000; -534.000
392.950;  176.000; -880.000; -714.000
393.079;  474.375; -188.000; -328.000
393.208;   47.375; -488.000; -511.000
393.336;   -8.750; -170.000; -145.000
393.465;  -38.000; -317.000; -199.000
393.593;   -5.200;   62.000;   79.000
393.722; -147.900;-1121.000; -916.000
393.850;  -45.250; -188.000;  -61.000
393.979; -162.425; -926.000; -805.000
394.107;  -74.550; -517.000; -537.000
394.236;   -9.025; -570.000; -507.000
394.364;  208.675;  383.000;  206.000
394.493;  292.425; -911.000; -767.000
394.621;  -48.450; -955.000; -916.000
394.750;  457.025; -873.000; -923.000
394.878; 2074.375; -247.000; -149.000
395.007; 2727.175; -721.000; -807.000
395.135;  167.000; -790.000; -721.000
395.263;  -90.275;-1038.000;-1040.000
395.392;   -1.775;  -25.000; -107.000
395.520; -150.675; -818.000; -679.000
395.648;  -68.600; -865.000; -915.000
395.777;   15.500; -366.000; -405.000
395.905;  -55.775; -449.000; -564.000
396.033;   10.200;  217.000;  172.000
396.162;  493.000; -399.000; -453.000
396.290;  453.300;  -17.000;   -2.000
396.418;  141.175; -555.000; -514.000
396.546;  -74.475; -571.000; -466.000
396.674;  -90.100; -850.000; -878.000
396.803;   13.450;  -72.000;  -23.000
396.931;  160.300; -179.000; -199.000
397.059;  141.750;-1026.000; -989.000
397.187; -104.800;-1026.000; -975.000
397.315; -129.950; -884.000; -649.000
397.443;  -98.675; -592.000; -443.000
397.572; -100.275; -578.000; -424.000
397.700;   30.900; -607.000; -614.000
397.828;   46.650;  120.000;  -90.000
397.956;  -49.775; -508.000; -478.000
398.084;  -93.825; -767.000; -626.000
398.212;   45.200;  137.000;  124.000
398.340;   32.850;  -56.000;  159.000
398.468;   75.175; -390.000; -169.000
398.596; -136.450; -993.000; -953.000
398.724; -134.000; -762.000; -767.000
398.852; -153.475;-1024.000; -976.000
398.980;  -57.600; -560.000; -560.000
399.108;  -36.400; -982.000; -735.000
399.236;   54.175;   13.000;    8.000
399.363;   10.450;  222.000;  196.000
399.491;  -78.450; -404.000; -398.000
399.619; -130.000; -829.000; -800.000
399.747;  -87.975; -859.000; -771.000
399.875;  108.225;  220.000;  234.000
400.003;  -54.800; -359.000; -284.000
400.130;  -94.325; -421.000; -341.000
400.258;  -28.975;  -83.000;   38.000
400.386;  -67.350; -352.000; -168.000
400.514;  -31.450; -526.000; -587.000
400.641;  -63.600; -928.000; -802.000
400.769; -136.500; -979.000; -888.000
400.897;  -93.700; -838.000; -793.000
401.025;   -2.200; -166.000; -152.000
401.152;    6.500;  220.000;   38.000
401.280;  -92.250; -430.000; -429.000
401.408; -132.075; -712.000; -576.000
401.535; -106.800; -735.000; -758.000
401.663; -185.175;-1134.000;-1054.000
401.790;  -85.400; -514.000; -525.000
401.918;   49.325;  436.000;  405.000
402.046;  -20.800;  134.000;  122.000
402.173;  -40.025;  -18.000;    7.000
402.301;  -72.500; -519.000; -397.000
402.428;   43.550;  528.000;  383.000
402.556; -155.975;-1188.000; -913.000
402.683;  -18.500;  -20.000;   -1.000
402.811;  -19.700;  -37.000; -206.000
402.938;   -3.475;   20.000;   27.000
403.066;  276.450; -574.000; -558.000
403.193;  449.975;  299.000;  239.000
403.321;  362.925; -396.000; -574.000
403.448;  422.700;   83.000;   27.000
403.575;  199.450;  -90.000;  -46.000
403.703;  -97.525; -732.000; -557.000
403.830;  -71.950; -531.000; -496.000
403.957; -153.725;-1117.000;-1023.000
404.085;    0.950;  -61.000; -172.000
404.212;  119.300;  -50.000;   63.000
404.339;  202.700; -566.000; -306.000
404.467; 3971.950; -612.000; -524.000
404.594; 3105.825; -287.000; -227.000
404.721;  906.850; -869.000; -764.000
404.848;   70.725; -113.000; -202.000
404.976; -107.200; -856.000; -783.000
405.103;   -6.275;  -14.000;  -82.000
405.230;   -6.275;  190.000;  226.000
405.357;   22.650;  117.000;   44.000
405.484;  176.175;  -49.000;    5.000
405.612;   22.300; -548.000; -563.000
405.739;  -56.175; -488.000; -243.000
405.866;   89.100;  669.000;  385.000
405.993;  -40.600; -398.000; -102.000
406.120; -140.150; -801.000; -887.000
406.247;  -55.575; -323.000; -342.000
406.374;  624.925;  540.000;  629.000
406.501;  202.575; -632.000; -702.000
406.628;  -76.950; -621.000; -589.000
406.755;  -90.200; -803.000; -620.000
406.882;  -49.525; -228.000; -277.000
407.009;  -97.775; -719.000; -628.000
407.136;   87.425; -480.000; -401.000
407.263;  235.425; -939.000; -829.000
407.390;  -57.025; -692.000; -614.000
407.517; -164.275;-1139.000;-1187.000
407.644;  -54.875; -332.000; -256.000
407.771;  -62.250; -249.000; -287.000
407.898;   13.675;  168.000;  328.000
408.025;  -60.325; -421.000; -313.000
408.151;  -20.600;   82.000;  153.000
408.278;  -59.725; -267.000; -216.000
408.405; -110.175; -931.000; -899.000
408.532;  -73.800; -549.000; -542.000
408.659; -123.175; -677.000; -648.000
408.785; -202.225;-1298.000;-1170.000
408.912;  -65.825; -412.000; -296.000
409.039; -118.400; -610.000; -686.000
409.166; -116.225; -591.000; -555.000
409.292; -113.100; -571.000; -534.000
409.419; -125.125; -665.000; -649.000
409.546;  -92.050; -431.000; -192.000
409.672; -109.200; -713.000; -545.000
409.799;  -17.750;  -36.000;   34.000
409.926;  -36.775; -180.000; -179.000
410.052; -182.525;-1127.000;-1091.000
410.179;  -63.050; -368.000; -392.000
410.305;  -81.725; -375.000; -493.000
410.432;  -42.300; -220.000; -333.000
410.558;  -82.450; -305.000; -380.000
410.685;  -99.000; -688.000; -431.000
410.812; -105.175; -409.000; -588.000
410.938; -142.850; -964.000; -808.000
411.065; -101.975; -671.000; -645.000
411.191;  -31.250; -189.000; -174.000
411.317; -108.925; -823.000; -742.000
411.444;  -70.000; -317.000; -246.000
411.570;  -71.675; -339.000; -294.000
411.697; -161.825; -758.000; -752.000
411.823; -164.650; -989.000; -999.000
411.949;  -47.800;  -56.000;   17.000
412.076; -103.800; -539.000; -519.000
412.202; -106.825; -758.000; -757.000
412.329; -124.250; -798.000; -752.000
412.455; -131.500; -821.000; -657.000
412.581;  -25.450;  -15.000;  172.000
412.707;  -47.725; -540.000; -457.000
412.834;   30.750;  156.000;  219.000
412.960;  -94.600; -785.000; -784.000
413.086;  -91.975; -743.000; -701.000
413.212;  206.875;  604.000;  578.000
413.339;  -47.825; -685.000; -701.000
413.465;   14.725; -364.000; -310.000
413.591;  -82.000; -757.000; -474.000
413.717;  -65.850; -358.000; -366.000
413.843; -142.550; -839.000; -861.000
413.969;  -65.575;  -47.000; -292.000
414.096; -110.450; -679.000; -679.000
414.222;  -17.475;  -33.000;   85.000
414.348;   20.400; -652.000; -385.000
414.474;  142.700;   38.000;  -52.000
414.600;  -13.725; -126.000; -144.000
414.726;  -14.175;  -96.000;  -55.000
414.852;  -70.350; -365.000; -342.000
414.978;   20.975;  104.000;  -18.000
415.104;   38.075;   38.000;   80.000
415.230;    4.600; -329.000; -330.000
415.356;   25.150; -409.000; -514.000
415.482;  159.925;   13.000;  -35.000
415.608;  204.475; -247.000; -323.000
415.734;  772.950;   67.000;   38.000
415.860;15811.175; -875.000; -767.000
415.986;10955.475; -685.000; -607.000
416.111;  877.200; -798.000; -652.000
416.237;  145.300; -424.000; -571.000
416.363;  783.550; -765.000; -733.000
416.489; 2895.475; -324.000; -251.000
416.615;  255.750; -707.000; -742.000
416.741;  -72.425; -677.000; -784.000
416.866; -102.575; -673.000; -736.000
416.992; -143.125; -801.000; -818.000
417.118;  -18.550;  -41.000;  -80.000
417.244;  -68.750; -798.000; -531.000
417.369;  -92.425; -801.000; -612.000
417.495;  -14.225; -325.000; -254.000
417.621;  -75.375;-1015.000; -803.000
417.746;  -21.250; -579.000; -572.000
417.872;   43.475; -254.000; -144.000
417.998;   -7.100; -515.000; -530.000
418.123;  733.300;-1073.000; -845.000
418.249; 3798.150; -512.000; -601.000
418.374;  465.100; -916.000; -824.000
418.500;   44.150; -383.000; -482.000
418.626;   86.625;   70.000;  -59.000
418.751;   79.100; -549.000; -448.000
418.877;  121.125; -637.000; -643.000
419.002; 1308.425; -688.000; -560.000
419.128; 8890.600; -930.000; -721.000
419.253; 2023.825; -967.000; -837.000
419.379;  248.775; -391.000; -338.000
419.504;  290.925;  325.000;  415.000
419.629;  333.225; -393.000; -212.000
419.755; 2400.075; -317.000; -254.000
419.880;13687.800;  -98.000;   67.000
420.006; 8231.525; -280.000; -221.000
420.131;21916.325; -662.000; -775.000
420.256; 3057.525; -315.000; -316.000
420.382;  383.250; -665.000; -687.000
420.507;   25.675; -649.000; -778.000
420.632;  208.225; -337.000; -339.000
420.758;  390.475; -251.000; -425.000
420.883;  -70.325; -876.000; -672.000
421.008; -102.525; -775.000; -619.000
421.133;  -89.175; -509.000; -467.000
421.259;  -39.750; -325.000; -259.000
421.384;  -96.250; -834.000; -693.000
421.509;   -3.650;-1052.000; -862.000
421.634; 1881.950; -936.000; -820.000
421.759;  761.100; -359.000; -327.000
421.885;  -21.025; -717.000; -656.000
422.010;  -71.000; -673.000; -542.000
422.135; -142.825; -695.000; -727.000
422.260;   36.175;  340.000;  280.000
422.385;  -42.375;   12.000;  -98.000
422.510;    8.100;  151.000;  -26.000
422.635;   18.500;  -87.000;  -43.000
422.760;   90.700; -766.000; -791.000
422.885;   55.625;  -57.000;  -80.000
423.010;  -47.725; -112.000; -169.000
423.135;  -87.900; -481.000; -561.000
423.260;   -4.950; -150.000; -245.000
423.385;   90.725;  476.000;  222.000
423.510;   25.075;   71.000;  -22.000
423.635;  104.825;  133.000;   45.000
423.760;   56.850;  383.000;  328.000
423.885;   47.375;  336.000;  391.000
424.010;   14.375;  -68.000;  -13.000
424.135;  -18.050;    5.000;  -33.000
424.259;  -86.525; -654.000; -457.000
424.384;  -62.325; -279.000; -272.000
424.509;  -30.900; -260.000; -186.000
424.634; -119.450; -761.000; -623.000
424.759;  -49.650; -688.000; -544.000
424.883;  -26.200; -506.000; -527.000
425.008;  131.500; -502.000; -410.000
425.133; 1473.750; -679.000; -653.000
425.258;  629.675; -517.000; -381.000
425.382; 1285.300; -867.000; -774.000
425.507; 3210.925; -487.000; -543.000
425.632;  432.050; -802.000; -663.000
425.756;  297.975; -256.000; -146.000
425.881; 4124.725; -831.000; -857.000
426.006;10463.725; -604.000; -355.000
426.130; 1706.575; -696.000; -508.000
426.255;  189.975; -611.000; -491.000
426.379;  102.800; -189.000; -577.000
426.504;  290.225;  660.000;  544.000
426.629; 3209.675; -519.000; -466.000
426.753; 2110.300;   64.000;  -46.000
426.878;  229.575; -252.000; -288.000
427.002;  103.300; -651.000; -668.000
427.127; 1280.075;  -35.000; -158.000
427.251; 8211.300;  372.000;  401.000
427.375; 2297.400; -191.000; -173.000
427.500; 2734.375; -616.000; -610.000
427.624;  911.425; -234.000; -400.000
427.749;  119.250; -216.000; -225.000
427.873;  -25.175; -499.000; -412.000
427.997;  -41.375; -222.000; -230.000
428.122;   96.525;  795.000;  703.000
428.246;   93.825;  433.000;  434.000
428.371; -107.100; -869.000; -773.000
428.495; -116.475; -624.000; -646.000
428.619;  -24.275; -186.000; -117.000
428.743;   26.675;   65.000;  132.000
428.868;   58.175; -732.000; -643.000
428.992; 1817.450; -219.000; -326.000
429.116;  786.400; -329.000; -357.000
429.240;  372.000;  419.000;  426.000
429.365;  -17.625; -454.000; -574.000
429.489;  -42.200; -638.000; -647.000
429.613;   23.375; -236.000; -177.000
429.737;   11.875; -563.000; -432.000
429.861;  219.550; -247.000; -133.000
429.985; 4171.675; -425.000; -305.000
430.109; 4331.825; -770.000; -908.000
430.234;  504.350;   76.000;  -50.000
430.358;   30.900; -250.000; -160.000
430.482;  -81.650; -672.000; -564.000
430.606;  -59.425; -655.000; -375.000
430.730;   32.850; -437.000; -388.000
430.854;  235.650; -909.000; -835.000
430.978;  -54.950; -795.000; -764.000
431.102;  -79.950; -499.000; -422.000
431.226;  -97.900; -874.000; -815.000
431.350;   62.475;  345.000;  422.000
431.474;  -69.475; -661.000; -373.000
431.597; -148.325;-1060.000; -848.000
431.721;  -83.325; -276.000; -267.000
431.845; -140.250; -704.000; -472.000
431.969; -100.525; -304.000; -349.000
432.093; -107.900; -395.000; -317.000
432.217;  -24.700;   32.000;   82.000
432.341;  -88.300; -523.000; -518.000
432.464;   12.400;   96.000;   40.000
432.588;  316.675; -401.000; -329.000
432.712;  119.250;  -52.000;  -52.000
432.836;   41.775;  213.000;  263.000
432.959;  -48.800; -372.000; -311.000
433.083;   26.600;   11.000;    2.000
433.207;  267.475;  285.000;  930.000
433.330; 3562.250; -391.000; -200.000
433.454; 4199.600; -654.000; -638.000
433.578; 2519.975;  583.000;  278.000
433.701;  459.125; -623.000; -675.000
433.825;  217.575; -292.000; -299.000
433.949;  352.800;   28.000;  -72.000
434.072;  152.500; -410.000; -323.000
434.196;   -9.025; -309.000; -117.000
434.319; 3839.900;25482.000;25124.000
434.443;  677.250; -656.000; -603.000
434.566; 1941.600;  281.000;   62.000
434.690;  275.700; -637.000; -383.000
434.813;   53.050; -251.000; -173.000
434.937;  -83.000; -569.000; -696.000
435.060;   -2.150; -423.000; -332.000
435.184;  635.600; -492.000; -217.000
435.307;  314.350;  159.000;  102.000
435.431;    2.850;  -40.000;   24.000
435.554;  -75.700; -399.000; -240.000
435.677;  -92.775; -350.000; -258.000
435.801;  -43.325;  -25.000;   49.000
435.924;    7.500;    1.000;  -67.000
436.048;  -69.475;-1019.000; -732.000
436.171;  -69.900; -240.000;  -66.000
436.294;  -43.925; -248.000; -229.000
436.417;   17.575; -963.000; -849.000
436.541; -105.500; -814.000; -840.000
436.664;  -54.575; -242.000; -316.000
436.787;   -4.050;   13.000;  113.000
436.910; -113.600; -792.000; -422.000
437.034;   31.175;  142.000;  143.000
437.157;  123.600;  -11.000;    0.000
437.280;  -28.050; -392.000; -292.000
437.403;  -41.750; -982.000; -869.000
437.526; 1155.875; -903.000; -865.000
437.649; 3735.450; -505.000; -332.000
437.772;  569.525; -692.000; -540.000
437.896;  153.600;  700.000;  544.000
438.019;  -82.725; -758.000; -503.000
438.142;  -76.550; -596.000; -506.000
438.265;   58.825; -639.000; -670.000
438.388;  852.375; -520.000; -410.000
438.511;  207.700; -597.000; -394.000
438.634;  -49.800; -247.000; -125.000
438.757; -135.075; -693.000; -619.000
438.880;  -12.575;  -34.000;  -57.000
439.003;  -85.250; -417.000; -437.000
439.126;  -78.200; -287.000; -167.000
439.248;  -62.125;  -98.000; -139.000
439.371;  -48.650;    9.000;  -53.000
439.494;   23.350;  510.000;  439.000
439.617;  -76.100;   65.000;  -88.000
439.740; -173.975; -968.000; -816.000
439.863; -155.100; -755.000; -595.000
439.986; -133.225; -476.000; -431.000
440.108;  -59.375; -161.000; -112.000
440.231; -156.000; -950.000; -836.000
440.354;  -45.100;  -64.000; -150.000
440.477;   98.750; -566.000; -542.000
440.599;   16.175; -200.000; -225.000
440.722; -124.100; -709.000; -586.000
440.845;   66.375;  751.000;  928.000
440.968; -103.100; -415.000; -311.000
441.090;  -76.750; -199.000;  -33.000
441.213; -170.125;-1021.000; -825.000
441.336;  -74.425; -159.000;   -5.000
441.458;  -71.575; -549.000; -396.000
441.581;  -82.675; -628.000; -629.000
441.703;  -70.375; -152.000;   13.000
441.826; -117.325; -557.000; -400.000
441.948;  -51.375;   56.000;   51.000
442.071;   18.200;  555.000;  424.000
442.193; -114.225; -531.000; -485.000
442.316;    7.875;  152.000;   97.000
442.438;   13.650; -233.000;  -10.000
442.561;   81.250;  272.000;  262.000
442.683;  909.750; -809.000; -522.000
442.806; 1799.350;   -8.000;   74.000
442.928;  113.725; -859.000; -604.000
443.051;  -52.375; -577.000; -373.000
443.173;  -91.000; -341.000; -339.000
443.295; -103.975; -263.000; -371.000
443.418;  -65.175; -321.000;  -29.000
443.540;   -0.225; -106.000;   -4.000
443.662; -127.150; -563.000; -465.000
443.785;  -25.950;  335.000;  199.000
443.907; -110.525; -362.000; -208.000
444.029; -141.175; -767.000; -494.000
444.152; -141.850; -644.000; -554.000
444.274;  -57.050;  -18.000;  -24.000
444.396; -120.875; -461.000; -221.000
444.518; -152.450; -691.000; -454.000
444.640; -122.075; -268.000; -111.000
444.763;  -28.525;  388.000;  249.000
444.885; -129.975; -432.000; -392.000
445.007;  -52.100;   35.000;   86.000
445.129; -115.775; -610.000; -515.000
445.251; -104.475; -372.000; -439.000
445.373; -146.600; -537.000; -386.000
445.495;    5.700;  242.000;  350.000
445.617;   60.300;  853.000;  753.000
445.739;  -73.225; -215.000;  -97.000
445.861;  -31.675; -245.000; -112.000
445.984;  -41.400; -267.000; -101.000
446.105;  316.625; -418.000; -251.000
446.227;  852.225; -176.000;  -19.000
446.349;   41.850; -358.000; -249.000
446.471; -101.725; -615.000; -448.000
446.593;  -58.525; -316.000;   19.000
446.715;    1.175;  -67.000;   41.000
446.837;   74.575;  697.000;  832.000
446.959; -106.575; -457.000; -478.000
447.081; -135.925; -628.000; -518.000
447.203;   59.600;  862.000;  834.000
447.325;  -90.150; -270.000;   42.000
447.446;  -26.100;  286.000;  530.000
447.568; -161.250; -921.000; -803.000
447.690;  -89.925; -236.000; -245.000
447.812; -161.375; -798.000; -519.000
447.933;  -40.700;  155.000;  127.000
448.055;  -65.475; -306.000; -261.000
448.177;  206.725;   31.000;   79.000
448.299;  144.350; -935.000; -727.000
448.420;   33.925;  -25.000;  159.000
448.542;  -42.050;   -3.000;   33.000
448.664;  -27.000;  109.000;  322.000
448.785;  -42.975;  265.000;   83.000
448.907;  -88.350; -614.000; -353.000
449.028;  -18.275; -771.000; -471.000
449.150;   56.850;  492.000;  589.000
449.272; -173.775;-1044.000; -913.000
449.393;   17.475;  612.000;  694.000
449.515; -158.975; -634.000; -581.000
449.636;  -63.050; -264.000; -155.000
449.758;   84.625;  763.000;  622.000
449.879;  -89.625; -498.000; -396.000
450.001;  -87.900; -149.000;  -49.000
450.122;  -61.475;  -95.000;  162.000
450.244;  -37.375;   37.000;  364.000
450.365; -108.375; -495.000; -301.000
450.486;  -40.200;   80.000;  268.000
450.608;    1.700;  393.000;  326.000
450.729;   29.825;  578.000;  645.000
450.850;  -47.550; -574.000; -466.000
450.972;  431.875; -552.000; -389.000
451.093; 3197.850;  190.000;  588.000
451.214; 1242.300; -516.000; -337.000
451.336;  254.150;  773.000;  579.000
451.457;   34.825;  264.000;  393.000
451.578;  -62.650; -118.000;  -74.000
451.699; -138.350; -546.000; -540.000
451.821;  -66.575; -284.000;  -50.000
451.942;   -8.550;  278.000;  285.000
452.063;    2.600;  228.000;  419.000
452.184;  378.050;  -54.000;  -49.000
452.305;  755.225;  103.000;  170.000
452.427;   38.625; -549.000; -301.000
452.548;  -35.250;   23.000;   79.000
452.669;  -41.975; -257.000;  -89.000
452.790;  -47.350;    3.000;  -18.000
452.911;   -3.575;  195.000;  259.000
453.032;  -69.875; -289.000;  -60.000
453.153;  -40.250;  -29.000;   81.000
453.274;   60.675;  737.000;  868.000
453.395;  -50.625;  -51.000;  175.000
453.516;  135.950; 1317.000; 1388.000
453.637;  -55.500; -205.000; -150.000
453.758;  -68.775;   15.000;   69.000
453.879; -121.625; -462.000; -250.000
454.000;   80.525; 1086.000;  948.000
454.121; -116.450; -554.000; -326.000
454.242; -135.250; -599.000; -383.000
454.362;  -66.725;  -99.000;  114.000
454.483;  -32.700; -309.000; -229.000
454.604;   87.775;  512.000;  580.000
454.725; -133.350; -627.000; -555.000
454.846; -124.000; -474.000; -406.000
454.967;  -37.675;  230.000;  539.000
455.087;  -47.900;  179.000;  153.000
455.208;   -1.300;  554.000;  856.000
455.329;  -70.375;  -22.000;   82.000
455.450;    5.925;  473.000;  633.000
455.570; -101.900; -234.000; -211.000
455.691;  -58.750;  201.000;  407.000
455.812; -130.075; -270.000;  -92.000
455.932;  -67.700;  107.000;  -97.000
456.053;  -86.225;   36.000;   24.000
456.173; -120.450; -433.000; -355.000
456.294; -146.100; -476.000; -303.000
456.415;  -76.150;  -73.000;   70.000
456.535;  -33.550;  297.000;  273.000
456.656;  -47.325;  132.000;  240.000
456.776;  -79.000;    3.000;  298.000
456.897;   -6.625;  308.000;  513.000
457.017;  -96.225; -153.000;   -3.000
457.138; -116.600; -402.000; -249.000
457.258;  -17.850;  263.000;  224.000
457.379;  -26.775;  509.000;  521.000
457.499;  -37.575;  443.000;  432.000
457.620; -127.200; -407.000; -231.000
457.740;  -97.325; -132.000;  -11.000
457.860;  -59.350;   87.000;   44.000
457.981;  -39.475;  132.000;  124.000
458.101;  -71.425;  -89.000;   40.000
458.221;  -34.775;  336.000;  402.000
458.342;  -80.725;   -4.000;  -37.000
458.462;   -8.825;  617.000;  352.000
458.582;  -86.550; -302.000; -294.000
458.703;  -13.450;  303.000;  154.000
458.823;  -59.275;   22.000;  163.000
458.943;    5.225;  341.000;  467.000
459.063;  -25.075; 1124.000;  192.000
459.183;  -28.375;  328.000;  313.000
459.304;   -9.975;  315.000;  517.000
459.424;  -74.625; -246.000;  -89.000
459.544;  214.925;  388.000;  764.000
459.664;  564.575;  499.000;  506.000
459.784;  219.050; 1004.000; 1175.000
459.904;   48.250;  867.000;  744.000
460.024;   72.100;  867.000;  684.000
460.144;   28.600;  449.000;  554.000
460.264;  -14.200;  515.000;  327.000
460.385; -100.825; -145.000; -119.000
460.505;   25.275;  905.000;  858.000
460.625;  -81.250;  -17.000;  -68.000
460.745;  -28.650;  396.000;  541.000
460.864;  -51.550;  153.000;  469.000
460.984;    1.900;  499.000;  573.000
461.104;  155.175; 1656.000; 1775.000
461.224;   15.125;  657.000;  650.000
461.344;  -11.900;  431.000;  360.000
461.464;  -37.500;  258.000;  513.000
461.584;   -9.950;  283.000;  466.000
461.704;  -53.075;   58.000;  108.000
461.824;  -48.325;  238.000;  259.000
461.943;  -53.600;  191.000;  130.000
462.063;  -73.025;    2.000;  324.000
462.183;   29.200;  639.000;  717.000
462.303;  101.275; 1678.000; 1230.000
462.422;   17.175;  781.000;  840.000
462.542;  -43.000;  271.000;  391.000
462.662;   24.025;  353.000;  380.000
462.782;  186.925;  833.000;  572.000
462.901;  336.500;  545.000;  717.000
463.021;  233.850; 1702.000; 1638.000
463.141;  -24.625;  337.000;  770.000
463.260;  -24.075;  614.000;  474.000
463.380;    1.375;  902.000;  884.000
463.499;  -40.550;  342.000;  332.000
463.619;  -51.250;  581.000;  559.000
463.738;  109.400; 1644.000;  903.000
463.858;   10.725;  657.000;  811.000
463.978;  -45.525;  542.000;  396.000
464.097;   43.775;  921.000; 1114.000
464.217;   92.750; 1196.000; 1143.000
464.336;   81.975; 1068.000; 1130.000
464.455;  -44.750;  328.000;  659.000
464.575;   49.800;  597.000;  602.000
464.694;  185.675; 1204.000; 1179.000
464.814;  109.775; 1190.000; 1138.000
464.933;   63.350; 1095.000; 1027.000
465.052;   77.950; 1412.000; 1054.000
465.172;   94.275;  922.000;  799.000
465.291;  146.700; 1376.000; 1320.000
465.410;   -3.575;  462.000;  735.000
465.530;   78.150; 1355.000; 1310.000
465.649;   79.850; 1209.000; 1273.000
465.768;  149.050; 1673.000; 1508.000
465.888;   68.950;  941.000; 1174.000
466.007;   87.725; 1335.000; 1440.000
466.126;  -12.150;  721.000;  641.000
466.245;   35.475; 1176.000; 1187.000
466.364;   10.550;  950.000; 1060.000
466.484;   43.925; 1024.000; 1213.000
466.603;   43.600; 1101.000; 1222.000
466.722;  124.825; 1490.000; 1769.000
466.841;   67.600; 1151.000; 1401.000
466.960;   30.800; 1069.000;  972.000
467.079;  124.500; 1971.000; 1786.000
467.198;   34.150; 1238.000; 1181.000
467.317;   78.775; 1768.000; 1162.000
467.436;   56.975; 1709.000; 1261.000
467.555;  125.675; 1796.000; 1746.000
467.674;   45.225; 1227.000; 1329.000
467.793;   37.025; 1376.000; 1374.000
467.912;   81.200; 1658.000; 1539.000
468.031;  123.800; 2038.000; 1930.000
468.150;  125.725; 1842.000; 1837.000
468.269;  179.175; 2313.000; 2090.000
468.388;  184.025; 2168.000; 2339.000
468.507;  248.725; 2884.000; 2903.000
468.626;  251.875; 2555.000; 2541.000
468.744;  136.075; 2018.000; 2174.000
468.863;  183.525; 2312.000; 2523.000
468.982;   90.100; 1503.000; 1555.000
469.101;  210.175; 2788.000; 2692.000
469.220;  147.550; 2333.000; 2176.000
469.338;  241.625; 2935.000; 3051.000
469.457;  182.450; 2719.000; 2545.000
469.576;  336.600; 3953.000; 3784.000
469.695;  250.700; 2877.000; 3066.000
469.813;  401.400; 4148.000; 4192.000
469.932;  403.200; 4255.000; 4485.000
470.051;  405.975; 4075.000; 4161.000
470.169;  742.450; 4470.000; 4338.000
470.288; 1143.650; 4700.000; 4809.000
470.406;  757.725; 5059.000; 5194.000
470.525;  601.975; 6101.000; 5787.000
470.644;  641.500; 6847.000; 6794.000
470.762;  817.450; 8397.000; 7873.000
470.881;  883.250; 8651.000; 8464.000
470.999; 1006.475; 9685.000; 9151.000
471.118; 1108.375;11174.000;10711.000

