
Integration time [ms]: 100.000
Averaging Nr. [scans]: 40
Smoothing Nr. [pixels]: 0
Data measured with spectrometer [name]: 2101012U2
Wave   ;Sample   ;Dark     ;Reference
[nm]   ;[counts] ;[counts] ;[counts] 

197.733;   51.275;  516.000;  404.000
197.879;  -92.225; -610.000; -634.000
198.025;  -60.325; -475.000; -420.000
198.171;  -74.650; -602.000; -612.000
198.317;  -38.325; -401.000; -316.000
198.463;  -62.100; -655.000; -404.000
198.609;   20.050;  181.000; -137.000
198.755;  -89.325; -644.000; -410.000
198.901;  -68.100; -505.000; -424.000
199.047;  -70.950; -615.000; -488.000
199.193;  -41.575; -230.000; -468.000
199.339;  -49.000; -222.000; -369.000
199.485;   41.450;  330.000;  271.000
199.631;   17.625;  227.000;  310.000
199.777;  -65.800; -466.000; -398.000
199.923;  -63.925; -610.000; -424.000
200.069;   -1.675; -141.000;  -58.000
200.215;   50.125;  128.000;  453.000
200.361;   31.775;  243.000;  477.000
200.507;  -68.750; -600.000; -373.000
200.653;  -38.375; -371.000; -194.000
200.798;  -35.350; -215.000; -125.000
200.944;   -5.775; -146.000;  -41.000
201.090;   26.775;   61.000;  222.000
201.236;   -0.750; -116.000; -158.000
201.382;  133.625;  874.000;  903.000
201.528;   -5.925;  -58.000;  -48.000
201.674;  -54.575; -386.000; -293.000
201.819;  -65.875; -540.000; -439.000
201.965;  -82.750; -699.000; -447.000
202.111;  -36.425; -273.000; -226.000
202.257;  -34.100; -250.000; -238.000
202.402;   -1.075;   13.000;  -36.000
202.548;  -31.250; -169.000; -116.000
202.694;   77.325;  410.000; -183.000
202.840;  -79.750; -603.000; -531.000
202.985;  -82.925; -681.000; -639.000
203.131; -129.525; -832.000; -666.000
203.277;  -35.425; -199.000; -262.000
203.423;  -62.375; -434.000; -520.000
203.568;  -43.375; -462.000; -237.000
203.714;  -49.825; -535.000; -542.000
203.860;  -89.275; -682.000; -641.000
204.005;   15.975;  112.000;  167.000
204.151;   74.950;  561.000;  556.000
204.296;  -45.000; -354.000; -221.000
204.442;  -75.625; -600.000; -547.000
204.588;  -79.850; -592.000; -579.000
204.733;    8.375;  178.000;  168.000
204.879; -122.375;-1018.000; -822.000
205.025;    6.125;  -99.000;  126.000
205.170;    4.725;  -17.000;   94.000
205.316;   77.275;  438.000;  661.000
205.461;  -82.025; -698.000; -554.000
205.607;   75.100;  609.000;  665.000
205.752;  -80.725; -626.000; -551.000
205.898;  -70.050; -501.000; -391.000
206.043;  -70.525; -578.000; -506.000
206.189;  -45.400; -243.000; -285.000
206.334;   79.050;  554.000;  606.000
206.480;   67.850;  409.000;  239.000
206.625;  -83.700; -529.000; -552.000
206.771;  -51.775; -451.000; -373.000
206.916;  -39.600; -210.000; -537.000
207.062;  -88.675; -545.000; -591.000
207.207;  -61.500; -546.000; -443.000
207.353;   51.100;  185.000;  460.000
207.498;   16.675;  196.000;   85.000
207.643;  -64.925; -501.000; -370.000
207.789; -129.350;-1069.000; -910.000
207.934;  -95.850; -665.000; -713.000
208.080;  -16.050; -154.000;   66.000
208.225;   -9.750;  -22.000;  -57.000
208.370;  -77.350; -727.000; -619.000
208.516;  -80.125; -741.000; -487.000
208.661;  -34.950; -127.000;  -69.000
208.806;  -28.850; -165.000; -171.000
208.952; -127.400;-1044.000; -731.000
209.097;   62.450;  378.000;  349.000
209.242;  -49.325; -307.000; -382.000
209.387;   61.550;  392.000;  350.000
209.533;  -59.550; -321.000; -350.000
209.678;   81.900;  472.000;  543.000
209.823;  -69.700; -408.000; -310.000
209.969;  -95.600; -860.000; -757.000
210.114; -109.250; -907.000; -719.000
210.259; -128.550; -939.000; -889.000
210.404;  -11.475; -171.000;  103.000
210.549;   18.825;  108.000;    3.000
210.695;  -21.000;   -3.000;  -95.000
210.840;   28.400;   94.000;   67.000
210.985;  -57.650; -484.000; -303.000
211.130;   75.250;  268.000;  406.000
211.275;   22.325;  207.000;  199.000
211.420;  -59.675; -300.000; -289.000
211.566;  -69.650; -536.000; -489.000
211.711;   23.900;  218.000;  157.000
211.856;  -71.700; -545.000; -519.000
212.001;  -15.575;  151.000;   44.000
212.146;   28.675;  153.000;   49.000
212.291;  -22.475; -210.000; -186.000
212.436;  -22.425; -280.000;   -6.000
212.581;  -99.975; -685.000; -653.000
212.726;  -74.100; -487.000; -538.000
212.871;  -52.950; -552.000; -217.000
213.016; -144.950;-1172.000;-1029.000
213.161;   57.125;  406.000;  291.000
213.306;  -73.150; -435.000; -577.000
213.451; -105.075; -778.000; -689.000
213.596;  -66.225; -455.000; -347.000
213.741;  -71.750; -448.000; -538.000
213.886;  -72.750; -498.000; -517.000
214.031;  -19.450; -294.000; -124.000
214.176;  -59.775; -408.000; -341.000
214.321;  -17.675; -296.000; -157.000
214.466;  -15.125; -163.000;  -43.000
214.611;   -5.500;  -61.000;  -10.000
214.756; -130.250; -948.000; -858.000
214.901;  -16.450; -388.000; -226.000
215.046; -131.725; -797.000; -825.000
215.191;   13.900;  128.000;   35.000
215.336;  -17.975; -157.000;  -19.000
215.480;  -65.100; -684.000; -505.000
215.625;  -18.350; -175.000;  -19.000
215.770;  -90.175; -757.000; -662.000
215.915;  -11.425;   -5.000;  -97.000
216.060;   -4.800; -113.000;  -21.000
216.205; -114.325; -731.000; -779.000
216.349;  -71.650; -470.000; -533.000
216.494; -141.300; -939.000; -867.000
216.639; -126.150; -823.000; -888.000
216.784;  -99.650; -577.000; -525.000
216.929;   47.675;  392.000;  281.000
217.073;  -17.275; -244.000;  -31.000
217.218;   11.550;   78.000;  -47.000
217.363;  -80.275; -656.000; -618.000
217.507;  -92.200; -623.000; -588.000
217.652; -130.475; -845.000; -874.000
217.797; -106.000; -708.000; -659.000
217.942; -115.675; -856.000; -720.000
218.086;   63.800;  608.000;  539.000
218.231;  -23.975; -174.000;  -26.000
218.376;  -51.075; -337.000; -229.000
218.520;   -5.525;  -41.000;   96.000
218.665;  -41.100; -338.000; -204.000
218.810;  -46.300; -275.000; -233.000
218.954;   16.625;  201.000;   35.000
219.099; -121.375; -713.000; -963.000
219.243;  -78.525; -589.000; -554.000
219.388;  -26.950; -264.000; -136.000
219.532;   -5.950; -116.000; -116.000
219.677;  -78.950; -564.000; -521.000
219.822;    4.700;   33.000;   89.000
219.966;   -1.100;   17.000;  -99.000
220.111;  -38.500; -328.000;  -40.000
220.255; -106.375; -797.000; -750.000
220.400;  -23.575; -180.000; -146.000
220.544;  -76.350; -516.000; -450.000
220.689;  -58.900; -422.000; -451.000
220.833;  -24.325; -123.000;  -58.000
220.978;  -45.750; -393.000; -563.000
221.122;   25.025;  319.000;  307.000
221.267; -125.950; -906.000; -837.000
221.411;  -57.725; -478.000; -394.000
221.555;  -20.925; -104.000;  -23.000
221.700;  -41.825; -329.000; -222.000
221.844;   21.350;  255.000;  272.000
221.989;  -53.625; -328.000; -311.000
222.133;  -27.175; -289.000; -307.000
222.277;   -0.325;    5.000;   78.000
222.422;    0.200;  227.000;  113.000
222.566;  -47.775; -381.000; -214.000
222.711;  -68.050; -414.000; -479.000
222.855;  -91.525; -643.000; -586.000
222.999;  -95.725; -642.000; -717.000
223.144;  -31.950; -195.000; -194.000
223.288;   44.925;  423.000;  251.000
223.432;   22.825;  184.000;  230.000
223.576;   16.350;  152.000;  -21.000
223.721;   52.900;  364.000;  273.000
223.865;  -60.300; -472.000; -475.000
224.009;  225.900; 1673.000; 1631.000
224.153;  -80.725; -660.000; -671.000
224.298;  -75.125; -531.000; -489.000
224.442;  -28.050;  -74.000;  -33.000
224.586;  -17.125; -169.000; -106.000
224.730; -105.225; -858.000; -670.000
224.875; -119.725; -739.000; -688.000
225.019;   14.050;  102.000;  188.000
225.163;   56.150;  208.000;  341.000
225.307;    7.225;   97.000;  -91.000
225.451;   45.325;  360.000;  481.000
225.595;   15.100;  264.000;  176.000
225.739;  -19.650; -170.000;  -94.000
225.884;    9.700;   86.000;    5.000
226.028; -115.075; -760.000; -626.000
226.172;  -33.675; -260.000; -273.000
226.316; -119.200; -941.000; -902.000
226.460;  -76.925; -645.000; -493.000
226.604;  -62.300; -406.000; -400.000
226.748; -107.475; -836.000; -733.000
226.892;  -38.525; -227.000; -181.000
227.036;  -43.500; -537.000; -447.000
227.180;  -62.600; -551.000; -375.000
227.324;  -77.350; -561.000; -580.000
227.468; -115.925; -819.000; -717.000
227.612;   16.925;  242.000;  -28.000
227.756; -103.700; -845.000; -698.000
227.900;   55.175;  342.000;  441.000
228.044;  -67.725; -509.000; -290.000
228.188;   59.450;  448.000;  568.000
228.332;  -88.825; -546.000; -472.000
228.476;  -35.425; -223.000; -149.000
228.620;  -30.775; -210.000; -150.000
228.764;   67.225;  431.000;  349.000
228.908;   -2.775; -155.000;   30.000
229.052;  -72.850; -615.000; -528.000
229.195;   -7.125; -172.000;   13.000
229.339;  -30.000; -235.000; -305.000
229.483;  -22.250;    5.000; -162.000
229.627;   -1.075; -156.000;  139.000
229.771;  -63.325; -218.000; -294.000
229.915;    9.450;  230.000;   79.000
230.059;  -93.050; -648.000; -663.000
230.202;  -38.025; -370.000; -317.000
230.346;  -21.975; -107.000;  107.000
230.490;  -65.550; -489.000; -521.000
230.634; -112.425; -736.000; -553.000
230.777;   78.200;  478.000;  509.000
230.921;  -65.600; -450.000; -359.000
231.065;  -50.875; -246.000; -286.000
231.209;   14.100;  261.000;  265.000
231.352;   18.175;   54.000;   40.000
231.496;   24.950;  568.000;  188.000
231.640;  -90.575; -693.000; -621.000
231.783;   61.275;  546.000;  525.000
231.927;  -50.025; -294.000; -365.000
232.071; -123.000; -962.000; -736.000
232.214; -121.250; -980.000; -764.000
232.358; -110.550; -683.000; -599.000
232.502;   10.950;  -19.000;    7.000
232.645; -142.650;-1090.000; -927.000
232.789;  -32.625; -257.000; -218.000
232.933;  -57.475; -407.000; -224.000
233.076; -129.725;-1038.000; -897.000
233.220; -108.425; -752.000; -777.000
233.363;  -80.475; -669.000; -477.000
233.507;   44.225;  371.000;  129.000
233.650; -107.775; -764.000; -834.000
233.794;   49.350;  438.000;  461.000
233.938;  -56.750; -530.000; -362.000
234.081;  -25.900;  -93.000;   31.000
234.225;  -67.525; -631.000; -539.000
234.368; -116.550; -773.000; -723.000
234.512;  -43.850; -385.000; -299.000
234.655;  -87.725; -582.000; -555.000
234.798;  -63.200; -493.000; -466.000
234.942; -142.050; -884.000;-1002.000
235.085;  -85.950; -651.000; -443.000
235.229;  -85.475; -405.000; -410.000
235.372;  -63.350; -247.000; -191.000
235.516;  -67.325; -397.000; -321.000
235.659;   10.825;   92.000;  121.000
235.802;   -9.100;  -38.000;  -22.000
235.946;   23.900;  335.000;  215.000
236.089;   29.925;  126.000;  250.000
236.233;   41.600;  275.000;  298.000
236.376;  -46.900; -235.000; -378.000
236.519;  -49.625; -297.000; -319.000
236.663;  -21.200; -215.000; -117.000
236.806; -164.275;-1029.000; -999.000
236.949;   43.725;  543.000;  431.000
237.092;   55.550;  412.000;  391.000
237.236; -100.625; -589.000; -502.000
237.379;   49.650;  352.000;  428.000
237.522; -130.550; -879.000; -768.000
237.666;  -16.675; -271.000;   18.000
237.809; -136.000; -851.000; -823.000
237.952;   40.525;  469.000;  271.000
238.095;  -66.450; -447.000; -442.000
238.238;   89.350;  688.000;  700.000
238.382;   -8.425;  166.000;  103.000
238.525;  -87.525; -598.000; -511.000
238.668; -144.775;-1060.000; -985.000
238.811;  -93.125; -638.000; -643.000
238.954;  -68.800; -483.000; -334.000
239.097;   93.650;  617.000;  664.000
239.241;   27.350;  394.000;  326.000
239.384;  -44.675; -254.000; -214.000
239.527;  -66.500; -424.000; -224.000
239.670; -161.125; -994.000;-1091.000
239.813; -109.900; -696.000; -658.000
239.956;   64.150;  579.000;  473.000
240.099; -115.450; -778.000; -725.000
240.242;   58.075;  428.000;  432.000
240.385;   34.400;  466.000;  450.000
240.528;  -80.450; -706.000; -473.000
240.671;    6.750;  189.000;  134.000
240.814;  -54.725; -441.000; -158.000
240.957; -108.800; -767.000; -578.000
241.100;  -95.750; -779.000; -755.000
241.243; -144.375;-1234.000; -893.000
241.386;  -85.475; -508.000; -379.000
241.529;  -98.700; -735.000; -547.000
241.672;  -76.400; -566.000; -495.000
241.815; -126.375; -832.000; -808.000
241.958;  -19.925; -125.000; -182.000
242.101;  -82.675; -545.000; -390.000
242.244;  -37.250; -270.000; -325.000
242.387;  -45.175; -304.000; -246.000
242.530;   47.100;  470.000;  134.000
242.673;  -51.150; -381.000; -309.000
242.815; -116.750; -925.000; -899.000
242.958;  -79.275; -482.000; -381.000
243.101;    5.825;  132.000;  187.000
243.244;  -83.825; -564.000; -521.000
243.387;  -67.100; -313.000; -316.000
243.530; -102.700; -657.000; -674.000
243.672;   -5.325;   43.000;  -92.000
243.815;  -52.675; -355.000; -283.000
243.958;  -16.800;   98.000;  -26.000
244.101;    9.900;   59.000;  -16.000
244.243;  -18.575;  -47.000;  101.000
244.386; -113.850; -761.000; -630.000
244.529;  -38.050; -132.000; -139.000
244.672; -172.000;-1154.000; -951.000
244.814; -106.950; -621.000; -794.000
244.957;  -78.700; -380.000; -304.000
245.100;  -83.200; -489.000; -489.000
245.242;  -75.025; -387.000; -374.000
245.385;  -12.100;  -59.000;  -39.000
245.528; -136.200; -871.000; -705.000
245.670;   80.700;  612.000;  634.000
245.813;  -88.250; -599.000; -547.000
245.956;  -33.000; -324.000; -275.000
246.098;  -73.875; -508.000; -650.000
246.241;   10.250;  194.000;   48.000
246.383;  -21.375; -119.000;  -73.000
246.526;  -85.350; -454.000; -525.000
246.669; -122.875; -889.000; -780.000
246.811;   15.075;  172.000;   -1.000
246.954;  -73.025; -512.000; -426.000
247.096;  -11.425;  -84.000;   -6.000
247.239;  -71.975; -482.000; -445.000
247.381;  -69.275; -647.000; -488.000
247.524;   85.550;  645.000;  679.000
247.666;  -18.325;   58.000;   11.000
247.809; -121.875; -887.000; -691.000
247.951;  -12.975;  -75.000;  138.000
248.094;   20.750;  432.000;  308.000
248.236; -165.125;-1262.000;-1238.000
248.378;    5.125; -356.000;  -81.000
248.521;  -30.175; -334.000; -337.000
248.663;  -46.500; -236.000; -267.000
248.806;  -29.850; -300.000; -266.000
248.948;  -97.850; -886.000; -763.000
249.090;  -48.225; -428.000; -398.000
249.233;  -53.875; -344.000; -381.000
249.375;  -68.225; -474.000; -451.000
249.518;  -29.225;  -83.000; -133.000
249.660;  -13.950; -103.000;    3.000
249.802; -172.975;-1303.000;-1189.000
249.945;  -81.325; -612.000; -540.000
250.087; -135.275; -834.000; -768.000
250.229;  -59.075; -362.000; -480.000
250.371;  -81.500; -494.000; -439.000
250.514;  -58.325; -310.000; -244.000
250.656;  -64.825;   69.000;  102.000
250.798; -124.325; -849.000; -800.000
250.940;  -82.550; -322.000; -322.000
251.083;  -24.800; -335.000; -111.000
251.225;   46.025;  338.000;  310.000
251.367;  -58.025; -274.000; -373.000
251.509;  -40.150; -265.000; -210.000
251.651; -103.100; -731.000; -671.000
251.794;   53.525;  538.000;  632.000
251.936; -118.400; -821.000; -747.000
252.078;  -79.375; -540.000; -461.000
252.220;  -77.650; -645.000; -477.000
252.362;   61.825;  344.000;  462.000
252.504;  -65.050; -677.000; -584.000
252.646; -115.650; -875.000; -722.000
252.788;  -13.000;   14.000; -128.000
252.931;  -50.500; -257.000; -253.000
253.073;  -56.775; -376.000; -317.000
253.215;  -13.725;  141.000;  122.000
253.357;  -23.575;   82.000; -153.000
253.499;  -54.325; -374.000; -234.000
253.641;  -92.625; -749.000; -594.000
253.783;  -93.000; -609.000; -527.000
253.925;  -92.300; -586.000; -591.000
254.067; -118.875; -744.000; -667.000
254.209;  -48.750; -391.000; -259.000
254.351; -147.350; -865.000; -883.000
254.493;  -68.950; -441.000; -417.000
254.635; -143.950; -936.000; -818.000
254.777;  -99.650; -752.000; -687.000
254.918;  -71.200; -512.000; -430.000
255.060;  -63.075; -551.000; -395.000
255.202;  -62.825; -473.000; -261.000
255.344;  -86.800; -658.000; -455.000
255.486;  -74.725; -471.000; -406.000
255.628; -117.500; -780.000; -781.000
255.770;  -89.200; -676.000; -536.000
255.912;  -70.800; -559.000; -468.000
256.053;  -98.950; -730.000; -508.000
256.195;  152.350; 1008.000;  903.000
256.337; -104.825; -861.000; -595.000
256.479;   52.800;  532.000;  416.000
256.621;  -50.850; -394.000; -212.000
256.762; -104.575; -789.000; -742.000
256.904;   45.625;  485.000;  487.000
257.046;  -45.150; -381.000; -271.000
257.188;  -57.600; -351.000; -264.000
257.329;  -85.625; -525.000; -464.000
257.471; -116.850; -939.000; -807.000
257.613;  -70.100; -584.000; -498.000
257.755; -155.700;-1073.000; -982.000
257.896;   39.725;  286.000;  392.000
258.038;  -81.900; -403.000; -352.000
258.180;  -56.150; -354.000; -279.000
258.321;  -97.825; -581.000; -457.000
258.463;  -11.925;  -71.000;  133.000
258.605;  -83.550; -562.000; -570.000
258.746; -130.600; -886.000; -772.000
258.888; -158.100;-1026.000;-1020.000
259.029;   12.450;  121.000;   -8.000
259.171;  -91.550; -614.000; -550.000
259.313;    1.225;  -49.000;  -47.000
259.454;  -80.625; -536.000; -414.000
259.596;  -64.125; -483.000; -390.000
259.737;  -89.400; -590.000; -474.000
259.879;   19.425;  217.000;  311.000
260.020;   99.525;  901.000;  636.000
260.162;  -31.525; -146.000; -253.000
260.303; -124.025; -768.000; -687.000
260.445;  -96.225; -609.000; -613.000
260.586;   16.850;  392.000;  157.000
260.728;  -43.525; -360.000; -248.000
260.869; -115.025; -350.000; -343.000
261.011;   73.050;  706.000;  537.000
261.152;  -79.650; -479.000; -319.000
261.293; -100.675; -576.000; -595.000
261.435;  -34.500; -219.000; -184.000
261.576;  -64.250; -455.000; -325.000
261.718;   37.950;  420.000;  470.000
261.859; -139.900; -940.000; -949.000
262.000; -141.675; -951.000;-1016.000
262.142;  -29.075;  -52.000;  -60.000
262.283; -109.200; -808.000; -691.000
262.424;  -99.400; -666.000; -625.000
262.566; -152.875;-1161.000; -983.000
262.707; -129.650; -840.000; -830.000
262.848; -120.725; -769.000; -726.000
262.990;  -50.475; -362.000; -345.000
263.131;   90.500;  650.000;  681.000
263.272;  -19.000;  -61.000;  -41.000
263.413; -101.500; -589.000; -561.000
263.555;  -80.725; -669.000; -143.000
263.696;  -87.975; -550.000; -641.000
263.837;  -66.225; -449.000; -551.000
263.978;   -4.550;   -5.000;  -77.000
264.119;  -27.425; -283.000; -264.000
264.261; -117.575; -847.000; -630.000
264.402;  -17.775;   33.000;   40.000
264.543;  -77.300; -509.000; -524.000
264.684;  -15.725;   61.000;  -50.000
264.825;  -72.975; -816.000; -538.000
264.966;  -12.225;  -84.000;  -67.000
265.107; -123.025; -646.000; -670.000
265.248; -130.000; -825.000; -812.000
265.390;  -27.250;  152.000;   -9.000
265.531;  -18.450; -238.000; -107.000
265.672; -103.450; -557.000; -630.000
265.813;   53.425;  563.000;  439.000
265.954; -162.775; -959.000; -940.000
266.095;  -24.125; -372.000; -322.000
266.236; -105.500; -686.000; -548.000
266.377;  -46.350; -243.000; -297.000
266.518;  -87.775; -619.000; -547.000
266.659;   15.950;  170.000;  268.000
266.800;    6.575;   83.000;   85.000
266.941;  -88.350; -487.000; -478.000
267.082;   26.475;  354.000;   99.000
267.223;  -58.275; -344.000; -273.000
267.364; -124.650; -892.000; -686.000
267.504;  -14.650;    3.000;  135.000
267.645;    2.725;  160.000;   67.000
267.786;  -38.625; -147.000;  -86.000
267.927;  -79.850; -473.000; -379.000
268.068;  -31.700; -186.000;  -61.000
268.209;  -58.100; -175.000; -413.000
268.350;  -59.150; -388.000; -532.000
268.490;  -93.075; -648.000; -521.000
268.631;   27.900;  127.000;  225.000
268.772; -107.300; -874.000; -647.000
268.913;  -59.050; -328.000; -476.000
269.054;  -19.975; -117.000;   12.000
269.194;  -48.150; -418.000; -402.000
269.335; -159.175;-1137.000;-1074.000
269.476;  -29.450;   33.000;  -35.000
269.617;  -60.850; -347.000; -392.000
269.757; -100.975; -713.000; -646.000
269.898;  -98.475; -856.000; -613.000
270.039;  -72.700; -415.000; -405.000
270.180; -149.375; -952.000; -816.000
270.320;  -32.675; -190.000; -250.000
270.461;  -59.600; -277.000; -249.000
270.602;  -19.150; -186.000; -156.000
270.742; -134.200; -868.000; -943.000
270.883;  -66.950; -442.000; -390.000
271.023;  -58.750; -358.000; -357.000
271.164;  -83.850; -607.000; -528.000
271.305; -113.075; -666.000; -654.000
271.445;  -99.375; -722.000; -683.000
271.586;  -76.625; -462.000; -283.000
271.726;  -64.775; -397.000; -322.000
271.867;  -69.250; -594.000; -534.000
272.008;  145.250; -473.000; -285.000
272.148;  102.075;  462.000;  468.000
272.289;    4.275; -113.000; -181.000
272.429;    7.725;   19.000;  185.000
272.570; -114.000; -633.000; -737.000
272.710; -119.250; -825.000; -775.000
272.851;  -31.725;  113.000; -130.000
272.991; -166.125;-1173.000;-1077.000
273.131;  -73.375; -419.000; -459.000
273.272; -105.550; -683.000; -723.000
273.412;   -4.175; -143.000;  -31.000
273.553;  -55.300; -488.000; -507.000
273.693;  129.300;  913.000;  858.000
273.834; -103.875; -894.000; -692.000
273.974;  -86.575; -664.000; -615.000
274.114; -105.800; -772.000; -560.000
274.255;   54.175;  414.000;  373.000
274.395;  -17.325; -180.000; -125.000
274.535;   45.700;  199.000;  350.000
274.676;   10.325;  225.000;   94.000
274.816;  -13.325;  110.000;   34.000
274.956;  -93.475; -624.000; -690.000
275.097;  -89.050;-1014.000; -922.000
275.237; -116.300; -913.000; -803.000
275.377; -115.300; -778.000; -689.000
275.517; -161.275; -878.000; -937.000
275.658;  -78.850; -590.000; -555.000
275.798;  -89.925; -606.000; -413.000
275.938;   10.925;  215.000;  323.000
276.078; -111.625; -626.000; -395.000
276.218;   13.100;   99.000;  104.000
276.359; -133.125;-1026.000;-1024.000
276.499;  -83.925; -605.000; -446.000
276.639;  -27.775; -305.000; -151.000
276.779;  -49.775; -475.000; -357.000
276.919; -107.550; -783.000; -624.000
277.059;  -33.250; -261.000; -212.000
277.199;  -52.150; -357.000; -259.000
277.340;   39.525;  287.000;  175.000
277.480; -121.600; -840.000; -693.000
277.620;   11.275;  192.000;   16.000
277.760; -206.850;-1533.000;-1294.000
277.900;    9.125;  113.000;   33.000
278.040;   17.275;  137.000;  159.000
278.180;   27.500;  270.000;  170.000
278.320;  -17.875;   21.000;   56.000
278.460;  -69.450; -443.000; -469.000
278.600;  -89.175; -708.000; -598.000
278.740;   44.075;  448.000;  224.000
278.880;  -84.475; -768.000; -791.000
279.020;  -19.425; -194.000; -144.000
279.160;  -93.675; -672.000; -595.000
279.300; -124.500; -926.000; -873.000
279.440;  -91.750; -709.000; -622.000
279.579;  -41.925;-1014.000; -929.000
279.719;  -62.775; -410.000; -394.000
279.859;   53.075;   -4.000;   41.000
279.999;   26.075; -208.000;  101.000
280.139;  -21.400; -435.000; -387.000
280.279;  -86.425; -708.000; -745.000
280.419;  -19.950; -229.000; -147.000
280.559;  -37.800; -259.000; -180.000
280.698;  -93.950; -790.000; -639.000
280.838; -111.975; -778.000; -800.000
280.978; -101.800; -846.000; -790.000
281.118; -112.600; -811.000; -704.000
281.257;   -3.475;   24.000;    6.000
281.397; -137.950;-1094.000; -960.000
281.537;  -88.200; -599.000; -712.000
281.677;  -30.975; -150.000; -101.000
281.816;  -96.375; -700.000; -630.000
281.956;  -40.975; -193.000; -257.000
282.096;  -73.725; -539.000; -396.000
282.235; -114.150; -672.000; -638.000
282.375;  -19.900; -243.000;  -98.000
282.515; -128.975; -715.000; -707.000
282.654;   16.525;   29.000;  106.000
282.794;   22.425;  388.000;  244.000
282.934;  -65.750; -530.000; -491.000
283.073; -133.950;-1030.000; -857.000
283.213;  -66.500; -460.000; -467.000
283.353;  -48.900; -408.000; -349.000
283.492;  -42.000; -264.000; -296.000
283.632;  -42.650; -254.000; -168.000
283.771; -111.750; -859.000; -730.000
283.911;  -74.975; -369.000; -260.000
284.050; -130.925; -794.000; -748.000
284.190; -171.000;-1229.000;-1096.000
284.329; -145.275;-1055.000; -964.000
284.469;  -84.400; -516.000; -591.000
284.608;  -67.925; -559.000; -598.000
284.748;  -91.650; -614.000; -570.000
284.887;  -17.300;  -87.000;  -20.000
285.027; -129.425; -844.000; -892.000
285.166;  -49.925; -192.000; -249.000
285.306;   -9.175; -116.000;  -33.000
285.445;  -63.350; -229.000; -343.000
285.584;  -99.400; -630.000; -494.000
285.724;  -57.200; -282.000; -322.000
285.863; -127.675; -857.000; -507.000
286.002;  -49.000; -366.000; -276.000
286.142; -115.775; -715.000; -622.000
286.281;  -84.300; -525.000; -493.000
286.420;  -98.600; -554.000; -417.000
286.560;   87.575;  653.000;  623.000
286.699; -149.050; -958.000; -912.000
286.838;  -88.175; -590.000; -591.000
286.978;  -93.875; -533.000; -537.000
287.117; -161.700;-1085.000; -950.000
287.256;  -47.150; -228.000; -211.000
287.395;  -62.675; -197.000; -378.000
287.535;  -67.875; -370.000; -298.000
287.674;  -86.950; -509.000; -484.000
287.813;   52.275;  661.000;  533.000
287.952; -149.275;-1010.000; -871.000
288.091; -154.400;-1049.000; -915.000
288.231;    5.600;   13.000;   15.000
288.370; -175.425;-1217.000;-1200.000
288.509;  -98.700; -728.000; -645.000
288.648;  -98.775; -770.000; -548.000
288.787;  -31.100; -243.000;  -87.000
288.926;  -78.625; -454.000; -475.000
289.065;  124.625;  859.000;  672.000
289.204;  -58.675; -377.000; -217.000
289.344;  -96.300; -791.000; -690.000
289.483;   22.050;  416.000;  304.000
289.622;  -51.725; -291.000; -149.000
289.761;  -17.400; -309.000; -166.000
289.900; -112.700; -785.000; -626.000
290.039;  -19.600;  -12.000;  -95.000
290.178;  -45.075; -274.000; -180.000
290.317;  -92.675; -618.000; -479.000
290.456;  -83.025; -463.000; -451.000
290.595; -151.425; -961.000; -833.000
290.734; -145.475; -904.000; -891.000
290.873;  -71.550; -456.000; -420.000
291.011; -123.075; -833.000; -843.000
291.150; -114.000; -770.000; -682.000
291.289;  -27.300; -343.000; -110.000
291.428; -101.150; -599.000; -480.000
291.567;  -48.525; -370.000; -442.000
291.706;  -10.825;  109.000;  154.000
291.845; -105.350; -597.000; -505.000
291.984; -174.175;-1234.000;-1061.000
292.122;   57.525;  602.000;  582.000
292.261;   43.475;  620.000;  463.000
292.400;   11.200; -144.000;  211.000
292.539; -139.325; -959.000; -813.000
292.678;  -53.125; -325.000; -300.000
292.816; -167.550;-1136.000; -965.000
292.955; -109.275; -844.000; -684.000
293.094;  -38.675; -173.000; -337.000
293.233;  -69.300; -556.000; -400.000
293.371;  -48.025; -225.000;  -84.000
293.510; -121.050; -866.000; -780.000
293.649; -139.300; -959.000; -924.000
293.787;  -90.225;-1083.000;-1012.000
293.926;    3.125; -113.000;  -32.000
294.065;  -51.375; -379.000; -290.000
294.203;   33.575;  298.000;  406.000
294.342;   17.725;   74.000;  156.000
294.481; 5803.675;51180.000; -836.000
294.619;  -24.650; -425.000; -582.000
294.758; -154.425;-1230.000;-1137.000
294.896;   45.675; -125.000;    5.000
295.035; -140.400;-1040.000;-1006.000
295.174; -132.475;-1082.000; -954.000
295.312;  -43.075; -323.000; -203.000
295.451;  -28.750; -307.000; -428.000
295.589;  -70.450; -389.000; -518.000
295.728;    6.375; -292.000; -165.000
295.866;   -9.750;  -36.000;  -51.000
296.005;  -80.375; -584.000; -341.000
296.143;  -78.500; -558.000; -596.000
296.282; -118.675; -957.000; -881.000
296.420; -101.150; -657.000; -557.000
296.559; -100.100; -892.000; -633.000
296.697;  -16.250; -847.000; -665.000
296.835;   -1.075;-1141.000;-1002.000
296.974;   34.875;  -23.000;   39.000
297.112;  -23.150; -443.000; -504.000
297.251;  -81.350; -815.000; -755.000
297.389;   48.125; -576.000; -438.000
297.527;   26.500; -145.000;  -83.000
297.666;  -65.400; -486.000; -438.000
297.804;  -52.700; -404.000; -264.000
297.942;  -38.875; -136.000; -161.000
298.081;   -2.750; -183.000;   63.000
298.219;   41.025;  -17.000;  -19.000
298.357;   26.550; -144.000;  -71.000
298.495;    0.475; -810.000; -812.000
298.634;   56.325;  245.000;  219.000
298.772;   25.175; -220.000; -338.000
298.910;  -43.050; -309.000; -182.000
299.048;  -11.650; -130.000; -153.000
299.187;  -44.825; -350.000; -250.000
299.325;   19.300;   52.000;  122.000
299.463;   22.875; -389.000; -299.000
299.601;   77.925; -327.000; -271.000
299.739; -121.775; -908.000; -883.000
299.877;  -95.650; -791.000; -703.000
300.016;  -50.525;-1095.000; -935.000
300.154;  120.175;  -19.000; -161.000
300.292;   23.225; -428.000; -348.000
300.430;   16.125; -408.000; -291.000
300.568; -111.850; -940.000; -874.000
300.706;  -52.925; -366.000; -469.000
300.844; -107.125;-1108.000; -979.000
300.982;  110.700;  246.000;  282.000
301.120; -133.850; -965.000; -866.000
301.258;  -87.700; -812.000; -705.000
301.396;   20.675;  104.000;  -41.000
301.534;   35.050; -218.000; -293.000
301.672;  -41.100; -664.000; -521.000
301.810;   -0.500; -613.000; -545.000
301.948;   79.225;   53.000;  149.000
302.086;  502.400; -250.000;  -32.000
302.224;  773.850; -610.000; -585.000
302.362;   12.575; -558.000; -622.000
302.500;  -54.725; -923.000; -893.000
302.638;   80.325;  128.000;  245.000
302.776;  -24.425; -352.000; -408.000
302.913;   41.650;  447.000;  236.000
303.051;  -19.700;  -86.000;  -23.000
303.189;   39.925;   90.000;  118.000
303.327;  -47.025; -341.000; -256.000
303.465; -106.025; -832.000; -588.000
303.603;  -91.925; -805.000; -604.000
303.740;   76.025;  417.000;  241.000
303.878;  -16.300; -800.000; -759.000
304.016;  -97.125; -915.000; -790.000
304.154; -138.375;-1123.000;-1152.000
304.291;  -45.550; -505.000; -554.000
304.429;    4.925;  102.000;   74.000
304.567; -131.025; -908.000; -893.000
304.705;  -55.750; -408.000; -515.000
304.842;   51.950; -616.000; -540.000
304.980;   41.975;  215.000;   35.000
305.118;   22.075; -367.000; -365.000
305.255; -100.150; -945.000; -927.000
305.393;   39.175;  178.000;  239.000
305.531; -121.825;-1173.000; -956.000
305.668;  -73.800; -663.000; -582.000
305.806;   64.850; -358.000; -439.000
305.943;   64.250; -629.000; -637.000
306.081;   41.625; -378.000; -267.000
306.219; -128.025; -863.000; -748.000
306.356;   -6.825;  158.000;   27.000
306.494;  109.250;  981.000;  761.000
306.631;  -10.800;  -11.000;  -55.000
306.769;  -12.125; -613.000; -485.000
306.906;  -32.875; -284.000; -258.000
307.044;  -74.525; -473.000; -488.000
307.181;  -66.850; -410.000; -332.000
307.319;    4.475;  112.000;   87.000
307.456; -180.650;-1191.000;-1153.000
307.594; -110.025; -980.000; -727.000
307.731;  -25.050; -371.000; -164.000
307.868;    0.150;  -15.000;   20.000
308.006; -144.650; -961.000; -847.000
308.143;  -88.150; -618.000; -330.000
308.281;   86.500;  -37.000; -254.000
308.418;  -44.975; -748.000; -640.000
308.555;  -83.950; -400.000; -250.000
308.693;  -82.075; -577.000; -573.000
308.830; -125.675; -712.000; -657.000
308.967;  -15.050; -215.000;  -95.000
309.105;  -58.425; -507.000; -396.000
309.242;   -5.250; -468.000; -367.000
309.379;  170.525; -577.000; -655.000
309.517;  -90.150; -936.000; -948.000
309.654; -110.775; -910.000; -734.000
309.791;  -86.875; -662.000; -580.000
309.928; -137.125; -977.000; -914.000
310.065;  167.700;  819.000;  697.000
310.203;  -32.425; -825.000; -850.000
310.340;  -32.125; -465.000; -321.000
310.477;  -88.775; -412.000; -516.000
310.614;  -76.500; -383.000; -473.000
310.751;  -90.925; -427.000; -518.000
310.889;  -38.625;    1.000;   11.000
311.026; -168.675;-1161.000; -939.000
311.163;  -54.575; -386.000; -380.000
311.300;  -92.750; -512.000; -479.000
311.437;  -99.900; -658.000; -619.000
311.574; -169.900;-1226.000; -985.000
311.711;  -76.350; -595.000; -433.000
311.848;  -51.400; -380.000; -388.000
311.985;  -13.875;  270.000;   93.000
312.122; -122.850; -932.000; -762.000
312.259; -130.000; -941.000; -994.000
312.396;  -98.675; -508.000; -551.000
312.533; -103.650; -812.000; -790.000
312.670; -139.375;-1070.000; -898.000
312.807;  -57.375; -352.000; -367.000
312.944;  -90.475; -513.000; -611.000
313.081;  -53.750; -150.000; -415.000
313.218; -114.950;-1111.000; -867.000
313.355;  -27.575; -531.000; -449.000
313.492;  -10.275; -455.000; -292.000
313.629;  106.450;  815.000;  735.000
313.766; -175.950;-1176.000;-1008.000
313.902;  -20.375; -186.000;   21.000
314.039;  -58.925; -372.000; -289.000
314.176;   24.325;  286.000;  192.000
314.313;  -68.625; -569.000; -473.000
314.450;  -97.100; -788.000; -684.000
314.587;  -67.375; -468.000; -480.000
314.723;   -9.725;  -78.000;  130.000
314.860;   10.350;  318.000;  332.000
314.997;   23.400;  223.000;  142.000
315.134;  -54.700; -385.000; -368.000
315.270;  -46.725; -480.000; -496.000
315.407; -155.550;-1094.000; -967.000
315.544;  -63.325; -657.000; -538.000
315.681;  -76.625; -681.000; -565.000
315.817;    7.725; -133.000; -176.000
315.954;   -2.925; -613.000; -392.000
316.091; -137.050;-1045.000;-1023.000
316.227;  -20.575;  -71.000; -179.000
316.364;  -11.175;   23.000;    6.000
316.500;  -55.025; -113.000; -300.000
316.637;  -50.875; -181.000; -302.000
316.774; -103.325; -625.000; -358.000
316.910; -105.375; -598.000; -629.000
317.047;  -78.975; -487.000; -351.000
317.183;  -57.100; -435.000; -566.000
317.320;   -8.850; -367.000; -321.000
317.456;  -78.650; -733.000; -805.000
317.593;  -98.550; -598.000; -641.000
317.729;  -14.125;  168.000;  -67.000
317.866; -213.850;-1434.000;-1285.000
318.002;  -96.700; -708.000; -948.000
318.139; -125.475; -883.000; -867.000
318.275; -116.650;-1003.000; -738.000
318.412;  -60.800; -517.000; -336.000
318.548;  -41.550; -751.000; -720.000
318.685; -120.150; -985.000; -888.000
318.821; -100.450; -762.000; -735.000
318.957;  -36.900;   34.000;  -23.000
319.094;   24.150;  297.000;  154.000
319.230;  -86.550; -756.000; -742.000
319.367;   87.775; -471.000; -520.000
319.503;   21.475; -538.000; -436.000
319.639; -108.175; -877.000; -793.000
319.775;  -74.200; -750.000; -685.000
319.912;  -57.025; -424.000; -519.000
320.048; -107.050;-1184.000;-1184.000
320.184;   64.700;   59.000;   70.000
320.321;  -77.575; -497.000; -467.000
320.457;   56.650;  475.000;  662.000
320.593;  -79.850; -375.000; -382.000
320.729; -113.550; -732.000; -734.000
320.866;  -85.900; -577.000; -635.000
321.002;  -92.125; -759.000; -809.000
321.138;  -19.500; -135.000; -211.000
321.274;   54.525; -148.000; -115.000
321.410;  -32.100; -585.000; -353.000
321.546;  -68.000;-1011.000; -911.000
321.683;   25.200;  400.000;  185.000
321.819;  -14.825;  -48.000; -117.000
321.955; -122.650; -743.000; -722.000
322.091;  -60.225; -585.000; -540.000
322.227;  -32.000; -382.000; -202.000
322.363;  -38.050; -320.000; -215.000
322.499;  -59.575; -343.000; -331.000
322.635;  141.350;  636.000;  443.000
322.771;    0.375; -139.000;   12.000
322.907;   81.375;  129.000;  327.000
323.043;  -41.775; -115.000; -206.000
323.179;  -55.675; -394.000; -363.000
323.315;   -9.500; -401.000; -371.000
323.451;   52.175; -328.000; -236.000
323.587;   36.400;  -60.000;  -77.000
323.723;  -19.900; -682.000; -601.000
323.859;  -18.650; -258.000;  -76.000
323.995;  -42.500; -467.000; -409.000
324.131; -128.550; -967.000; -892.000
324.267;  -56.200; -254.000; -276.000
324.402; -150.175; -960.000; -983.000
324.538;  -33.075; -279.000; -104.000
324.674;   -5.525;  164.000;   77.000
324.810;   89.250;  226.000;  308.000
324.946;  -24.700; -810.000; -658.000
325.082;  -70.900; -568.000; -475.000
325.217;  -26.575;  -62.000;   16.000
325.353; -117.075; -764.000; -659.000
325.489;  -98.800; -540.000; -506.000
325.625;  -83.875; -579.000; -525.000
325.760;   46.125;  517.000;  376.000
325.896;  -19.025; -515.000; -702.000
326.032;  -54.525; -403.000; -352.000
326.168;  -72.375; -462.000; -369.000
326.303;  -63.375; -352.000; -461.000
326.439;  -33.325; -336.000; -276.000
326.575;   -5.575; -190.000;  -29.000
326.710;  -13.375; -156.000;  -30.000
326.846;  -13.375;  146.000;  103.000
326.982; -109.275; -530.000; -548.000
327.117;  -85.250; -481.000; -442.000
327.253;  -93.125; -745.000; -742.000
327.388; -144.275;-1137.000;-1153.000
327.524;  -79.600; -811.000; -578.000
327.659;  -35.125;  -58.000;  -22.000
327.795;  -26.400;   69.000;   45.000
327.931;  -83.525; -723.000; -499.000
328.066;  -39.750; -417.000; -276.000
328.202;  -28.225;   12.000; -129.000
328.337;   96.250;  957.000;  713.000
328.473;   29.650;  -12.000;  -74.000
328.608;  -26.225; -256.000; -267.000
328.743; -110.500; -799.000; -664.000
328.879;    6.700;  214.000;  114.000
329.014;  -35.900; -102.000; -122.000
329.150;  -90.175; -358.000; -483.000
329.285;  -92.850; -465.000; -466.000
329.421;  -63.325; -548.000; -246.000
329.556;  -19.400;  -36.000;   85.000
329.691; -116.575; -633.000; -615.000
329.827;  -81.000; -626.000; -480.000
329.962;  -52.575;  131.000; -301.000
330.097; -104.125; -673.000; -585.000
330.233;  -34.625; -410.000; -223.000
330.368; -135.900; -839.000; -628.000
330.503;  -12.025;    3.000;   98.000
330.638;  -19.500;  -93.000; -125.000
330.774;  -75.950; -609.000; -530.000
330.909;  -58.975; -434.000; -244.000
331.044; -118.000; -714.000; -708.000
331.179; -187.675;-1217.000;-1109.000
331.315;    6.550;   77.000;   20.000
331.450;   13.300;  157.000;  285.000
331.585; -105.325; -805.000; -706.000
331.720;  -93.600; -510.000; -460.000
331.855;  -15.275;  -35.000; -102.000
331.990;  243.525;   62.000;  138.000
332.126;  128.500; -110.000;   71.000
332.261;  -36.450; -379.000; -265.000
332.396;    0.250; -135.000; -242.000
332.531; -113.425;-1074.000;-1031.000
332.666;   28.700; -519.000; -363.000
332.801; -117.075; -726.000; -807.000
332.936;  -26.950; -192.000; -122.000
333.071; -142.650; -870.000; -817.000
333.206;    4.750;  307.000;  379.000
333.341;   19.325;  344.000;  418.000
333.476;  -91.125; -627.000; -623.000
333.611;  -40.225; -251.000; -173.000
333.746;  -69.975; -381.000; -464.000
333.881; -133.450; -973.000; -935.000
334.016; -133.625; -936.000; -917.000
334.151; -128.475; -746.000; -702.000
334.286;    7.700;  152.000;  186.000
334.421;  -18.100; -125.000; -178.000
334.556;  -89.525; -611.000; -567.000
334.690; -103.200; -631.000; -577.000
334.825;   44.900;  381.000;   83.000
334.960;  -79.400; -285.000; -413.000
335.095;    2.225;  135.000;  -91.000
335.230; -121.675; -722.000; -738.000
335.365; -163.550;-1084.000; -990.000
335.499; -162.225;-1108.000;-1037.000
335.634;   17.975;    9.000;  534.000
335.769; -115.025; -755.000; -720.000
335.904;  -78.750; -603.000; -561.000
336.038;  -72.000; -735.000; -657.000
336.173; -138.100;-1206.000;-1194.000
336.308;  -13.125; -116.000; -189.000
336.443;   13.000; -544.000; -634.000
336.577;  -97.375; -936.000; -787.000
336.712;   45.925;   -4.000;  -12.000
336.847;  -52.875; -724.000; -607.000
336.981;   22.975; -272.000; -208.000
337.116;  243.350;  615.000;  501.000
337.250;  110.425; -434.000; -421.000
337.385;  265.425; -297.000; -208.000
337.520;   71.575; -632.000; -603.000
337.654;  -40.900; -215.000; -126.000
337.789; -157.175; -989.000; -933.000
337.923;  -48.075; -104.000; -205.000
338.058;  -97.950; -673.000; -738.000
338.192;  -56.125; -611.000; -488.000
338.327;  -15.125;  -18.000; -155.000
338.461;  -77.600; -299.000; -469.000
338.596; -112.875; -780.000; -638.000
338.730; -110.875; -767.000; -803.000
338.865;   70.300;  -46.000; -140.000
338.999;  -48.625; -846.000; -702.000
339.134;  -25.050; -634.000; -536.000
339.268;   -0.625; -741.000; -603.000
339.403;  353.775; -740.000; -775.000
339.537;  127.325; -894.000; -820.000
339.671; -119.875; -829.000; -813.000
339.806;  -65.325; -556.000; -512.000
339.940;  -18.175; -261.000; -235.000
340.074; -104.975; -685.000; -510.000
340.209;  -64.775; -351.000; -230.000
340.343; -101.800; -517.000; -573.000
340.477;  147.750;  998.000; 1036.000
340.612;  -68.575;-1033.000; -900.000
340.746;  125.975; -199.000; -243.000
340.880;  -87.050; -924.000; -785.000
341.014;  -20.825;  -45.000; -154.000
341.149; -120.500; -756.000; -718.000
341.283; -118.025; -839.000; -754.000
341.417; -122.350;-1124.000; -938.000
341.551;   82.775; -768.000; -708.000
341.685;  -45.950; -633.000; -611.000
341.820;  -67.725; -562.000; -493.000
341.954;  -64.850; -218.000; -349.000
342.088; -168.500;-1102.000;-1019.000
342.222;   45.825;  565.000;  618.000
342.356;  -84.275; -395.000; -335.000
342.490; -110.525; -880.000; -841.000
342.624;  -54.225; -339.000; -242.000
342.758;  -21.200; -364.000; -312.000
342.892;  -95.875; -710.000; -585.000
343.026;  -35.200;  -58.000; -116.000
343.160;  -55.875; -426.000; -376.000
343.294;  -95.425; -474.000; -337.000
343.428;  -33.450; -488.000; -448.000
343.562;  -30.650; -172.000;  -23.000
343.696;  -39.850; -385.000; -314.000
343.830;  -28.800; -362.000; -356.000
343.964;   -1.775; -231.000; -168.000
344.098;  741.675;  199.000;   70.000
344.232;  625.050; -266.000; -127.000
344.366;   46.275; -567.000; -453.000
344.500;   13.750; -665.000; -744.000
344.634;   -0.525; -324.000; -164.000
344.768;  -26.100; -531.000; -341.000
344.902;   13.725;  278.000;  256.000
345.035;  -77.325; -556.000; -496.000
345.169; -145.300; -933.000; -656.000
345.303;  -41.350; -308.000; -482.000
345.437;  -90.425; -826.000; -717.000
345.571;  -85.075; -675.000; -594.000
345.704;  -73.375; -309.000; -532.000
345.838;  -24.775; -331.000; -284.000
345.972;  -58.475; -543.000; -495.000
346.106;  150.250; -179.000; -190.000
346.239;  380.400; -312.000; -243.000
346.373;   -7.125; -343.000; -302.000
346.507; -160.825; -950.000; -962.000
346.640;  101.500;  -30.000;   13.000
346.774;  -74.450; -650.000; -797.000
346.908;  -16.450; -138.000;  -11.000
347.041; -113.625; -646.000; -593.000
347.175;   -7.775;  259.000;   27.000
347.309;  -86.500; -698.000; -628.000
347.442; -116.050; -883.000; -732.000
347.576;  229.325;  670.000;  668.000
347.709;  140.450; -123.000;  -52.000
347.843; -121.125; -933.000; -825.000
347.976;   22.675;  235.000;  294.000
348.110; -190.950;-1268.000;-1186.000
348.243; -114.250; -679.000; -772.000
348.377;    6.100;  -26.000;   60.000
348.510;   44.350;  403.000;  540.000
348.644;  -45.925;  -37.000; -159.000
348.777;   -4.625;  180.000;  191.000
348.911;  -48.350; -142.000; -112.000
349.044;  137.900;  471.000;  448.000
349.178;   95.825;-1069.000;-1006.000
349.311;  114.775;  141.000;  255.000
349.444;  -14.425; -927.000; -813.000
349.578;  -37.825; -347.000; -200.000
349.711; -116.375; -959.000; -862.000
349.845;  -19.700; -661.000; -591.000
349.978; -157.525;-1224.000;-1137.000
350.111;  -87.000; -546.000; -612.000
350.244;  -83.650; -596.000; -700.000
350.378;  -26.400; -392.000; -393.000
350.511;  -78.500; -393.000; -426.000
350.644; -112.425; -808.000; -806.000
350.778;    2.475;  168.000;  104.000
350.911;   -5.775;  134.000;  140.000
351.044; -105.900; -685.000; -615.000
351.177;  -53.650; -321.000; -281.000
351.310;  -23.025;    3.000; -131.000
351.444;  -94.275; -888.000; -788.000
351.577;   85.575;  140.000;   90.000
351.710;   82.300;  593.000;  417.000
351.843;  -53.400; -165.000;  -77.000
351.976;  -11.500;  149.000;  -79.000
352.109; -103.750; -621.000; -612.000
352.242;  -55.650; -464.000; -419.000
352.376;  -73.575; -580.000; -636.000
352.509;  124.525; -437.000; -356.000
352.642;  -36.350; -654.000; -604.000
352.775;   41.450; -141.000;  -98.000
352.908; -129.400; -933.000; -904.000
353.041; -122.200; -814.000; -824.000
353.174;  -83.800; -551.000; -424.000
353.307; -101.300; -753.000; -764.000
353.440;   58.550;  541.000;  453.000
353.573; -132.400; -957.000;-1008.000
353.706;  -94.325; -384.000; -558.000
353.839;  -24.500; -264.000; -220.000
353.971; -105.825; -657.000; -512.000
354.104; -110.600; -896.000; -835.000
354.237;  -60.150; -627.000; -662.000
354.370; -105.300; -846.000; -879.000
354.503; -203.325;-1231.000;-1308.000
354.636;  -57.750; -529.000; -348.000
354.769; -133.775; -937.000; -860.000
354.902;  -19.150; -230.000; -139.000
355.034;  -34.000; -164.000; -220.000
355.167;  -21.675; -262.000; -162.000
355.300; -108.925;-1061.000; -880.000
355.433;  975.200;  -71.000;  -14.000
355.565; 1529.350; -402.000; -384.000
355.698;  387.550; -356.000; -296.000
355.831;  -28.475; -882.000; -801.000
355.964;   60.775; -285.000; -170.000
356.096;  -97.200; -856.000; -843.000
356.229;  -29.875; -523.000; -530.000
356.362;  316.300; -373.000; -266.000
356.494;  598.025; -229.000; -162.000
356.627;  409.825;  269.000;  377.000
356.760;  661.275;  120.000;   53.000
356.892;  982.575; -286.000; -601.000
357.025;  564.700;  403.000;  389.000
357.157;  473.400; -167.000; -179.000
357.290;  713.400; -856.000; -713.000
357.423;  206.575; -667.000; -556.000
357.555;   80.875; -217.000; -228.000
357.688;   88.575; -483.000; -364.000
357.820;  357.400; -870.000; -877.000
357.953; 3215.250; -563.000; -589.000
358.085;  630.675; -632.000; -612.000
358.218;  811.575;-1131.000; -932.000
358.350;  139.075;  -58.000;  312.000
358.483; -145.525;-1300.000;-1187.000
358.615;  -59.600;-1182.000;-1078.000
358.747;  -92.875;-1187.000;-1058.000
358.880;  -16.750; -810.000; -744.000
359.012;  -15.750; -376.000; -202.000
359.145;  -52.675; -480.000; -511.000
359.277;   27.675; -962.000; -913.000
359.409; 2663.250;  536.000;  231.000
359.542;  671.450; -738.000; -688.000
359.674;   43.650;   46.000;   13.000
359.806;  -71.750; -565.000; -438.000
359.939;  -55.850; -617.000; -516.000
360.071;  -17.525; -583.000; -579.000
360.203;  -26.300; -411.000; -364.000
360.335;   38.325;  164.000;  -16.000
360.468;  141.250; -249.000; -307.000
360.600; 2190.575; -547.000; -454.000
360.732; 2922.850; -546.000; -423.000
360.864;  372.475;-1216.000;-1044.000
360.996;  190.975; -516.000; -554.000
361.129;   16.125; -389.000; -598.000
361.261;    7.850;  110.000; -113.000
361.393;  -52.250; -252.000; -214.000
361.525;   15.400;   94.000;  244.000
361.657;  -66.800; -821.000; -703.000
361.789;    9.100; -139.000; -155.000
361.921;  151.400; -642.000; -593.000
362.053;  189.125;  524.000;  541.000
362.185;   34.825;  288.000;   72.000
362.318;  -89.875; -709.000; -705.000
362.450;   77.275;  294.000;  444.000
362.582;   15.650; -913.000; -870.000
362.714;  -58.550; -353.000; -332.000
362.846; -106.125; -606.000; -490.000
362.978; -136.175; -941.000; -811.000
363.109;   18.775; -161.000; -260.000
363.241;  322.825; -739.000; -749.000
363.373;  409.300; -649.000; -564.000
363.505;  686.225; -186.000;  -91.000
363.637;  141.500; -787.000; -601.000
363.769; -149.125;-1067.000;-1080.000
363.901;  -78.025; -596.000; -654.000
364.033; -148.775;-1103.000;-1062.000
364.165;  -12.050; -283.000; -283.000
364.296;   59.175; -316.000; -177.000
364.428;   47.050;-1344.000;-1220.000
364.560;  -86.050; -679.000; -661.000
364.692;  -70.375; -738.000; -835.000
364.824;  166.250; -588.000; -456.000
364.955;  404.350; -402.000; -564.000
365.087; 1005.525;-1097.000; -852.000
365.219;   16.950; -686.000; -816.000
365.351;  -90.650; -526.000; -572.000
365.482;   38.000;  300.000;  240.000
365.614;  -51.225; -402.000; -314.000
365.746; -109.075; -729.000; -752.000
365.877; -102.925; -706.000; -672.000
366.009;  256.400;  -35.000;  -62.000
366.141;  -96.500;-1249.000;-1134.000
366.272; -130.050; -803.000; -719.000
366.404; -121.650;-1005.000; -874.000
366.535;  -27.400; -139.000;  -12.000
366.667; -118.625; -644.000; -649.000
366.799;   25.525;  353.000;  203.000
366.930; -129.525; -862.000; -996.000
367.062;  113.350; -639.000; -613.000
367.193;  149.600; -872.000; -842.000
367.325;  -61.550; -580.000; -684.000
367.456;   19.100; -246.000;   31.000
367.588;  153.475; -371.000; -318.000
367.719;   14.100;  -44.000;  -45.000
367.851;  -38.775; -222.000; -241.000
367.982;  -80.150; -875.000; -732.000
368.113;   67.675; -475.000; -358.000
368.245; -140.400; -960.000; -841.000
368.376;  -38.700; -254.000; -302.000
368.508;  -48.275; -188.000; -263.000
368.639; -142.050;-1166.000;-1034.000
368.770;  -55.225; -670.000; -589.000
368.902;  -87.350; -836.000; -926.000
369.033; -133.275; -906.000; -855.000
369.164;  -65.950; -720.000; -653.000
369.296; -122.650; -452.000; -601.000
369.427;  -29.575; -209.000; -144.000
369.558;  -70.525; -593.000; -377.000
369.689; -101.000; -721.000; -569.000
369.821; -147.275; -951.000; -845.000
369.952;  -20.450;   42.000; -108.000
370.083;  -47.475; -229.000; -108.000
370.214; -104.500; -735.000; -650.000
370.345;  -20.600;   65.000;   81.000
370.477; -108.300; -810.000; -790.000
370.608;  178.150; -328.000; -264.000
370.739;  -85.050;-1233.000;-1292.000
370.870;  -71.025;-1102.000; -923.000
371.001;   51.350; -378.000; -467.000
371.132;  -96.325; -754.000; -735.000
371.263;  -39.225;  -42.000; -148.000
371.394; -145.800; -841.000; -748.000
371.525;   -0.125;  345.000;  225.000
371.657; -108.325; -808.000; -670.000
371.788;   48.800;  103.000;  199.000
371.919;  106.725; -384.000; -304.000
372.050; 3080.050;  -91.000; -156.000
372.181;  876.550; -188.000; -294.000
372.311;  284.175;   42.000; -127.000
372.442;    5.475; -457.000; -451.000
372.573;  -42.975; -444.000; -340.000
372.704; -149.750;-1008.000; -980.000
372.835;   45.800; -228.000; -289.000
372.966;  -82.075; -646.000; -554.000
373.097;  -92.950; -575.000; -711.000
373.228;  -67.500; -717.000; -542.000
373.359;   71.000; -824.000; -536.000
373.490;  723.850; -881.000; -727.000
373.620;  895.725;-1001.000; -803.000
373.751; 1442.725; -332.000; -396.000
373.882;  611.575; -663.000; -733.000
374.013;   26.575; -449.000; -262.000
374.143;  -76.875; -581.000; -659.000
374.274; -124.700; -987.000; -908.000
374.405;  134.825; -388.000; -276.000
374.536;  335.800; -526.000; -387.000
374.666;  860.725; -759.000; -807.000
374.797;  128.800; -817.000; -868.000
374.928;  657.300; -710.000; -560.000
375.058;  692.500; -535.000; -500.000
375.189;   29.375;  -59.000;  -93.000
375.320; -121.175; -928.000;-1034.000
375.450;  -74.650; -625.000; -616.000
375.581;  -69.775; -526.000; -436.000
375.712;  -46.000; -574.000; -250.000
375.842;  205.900; -438.000; -415.000
375.973;  134.075; -554.000; -513.000
376.103;  -72.050; -665.000; -648.000
376.234;  -99.450; -531.000; -552.000
376.364;  -67.200; -944.000; -867.000
376.495;  273.650;  925.000;  529.000
376.625;  -36.025; -472.000; -485.000
376.756;   13.100; -709.000; -678.000
376.886; -104.900;-1178.000;-1026.000
377.017;   50.875;-1048.000;-1061.000
377.147;  345.725; -786.000; -782.000
377.278;   44.025;  174.000;  228.000
377.408; -133.475; -801.000; -815.000
377.538; -122.650; -707.000; -693.000
377.669;  -90.025; -537.000; -613.000
377.799;  -93.275; -645.000; -635.000
377.929;  -81.425; -610.000; -428.000
378.060; -137.100; -781.000; -847.000
378.190;  -62.325; -726.000; -531.000
378.320;  -57.025; -401.000; -406.000
378.451;  -24.250; -131.000;  -22.000
378.581;  -15.700;  -67.000; -110.000
378.711;  129.650; 1035.000;  866.000
378.841;  -38.625; -533.000; -675.000
378.972;  -98.950; -871.000; -751.000
379.102;  -31.425; -652.000; -579.000
379.232;  -37.425; -126.000;  -73.000
379.362; -121.225;-1001.000; -885.000
379.492;  -24.075; -373.000; -424.000
379.623;   68.925;    0.000;  111.000
379.753; -113.300;-1107.000; -974.000
379.883;  165.125;   59.000;  156.000
380.013;  -22.125;-1081.000;-1017.000
380.143; -132.200;-1097.000;-1056.000
380.273; -122.850; -985.000; -861.000
380.403;  -13.700; -344.000; -257.000
380.533;  -55.500; -651.000; -664.000
380.663;   47.625;  173.000;  128.000
380.793; -124.975;-1027.000;-1074.000
380.923;  -39.600; -103.000;  -34.000
381.053;  -98.700; -613.000; -623.000
381.183;  -44.975; -106.000; -248.000
381.313;    4.350; -656.000; -470.000
381.443;   -1.700; -692.000; -473.000
381.573;  122.725; -402.000; -409.000
381.703;  156.700;-1249.000;-1095.000
381.833; -157.550;-1454.000;-1336.000
381.963;   73.550; -134.000;  -87.000
382.093; 1178.050; -925.000; -909.000
382.223;  344.650; -713.000; -602.000
382.353;  -50.700; -801.000; -608.000
382.482;  262.725;-1091.000; -964.000
382.612;  631.425; -872.000; -644.000
382.742;  331.825; -695.000; -622.000
382.872;  168.600; -565.000; -551.000
383.002;   41.725;  347.000; -132.000
383.131;  -33.425; -226.000; -160.000
383.261;  -56.750; -706.000; -768.000
383.391;  264.250; -552.000; -377.000
383.521; 3405.000;  451.000;  263.000
383.650;  798.425; -947.000; -904.000
383.780;  -34.375; -783.000; -656.000
383.910;   98.725;  880.000;  802.000
384.039;  -26.925; -794.000; -656.000
384.169;  109.800;-1205.000;-1017.000
384.299;  -50.125; -650.000; -662.000
384.428; -113.550; -764.000; -680.000
384.558;  -64.025; -308.000; -275.000
384.687;  -63.750; -414.000; -334.000
384.817;   -5.650;   75.000;   -2.000
384.947;    1.250; -234.000; -141.000
385.076;  236.275;  982.000;  912.000
385.206;   75.500;  369.000;  480.000
385.335;  -44.300; -549.000; -417.000
385.465; -102.725; -655.000; -663.000
385.594;   88.900;  -53.000;  -44.000
385.724;  294.775; -868.000; -838.000
385.853;   73.075; -296.000; -270.000
385.982; 1101.200; -743.000; -787.000
386.112; 1732.425;-1052.000; -871.000
386.241;   86.375; -307.000; -312.000
386.371;   -6.450; -174.000;  -87.000
386.500;  -33.175; -825.000; -789.000
386.629;   -5.100; -874.000; -817.000
386.759;   47.275;  -43.000;   68.000
386.888;  -34.425; -170.000; -250.000
387.017;  -97.925; -648.000; -620.000
387.147; -108.525; -771.000; -798.000
387.276;  -37.475; -410.000; -397.000
387.405;  -14.200; -398.000; -342.000
387.535;  -62.075; -452.000; -361.000
387.664;  -74.475; -692.000; -620.000
387.793;   36.575; -198.000; -113.000
387.922;  403.300;  255.000;  200.000
388.052;  -20.450; -576.000; -423.000
388.181;  -32.175; -342.000; -472.000
388.310;  -46.050; -889.000; -710.000
388.439;  -68.875; -749.000; -742.000
388.568;  152.375;  365.000;  244.000
388.697;  823.125; -756.000; -653.000
388.826;  147.950; -768.000; -666.000
388.956;   25.975; -285.000; -307.000
389.085;  -54.500; -347.000; -287.000
389.214; -125.325; -842.000; -872.000
389.343;  -85.400; -645.000; -413.000
389.472;  397.000;  126.000;  149.000
389.601;  490.275;   91.000;    0.000
389.730;  -16.575; -568.000; -687.000
389.859;   38.275;  226.000;   46.000
389.988;  133.525; -423.000; -408.000
390.117;   93.850; -168.000; -146.000
390.246;  -39.950; -331.000; -320.000
390.375;   44.450; -673.000; -626.000
390.504;  -93.575; -703.000; -621.000
390.633; -117.175; -672.000; -726.000
390.761;  -86.800; -732.000; -645.000
390.890;  -11.975;   -4.000; -130.000
391.019;  -58.475; -421.000; -441.000
391.148; -147.550; -826.000; -855.000
391.277;  -88.600; -576.000; -493.000
391.406; -112.650; -821.000; -805.000
391.534;    9.250;  574.000; -301.000
391.663;  -80.625; -583.000; -645.000
391.792; -116.375; -673.000; -701.000
391.921;   48.075;   -3.000;   15.000
392.050;  124.900; -287.000; -228.000
392.178;  -89.075;-1206.000;-1061.000
392.307;   86.275; -758.000; -712.000
392.436;   27.100; -427.000; -641.000
392.564;    3.100;  166.000;   -6.000
392.693; -106.875; -860.000; -682.000
392.822;  134.675; -529.000; -534.000
392.950;   40.575; -880.000; -714.000
393.079;  246.800; -188.000; -328.000
393.208;  -12.625; -488.000; -511.000
393.336;  -34.000; -170.000; -145.000
393.465;  -73.975; -317.000; -199.000
393.593;   -2.425;   62.000;   79.000
393.722; -169.050;-1121.000; -916.000
393.850;  -48.775; -188.000;  -61.000
393.979; -171.050; -926.000; -805.000
394.107;  -79.400; -517.000; -537.000
394.236;  -49.375; -570.000; -507.000
394.364;  149.475;  383.000;  206.000
394.493;  202.175; -911.000; -767.000
394.621;  -58.450; -955.000; -916.000
394.750;  730.775; -873.000; -923.000
394.878; 3063.800; -247.000; -149.000
395.007; 4108.400; -721.000; -807.000
395.135;  294.275; -790.000; -721.000
395.263;  -89.850;-1038.000;-1040.000
395.392;  -13.950;  -25.000; -107.000
395.520; -148.750; -818.000; -679.000
395.648; -109.850; -865.000; -915.000
395.777;  -33.775; -366.000; -405.000
395.905;  -81.800; -449.000; -564.000
396.033;   -4.700;  217.000;  172.000
396.162;  342.200; -399.000; -453.000
396.290;  305.125;  -17.000;   -2.000
396.418;   32.225; -555.000; -514.000
396.546;  -82.850; -571.000; -466.000
396.674; -118.425; -850.000; -878.000
396.803;   -6.225;  -72.000;  -23.000
396.931;   47.925; -179.000; -199.000
397.059;  -20.250;-1026.000; -989.000
397.187; -132.550;-1026.000; -975.000
397.315; -147.125; -884.000; -649.000
397.443;  -99.350; -592.000; -443.000
397.572; -114.250; -578.000; -424.000
397.700;  -50.800; -607.000; -614.000
397.828;  -17.400;  120.000;  -90.000
397.956;  -76.125; -508.000; -478.000
398.084;  -62.800; -767.000; -626.000
398.212;   12.525;  137.000;  124.000
398.340;  -14.425;  -56.000;  159.000
398.468;    3.575; -390.000; -169.000
398.596; -148.925; -993.000; -953.000
398.724; -128.125; -762.000; -767.000
398.852; -168.350;-1024.000; -976.000
398.980;  -86.250; -560.000; -560.000
399.108;  -82.275; -982.000; -735.000
399.236;    6.450;   13.000;    8.000
399.363;    2.100;  222.000;  196.000
399.491;  -83.075; -404.000; -398.000
399.619; -133.750; -829.000; -800.000
399.747; -120.850; -859.000; -771.000
399.875;   48.525;  220.000;  234.000
400.003;  -63.000; -359.000; -284.000
400.130;  -92.350; -421.000; -341.000
400.258;  -39.625;  -83.000;   38.000
400.386;  -84.400; -352.000; -168.000
400.514;  -72.800; -526.000; -587.000
400.641; -108.250; -928.000; -802.000
400.769; -152.700; -979.000; -888.000
400.897; -131.200; -838.000; -793.000
401.025;  -31.700; -166.000; -152.000
401.152;   -9.700;  220.000;   38.000
401.280; -100.100; -430.000; -429.000
401.408; -131.150; -712.000; -576.000
401.535; -127.525; -735.000; -758.000
401.663; -207.475;-1134.000;-1054.000
401.790;  -92.050; -514.000; -525.000
401.918;   42.550;  436.000;  405.000
402.046;  -23.725;  134.000;  122.000
402.173;  -52.150;  -18.000;    7.000
402.301;  -87.825; -519.000; -397.000
402.428;   23.100;  528.000;  383.000
402.556; -166.825;-1188.000; -913.000
402.683;  -41.000;  -20.000;   -1.000
402.811;  -36.375;  -37.000; -206.000
402.938;  -27.700;   20.000;   27.000
403.066;  138.325; -574.000; -558.000
403.193;  271.000;  299.000;  239.000
403.321;  187.825; -396.000; -574.000
403.448;  243.425;   83.000;   27.000
403.575;  109.675;  -90.000;  -46.000
403.703;  -97.100; -732.000; -557.000
403.830;  -70.375; -531.000; -496.000
403.957; -160.200;-1117.000;-1023.000
404.085;   -0.425;  -61.000; -172.000
404.212;   98.250;  -50.000;   63.000
404.339;  255.650; -566.000; -306.000
404.467; 6021.725; -612.000; -524.000
404.594; 3650.675; -287.000; -227.000
404.721;  782.225; -869.000; -764.000
404.848;   59.875; -113.000; -202.000
404.976; -113.250; -856.000; -783.000
405.103;  -21.800;  -14.000;  -82.000
405.230;  -28.125;  190.000;  226.000
405.357;   -0.950;  117.000;   44.000
405.484;  260.175;  -49.000;    5.000
405.612;   40.050; -548.000; -563.000
405.739;  -70.075; -488.000; -243.000
405.866;   59.350;  669.000;  385.000
405.993;  -58.675; -398.000; -102.000
406.120; -146.700; -801.000; -887.000
406.247;  -66.200; -323.000; -342.000
406.374;  352.000;  540.000;  629.000
406.501;   33.825; -632.000; -702.000
406.628;  -91.325; -621.000; -589.000
406.755; -125.275; -803.000; -620.000
406.882;  -61.450; -228.000; -277.000
407.009; -108.025; -719.000; -628.000
407.136;    1.725; -480.000; -401.000
407.263;   44.600; -939.000; -829.000
407.390; -107.600; -692.000; -614.000
407.517; -186.225;-1139.000;-1187.000
407.644;  -86.275; -332.000; -256.000
407.771;  -73.525; -249.000; -287.000
407.898;   -5.450;  168.000;  328.000
408.025;  -82.700; -421.000; -313.000
408.151;  -24.175;   82.000;  153.000
408.278;  -67.875; -267.000; -216.000
408.405; -136.150; -931.000; -899.000
408.532;  -94.825; -549.000; -542.000
408.659; -141.600; -677.000; -648.000
408.785; -208.975;-1298.000;-1170.000
408.912;  -81.300; -412.000; -296.000
409.039; -138.200; -610.000; -686.000
409.166; -110.150; -591.000; -555.000
409.292; -124.575; -571.000; -534.000
409.419; -145.750; -665.000; -649.000
409.546;  -96.475; -431.000; -192.000
409.672; -126.200; -713.000; -545.000
409.799;  -41.550;  -36.000;   34.000
409.926;  -55.325; -180.000; -179.000
410.052; -187.500;-1127.000;-1091.000
410.179;  -73.100; -368.000; -392.000
410.305;  -96.150; -375.000; -493.000
410.432;  -55.450; -220.000; -333.000
410.558;  -96.775; -305.000; -380.000
410.685; -116.950; -688.000; -431.000
410.812; -120.775; -409.000; -588.000
410.938; -149.825; -964.000; -808.000
411.065; -110.775; -671.000; -645.000
411.191;  -32.825; -189.000; -174.000
411.317; -131.050; -823.000; -742.000
411.444;  -82.950; -317.000; -246.000
411.570;  -82.375; -339.000; -294.000
411.697; -151.950; -758.000; -752.000
411.823; -192.100; -989.000; -999.000
411.949;  -50.900;  -56.000;   17.000
412.076; -114.125; -539.000; -519.000
412.202; -138.325; -758.000; -757.000
412.329; -146.275; -798.000; -752.000
412.455; -142.800; -821.000; -657.000
412.581;  -19.850;  -15.000;  172.000
412.707;  -94.825; -540.000; -457.000
412.834;    4.850;  156.000;  219.000
412.960; -102.825; -785.000; -784.000
413.086; -115.875; -743.000; -701.000
413.212;  126.025;  604.000;  578.000
413.339;  -93.075; -685.000; -701.000
413.465;  -17.525; -364.000; -310.000
413.591; -114.475; -757.000; -474.000
413.717;  -61.275; -358.000; -366.000
413.843; -149.625; -839.000; -861.000
413.969;  -65.775;  -47.000; -292.000
414.096; -116.975; -679.000; -679.000
414.222;  -25.050;  -33.000;   85.000
414.348;  -59.800; -652.000; -385.000
414.474;   71.075;   38.000;  -52.000
414.600;  -29.550; -126.000; -144.000
414.726;  -12.150;  -96.000;  -55.000
414.852;  -79.425; -365.000; -342.000
414.978;   15.050;  104.000;  -18.000
415.104;   40.825;   38.000;   80.000
415.230;   11.650; -329.000; -330.000
415.356;   21.725; -409.000; -514.000
415.482;  172.925;   13.000;  -35.000
415.608;  255.250; -247.000; -323.000
415.734;  997.550;   67.000;   38.000
415.860;20610.750; -875.000; -767.000
415.986;14424.800; -685.000; -607.000
416.111; 1213.400; -798.000; -652.000
416.237;  250.225; -424.000; -571.000
416.363; 1206.350; -765.000; -733.000
416.489; 4331.725; -324.000; -251.000
416.615;  433.100; -707.000; -742.000
416.741;  -34.875; -677.000; -784.000
416.866;  -93.200; -673.000; -736.000
416.992; -126.800; -801.000; -818.000
417.118;  -39.675;  -41.000;  -80.000
417.244;  -81.325; -798.000; -531.000
417.369;  -98.100; -801.000; -612.000
417.495;  -35.775; -325.000; -254.000
417.621; -106.100;-1015.000; -803.000
417.746;  -11.575; -579.000; -572.000
417.872;   44.275; -254.000; -144.000
417.998;   39.600; -515.000; -530.000
418.123; 1097.875;-1073.000; -845.000
418.249; 5574.075; -512.000; -601.000
418.374;  737.200; -916.000; -824.000
418.500;   93.650; -383.000; -482.000
418.626;  111.825;   70.000;  -59.000
418.751;   89.725; -549.000; -448.000
418.877;  172.800; -637.000; -643.000
419.002; 1918.100; -688.000; -560.000
419.128;13121.600; -930.000; -721.000
419.253; 3096.850; -967.000; -837.000
419.379;  394.375; -391.000; -338.000
419.504;  380.700;  325.000;  415.000
419.629;  519.775; -393.000; -212.000
419.755; 3914.375; -317.000; -254.000
419.880;22350.400;  -98.000;   67.000
420.006;11942.450; -280.000; -221.000
420.131;30142.650; -662.000; -775.000
420.256; 4188.975; -315.000; -316.000
420.382;  552.275; -665.000; -687.000
420.507;   57.850; -649.000; -778.000
420.632;   85.000; -337.000; -339.000
420.758;  161.125; -251.000; -425.000
420.883;  -92.850; -876.000; -672.000
421.008; -118.375; -775.000; -619.000
421.133;  -85.150; -509.000; -467.000
421.259;  -69.150; -325.000; -259.000
421.384; -125.850; -834.000; -693.000
421.509;  -83.750;-1052.000; -862.000
421.634;  854.850; -936.000; -820.000
421.759;  351.950; -359.000; -327.000
421.885;  -79.175; -717.000; -656.000
422.010;  -98.225; -673.000; -542.000
422.135; -156.525; -695.000; -727.000
422.260;   32.475;  340.000;  280.000
422.385;  -50.975;   12.000;  -98.000
422.510;  -10.075;  151.000;  -26.000
422.635;   -1.250;  -87.000;  -43.000
422.760;   51.600; -766.000; -791.000
422.885;   38.525;  -57.000;  -80.000
423.010;  -41.550; -112.000; -169.000
423.135;  -90.875; -481.000; -561.000
423.260;  -43.625; -150.000; -245.000
423.385;   38.525;  476.000;  222.000
423.510;   12.025;   71.000;  -22.000
423.635;   43.500;  133.000;   45.000
423.760;   39.150;  383.000;  328.000
423.885;   44.325;  336.000;  391.000
424.010;   -8.925;  -68.000;  -13.000
424.135;  -44.475;    5.000;  -33.000
424.259; -106.425; -654.000; -457.000
424.384;  -72.900; -279.000; -272.000
424.509;  -44.925; -260.000; -186.000
424.634; -109.525; -761.000; -623.000
424.759;  -43.750; -688.000; -544.000
424.883;  -47.925; -506.000; -527.000
425.008;  142.725; -502.000; -410.000
425.133; 2057.800; -679.000; -653.000
425.258;  930.075; -517.000; -381.000
425.382;  886.775; -867.000; -774.000
425.507; 2188.800; -487.000; -543.000
425.632;  363.850; -802.000; -663.000
425.756;  455.875; -256.000; -146.000
425.881; 7197.775; -831.000; -857.000
426.006;18906.225; -604.000; -355.000
426.130; 2802.125; -696.000; -508.000
426.255;  347.775; -611.000; -491.000
426.379;  151.675; -189.000; -577.000
426.504;  357.300;  660.000;  544.000
426.629; 4173.250; -519.000; -466.000
426.753; 2750.500;   64.000;  -46.000
426.878;  304.025; -252.000; -288.000
427.002;  186.925; -651.000; -668.000
427.127; 1652.075;  -35.000; -158.000
427.251;11959.375;  372.000;  401.000
427.375; 3235.750; -191.000; -173.000
427.500; 1998.475; -616.000; -610.000
427.624;  623.650; -234.000; -400.000
427.749;   58.725; -216.000; -225.000
427.873;  -55.850; -499.000; -412.000
427.997;  -48.775; -222.000; -230.000
428.122;   68.850;  795.000;  703.000
428.246;   55.775;  433.000;  434.000
428.371; -145.125; -869.000; -773.000
428.495; -123.675; -624.000; -646.000
428.619;  -41.575; -186.000; -117.000
428.743;   12.950;   65.000;  132.000
428.868;  -37.000; -732.000; -643.000
428.992; 1153.025; -219.000; -326.000
429.116;  431.750; -329.000; -357.000
429.240;  200.500;  419.000;  426.000
429.365;  -49.925; -454.000; -574.000
429.489;  -70.450; -638.000; -647.000
429.613;   -1.725; -236.000; -177.000
429.737;    9.300; -563.000; -432.000
429.861;  257.725; -247.000; -133.000
429.985; 5829.475; -425.000; -305.000
430.109; 6216.275; -770.000; -908.000
430.234;  663.425;   76.000;  -50.000
430.358;   64.825; -250.000; -160.000
430.482;  -76.800; -672.000; -564.000
430.606;  -81.225; -655.000; -375.000
430.730;  -32.600; -437.000; -388.000
430.854;   43.675; -909.000; -835.000
430.978; -106.300; -795.000; -764.000
431.102;  -84.050; -499.000; -422.000
431.226; -141.850; -874.000; -815.000
431.350;    6.850;  345.000;  422.000
431.474;  -95.650; -661.000; -373.000
431.597; -172.125;-1060.000; -848.000
431.721;  -97.575; -276.000; -267.000
431.845; -145.150; -704.000; -472.000
431.969;  -90.025; -304.000; -349.000
432.093; -105.550; -395.000; -317.000
432.217;  -24.425;   32.000;   82.000
432.341;  -97.275; -523.000; -518.000
432.464;  -22.400;   96.000;   40.000
432.588;  126.925; -401.000; -329.000
432.712;   43.875;  -52.000;  -52.000
432.836;   35.225;  213.000;  263.000
432.959;  -29.125; -372.000; -311.000
433.083;   77.000;   11.000;    2.000
433.207;  379.750;  285.000;  930.000
433.330; 5409.050; -391.000; -200.000
433.454; 6406.650; -654.000; -638.000
433.578; 3711.625;  583.000;  278.000
433.701;  645.150; -623.000; -675.000
433.825;   98.050; -292.000; -299.000
433.949;   94.350;   28.000;  -72.000
434.072;    0.050; -410.000; -323.000
434.196;  -35.375; -309.000; -117.000
434.319; 3763.025;25482.000;25124.000
434.443;  708.450; -656.000; -603.000
434.566; 2722.350;  281.000;   62.000
434.690;  441.125; -637.000; -383.000
434.813;   30.775; -251.000; -173.000
434.937; -106.850; -569.000; -696.000
435.060;  -71.600; -423.000; -332.000
435.184;  184.275; -492.000; -217.000
435.307;  106.500;  159.000;  102.000
435.431;  -38.625;  -40.000;   24.000
435.554;  -78.675; -399.000; -240.000
435.677; -105.975; -350.000; -258.000
435.801;  -58.775;  -25.000;   49.000
435.924;  -34.300;    1.000;  -67.000
436.048; -147.775;-1019.000; -732.000
436.171;  -84.775; -240.000;  -66.000
436.294;  -27.275; -248.000; -229.000
436.417;   99.275; -963.000; -849.000
436.541;  -91.750; -814.000; -840.000
436.664;  -67.550; -242.000; -316.000
436.787;  -50.200;   13.000;  113.000
436.910; -134.000; -792.000; -422.000
437.034;  -11.175;  142.000;  143.000
437.157;   19.025;  -11.000;    0.000
437.280;  -77.725; -392.000; -292.000
437.403; -126.525; -982.000; -869.000
437.526;  419.925; -903.000; -865.000
437.649; 1632.175; -505.000; -332.000
437.772;  180.475; -692.000; -540.000
437.896;   94.775;  700.000;  544.000
438.019; -126.200; -758.000; -503.000
438.142; -108.350; -596.000; -506.000
438.265;  -66.200; -639.000; -670.000
438.388;  376.600; -520.000; -410.000
438.511;   29.150; -597.000; -394.000
438.634;  -71.900; -247.000; -125.000
438.757; -152.300; -693.000; -619.000
438.880;  -34.875;  -34.000;  -57.000
439.003;  -99.825; -417.000; -437.000
439.126;  -78.875; -287.000; -167.000
439.248;  -67.525;  -98.000; -139.000
439.371;  -52.450;    9.000;  -53.000
439.494;   24.675;  510.000;  439.000
439.617;  -70.275;   65.000;  -88.000
439.740; -187.625; -968.000; -816.000
439.863; -149.300; -755.000; -595.000
439.986; -146.375; -476.000; -431.000
440.108;  -61.925; -161.000; -112.000
440.231; -179.850; -950.000; -836.000
440.354;  -62.275;  -64.000; -150.000
440.477;  -13.700; -566.000; -542.000
440.599;  -50.275; -200.000; -225.000
440.722; -133.475; -709.000; -586.000
440.845;   52.300;  751.000;  928.000
440.968; -120.325; -415.000; -311.000
441.090;  -79.925; -199.000;  -33.000
441.213; -180.600;-1021.000; -825.000
441.336;  -52.575; -159.000;   -5.000
441.458;  -85.500; -549.000; -396.000
441.581; -107.600; -628.000; -629.000
441.703;  -79.325; -152.000;   13.000
441.826; -122.200; -557.000; -400.000
441.948;  -54.300;   56.000;   51.000
442.071;    2.600;  555.000;  424.000
442.193; -122.200; -531.000; -485.000
442.316;    0.025;  152.000;   97.000
442.438;   28.175; -233.000;  -10.000
442.561;   43.250;  272.000;  262.000
442.683;  348.050; -809.000; -522.000
442.806;  849.725;   -8.000;   74.000
442.928;  -48.750; -859.000; -604.000
443.051;  -79.875; -577.000; -373.000
443.173; -109.625; -341.000; -339.000
443.295;  -98.450; -263.000; -371.000
443.418;  -89.100; -321.000;  -29.000
443.540;  -21.375; -106.000;   -4.000
443.662; -142.050; -563.000; -465.000
443.785;  -36.775;  335.000;  199.000
443.907; -123.750; -362.000; -208.000
444.029; -150.375; -767.000; -494.000
444.152; -147.425; -644.000; -554.000
444.274;  -49.975;  -18.000;  -24.000
444.396; -114.700; -461.000; -221.000
444.518; -139.875; -691.000; -454.000
444.640; -116.050; -268.000; -111.000
444.763;  -30.950;  388.000;  249.000
444.885; -129.500; -432.000; -392.000
445.007;  -40.700;   35.000;   86.000
445.129; -136.325; -610.000; -515.000
445.251; -109.775; -372.000; -439.000
445.373; -151.275; -537.000; -386.000
445.495;  -11.575;  242.000;  350.000
445.617;   41.950;  853.000;  753.000
445.739;  -74.050; -215.000;  -97.000
445.861;  -48.450; -245.000; -112.000
445.984;  -60.525; -267.000; -101.000
446.105;  136.075; -418.000; -251.000
446.227;  449.075; -176.000;  -19.000
446.349;  -40.350; -358.000; -249.000
446.471; -112.350; -615.000; -448.000
446.593;  -90.125; -316.000;   19.000
446.715;  -14.300;  -67.000;   41.000
446.837;   46.700;  697.000;  832.000
446.959; -113.950; -457.000; -478.000
447.081; -143.675; -628.000; -518.000
447.203;   43.375;  862.000;  834.000
447.325;  -90.875; -270.000;   42.000
447.446;  -24.425;  286.000;  530.000
447.568; -173.125; -921.000; -803.000
447.690;  -84.525; -236.000; -245.000
447.812; -160.875; -798.000; -519.000
447.933;  -30.050;  155.000;  127.000
448.055;  -78.775; -306.000; -261.000
448.177;   90.575;   31.000;   79.000
448.299;   10.975; -935.000; -727.000
448.420;   -7.050;  -25.000;  159.000
448.542;  -52.875;   -3.000;   33.000
448.664;  -31.250;  109.000;  322.000
448.785;  -44.825;  265.000;   83.000
448.907; -114.300; -614.000; -353.000
449.028;  -51.675; -771.000; -471.000
449.150;   44.100;  492.000;  589.000
449.272; -178.700;-1044.000; -913.000
449.393;    1.325;  612.000;  694.000
449.515; -154.100; -634.000; -581.000
449.636;  -73.750; -264.000; -155.000
449.758;   48.325;  763.000;  622.000
449.879; -102.650; -498.000; -396.000
450.001;  -88.075; -149.000;  -49.000
450.122;  -55.175;  -95.000;  162.000
450.244;  -30.300;   37.000;  364.000
450.365;  -83.025; -495.000; -301.000
450.486;  -21.100;   80.000;  268.000
450.608;   20.650;  393.000;  326.000
450.729;   58.950;  578.000;  645.000
450.850;   14.725; -574.000; -466.000
450.972;  821.925; -552.000; -389.000
451.093; 5231.150;  190.000;  588.000
451.214; 2183.400; -516.000; -337.000
451.336;  403.600;  773.000;  579.000
451.457;   48.825;  264.000;  393.000
451.578;  -43.800; -118.000;  -74.000
451.699; -127.275; -546.000; -540.000
451.821;  -74.950; -284.000;  -50.000
451.942;  -15.050;  278.000;  285.000
452.063;   33.075;  228.000;  419.000
452.184;  576.500;  -54.000;  -49.000
452.305; 1118.375;  103.000;  170.000
452.427;  121.300; -549.000; -301.000
452.548;  -38.475;   23.000;   79.000
452.669;  -69.175; -257.000;  -89.000
452.790;  -50.325;    3.000;  -18.000
452.911;  -15.100;  195.000;  259.000
453.032;  -79.725; -289.000;  -60.000
453.153;  -52.325;  -29.000;   81.000
453.274;   46.625;  737.000;  868.000
453.395;  -55.425;  -51.000;  175.000
453.516;   92.150; 1317.000; 1388.000
453.637;  -98.225; -205.000; -150.000
453.758;  -81.475;   15.000;   69.000
453.879; -127.475; -462.000; -250.000
454.000;   75.950; 1086.000;  948.000
454.121; -130.825; -554.000; -326.000
454.242; -129.725; -599.000; -383.000
454.362;  -72.875;  -99.000;  114.000
454.483;  -47.800; -309.000; -229.000
454.604;   34.550;  512.000;  580.000
454.725; -147.775; -627.000; -555.000
454.846; -131.300; -474.000; -406.000
454.967;  -32.750;  230.000;  539.000
455.087;  -63.775;  179.000;  153.000
455.208;    5.350;  554.000;  856.000
455.329;  -59.350;  -22.000;   82.000
455.450;   39.650;  473.000;  633.000
455.570;  -88.825; -234.000; -211.000
455.691;  -68.325;  201.000;  407.000
455.812; -116.050; -270.000;  -92.000
455.932;  -74.000;  107.000;  -97.000
456.053;  -86.700;   36.000;   24.000
456.173; -117.700; -433.000; -355.000
456.294; -137.500; -476.000; -303.000
456.415;  -74.775;  -73.000;   70.000
456.535;  -38.725;  297.000;  273.000
456.656;  -58.500;  132.000;  240.000
456.776;  -79.650;    3.000;  298.000
456.897;  -22.025;  308.000;  513.000
457.017;  -95.375; -153.000;   -3.000
457.138; -119.700; -402.000; -249.000
457.258;  -40.425;  263.000;  224.000
457.379;  -30.825;  509.000;  521.000
457.499;  -26.600;  443.000;  432.000
457.620; -146.775; -407.000; -231.000
457.740; -101.200; -132.000;  -11.000
457.860;  -58.175;   87.000;   44.000
457.981;  -60.100;  132.000;  124.000
458.101;  -84.900;  -89.000;   40.000
458.221;  -24.175;  336.000;  402.000
458.342;  -76.250;   -4.000;  -37.000
458.462;   17.550;  617.000;  352.000
458.582;  -36.550; -302.000; -294.000
458.703;    8.125;  303.000;  154.000
458.823;  -37.975;   22.000;  163.000
458.943;   19.300;  341.000;  467.000
459.063;  -12.800; 1124.000;  192.000
459.183;  -37.525;  328.000;  313.000
459.304;  -11.975;  315.000;  517.000
459.424;  -73.775; -246.000;  -89.000
459.544;  340.675;  388.000;  764.000
459.664;  856.025;  499.000;  506.000
459.784;  304.875; 1004.000; 1175.000
459.904;   45.500;  867.000;  744.000
460.024;   61.925;  867.000;  684.000
460.144;   -5.750;  449.000;  554.000
460.264;  -18.725;  515.000;  327.000
460.385; -110.725; -145.000; -119.000
460.505;   16.450;  905.000;  858.000
460.625; -106.425;  -17.000;  -68.000
460.745;  -26.875;  396.000;  541.000
460.864;  -52.700;  153.000;  469.000
460.984;    2.475;  499.000;  573.000
461.104;  140.100; 1656.000; 1775.000
461.224;    8.950;  657.000;  650.000
461.344;  -42.575;  431.000;  360.000
461.464;  -63.000;  258.000;  513.000
461.584;  -24.850;  283.000;  466.000
461.704;  -72.150;   58.000;  108.000
461.824;  -56.500;  238.000;  259.000
461.943;  -62.700;  191.000;  130.000
462.063;  -86.275;    2.000;  324.000
462.183;   22.675;  639.000;  717.000
462.303;   75.300; 1678.000; 1230.000
462.422;    7.425;  781.000;  840.000
462.542;  -39.225;  271.000;  391.000
462.662;   20.825;  353.000;  380.000
462.782;  249.925;  833.000;  572.000
462.901;  488.350;  545.000;  717.000
463.021;  268.000; 1702.000; 1638.000
463.141;  -12.875;  337.000;  770.000
463.260;  -18.400;  614.000;  474.000
463.380;    3.275;  902.000;  884.000
463.499;  -51.250;  342.000;  332.000
463.619;  -34.625;  581.000;  559.000
463.738;  100.675; 1644.000;  903.000
463.858;  -11.425;  657.000;  811.000
463.978;  -40.950;  542.000;  396.000
464.097;   54.175;  921.000; 1114.000
464.217;  123.450; 1196.000; 1143.000
464.336;   95.700; 1068.000; 1130.000
464.455;  -53.950;  328.000;  659.000
464.575;   10.625;  597.000;  602.000
464.694;  139.575; 1204.000; 1179.000
464.814;  112.250; 1190.000; 1138.000
464.933;   62.700; 1095.000; 1027.000
465.052;   84.175; 1412.000; 1054.000
465.172;   66.650;  922.000;  799.000
465.291;  111.250; 1376.000; 1320.000
465.410;    2.450;  462.000;  735.000
465.530;   73.150; 1355.000; 1310.000
465.649;   54.975; 1209.000; 1273.000
465.768;  133.825; 1673.000; 1508.000
465.888;   39.150;  941.000; 1174.000
466.007;   85.850; 1335.000; 1440.000
466.126;   -6.025;  721.000;  641.000
466.245;   30.200; 1176.000; 1187.000
466.364;   18.400;  950.000; 1060.000
466.484;   46.000; 1024.000; 1213.000
466.603;   13.875; 1101.000; 1222.000
466.722;   99.075; 1490.000; 1769.000
466.841;   41.475; 1151.000; 1401.000
466.960;   22.875; 1069.000;  972.000
467.079;  128.675; 1971.000; 1786.000
467.198;   37.300; 1238.000; 1181.000
467.317;   86.125; 1768.000; 1162.000
467.436;   64.575; 1709.000; 1261.000
467.555;  102.675; 1796.000; 1746.000
467.674;   47.875; 1227.000; 1329.000
467.793;   51.450; 1376.000; 1374.000
467.912;   81.075; 1658.000; 1539.000
468.031;  132.075; 2038.000; 1930.000
468.150;  127.425; 1842.000; 1837.000
468.269;  173.375; 2313.000; 2090.000
468.388;  171.900; 2168.000; 2339.000
468.507;  253.950; 2884.000; 2903.000
468.626;  227.700; 2555.000; 2541.000
468.744;  119.600; 2018.000; 2174.000
468.863;  183.975; 2312.000; 2523.000
468.982;   77.600; 1503.000; 1555.000
469.101;  207.850; 2788.000; 2692.000
469.220;  141.475; 2333.000; 2176.000
469.338;  232.100; 2935.000; 3051.000
469.457;  185.225; 2719.000; 2545.000
469.576;  365.175; 3953.000; 3784.000
469.695;  224.250; 2877.000; 3066.000
469.813;  411.700; 4148.000; 4192.000
469.932;  398.350; 4255.000; 4485.000
470.051;  399.125; 4075.000; 4161.000
470.169;  876.025; 4470.000; 4338.000
470.288; 1512.475; 4700.000; 4809.000
470.406;  871.525; 5059.000; 5194.000
470.525;  647.075; 6101.000; 5787.000
470.644;  652.950; 6847.000; 6794.000
470.762;  807.550; 8397.000; 7873.000
470.881;  916.750; 8651.000; 8464.000
470.999; 1038.800; 9685.000; 9151.000
471.118; 1103.125;11174.000;10711.000

