
Integration time [ms]: 100.000
Averaging Nr. [scans]: 40
Smoothing Nr. [pixels]: 0
Data measured with spectrometer [name]: 2101012U2
Wave   ;Sample   ;Dark     ;Reference
[nm]   ;[counts] ;[counts] ;[counts] 

197.733;   40.975;  516.000;  404.000
197.879;  -81.375; -610.000; -634.000
198.025;  -41.850; -475.000; -420.000
198.171;  -58.275; -602.000; -612.000
198.317;  -34.950; -401.000; -316.000
198.463;  -65.250; -655.000; -404.000
198.609;   35.175;  181.000; -137.000
198.755;  -71.125; -644.000; -410.000
198.901;  -66.900; -505.000; -424.000
199.047;  -55.000; -615.000; -488.000
199.193;  -31.325; -230.000; -468.000
199.339;  -43.975; -222.000; -369.000
199.485;   46.975;  330.000;  271.000
199.631;   24.975;  227.000;  310.000
199.777;  -56.425; -466.000; -398.000
199.923;  -66.775; -610.000; -424.000
200.069;  -14.100; -141.000;  -58.000
200.215;   72.025;  128.000;  453.000
200.361;   36.850;  243.000;  477.000
200.507;  -57.500; -600.000; -373.000
200.653;  -28.875; -371.000; -194.000
200.798;  -37.275; -215.000; -125.000
200.944;   -6.550; -146.000;  -41.000
201.090;   36.825;   61.000;  222.000
201.236;   -3.575; -116.000; -158.000
201.382;  120.125;  874.000;  903.000
201.528;    4.875;  -58.000;  -48.000
201.674;  -57.825; -386.000; -293.000
201.819;  -58.850; -540.000; -439.000
201.965;  -76.650; -699.000; -447.000
202.111;  -15.750; -273.000; -226.000
202.257;  -37.350; -250.000; -238.000
202.402;    8.700;   13.000;  -36.000
202.548;  -23.800; -169.000; -116.000
202.694;   94.825;  410.000; -183.000
202.840;  -73.875; -603.000; -531.000
202.985;  -77.850; -681.000; -639.000
203.131; -103.725; -832.000; -666.000
203.277;  -20.975; -199.000; -262.000
203.423;  -62.575; -434.000; -520.000
203.568;  -44.475; -462.000; -237.000
203.714;  -57.925; -535.000; -542.000
203.860;  -76.650; -682.000; -641.000
204.005;   16.600;  112.000;  167.000
204.151;   69.750;  561.000;  556.000
204.296;  -44.575; -354.000; -221.000
204.442;  -65.350; -600.000; -547.000
204.588;  -62.450; -592.000; -579.000
204.733;   18.750;  178.000;  168.000
204.879; -127.825;-1018.000; -822.000
205.025;    8.375;  -99.000;  126.000
205.170;    2.850;  -17.000;   94.000
205.316;   70.775;  438.000;  661.000
205.461;  -83.475; -698.000; -554.000
205.607;   79.100;  609.000;  665.000
205.752;  -71.075; -626.000; -551.000
205.898;  -49.975; -501.000; -391.000
206.043;  -55.200; -578.000; -506.000
206.189;  -42.650; -243.000; -285.000
206.334;   85.325;  554.000;  606.000
206.480;   95.950;  409.000;  239.000
206.625;  -79.200; -529.000; -552.000
206.771;  -48.450; -451.000; -373.000
206.916;  -32.875; -210.000; -537.000
207.062;  -65.875; -545.000; -591.000
207.207;  -61.300; -546.000; -443.000
207.353;   60.825;  185.000;  460.000
207.498;   16.450;  196.000;   85.000
207.643;  -50.600; -501.000; -370.000
207.789; -123.025;-1069.000; -910.000
207.934;  -93.375; -665.000; -713.000
208.080;  -18.300; -154.000;   66.000
208.225;   -7.175;  -22.000;  -57.000
208.370;  -89.175; -727.000; -619.000
208.516;  -79.150; -741.000; -487.000
208.661;  -32.125; -127.000;  -69.000
208.806;  -26.150; -165.000; -171.000
208.952; -123.875;-1044.000; -731.000
209.097;   64.550;  378.000;  349.000
209.242;  -34.225; -307.000; -382.000
209.387;   66.375;  392.000;  350.000
209.533;  -62.975; -321.000; -350.000
209.678;   82.850;  472.000;  543.000
209.823;  -54.125; -408.000; -310.000
209.969;  -98.575; -860.000; -757.000
210.114; -104.250; -907.000; -719.000
210.259; -115.375; -939.000; -889.000
210.404;    2.275; -171.000;  103.000
210.549;   15.400;  108.000;    3.000
210.695;  -18.650;   -3.000;  -95.000
210.840;   22.050;   94.000;   67.000
210.985;  -49.525; -484.000; -303.000
211.130;   63.525;  268.000;  406.000
211.275;   19.075;  207.000;  199.000
211.420;  -46.200; -300.000; -289.000
211.566;  -72.325; -536.000; -489.000
211.711;    7.100;  218.000;  157.000
211.856;  -64.875; -545.000; -519.000
212.001;   11.375;  151.000;   44.000
212.146;   36.000;  153.000;   49.000
212.291;  -23.325; -210.000; -186.000
212.436;  -22.250; -280.000;   -6.000
212.581;  -89.950; -685.000; -653.000
212.726;  -72.750; -487.000; -538.000
212.871;  -42.625; -552.000; -217.000
213.016; -138.925;-1172.000;-1029.000
213.161;   52.900;  406.000;  291.000
213.306;  -80.225; -435.000; -577.000
213.451; -101.100; -778.000; -689.000
213.596;  -45.675; -455.000; -347.000
213.741;  -52.900; -448.000; -538.000
213.886;  -75.800; -498.000; -517.000
214.031;  -17.625; -294.000; -124.000
214.176;  -56.800; -408.000; -341.000
214.321;  -23.775; -296.000; -157.000
214.466;  -21.550; -163.000;  -43.000
214.611;    4.875;  -61.000;  -10.000
214.756; -119.775; -948.000; -858.000
214.901;  -35.675; -388.000; -226.000
215.046; -111.550; -797.000; -825.000
215.191;   17.400;  128.000;   35.000
215.336;  -15.975; -157.000;  -19.000
215.480;  -85.100; -684.000; -505.000
215.625;  -19.650; -175.000;  -19.000
215.770;  -74.800; -757.000; -662.000
215.915;   -9.000;   -5.000;  -97.000
216.060;    2.675; -113.000;  -21.000
216.205;  -97.300; -731.000; -779.000
216.349;  -77.800; -470.000; -533.000
216.494; -147.525; -939.000; -867.000
216.639; -121.125; -823.000; -888.000
216.784;  -77.700; -577.000; -525.000
216.929;   42.425;  392.000;  281.000
217.073;  -15.275; -244.000;  -31.000
217.218;    1.450;   78.000;  -47.000
217.363;  -86.525; -656.000; -618.000
217.507;  -87.875; -623.000; -588.000
217.652; -129.450; -845.000; -874.000
217.797;  -89.125; -708.000; -659.000
217.942; -107.225; -856.000; -720.000
218.086;   66.425;  608.000;  539.000
218.231;  -25.800; -174.000;  -26.000
218.376;  -28.925; -337.000; -229.000
218.520;   14.375;  -41.000;   96.000
218.665;  -37.750; -338.000; -204.000
218.810;  -38.125; -275.000; -233.000
218.954;   18.425;  201.000;   35.000
219.099; -104.525; -713.000; -963.000
219.243;  -66.375; -589.000; -554.000
219.388;  -17.775; -264.000; -136.000
219.532;  -10.050; -116.000; -116.000
219.677;  -84.875; -564.000; -521.000
219.822;    3.525;   33.000;   89.000
219.966;    0.075;   17.000;  -99.000
220.111;  -37.800; -328.000;  -40.000
220.255;  -98.675; -797.000; -750.000
220.400;  -30.400; -180.000; -146.000
220.544;  -68.925; -516.000; -450.000
220.689;  -63.850; -422.000; -451.000
220.833;  -25.575; -123.000;  -58.000
220.978;  -45.550; -393.000; -563.000
221.122;   23.325;  319.000;  307.000
221.267; -125.225; -906.000; -837.000
221.411;  -70.700; -478.000; -394.000
221.555;  -13.250; -104.000;  -23.000
221.700;  -31.125; -329.000; -222.000
221.844;   40.350;  255.000;  272.000
221.989;  -56.825; -328.000; -311.000
222.133;  -33.550; -289.000; -307.000
222.277;   -8.150;    5.000;   78.000
222.422;    5.600;  227.000;  113.000
222.566;  -34.075; -381.000; -214.000
222.711;  -61.325; -414.000; -479.000
222.855;  -85.675; -643.000; -586.000
222.999;  -86.750; -642.000; -717.000
223.144;  -25.900; -195.000; -194.000
223.288;   63.425;  423.000;  251.000
223.432;   28.975;  184.000;  230.000
223.576;    8.275;  152.000;  -21.000
223.721;   33.000;  364.000;  273.000
223.865;  -68.225; -472.000; -475.000
224.009;  245.150; 1673.000; 1631.000
224.153;  -70.825; -660.000; -671.000
224.298;  -83.100; -531.000; -489.000
224.442;  -18.900;  -74.000;  -33.000
224.586;  -11.225; -169.000; -106.000
224.730;  -99.475; -858.000; -670.000
224.875; -108.575; -739.000; -688.000
225.019;    1.350;  102.000;  188.000
225.163;   58.300;  208.000;  341.000
225.307;   15.375;   97.000;  -91.000
225.451;   50.825;  360.000;  481.000
225.595;   32.225;  264.000;  176.000
225.739;  -12.950; -170.000;  -94.000
225.884;   -0.575;   86.000;    5.000
226.028; -102.500; -760.000; -626.000
226.172;  -36.325; -260.000; -273.000
226.316; -120.650; -941.000; -902.000
226.460;  -73.400; -645.000; -493.000
226.604;  -60.050; -406.000; -400.000
226.748; -104.575; -836.000; -733.000
226.892;  -28.850; -227.000; -181.000
227.036;  -47.850; -537.000; -447.000
227.180;  -63.000; -551.000; -375.000
227.324;  -73.925; -561.000; -580.000
227.468; -126.600; -819.000; -717.000
227.612;    3.600;  242.000;  -28.000
227.756; -101.325; -845.000; -698.000
227.900;   63.225;  342.000;  441.000
228.044;  -71.150; -509.000; -290.000
228.188;   55.625;  448.000;  568.000
228.332;  -80.350; -546.000; -472.000
228.476;  -23.150; -223.000; -149.000
228.620;  -33.750; -210.000; -150.000
228.764;   74.175;  431.000;  349.000
228.908;  -17.750; -155.000;   30.000
229.052;  -75.700; -615.000; -528.000
229.195;  -29.450; -172.000;   13.000
229.339;  -31.875; -235.000; -305.000
229.483;  -20.150;    5.000; -162.000
229.627;    8.750; -156.000;  139.000
229.771;  -52.350; -218.000; -294.000
229.915;   14.275;  230.000;   79.000
230.059; -103.225; -648.000; -663.000
230.202;  -34.250; -370.000; -317.000
230.346;  -10.250; -107.000;  107.000
230.490;  -66.575; -489.000; -521.000
230.634; -111.525; -736.000; -553.000
230.777;   69.750;  478.000;  509.000
230.921;  -49.525; -450.000; -359.000
231.065;  -40.025; -246.000; -286.000
231.209;   31.875;  261.000;  265.000
231.352;   13.450;   54.000;   40.000
231.496;   24.250;  568.000;  188.000
231.640;  -84.900; -693.000; -621.000
231.783;   62.450;  546.000;  525.000
231.927;  -44.425; -294.000; -365.000
232.071; -117.875; -962.000; -736.000
232.214; -110.100; -980.000; -764.000
232.358;  -92.750; -683.000; -599.000
232.502;   -9.275;  -19.000;    7.000
232.645; -133.125;-1090.000; -927.000
232.789;  -19.650; -257.000; -218.000
232.933;  -45.900; -407.000; -224.000
233.076; -125.175;-1038.000; -897.000
233.220; -101.650; -752.000; -777.000
233.363;  -74.800; -669.000; -477.000
233.507;   53.600;  371.000;  129.000
233.650;  -97.300; -764.000; -834.000
233.794;   44.150;  438.000;  461.000
233.938;  -67.550; -530.000; -362.000
234.081;  -31.125;  -93.000;   31.000
234.225;  -68.200; -631.000; -539.000
234.368; -106.450; -773.000; -723.000
234.512;  -39.725; -385.000; -299.000
234.655;  -88.350; -582.000; -555.000
234.798;  -74.025; -493.000; -466.000
234.942; -132.475; -884.000;-1002.000
235.085;  -82.175; -651.000; -443.000
235.229;  -72.550; -405.000; -410.000
235.372;  -58.600; -247.000; -191.000
235.516;  -58.700; -397.000; -321.000
235.659;   16.900;   92.000;  121.000
235.802;  -16.250;  -38.000;  -22.000
235.946;   37.250;  335.000;  215.000
236.089;   26.300;  126.000;  250.000
236.233;   50.400;  275.000;  298.000
236.376;  -42.325; -235.000; -378.000
236.519;  -54.950; -297.000; -319.000
236.663;  -24.150; -215.000; -117.000
236.806; -142.050;-1029.000; -999.000
236.949;   60.175;  543.000;  431.000
237.092;   66.200;  412.000;  391.000
237.236;  -85.450; -589.000; -502.000
237.379;   66.350;  352.000;  428.000
237.522; -121.025; -879.000; -768.000
237.666;  -12.300; -271.000;   18.000
237.809; -118.075; -851.000; -823.000
237.952;   33.875;  469.000;  271.000
238.095;  -62.175; -447.000; -442.000
238.238;   85.575;  688.000;  700.000
238.382;    3.200;  166.000;  103.000
238.525;  -64.675; -598.000; -511.000
238.668; -132.500;-1060.000; -985.000
238.811;  -87.400; -638.000; -643.000
238.954;  -52.775; -483.000; -334.000
239.097;   86.750;  617.000;  664.000
239.241;   14.725;  394.000;  326.000
239.384;  -29.600; -254.000; -214.000
239.527;  -51.400; -424.000; -224.000
239.670; -143.250; -994.000;-1091.000
239.813; -101.475; -696.000; -658.000
239.956;   78.375;  579.000;  473.000
240.099; -103.450; -778.000; -725.000
240.242;   68.750;  428.000;  432.000
240.385;   42.175;  466.000;  450.000
240.528;  -78.875; -706.000; -473.000
240.671;   24.450;  189.000;  134.000
240.814;  -38.200; -441.000; -158.000
240.957; -101.250; -767.000; -578.000
241.100; -103.050; -779.000; -755.000
241.243; -139.750;-1234.000; -893.000
241.386;  -67.850; -508.000; -379.000
241.529;  -98.150; -735.000; -547.000
241.672;  -51.400; -566.000; -495.000
241.815; -110.650; -832.000; -808.000
241.958;  -21.750; -125.000; -182.000
242.101;  -82.825; -545.000; -390.000
242.244;  -34.450; -270.000; -325.000
242.387;  -30.400; -304.000; -246.000
242.530;   56.875;  470.000;  134.000
242.673;  -47.025; -381.000; -309.000
242.815; -121.525; -925.000; -899.000
242.958;  -74.900; -482.000; -381.000
243.101;   13.075;  132.000;  187.000
243.244;  -75.925; -564.000; -521.000
243.387;  -49.475; -313.000; -316.000
243.530;  -95.225; -657.000; -674.000
243.672;    0.275;   43.000;  -92.000
243.815;  -60.875; -355.000; -283.000
243.958;  -12.025;   98.000;  -26.000
244.101;    6.700;   59.000;  -16.000
244.243;  -16.200;  -47.000;  101.000
244.386; -117.225; -761.000; -630.000
244.529;  -31.350; -132.000; -139.000
244.672; -153.825;-1154.000; -951.000
244.814; -101.800; -621.000; -794.000
244.957;  -59.675; -380.000; -304.000
245.100;  -91.450; -489.000; -489.000
245.242;  -52.300; -387.000; -374.000
245.385;  -12.700;  -59.000;  -39.000
245.528; -124.575; -871.000; -705.000
245.670;   96.900;  612.000;  634.000
245.813;  -84.700; -599.000; -547.000
245.956;  -46.475; -324.000; -275.000
246.098;  -63.750; -508.000; -650.000
246.241;    2.800;  194.000;   48.000
246.383;  -14.575; -119.000;  -73.000
246.526;  -78.275; -454.000; -525.000
246.669; -113.725; -889.000; -780.000
246.811;    8.750;  172.000;   -1.000
246.954;  -70.375; -512.000; -426.000
247.096;   -8.700;  -84.000;   -6.000
247.239;  -68.350; -482.000; -445.000
247.381;  -64.625; -647.000; -488.000
247.524;   88.375;  645.000;  679.000
247.666;    0.250;   58.000;   11.000
247.809; -107.950; -887.000; -691.000
247.951;  -14.625;  -75.000;  138.000
248.094;   18.750;  432.000;  308.000
248.236; -165.675;-1262.000;-1238.000
248.378;    4.675; -356.000;  -81.000
248.521;  -22.025; -334.000; -337.000
248.663;  -43.150; -236.000; -267.000
248.806;  -27.750; -300.000; -266.000
248.948; -102.875; -886.000; -763.000
249.090;  -52.500; -428.000; -398.000
249.233;  -52.175; -344.000; -381.000
249.375;  -71.450; -474.000; -451.000
249.518;  -32.625;  -83.000; -133.000
249.660;   -2.075; -103.000;    3.000
249.802; -179.500;-1303.000;-1189.000
249.945;  -75.225; -612.000; -540.000
250.087; -119.275; -834.000; -768.000
250.229;  -63.425; -362.000; -480.000
250.371;  -76.525; -494.000; -439.000
250.514;  -55.650; -310.000; -244.000
250.656;   -4.950;   69.000;  102.000
250.798; -118.850; -849.000; -800.000
250.940;  -72.450; -322.000; -322.000
251.083;  -28.150; -335.000; -111.000
251.225;   54.825;  338.000;  310.000
251.367;  -50.475; -274.000; -373.000
251.509;  -40.325; -265.000; -210.000
251.651;  -97.925; -731.000; -671.000
251.794;   52.700;  538.000;  632.000
251.936; -112.025; -821.000; -747.000
252.078;  -80.925; -540.000; -461.000
252.220;  -71.050; -645.000; -477.000
252.362;   79.600;  344.000;  462.000
252.504;  -73.425; -677.000; -584.000
252.646; -109.050; -875.000; -722.000
252.788;   -5.850;   14.000; -128.000
252.931;  -31.075; -257.000; -253.000
253.073;  -44.850; -376.000; -317.000
253.215;  -10.225;  141.000;  122.000
253.357;  -12.625;   82.000; -153.000
253.499;  -62.675; -374.000; -234.000
253.641;  -89.675; -749.000; -594.000
253.783;  -90.400; -609.000; -527.000
253.925;  -88.275; -586.000; -591.000
254.067; -116.575; -744.000; -667.000
254.209;  -16.750; -391.000; -259.000
254.351; -134.400; -865.000; -883.000
254.493;  -60.275; -441.000; -417.000
254.635; -139.050; -936.000; -818.000
254.777;  -84.450; -752.000; -687.000
254.918;  -67.900; -512.000; -430.000
255.060;  -42.600; -551.000; -395.000
255.202;  -68.675; -473.000; -261.000
255.344;  -73.650; -658.000; -455.000
255.486;  -84.400; -471.000; -406.000
255.628; -101.550; -780.000; -781.000
255.770;  -85.875; -676.000; -536.000
255.912;  -76.250; -559.000; -468.000
256.053;  -98.025; -730.000; -508.000
256.195;  164.000; 1008.000;  903.000
256.337; -101.150; -861.000; -595.000
256.479;   61.600;  532.000;  416.000
256.621;  -41.900; -394.000; -212.000
256.762;  -96.300; -789.000; -742.000
256.904;   49.350;  485.000;  487.000
257.046;  -34.200; -381.000; -271.000
257.188;  -38.875; -351.000; -264.000
257.329;  -83.700; -525.000; -464.000
257.471; -117.350; -939.000; -807.000
257.613;  -74.250; -584.000; -498.000
257.755; -149.025;-1073.000; -982.000
257.896;   21.250;  286.000;  392.000
258.038;  -72.400; -403.000; -352.000
258.180;  -51.050; -354.000; -279.000
258.321;  -84.500; -581.000; -457.000
258.463;    2.000;  -71.000;  133.000
258.605;  -84.725; -562.000; -570.000
258.746; -111.375; -886.000; -772.000
258.888; -169.050;-1026.000;-1020.000
259.029;   10.150;  121.000;   -8.000
259.171;  -83.050; -614.000; -550.000
259.313;    0.075;  -49.000;  -47.000
259.454;  -69.775; -536.000; -414.000
259.596;  -62.075; -483.000; -390.000
259.737;  -90.175; -590.000; -474.000
259.879;   35.050;  217.000;  311.000
260.020;  100.025;  901.000;  636.000
260.162;  -26.500; -146.000; -253.000
260.303; -122.700; -768.000; -687.000
260.445;  -89.500; -609.000; -613.000
260.586;   36.725;  392.000;  157.000
260.728;  -36.075; -360.000; -248.000
260.869;  -68.950; -350.000; -343.000
261.011;   74.350;  706.000;  537.000
261.152;  -71.825; -479.000; -319.000
261.293;  -71.825; -576.000; -595.000
261.435;  -32.525; -219.000; -184.000
261.576;  -62.400; -455.000; -325.000
261.718;   43.050;  420.000;  470.000
261.859; -136.575; -940.000; -949.000
262.000; -141.125; -951.000;-1016.000
262.142;  -32.325;  -52.000;  -60.000
262.283; -106.300; -808.000; -691.000
262.424;  -93.825; -666.000; -625.000
262.566; -154.350;-1161.000; -983.000
262.707; -106.925; -840.000; -830.000
262.848; -115.225; -769.000; -726.000
262.990;  -43.525; -362.000; -345.000
263.131;   73.925;  650.000;  681.000
263.272;  -11.075;  -61.000;  -41.000
263.413;  -92.575; -589.000; -561.000
263.555;  -76.375; -669.000; -143.000
263.696; -100.100; -550.000; -641.000
263.837;  -67.125; -449.000; -551.000
263.978;   -9.075;   -5.000;  -77.000
264.119;  -52.625; -283.000; -264.000
264.261; -108.675; -847.000; -630.000
264.402;  -13.475;   33.000;   40.000
264.543;  -68.200; -509.000; -524.000
264.684;   -9.825;   61.000;  -50.000
264.825;  -86.950; -816.000; -538.000
264.966;   -5.050;  -84.000;  -67.000
265.107; -115.450; -646.000; -670.000
265.248; -121.925; -825.000; -812.000
265.390;  -11.100;  152.000;   -9.000
265.531;  -30.400; -238.000; -107.000
265.672; -103.550; -557.000; -630.000
265.813;   40.875;  563.000;  439.000
265.954; -150.775; -959.000; -940.000
266.095;  -23.425; -372.000; -322.000
266.236;  -98.175; -686.000; -548.000
266.377;  -54.000; -243.000; -297.000
266.518;  -72.175; -619.000; -547.000
266.659;   21.700;  170.000;  268.000
266.800;    6.800;   83.000;   85.000
266.941;  -81.300; -487.000; -478.000
267.082;   31.725;  354.000;   99.000
267.223;  -51.675; -344.000; -273.000
267.364; -121.275; -892.000; -686.000
267.504;  -20.150;    3.000;  135.000
267.645;   -3.950;  160.000;   67.000
267.786;  -23.050; -147.000;  -86.000
267.927;  -83.700; -473.000; -379.000
268.068;   -4.950; -186.000;  -61.000
268.209;  -44.000; -175.000; -413.000
268.350;  -64.625; -388.000; -532.000
268.490;  -85.075; -648.000; -521.000
268.631;   29.250;  127.000;  225.000
268.772; -105.950; -874.000; -647.000
268.913;  -31.525; -328.000; -476.000
269.054;  -24.750; -117.000;   12.000
269.194;  -58.625; -418.000; -402.000
269.335; -162.325;-1137.000;-1074.000
269.476;   -4.475;   33.000;  -35.000
269.617;  -46.175; -347.000; -392.000
269.757;  -84.175; -713.000; -646.000
269.898; -117.075; -856.000; -613.000
270.039;  -53.575; -415.000; -405.000
270.180; -145.250; -952.000; -816.000
270.320;  -27.525; -190.000; -250.000
270.461;  -36.500; -277.000; -249.000
270.602;  -18.225; -186.000; -156.000
270.742; -124.250; -868.000; -943.000
270.883;  -60.525; -442.000; -390.000
271.023;  -47.175; -358.000; -357.000
271.164;  -72.050; -607.000; -528.000
271.305;  -99.725; -666.000; -654.000
271.445;  -94.775; -722.000; -683.000
271.586;  -80.300; -462.000; -283.000
271.726;  -52.150; -397.000; -322.000
271.867;  -65.050; -594.000; -534.000
272.008;  191.950; -473.000; -285.000
272.148;  141.775;  462.000;  468.000
272.289;    4.825; -113.000; -181.000
272.429;   25.925;   19.000;  185.000
272.570;  -99.075; -633.000; -737.000
272.710;  -94.425; -825.000; -775.000
272.851;  -22.800;  113.000; -130.000
272.991; -163.325;-1173.000;-1077.000
273.131;  -63.500; -419.000; -459.000
273.272; -105.450; -683.000; -723.000
273.412;   10.650; -143.000;  -31.000
273.553;  -60.550; -488.000; -507.000
273.693;  134.175;  913.000;  858.000
273.834; -100.100; -894.000; -692.000
273.974;  -91.675; -664.000; -615.000
274.114;  -89.425; -772.000; -560.000
274.255;   81.150;  414.000;  373.000
274.395;    0.925; -180.000; -125.000
274.535;   40.550;  199.000;  350.000
274.676;   24.475;  225.000;   94.000
274.816;   10.625;  110.000;   34.000
274.956;  -87.850; -624.000; -690.000
275.097;  -69.050;-1014.000; -922.000
275.237; -113.700; -913.000; -803.000
275.377; -107.325; -778.000; -689.000
275.517; -151.550; -878.000; -937.000
275.658;  -56.800; -590.000; -555.000
275.798;  -82.525; -606.000; -413.000
275.938;   20.375;  215.000;  323.000
276.078; -107.275; -626.000; -395.000
276.218;    2.925;   99.000;  104.000
276.359; -134.075;-1026.000;-1024.000
276.499;  -82.075; -605.000; -446.000
276.639;  -31.075; -305.000; -151.000
276.779;  -60.225; -475.000; -357.000
276.919; -112.875; -783.000; -624.000
277.059;  -21.825; -261.000; -212.000
277.199;  -45.725; -357.000; -259.000
277.340;   44.150;  287.000;  175.000
277.480; -116.375; -840.000; -693.000
277.620;   18.825;  192.000;   16.000
277.760; -197.900;-1533.000;-1294.000
277.900;    5.300;  113.000;   33.000
278.040;   16.575;  137.000;  159.000
278.180;   31.775;  270.000;  170.000
278.320;   -5.350;   21.000;   56.000
278.460;  -70.875; -443.000; -469.000
278.600;  -84.125; -708.000; -598.000
278.740;   53.150;  448.000;  224.000
278.880;  -63.225; -768.000; -791.000
279.020;  -15.575; -194.000; -144.000
279.160;  -95.800; -672.000; -595.000
279.300; -114.850; -926.000; -873.000
279.440;  -81.275; -709.000; -622.000
279.579;  -23.700;-1014.000; -929.000
279.719;  -31.175; -410.000; -394.000
279.859;   71.050;   -4.000;   41.000
279.999;   13.025; -208.000;  101.000
280.139;  -17.750; -435.000; -387.000
280.279;  -61.525; -708.000; -745.000
280.419;  -13.425; -229.000; -147.000
280.559;  -23.625; -259.000; -180.000
280.698;  -86.800; -790.000; -639.000
280.838;  -98.175; -778.000; -800.000
280.978; -107.775; -846.000; -790.000
281.118; -118.725; -811.000; -704.000
281.257;    5.875;   24.000;    6.000
281.397; -128.475;-1094.000; -960.000
281.537; -102.100; -599.000; -712.000
281.677;  -27.925; -150.000; -101.000
281.816;  -98.500; -700.000; -630.000
281.956;  -24.575; -193.000; -257.000
282.096;  -62.850; -539.000; -396.000
282.235; -110.375; -672.000; -638.000
282.375;  -28.425; -243.000;  -98.000
282.515; -105.725; -715.000; -707.000
282.654;   25.750;   29.000;  106.000
282.794;   38.650;  388.000;  244.000
282.934;  -62.875; -530.000; -491.000
283.073; -144.400;-1030.000; -857.000
283.213;  -55.925; -460.000; -467.000
283.353;  -37.800; -408.000; -349.000
283.492;  -37.350; -264.000; -296.000
283.632;  -54.400; -254.000; -168.000
283.771; -107.075; -859.000; -730.000
283.911;  -52.725; -369.000; -260.000
284.050; -102.900; -794.000; -748.000
284.190; -157.900;-1229.000;-1096.000
284.329; -137.600;-1055.000; -964.000
284.469;  -71.575; -516.000; -591.000
284.608;  -60.775; -559.000; -598.000
284.748;  -81.475; -614.000; -570.000
284.887;   -0.175;  -87.000;  -20.000
285.027; -129.300; -844.000; -892.000
285.166;  -31.475; -192.000; -249.000
285.306;    1.350; -116.000;  -33.000
285.445;  -39.100; -229.000; -343.000
285.584; -102.050; -630.000; -494.000
285.724;  -41.525; -282.000; -322.000
285.863; -116.700; -857.000; -507.000
286.002;  -51.050; -366.000; -276.000
286.142; -119.075; -715.000; -622.000
286.281;  -74.425; -525.000; -493.000
286.420;  -81.750; -554.000; -417.000
286.560;   86.150;  653.000;  623.000
286.699; -143.600; -958.000; -912.000
286.838;  -89.625; -590.000; -591.000
286.978;  -80.750; -533.000; -537.000
287.117; -153.950;-1085.000; -950.000
287.256;  -33.100; -228.000; -211.000
287.395;  -48.575; -197.000; -378.000
287.535;  -51.200; -370.000; -298.000
287.674;  -78.075; -509.000; -484.000
287.813;   55.050;  661.000;  533.000
287.952; -129.350;-1010.000; -871.000
288.091; -150.100;-1049.000; -915.000
288.231;   22.350;   13.000;   15.000
288.370; -168.150;-1217.000;-1200.000
288.509;  -95.100; -728.000; -645.000
288.648;  -88.100; -770.000; -548.000
288.787;  -42.325; -243.000;  -87.000
288.926;  -70.725; -454.000; -475.000
289.065;  106.850;  859.000;  672.000
289.204;  -56.225; -377.000; -217.000
289.344;  -94.725; -791.000; -690.000
289.483;   39.425;  416.000;  304.000
289.622;  -27.325; -291.000; -149.000
289.761;  -31.650; -309.000; -166.000
289.900; -106.625; -785.000; -626.000
290.039;  -19.025;  -12.000;  -95.000
290.178;  -48.500; -274.000; -180.000
290.317;  -76.200; -618.000; -479.000
290.456;  -64.375; -463.000; -451.000
290.595; -144.975; -961.000; -833.000
290.734; -144.125; -904.000; -891.000
290.873;  -65.650; -456.000; -420.000
291.011; -120.300; -833.000; -843.000
291.150; -106.400; -770.000; -682.000
291.289;  -37.800; -343.000; -110.000
291.428;  -91.675; -599.000; -480.000
291.567;  -50.750; -370.000; -442.000
291.706;  -16.025;  109.000;  154.000
291.845;  -95.775; -597.000; -505.000
291.984; -159.050;-1234.000;-1061.000
292.122;   72.900;  602.000;  582.000
292.261;   41.725;  620.000;  463.000
292.400;    3.200; -144.000;  211.000
292.539; -134.850; -959.000; -813.000
292.678;  -36.100; -325.000; -300.000
292.816; -162.000;-1136.000; -965.000
292.955;  -95.550; -844.000; -684.000
293.094;  -20.125; -173.000; -337.000
293.233;  -60.500; -556.000; -400.000
293.371;  -47.600; -225.000;  -84.000
293.510; -107.100; -866.000; -780.000
293.649; -127.400; -959.000; -924.000
293.787;  -55.975;-1083.000;-1012.000
293.926;   -3.250; -113.000;  -32.000
294.065;  -42.425; -379.000; -290.000
294.203;   40.950;  298.000;  406.000
294.342;   16.250;   74.000;  156.000
294.481; 5243.100;51180.000; -836.000
294.619;  -28.700; -425.000; -582.000
294.758; -135.750;-1230.000;-1137.000
294.896;   76.650; -125.000;    5.000
295.035; -119.975;-1040.000;-1006.000
295.174; -129.325;-1082.000; -954.000
295.312;  -43.675; -323.000; -203.000
295.451;   -6.850; -307.000; -428.000
295.589;  -65.425; -389.000; -518.000
295.728;   10.775; -292.000; -165.000
295.866;   -1.975;  -36.000;  -51.000
296.005;  -70.950; -584.000; -341.000
296.143;  -58.700; -558.000; -596.000
296.282; -101.300; -957.000; -881.000
296.420;  -78.475; -657.000; -557.000
296.559;  -97.325; -892.000; -633.000
296.697;   19.125; -847.000; -665.000
296.835;   54.575;-1141.000;-1002.000
296.974;   48.375;  -23.000;   39.000
297.112;    4.725; -443.000; -504.000
297.251;  -84.850; -815.000; -755.000
297.389;   91.200; -576.000; -438.000
297.527;   45.800; -145.000;  -83.000
297.666;  -55.350; -486.000; -438.000
297.804;  -46.275; -404.000; -264.000
297.942;   -9.400; -136.000; -161.000
298.081;    0.700; -183.000;   63.000
298.219;   70.675;  -17.000;  -19.000
298.357;   73.200; -144.000;  -71.000
298.495;   36.175; -810.000; -812.000
298.634;   92.575;  245.000;  219.000
298.772;   53.300; -220.000; -338.000
298.910;  -26.650; -309.000; -182.000
299.048;   -5.325; -130.000; -153.000
299.187;  -32.750; -350.000; -250.000
299.325;   22.975;   52.000;  122.000
299.463;   59.350; -389.000; -299.000
299.601;  110.575; -327.000; -271.000
299.739; -101.250; -908.000; -883.000
299.877;  -87.450; -791.000; -703.000
300.016;  -34.175;-1095.000; -935.000
300.154;  170.000;  -19.000; -161.000
300.292;   61.150; -428.000; -348.000
300.430;   24.375; -408.000; -291.000
300.568; -107.800; -940.000; -874.000
300.706;  -52.300; -366.000; -469.000
300.844;  -63.850;-1108.000; -979.000
300.982;  112.100;  246.000;  282.000
301.120; -110.425; -965.000; -866.000
301.258;  -56.550; -812.000; -705.000
301.396;   35.025;  104.000;  -41.000
301.534;   85.275; -218.000; -293.000
301.672;   -9.625; -664.000; -521.000
301.810;   36.500; -613.000; -545.000
301.948;  126.250;   53.000;  149.000
302.086;  627.600; -250.000;  -32.000
302.224;  966.175; -610.000; -585.000
302.362;   37.175; -558.000; -622.000
302.500;  -26.850; -923.000; -893.000
302.638;  109.875;  128.000;  245.000
302.776;    3.250; -352.000; -408.000
302.913;   36.800;  447.000;  236.000
303.051;  -11.575;  -86.000;  -23.000
303.189;   51.200;   90.000;  118.000
303.327;  -41.475; -341.000; -256.000
303.465;  -82.250; -832.000; -588.000
303.603; -100.975; -805.000; -604.000
303.740;   98.950;  417.000;  241.000
303.878;   22.700; -800.000; -759.000
304.016;  -93.200; -915.000; -790.000
304.154; -127.550;-1123.000;-1152.000
304.291;  -54.250; -505.000; -554.000
304.429;   17.700;  102.000;   74.000
304.567; -123.400; -908.000; -893.000
304.705;  -46.550; -408.000; -515.000
304.842;   97.675; -616.000; -540.000
304.980;   65.000;  215.000;   35.000
305.118;   42.775; -367.000; -365.000
305.255;  -71.550; -945.000; -927.000
305.393;   60.525;  178.000;  239.000
305.531;  -97.625;-1173.000; -956.000
305.668;  -77.600; -663.000; -582.000
305.806;  108.000; -358.000; -439.000
305.943;  107.500; -629.000; -637.000
306.081;   68.525; -378.000; -267.000
306.219; -108.450; -863.000; -748.000
306.356;    3.900;  158.000;   27.000
306.494;   90.925;  981.000;  761.000
306.631;   -1.050;  -11.000;  -55.000
306.769;  -18.825; -613.000; -485.000
306.906;  -17.025; -284.000; -258.000
307.044;  -57.975; -473.000; -488.000
307.181;  -62.225; -410.000; -332.000
307.319;   -6.150;  112.000;   87.000
307.456; -169.775;-1191.000;-1153.000
307.594; -104.650; -980.000; -727.000
307.731;  -27.825; -371.000; -164.000
307.868;   -1.075;  -15.000;   20.000
308.006; -139.875; -961.000; -847.000
308.143;  -92.475; -618.000; -330.000
308.281;  139.600;  -37.000; -254.000
308.418;  -23.875; -748.000; -640.000
308.555;  -69.275; -400.000; -250.000
308.693;  -79.200; -577.000; -573.000
308.830; -111.700; -712.000; -657.000
308.967;  -18.825; -215.000;  -95.000
309.105;  -50.850; -507.000; -396.000
309.242;   19.600; -468.000; -367.000
309.379;  274.625; -577.000; -655.000
309.517;  -77.150; -936.000; -948.000
309.654; -100.125; -910.000; -734.000
309.791;  -68.425; -662.000; -580.000
309.928; -118.125; -977.000; -914.000
310.065;  191.225;  819.000;  697.000
310.203;   -7.475; -825.000; -850.000
310.340;   -7.875; -465.000; -321.000
310.477;  -90.925; -412.000; -516.000
310.614;  -89.825; -383.000; -473.000
310.751;  -77.800; -427.000; -518.000
310.889;  -45.850;    1.000;   11.000
311.026; -162.150;-1161.000; -939.000
311.163;  -52.050; -386.000; -380.000
311.300;  -85.450; -512.000; -479.000
311.437;  -73.200; -658.000; -619.000
311.574; -152.825;-1226.000; -985.000
311.711;  -56.500; -595.000; -433.000
311.848;  -39.850; -380.000; -388.000
311.985;   11.550;  270.000;   93.000
312.122; -117.375; -932.000; -762.000
312.259; -122.800; -941.000; -994.000
312.396;  -82.875; -508.000; -551.000
312.533;  -85.450; -812.000; -790.000
312.670; -129.150;-1070.000; -898.000
312.807;  -44.950; -352.000; -367.000
312.944;  -79.150; -513.000; -611.000
313.081;  -28.500; -150.000; -415.000
313.218; -104.375;-1111.000; -867.000
313.355;   -0.300; -531.000; -449.000
313.492;   -2.075; -455.000; -292.000
313.629;  129.650;  815.000;  735.000
313.766; -156.900;-1176.000;-1008.000
313.902;  -16.175; -186.000;   21.000
314.039;  -56.650; -372.000; -289.000
314.176;   25.600;  286.000;  192.000
314.313;  -79.125; -569.000; -473.000
314.450;  -79.550; -788.000; -684.000
314.587;  -56.600; -468.000; -480.000
314.723;   -1.400;  -78.000;  130.000
314.860;   30.025;  318.000;  332.000
314.997;   25.425;  223.000;  142.000
315.134;  -42.850; -385.000; -368.000
315.270;  -35.250; -480.000; -496.000
315.407; -114.000;-1094.000; -967.000
315.544;  -54.875; -657.000; -538.000
315.681;  -57.275; -681.000; -565.000
315.817;   23.875; -133.000; -176.000
315.954;   17.075; -613.000; -392.000
316.091; -129.550;-1045.000;-1023.000
316.227;  -27.550;  -71.000; -179.000
316.364;    8.950;   23.000;    6.000
316.500;  -53.550; -113.000; -300.000
316.637;  -41.625; -181.000; -302.000
316.774; -100.525; -625.000; -358.000
316.910;  -96.600; -598.000; -629.000
317.047;  -81.325; -487.000; -351.000
317.183;  -48.500; -435.000; -566.000
317.320;   -7.075; -367.000; -321.000
317.456;  -73.450; -733.000; -805.000
317.593;  -93.775; -598.000; -641.000
317.729;    2.025;  168.000;  -67.000
317.866; -193.400;-1434.000;-1285.000
318.002;  -85.925; -708.000; -948.000
318.139;  -98.375; -883.000; -867.000
318.275;  -82.325;-1003.000; -738.000
318.412;  -66.900; -517.000; -336.000
318.548;  -35.525; -751.000; -720.000
318.685;  -89.600; -985.000; -888.000
318.821;  -95.175; -762.000; -735.000
318.957;  -14.025;   34.000;  -23.000
319.094;   36.125;  297.000;  154.000
319.230;  -49.250; -756.000; -742.000
319.367;  136.725; -471.000; -520.000
319.503;   69.875; -538.000; -436.000
319.639; -103.725; -877.000; -793.000
319.775;  -61.700; -750.000; -685.000
319.912;  -66.150; -424.000; -519.000
320.048;  -87.775;-1184.000;-1184.000
320.184;   68.075;   59.000;   70.000
320.321;  -66.000; -497.000; -467.000
320.457;   54.125;  475.000;  662.000
320.593;  -65.550; -375.000; -382.000
320.729; -106.800; -732.000; -734.000
320.866;  -75.625; -577.000; -635.000
321.002;  -69.400; -759.000; -809.000
321.138;  -13.225; -135.000; -211.000
321.274;   56.625; -148.000; -115.000
321.410;  -14.400; -585.000; -353.000
321.546;  -31.950;-1011.000; -911.000
321.683;   69.100;  400.000;  185.000
321.819;   10.225;  -48.000; -117.000
321.955; -110.175; -743.000; -722.000
322.091;  -60.525; -585.000; -540.000
322.227;  -12.900; -382.000; -202.000
322.363;  -22.700; -320.000; -215.000
322.499;  -42.025; -343.000; -331.000
322.635;  163.175;  636.000;  443.000
322.771;   25.100; -139.000;   12.000
322.907;   77.125;  129.000;  327.000
323.043;  -22.175; -115.000; -206.000
323.179;  -39.375; -394.000; -363.000
323.315;   28.275; -401.000; -371.000
323.451;  101.450; -328.000; -236.000
323.587;   44.950;  -60.000;  -77.000
323.723;   23.950; -682.000; -601.000
323.859;  -29.675; -258.000;  -76.000
323.995;  -33.700; -467.000; -409.000
324.131; -125.050; -967.000; -892.000
324.267;  -50.250; -254.000; -276.000
324.402; -130.125; -960.000; -983.000
324.538;  -24.875; -279.000; -104.000
324.674;   20.300;  164.000;   77.000
324.810;  122.725;  226.000;  308.000
324.946;    4.800; -810.000; -658.000
325.082;  -77.325; -568.000; -475.000
325.217;   -5.950;  -62.000;   16.000
325.353; -114.075; -764.000; -659.000
325.489;  -87.675; -540.000; -506.000
325.625;  -66.925; -579.000; -525.000
325.760;   63.525;  517.000;  376.000
325.896;  -41.400; -515.000; -702.000
326.032;  -53.725; -403.000; -352.000
326.168;  -67.325; -462.000; -369.000
326.303;  -66.075; -352.000; -461.000
326.439;  -39.725; -336.000; -276.000
326.575;   -5.750; -190.000;  -29.000
326.710;  -14.325; -156.000;  -30.000
326.846;  -21.800;  146.000;  103.000
326.982;  -88.550; -530.000; -548.000
327.117;  -61.875; -481.000; -442.000
327.253;  -87.525; -745.000; -742.000
327.388; -137.400;-1137.000;-1153.000
327.524;  -49.575; -811.000; -578.000
327.659;  -22.625;  -58.000;  -22.000
327.795;  -18.550;   69.000;   45.000
327.931;  -95.500; -723.000; -499.000
328.066;  -28.775; -417.000; -276.000
328.202;    3.400;   12.000; -129.000
328.337;  102.975;  957.000;  713.000
328.473;   27.975;  -12.000;  -74.000
328.608;  -14.525; -256.000; -267.000
328.743;  -96.975; -799.000; -664.000
328.879;   17.875;  214.000;  114.000
329.014;  -38.725; -102.000; -122.000
329.150;  -92.200; -358.000; -483.000
329.285;  -80.300; -465.000; -466.000
329.421;  -58.600; -548.000; -246.000
329.556;  -30.750;  -36.000;   85.000
329.691;  -95.200; -633.000; -615.000
329.827;  -88.750; -626.000; -480.000
329.962;  -56.350;  131.000; -301.000
330.097;  -91.775; -673.000; -585.000
330.233;  -53.225; -410.000; -223.000
330.368; -139.775; -839.000; -628.000
330.503;  -22.600;    3.000;   98.000
330.638;    3.875;  -93.000; -125.000
330.774;  -69.850; -609.000; -530.000
330.909;  -48.800; -434.000; -244.000
331.044;  -93.500; -714.000; -708.000
331.179; -182.375;-1217.000;-1109.000
331.315;    8.175;   77.000;   20.000
331.450;   13.725;  157.000;  285.000
331.585;  -83.075; -805.000; -706.000
331.720;  -87.275; -510.000; -460.000
331.855;  -18.350;  -35.000; -102.000
331.990;  245.125;   62.000;  138.000
332.126;  132.025; -110.000;   71.000
332.261;  -25.750; -379.000; -265.000
332.396;  -13.575; -135.000; -242.000
332.531;  -97.125;-1074.000;-1031.000
332.666;   38.350; -519.000; -363.000
332.801; -111.525; -726.000; -807.000
332.936;  -31.200; -192.000; -122.000
333.071; -132.050; -870.000; -817.000
333.206;   21.675;  307.000;  379.000
333.341;   23.150;  344.000;  418.000
333.476;  -97.275; -627.000; -623.000
333.611;  -49.375; -251.000; -173.000
333.746;  -51.575; -381.000; -464.000
333.881; -118.325; -973.000; -935.000
334.016; -130.175; -936.000; -917.000
334.151; -116.200; -746.000; -702.000
334.286;   21.325;  152.000;  186.000
334.421;  -17.650; -125.000; -178.000
334.556;  -88.800; -611.000; -567.000
334.690;  -80.325; -631.000; -577.000
334.825;   52.125;  381.000;   83.000
334.960;  -49.275; -285.000; -413.000
335.095;    5.100;  135.000;  -91.000
335.230; -100.325; -722.000; -738.000
335.365; -127.050;-1084.000; -990.000
335.499; -138.825;-1108.000;-1037.000
335.634;   20.750;    9.000;  534.000
335.769; -110.775; -755.000; -720.000
335.904;  -75.375; -603.000; -561.000
336.038;  -49.025; -735.000; -657.000
336.173; -101.000;-1206.000;-1194.000
336.308;    0.025; -116.000; -189.000
336.443;   23.925; -544.000; -634.000
336.577;  -69.925; -936.000; -787.000
336.712;   85.925;   -4.000;  -12.000
336.847;  -48.825; -724.000; -607.000
336.981;   64.150; -272.000; -208.000
337.116;  290.650;  615.000;  501.000
337.250;  155.900; -434.000; -421.000
337.385;  237.850; -297.000; -208.000
337.520;   82.450; -632.000; -603.000
337.654;  -45.525; -215.000; -126.000
337.789; -132.775; -989.000; -933.000
337.923;  -36.250; -104.000; -205.000
338.058;  -82.075; -673.000; -738.000
338.192;  -28.225; -611.000; -488.000
338.327;  -18.375;  -18.000; -155.000
338.461;  -59.300; -299.000; -469.000
338.596;  -95.875; -780.000; -638.000
338.730;  -98.450; -767.000; -803.000
338.865;   73.650;  -46.000; -140.000
338.999;  -62.650; -846.000; -702.000
339.134;  -23.475; -634.000; -536.000
339.268;   24.075; -741.000; -603.000
339.403;  357.300; -740.000; -775.000
339.537;  123.150; -894.000; -820.000
339.671; -116.300; -829.000; -813.000
339.806;  -73.225; -556.000; -512.000
339.940;    0.675; -261.000; -235.000
340.074;  -85.000; -685.000; -510.000
340.209;  -43.225; -351.000; -230.000
340.343;  -90.875; -517.000; -573.000
340.477;  141.650;  998.000; 1036.000
340.612;  -48.050;-1033.000; -900.000
340.746;  125.025; -199.000; -243.000
340.880;  -80.925; -924.000; -785.000
341.014;  -17.150;  -45.000; -154.000
341.149; -111.425; -756.000; -718.000
341.283; -116.325; -839.000; -754.000
341.417;  -90.650;-1124.000; -938.000
341.551;  144.400; -768.000; -708.000
341.685;  -30.150; -633.000; -611.000
341.820;  -54.750; -562.000; -493.000
341.954;  -56.100; -218.000; -349.000
342.088; -161.025;-1102.000;-1019.000
342.222;   45.500;  565.000;  618.000
342.356;  -61.200; -395.000; -335.000
342.490;  -99.250; -880.000; -841.000
342.624;  -52.725; -339.000; -242.000
342.758;  -17.200; -364.000; -312.000
342.892;  -79.225; -710.000; -585.000
343.026;  -35.425;  -58.000; -116.000
343.160;  -63.050; -426.000; -376.000
343.294;  -83.525; -474.000; -337.000
343.428;   -9.250; -488.000; -448.000
343.562;  -23.250; -172.000;  -23.000
343.696;  -43.250; -385.000; -314.000
343.830;  -31.000; -362.000; -356.000
343.964;   20.850; -231.000; -168.000
344.098;  947.525;  199.000;   70.000
344.232;  787.900; -266.000; -127.000
344.366;   84.275; -567.000; -453.000
344.500;   51.625; -665.000; -744.000
344.634;   27.800; -324.000; -164.000
344.768;  -25.100; -531.000; -341.000
344.902;   19.225;  278.000;  256.000
345.035;  -92.725; -556.000; -496.000
345.169; -148.575; -933.000; -656.000
345.303;  -64.900; -308.000; -482.000
345.437;  -67.600; -826.000; -717.000
345.571;  -82.625; -675.000; -594.000
345.704;  -52.125; -309.000; -532.000
345.838;  -17.825; -331.000; -284.000
345.972;  -34.525; -543.000; -495.000
346.106;  149.450; -179.000; -190.000
346.239;  401.825; -312.000; -243.000
346.373;    7.375; -343.000; -302.000
346.507; -150.575; -950.000; -962.000
346.640;  137.575;  -30.000;   13.000
346.774;  -34.725; -650.000; -797.000
346.908;  -18.550; -138.000;  -11.000
347.041;  -98.950; -646.000; -593.000
347.175;    7.750;  259.000;   27.000
347.309;  -85.500; -698.000; -628.000
347.442;  -96.150; -883.000; -732.000
347.576;  280.975;  670.000;  668.000
347.709;  190.475; -123.000;  -52.000
347.843;  -99.875; -933.000; -825.000
347.976;   30.575;  235.000;  294.000
348.110; -181.750;-1268.000;-1186.000
348.243; -104.625; -679.000; -772.000
348.377;   20.550;  -26.000;   60.000
348.510;   46.750;  403.000;  540.000
348.644;  -21.050;  -37.000; -159.000
348.777;  -14.625;  180.000;  191.000
348.911;  -46.275; -142.000; -112.000
349.044;  189.375;  471.000;  448.000
349.178;  171.175;-1069.000;-1006.000
349.311;  107.850;  141.000;  255.000
349.444;  -16.000; -927.000; -813.000
349.578;  -28.100; -347.000; -200.000
349.711;  -95.375; -959.000; -862.000
349.845;   -9.175; -661.000; -591.000
349.978; -152.300;-1224.000;-1137.000
350.111;  -87.675; -546.000; -612.000
350.244;  -79.625; -596.000; -700.000
350.378;   -0.600; -392.000; -393.000
350.511;  -66.750; -393.000; -426.000
350.644; -117.375; -808.000; -806.000
350.778;    4.400;  168.000;  104.000
350.911;    5.850;  134.000;  140.000
351.044;  -84.150; -685.000; -615.000
351.177;  -29.300; -321.000; -281.000
351.310;   -7.400;    3.000; -131.000
351.444;  -74.050; -888.000; -788.000
351.577;  117.550;  140.000;   90.000
351.710;   95.725;  593.000;  417.000
351.843;  -39.400; -165.000;  -77.000
351.976;  -13.075;  149.000;  -79.000
352.109; -102.725; -621.000; -612.000
352.242;  -21.575; -464.000; -419.000
352.376;  -60.150; -580.000; -636.000
352.509;  174.625; -437.000; -356.000
352.642;   28.750; -654.000; -604.000
352.775;   49.925; -141.000;  -98.000
352.908; -120.475; -933.000; -904.000
353.041; -104.500; -814.000; -824.000
353.174;  -68.075; -551.000; -424.000
353.307;  -82.250; -753.000; -764.000
353.440;   71.100;  541.000;  453.000
353.573; -107.250; -957.000;-1008.000
353.706;  -22.675; -384.000; -558.000
353.839;  -16.900; -264.000; -220.000
353.971;  -79.500; -657.000; -512.000
354.104;  -94.350; -896.000; -835.000
354.237;  -39.725; -627.000; -662.000
354.370;  -95.500; -846.000; -879.000
354.503; -178.725;-1231.000;-1308.000
354.636;  -50.025; -529.000; -348.000
354.769; -110.375; -937.000; -860.000
354.902;  -15.125; -230.000; -139.000
355.034;   -6.525; -164.000; -220.000
355.167;  -20.375; -262.000; -162.000
355.300;  -95.350;-1061.000; -880.000
355.433;  938.900;  -71.000;  -14.000
355.565; 1460.750; -402.000; -384.000
355.698;  366.675; -356.000; -296.000
355.831;   -5.675; -882.000; -801.000
355.964;   67.900; -285.000; -170.000
356.096;  -78.375; -856.000; -843.000
356.229;    1.575; -523.000; -530.000
356.362;  314.025; -373.000; -266.000
356.494;  589.275; -229.000; -162.000
356.627;  488.500;  269.000;  377.000
356.760;  668.200;  120.000;   53.000
356.892;  933.125; -286.000; -601.000
357.025;  674.825;  403.000;  389.000
357.157;  625.850; -167.000; -179.000
357.290;  646.400; -856.000; -713.000
357.423;  186.750; -667.000; -556.000
357.555;  133.900; -217.000; -228.000
357.688;  134.150; -483.000; -364.000
357.820;  467.950; -870.000; -877.000
357.953; 3817.525; -563.000; -589.000
358.085;  820.500; -632.000; -612.000
358.218; 1177.350;-1131.000; -932.000
358.350;  206.625;  -58.000;  312.000
358.483; -115.700;-1300.000;-1187.000
358.615;  -15.175;-1182.000;-1078.000
358.747;  -56.650;-1187.000;-1058.000
358.880;   26.650; -810.000; -744.000
359.012;   -1.375; -376.000; -202.000
359.145;  -35.150; -480.000; -511.000
359.277;   70.800; -962.000; -913.000
359.409; 3140.150;  536.000;  231.000
359.542;  815.400; -738.000; -688.000
359.674;   76.075;   46.000;   13.000
359.806;  -54.475; -565.000; -438.000
359.939;  -57.125; -617.000; -516.000
360.071;  -21.475; -583.000; -579.000
360.203;  -20.775; -411.000; -364.000
360.335;   53.550;  164.000;  -16.000
360.468;  200.150; -249.000; -307.000
360.600; 2501.975; -547.000; -454.000
360.732; 2778.950; -546.000; -423.000
360.864;  371.450;-1216.000;-1044.000
360.996;  285.650; -516.000; -554.000
361.129;   43.425; -389.000; -598.000
361.261;    8.800;  110.000; -113.000
361.393;  -27.875; -252.000; -214.000
361.525;   31.125;   94.000;  244.000
361.657;  -29.750; -821.000; -703.000
361.789;    9.700; -139.000; -155.000
361.921;  226.175; -642.000; -593.000
362.053;  269.000;  524.000;  541.000
362.185;   62.575;  288.000;   72.000
362.318;  -89.675; -709.000; -705.000
362.450;  118.975;  294.000;  444.000
362.582;  121.025; -913.000; -870.000
362.714;  -36.950; -353.000; -332.000
362.846;  -91.875; -606.000; -490.000
362.978; -153.525; -941.000; -811.000
363.109;   26.200; -161.000; -260.000
363.241;  442.500; -739.000; -749.000
363.373;  411.325; -649.000; -564.000
363.505;  649.675; -186.000;  -91.000
363.637;  151.250; -787.000; -601.000
363.769; -120.575;-1067.000;-1080.000
363.901;  -63.025; -596.000; -654.000
364.033; -119.700;-1103.000;-1062.000
364.165;   -7.600; -283.000; -283.000
364.296;   74.850; -316.000; -177.000
364.428;   53.050;-1344.000;-1220.000
364.560;  -82.525; -679.000; -661.000
364.692;  -62.875; -738.000; -835.000
364.824;  275.075; -588.000; -456.000
364.955;  436.250; -402.000; -564.000
365.087;  890.650;-1097.000; -852.000
365.219;   19.350; -686.000; -816.000
365.351;  -67.650; -526.000; -572.000
365.482;   50.050;  300.000;  240.000
365.614;  -52.050; -402.000; -314.000
365.746;  -93.550; -729.000; -752.000
365.877;  -86.225; -706.000; -672.000
366.009;  251.750;  -35.000;  -62.000
366.141;  -98.800;-1249.000;-1134.000
366.272; -107.300; -803.000; -719.000
366.404; -117.850;-1005.000; -874.000
366.535;  -19.100; -139.000;  -12.000
366.667; -110.175; -644.000; -649.000
366.799;   28.550;  353.000;  203.000
366.930; -108.975; -862.000; -996.000
367.062;  118.125; -639.000; -613.000
367.193;  141.650; -872.000; -842.000
367.325;  -70.050; -580.000; -684.000
367.456;   50.700; -246.000;   31.000
367.588;  146.175; -371.000; -318.000
367.719;   26.050;  -44.000;  -45.000
367.851;  -28.925; -222.000; -241.000
367.982;  -62.050; -875.000; -732.000
368.113;   98.075; -475.000; -358.000
368.245; -120.725; -960.000; -841.000
368.376;  -47.050; -254.000; -302.000
368.508;  -39.225; -188.000; -263.000
368.639; -139.750;-1166.000;-1034.000
368.770;  -14.100; -670.000; -589.000
368.902;  -65.200; -836.000; -926.000
369.033; -114.075; -906.000; -855.000
369.164;  -50.775; -720.000; -653.000
369.296; -101.325; -452.000; -601.000
369.427;   -0.100; -209.000; -144.000
369.558;  -53.550; -593.000; -377.000
369.689;  -92.900; -721.000; -569.000
369.821; -128.500; -951.000; -845.000
369.952;  -33.550;   42.000; -108.000
370.083;  -55.275; -229.000; -108.000
370.214;  -83.275; -735.000; -650.000
370.345;   -8.350;   65.000;   81.000
370.477;  -84.425; -810.000; -790.000
370.608;  246.725; -328.000; -264.000
370.739;  -51.325;-1233.000;-1292.000
370.870;  -34.800;-1102.000; -923.000
371.001;   90.925; -378.000; -467.000
371.132;  -83.275; -754.000; -735.000
371.263;  -20.350;  -42.000; -148.000
371.394; -131.175; -841.000; -748.000
371.525;   23.075;  345.000;  225.000
371.657;  -94.125; -808.000; -670.000
371.788;   74.675;  103.000;  199.000
371.919;  166.600; -384.000; -304.000
372.050; 3743.625;  -91.000; -156.000
372.181; 1125.500; -188.000; -294.000
372.311;  389.175;   42.000; -127.000
372.442;   39.550; -457.000; -451.000
372.573;  -28.475; -444.000; -340.000
372.704; -108.775;-1008.000; -980.000
372.835;   90.050; -228.000; -289.000
372.966;  -54.500; -646.000; -554.000
373.097;  -77.175; -575.000; -711.000
373.228;  -44.525; -717.000; -542.000
373.359;  141.750; -824.000; -536.000
373.490;  967.375; -881.000; -727.000
373.620; 1196.775;-1001.000; -803.000
373.751; 1893.600; -332.000; -396.000
373.882;  843.100; -663.000; -733.000
374.013;   80.375; -449.000; -262.000
374.143;  -45.700; -581.000; -659.000
374.274;  -98.525; -987.000; -908.000
374.405;  168.400; -388.000; -276.000
374.536;  461.650; -526.000; -387.000
374.666; 1136.800; -759.000; -807.000
374.797;  227.400; -817.000; -868.000
374.928;  882.100; -710.000; -560.000
375.058;  925.700; -535.000; -500.000
375.189;   68.825;  -59.000;  -93.000
375.320; -102.200; -928.000;-1034.000
375.450;  -39.625; -625.000; -616.000
375.581;  -55.675; -526.000; -436.000
375.712;  -22.450; -574.000; -250.000
375.842;  307.050; -438.000; -415.000
375.973;  218.700; -554.000; -513.000
376.103;  -54.300; -665.000; -648.000
376.234;  -76.950; -531.000; -552.000
376.364;  -40.225; -944.000; -867.000
376.495;  322.050;  925.000;  529.000
376.625;   -1.825; -472.000; -485.000
376.756;   50.575; -709.000; -678.000
376.886;  -78.775;-1178.000;-1026.000
377.017;   36.050;-1048.000;-1061.000
377.147;  336.000; -786.000; -782.000
377.278;   57.975;  174.000;  228.000
377.408; -130.825; -801.000; -815.000
377.538; -110.075; -707.000; -693.000
377.669;  -94.775; -537.000; -613.000
377.799;  -87.650; -645.000; -635.000
377.929;  -57.425; -610.000; -428.000
378.060; -133.125; -781.000; -847.000
378.190;  -57.675; -726.000; -531.000
378.320;  -50.475; -401.000; -406.000
378.451;   -7.225; -131.000;  -22.000
378.581;  -19.850;  -67.000; -110.000
378.711;  155.750; 1035.000;  866.000
378.841;  -20.075; -533.000; -675.000
378.972;  -81.825; -871.000; -751.000
379.102;   -9.950; -652.000; -579.000
379.232;   -8.050; -126.000;  -73.000
379.362; -109.000;-1001.000; -885.000
379.492;    9.000; -373.000; -424.000
379.623;  117.800;    0.000;  111.000
379.753;  -94.650;-1107.000; -974.000
379.883;  210.125;   59.000;  156.000
380.013;   17.000;-1081.000;-1017.000
380.143; -104.450;-1097.000;-1056.000
380.273; -109.000; -985.000; -861.000
380.403;   -4.175; -344.000; -257.000
380.533;  -21.575; -651.000; -664.000
380.663;   69.325;  173.000;  128.000
380.793; -101.525;-1027.000;-1074.000
380.923;  -22.550; -103.000;  -34.000
381.053; -102.200; -613.000; -623.000
381.183;  -39.450; -106.000; -248.000
381.313;   40.975; -656.000; -470.000
381.443;   30.025; -692.000; -473.000
381.573;  208.950; -402.000; -409.000
381.703;  283.850;-1249.000;-1095.000
381.833; -115.350;-1454.000;-1336.000
381.963;  103.950; -134.000;  -87.000
382.093; 1438.450; -925.000; -909.000
382.223;  434.175; -713.000; -602.000
382.353;  -21.375; -801.000; -608.000
382.482;  400.200;-1091.000; -964.000
382.612;  806.375; -872.000; -644.000
382.742;  441.075; -695.000; -622.000
382.872;  266.775; -565.000; -551.000
383.002;   80.150;  347.000; -132.000
383.131;  -11.750; -226.000; -160.000
383.261;  -55.325; -706.000; -768.000
383.391;  297.750; -552.000; -377.000
383.521; 3170.475;  451.000;  263.000
383.650;  726.875; -947.000; -904.000
383.780;  -27.825; -783.000; -656.000
383.910;  112.700;  880.000;  802.000
384.039;   12.375; -794.000; -656.000
384.169;  228.150;-1205.000;-1017.000
384.299;  -28.275; -650.000; -662.000
384.428;  -90.175; -764.000; -680.000
384.558;  -52.325; -308.000; -275.000
384.687;  -44.900; -414.000; -334.000
384.817;   11.700;   75.000;   -2.000
384.947;   18.625; -234.000; -141.000
385.076;  285.125;  982.000;  912.000
385.206;  103.850;  369.000;  480.000
385.335;  -26.250; -549.000; -417.000
385.465; -102.875; -655.000; -663.000
385.594;  147.450;  -53.000;  -44.000
385.724;  439.700; -868.000; -838.000
385.853;  122.625; -296.000; -270.000
385.982; 1433.050; -743.000; -787.000
386.112; 2210.700;-1052.000; -871.000
386.241;  144.675; -307.000; -312.000
386.371;   22.025; -174.000;  -87.000
386.500;    5.775; -825.000; -789.000
386.629;   27.375; -874.000; -817.000
386.759;   65.400;  -43.000;   68.000
386.888;    0.050; -170.000; -250.000
387.017;  -92.250; -648.000; -620.000
387.147;  -91.225; -771.000; -798.000
387.276;    1.075; -410.000; -397.000
387.405;    8.275; -398.000; -342.000
387.535;  -40.250; -452.000; -361.000
387.664;  -53.425; -692.000; -620.000
387.793;   64.075; -198.000; -113.000
387.922;  526.775;  255.000;  200.000
388.052;   14.975; -576.000; -423.000
388.181;   14.225; -342.000; -472.000
388.310;    8.625; -889.000; -710.000
388.439;  -55.050; -749.000; -742.000
388.568;  198.125;  365.000;  244.000
388.697; 1105.200; -756.000; -653.000
388.826;  208.325; -768.000; -666.000
388.956;   55.550; -285.000; -307.000
389.085;  -25.725; -347.000; -287.000
389.214; -113.175; -842.000; -872.000
389.343;  -59.650; -645.000; -413.000
389.472;  384.650;  126.000;  149.000
389.601;  507.000;   91.000;    0.000
389.730;    5.275; -568.000; -687.000
389.859;   66.400;  226.000;   46.000
389.988;  184.175; -423.000; -408.000
390.117;  142.900; -168.000; -146.000
390.246;  -10.175; -331.000; -320.000
390.375;  103.850; -673.000; -626.000
390.504;  -67.550; -703.000; -621.000
390.633;  -98.425; -672.000; -726.000
390.761;  -66.275; -732.000; -645.000
390.890;   17.225;   -4.000; -130.000
391.019;  -27.150; -421.000; -441.000
391.148; -116.575; -826.000; -855.000
391.277;  -79.175; -576.000; -493.000
391.406;  -86.075; -821.000; -805.000
391.534;    9.975;  574.000; -301.000
391.663;  -62.900; -583.000; -645.000
391.792;  -97.425; -673.000; -701.000
391.921;  100.750;   -3.000;   15.000
392.050;  193.350; -287.000; -228.000
392.178;  -36.875;-1206.000;-1061.000
392.307;  155.875; -758.000; -712.000
392.436;   76.650; -427.000; -641.000
392.564;   26.075;  166.000;   -6.000
392.693;  -88.475; -860.000; -682.000
392.822;  187.775; -529.000; -534.000
392.950;  100.900; -880.000; -714.000
393.079;  336.675; -188.000; -328.000
393.208;   29.800; -488.000; -511.000
393.336;  -32.100; -170.000; -145.000
393.465;  -48.675; -317.000; -199.000
393.593;   -6.175;   62.000;   79.000
393.722; -159.250;-1121.000; -916.000
393.850;  -27.625; -188.000;  -61.000
393.979; -149.725; -926.000; -805.000
394.107;  -64.150; -517.000; -537.000
394.236;  -25.850; -570.000; -507.000
394.364;  187.950;  383.000;  206.000
394.493;  297.650; -911.000; -767.000
394.621;  -24.450; -955.000; -916.000
394.750;  706.150; -873.000; -923.000
394.878; 2895.250; -247.000; -149.000
395.007; 3927.125; -721.000; -807.000
395.135;  289.425; -790.000; -721.000
395.263; -100.925;-1038.000;-1040.000
395.392;   -5.950;  -25.000; -107.000
395.520; -137.525; -818.000; -679.000
395.648;  -94.375; -865.000; -915.000
395.777;  -12.300; -366.000; -405.000
395.905;  -56.550; -449.000; -564.000
396.033;    7.450;  217.000;  172.000
396.162;  502.700; -399.000; -453.000
396.290;  448.175;  -17.000;   -2.000
396.418;   96.225; -555.000; -514.000
396.546;  -78.725; -571.000; -466.000
396.674;  -97.700; -850.000; -878.000
396.803;   14.775;  -72.000;  -23.000
396.931;   81.100; -179.000; -199.000
397.059;   40.900;-1026.000; -989.000
397.187; -120.175;-1026.000; -975.000
397.315; -138.175; -884.000; -649.000
397.443;  -96.050; -592.000; -443.000
397.572;  -91.025; -578.000; -424.000
397.700;   10.100; -607.000; -614.000
397.828;   34.750;  120.000;  -90.000
397.956;  -49.625; -508.000; -478.000
398.084;  -68.150; -767.000; -626.000
398.212;   30.575;  137.000;  124.000
398.340;    2.975;  -56.000;  159.000
398.468;   29.150; -390.000; -169.000
398.596; -133.325; -993.000; -953.000
398.724; -123.425; -762.000; -767.000
398.852; -149.700;-1024.000; -976.000
398.980;  -68.600; -560.000; -560.000
399.108;  -49.900; -982.000; -735.000
399.236;   26.725;   13.000;    8.000
399.363;    7.100;  222.000;  196.000
399.491;  -69.725; -404.000; -398.000
399.619; -123.025; -829.000; -800.000
399.747; -111.675; -859.000; -771.000
399.875;   83.075;  220.000;  234.000
400.003;  -67.100; -359.000; -284.000
400.130;  -95.050; -421.000; -341.000
400.258;  -46.650;  -83.000;   38.000
400.386;  -72.675; -352.000; -168.000
400.514;  -48.725; -526.000; -587.000
400.641;  -86.175; -928.000; -802.000
400.769; -153.350; -979.000; -888.000
400.897; -120.725; -838.000; -793.000
401.025;  -12.125; -166.000; -152.000
401.152;   -1.825;  220.000;   38.000
401.280;  -96.800; -430.000; -429.000
401.408; -123.525; -712.000; -576.000
401.535; -109.700; -735.000; -758.000
401.663; -189.075;-1134.000;-1054.000
401.790;  -88.425; -514.000; -525.000
401.918;   41.750;  436.000;  405.000
402.046;  -15.675;  134.000;  122.000
402.173;  -32.125;  -18.000;    7.000
402.301;  -74.975; -519.000; -397.000
402.428;   36.175;  528.000;  383.000
402.556; -135.625;-1188.000; -913.000
402.683;  -21.475;  -20.000;   -1.000
402.811;  -33.975;  -37.000; -206.000
402.938;  -11.500;   20.000;   27.000
403.066;  209.575; -574.000; -558.000
403.193;  339.700;  299.000;  239.000
403.321;  262.725; -396.000; -574.000
403.448;  324.700;   83.000;   27.000
403.575;  126.125;  -90.000;  -46.000
403.703; -103.275; -732.000; -557.000
403.830;  -68.550; -531.000; -496.000
403.957; -147.500;-1117.000;-1023.000
404.085;   15.775;  -61.000; -172.000
404.212;  104.925;  -50.000;   63.000
404.339;  236.875; -566.000; -306.000
404.467; 5705.000; -612.000; -524.000
404.594; 3766.300; -287.000; -227.000
404.721;  889.775; -869.000; -764.000
404.848;   71.600; -113.000; -202.000
404.976;  -94.525; -856.000; -783.000
405.103;  -23.525;  -14.000;  -82.000
405.230;  -12.725;  190.000;  226.000
405.357;   10.600;  117.000;   44.000
405.484;  268.125;  -49.000;    5.000
405.612;   47.350; -548.000; -563.000
405.739;  -76.200; -488.000; -243.000
405.866;   82.650;  669.000;  385.000
405.993;  -45.000; -398.000; -102.000
406.120; -155.475; -801.000; -887.000
406.247;  -47.600; -323.000; -342.000
406.374;  443.875;  540.000;  629.000
406.501;   90.375; -632.000; -702.000
406.628;  -70.700; -621.000; -589.000
406.755; -103.100; -803.000; -620.000
406.882;  -46.550; -228.000; -277.000
407.009; -107.450; -719.000; -628.000
407.136;   38.075; -480.000; -401.000
407.263;  144.050; -939.000; -829.000
407.390;  -80.175; -692.000; -614.000
407.517; -180.425;-1139.000;-1187.000
407.644;  -66.350; -332.000; -256.000
407.771;  -75.200; -249.000; -287.000
407.898;    7.500;  168.000;  328.000
408.025;  -80.550; -421.000; -313.000
408.151;  -17.575;   82.000;  153.000
408.278;  -62.525; -267.000; -216.000
408.405; -129.125; -931.000; -899.000
408.532;  -63.725; -549.000; -542.000
408.659; -114.825; -677.000; -648.000
408.785; -210.375;-1298.000;-1170.000
408.912;  -74.925; -412.000; -296.000
409.039; -118.475; -610.000; -686.000
409.166; -109.775; -591.000; -555.000
409.292; -122.425; -571.000; -534.000
409.419; -125.550; -665.000; -649.000
409.546;  -94.050; -431.000; -192.000
409.672; -114.175; -713.000; -545.000
409.799;  -29.525;  -36.000;   34.000
409.926;  -48.625; -180.000; -179.000
410.052; -173.725;-1127.000;-1091.000
410.179;  -76.125; -368.000; -392.000
410.305;  -88.425; -375.000; -493.000
410.432;  -41.000; -220.000; -333.000
410.558;  -97.100; -305.000; -380.000
410.685; -116.775; -688.000; -431.000
410.812;  -91.725; -409.000; -588.000
410.938; -144.375; -964.000; -808.000
411.065;  -98.450; -671.000; -645.000
411.191;  -25.325; -189.000; -174.000
411.317; -116.425; -823.000; -742.000
411.444;  -68.150; -317.000; -246.000
411.570;  -70.425; -339.000; -294.000
411.697; -133.750; -758.000; -752.000
411.823; -172.275; -989.000; -999.000
411.949;  -27.250;  -56.000;   17.000
412.076; -118.975; -539.000; -519.000
412.202; -126.775; -758.000; -757.000
412.329; -126.450; -798.000; -752.000
412.455; -126.100; -821.000; -657.000
412.581;  -20.050;  -15.000;  172.000
412.707;  -77.475; -540.000; -457.000
412.834;   21.875;  156.000;  219.000
412.960;  -80.800; -785.000; -784.000
413.086; -117.575; -743.000; -701.000
413.212;  144.775;  604.000;  578.000
413.339;  -73.200; -685.000; -701.000
413.465;   -7.800; -364.000; -310.000
413.591;  -98.650; -757.000; -474.000
413.717;  -68.475; -358.000; -366.000
413.843; -135.850; -839.000; -861.000
413.969;  -60.800;  -47.000; -292.000
414.096; -104.725; -679.000; -679.000
414.222;  -15.750;  -33.000;   85.000
414.348;  -39.375; -652.000; -385.000
414.474;   83.375;   38.000;  -52.000
414.600;  -18.750; -126.000; -144.000
414.726;  -12.175;  -96.000;  -55.000
414.852;  -59.200; -365.000; -342.000
414.978;   23.000;  104.000;  -18.000
415.104;   23.275;   38.000;   80.000
415.230;   26.375; -329.000; -330.000
415.356;   26.650; -409.000; -514.000
415.482;  191.225;   13.000;  -35.000
415.608;  251.350; -247.000; -323.000
415.734;  952.550;   67.000;   38.000
415.860;19836.725; -875.000; -767.000
415.986;14349.250; -685.000; -607.000
416.111; 1226.075; -798.000; -652.000
416.237;  243.075; -424.000; -571.000
416.363; 1118.850; -765.000; -733.000
416.489; 4139.125; -324.000; -251.000
416.615;  434.275; -707.000; -742.000
416.741;  -31.350; -677.000; -784.000
416.866;  -87.825; -673.000; -736.000
416.992; -130.350; -801.000; -818.000
417.118;  -24.800;  -41.000;  -80.000
417.244;  -66.150; -798.000; -531.000
417.369;  -97.475; -801.000; -612.000
417.495;   -8.900; -325.000; -254.000
417.621;  -94.900;-1015.000; -803.000
417.746;  -10.750; -579.000; -572.000
417.872;   57.625; -254.000; -144.000
417.998;   45.875; -515.000; -530.000
418.123; 1041.775;-1073.000; -845.000
418.249; 5348.100; -512.000; -601.000
418.374;  718.350; -916.000; -824.000
418.500;   89.300; -383.000; -482.000
418.626;  114.875;   70.000;  -59.000
418.751;  109.200; -549.000; -448.000
418.877;  202.550; -637.000; -643.000
419.002; 1761.000; -688.000; -560.000
419.128;12419.425; -930.000; -721.000
419.253; 3006.250; -967.000; -837.000
419.379;  409.725; -391.000; -338.000
419.504;  386.700;  325.000;  415.000
419.629;  501.975; -393.000; -212.000
419.755; 3537.525; -317.000; -254.000
419.880;20936.925;  -98.000;   67.000
420.006;11362.875; -280.000; -221.000
420.131;29073.200; -662.000; -775.000
420.256; 4177.750; -315.000; -316.000
420.382;  562.925; -665.000; -687.000
420.507;   58.775; -649.000; -778.000
420.632;  130.350; -337.000; -339.000
420.758;  256.825; -251.000; -425.000
420.883;  -73.050; -876.000; -672.000
421.008; -122.325; -775.000; -619.000
421.133;  -79.650; -509.000; -467.000
421.259;  -60.925; -325.000; -259.000
421.384; -110.000; -834.000; -693.000
421.509;  -53.550;-1052.000; -862.000
421.634; 1207.525; -936.000; -820.000
421.759;  512.925; -359.000; -327.000
421.885;  -47.500; -717.000; -656.000
422.010;  -86.900; -673.000; -542.000
422.135; -156.450; -695.000; -727.000
422.260;   37.275;  340.000;  280.000
422.385;  -40.750;   12.000;  -98.000
422.510;   14.400;  151.000;  -26.000
422.635;    9.750;  -87.000;  -43.000
422.760;   96.450; -766.000; -791.000
422.885;   44.200;  -57.000;  -80.000
423.010;  -34.025; -112.000; -169.000
423.135;  -98.225; -481.000; -561.000
423.260;  -23.625; -150.000; -245.000
423.385;   63.475;  476.000;  222.000
423.510;   17.900;   71.000;  -22.000
423.635;   89.300;  133.000;   45.000
423.760;   61.575;  383.000;  328.000
423.885;   49.050;  336.000;  391.000
424.010;    1.525;  -68.000;  -13.000
424.135;  -29.450;    5.000;  -33.000
424.259;  -92.650; -654.000; -457.000
424.384;  -58.775; -279.000; -272.000
424.509;  -24.025; -260.000; -186.000
424.634;  -93.225; -761.000; -623.000
424.759;  -41.725; -688.000; -544.000
424.883;  -19.150; -506.000; -527.000
425.008;  138.975; -502.000; -410.000
425.133; 1996.325; -679.000; -653.000
425.258;  940.800; -517.000; -381.000
425.382; 1056.050; -867.000; -774.000
425.507; 2705.800; -487.000; -543.000
425.632;  443.625; -802.000; -663.000
425.756;  455.725; -256.000; -146.000
425.881; 6472.400; -831.000; -857.000
426.006;17403.075; -604.000; -355.000
426.130; 2704.325; -696.000; -508.000
426.255;  335.725; -611.000; -491.000
426.379;  140.550; -189.000; -577.000
426.504;  364.400;  660.000;  544.000
426.629; 4019.425; -519.000; -466.000
426.753; 2735.275;   64.000;  -46.000
426.878;  316.000; -252.000; -288.000
427.002;  142.150; -651.000; -668.000
427.127; 1586.375;  -35.000; -158.000
427.251;11291.225;  372.000;  401.000
427.375; 3231.650; -191.000; -173.000
427.500; 2342.250; -616.000; -610.000
427.624;  793.000; -234.000; -400.000
427.749;   67.900; -216.000; -225.000
427.873;  -47.575; -499.000; -412.000
427.997;  -45.100; -222.000; -230.000
428.122;   75.050;  795.000;  703.000
428.246;   67.825;  433.000;  434.000
428.371; -133.700; -869.000; -773.000
428.495; -121.125; -624.000; -646.000
428.619;  -41.425; -186.000; -117.000
428.743;    6.150;   65.000;  132.000
428.868;   15.825; -732.000; -643.000
428.992; 1445.825; -219.000; -326.000
429.116;  569.400; -329.000; -357.000
429.240;  275.225;  419.000;  426.000
429.365;  -25.475; -454.000; -574.000
429.489;  -60.725; -638.000; -647.000
429.613;   29.775; -236.000; -177.000
429.737;   25.375; -563.000; -432.000
429.861;  271.075; -247.000; -133.000
429.985; 5533.825; -425.000; -305.000
430.109; 6072.025; -770.000; -908.000
430.234;  697.525;   76.000;  -50.000
430.358;   63.900; -250.000; -160.000
430.482;  -75.300; -672.000; -564.000
430.606;  -75.000; -655.000; -375.000
430.730;    8.250; -437.000; -388.000
430.854;  116.875; -909.000; -835.000
430.978;  -85.100; -795.000; -764.000
431.102;  -82.525; -499.000; -422.000
431.226; -127.175; -874.000; -815.000
431.350;   19.475;  345.000;  422.000
431.474;  -87.150; -661.000; -373.000
431.597; -152.875;-1060.000; -848.000
431.721;  -74.850; -276.000; -267.000
431.845; -129.425; -704.000; -472.000
431.969;  -74.600; -304.000; -349.000
432.093;  -90.425; -395.000; -317.000
432.217;  -28.325;   32.000;   82.000
432.341;  -81.775; -523.000; -518.000
432.464;    6.550;   96.000;   40.000
432.588;  214.175; -401.000; -329.000
432.712;  111.600;  -52.000;  -52.000
432.836;   36.975;  213.000;  263.000
432.959;  -33.100; -372.000; -311.000
433.083;   82.850;   11.000;    2.000
433.207;  366.725;  285.000;  930.000
433.330; 5022.300; -391.000; -200.000
433.454; 6185.500; -654.000; -638.000
433.578; 3557.150;  583.000;  278.000
433.701;  657.800; -623.000; -675.000
433.825;  140.150; -292.000; -299.000
433.949;  172.200;   28.000;  -72.000
434.072;   59.950; -410.000; -323.000
434.196;  -23.575; -309.000; -117.000
434.319; 3726.025;25482.000;25124.000
434.443;  706.475; -656.000; -603.000
434.566; 2625.450;  281.000;   62.000
434.690;  421.675; -637.000; -383.000
434.813;   64.650; -251.000; -173.000
434.937;  -80.250; -569.000; -696.000
435.060;  -40.700; -423.000; -332.000
435.184;  316.475; -492.000; -217.000
435.307;  183.575;  159.000;  102.000
435.431;  -13.975;  -40.000;   24.000
435.554;  -72.050; -399.000; -240.000
435.677;  -92.475; -350.000; -258.000
435.801;  -55.325;  -25.000;   49.000
435.924;  -17.200;    1.000;  -67.000
436.048; -119.975;-1019.000; -732.000
436.171;  -66.450; -240.000;  -66.000
436.294;  -19.500; -248.000; -229.000
436.417;   78.350; -963.000; -849.000
436.541;  -84.075; -814.000; -840.000
436.664;  -44.350; -242.000; -316.000
436.787;  -47.075;   13.000;  113.000
436.910; -131.525; -792.000; -422.000
437.034;   -1.400;  142.000;  143.000
437.157;   30.275;  -11.000;    0.000
437.280;  -46.000; -392.000; -292.000
437.403;  -84.600; -982.000; -869.000
437.526;  646.100; -903.000; -865.000
437.649; 2340.800; -505.000; -332.000
437.772;  356.500; -692.000; -540.000
437.896;  119.325;  700.000;  544.000
438.019;  -88.850; -758.000; -503.000
438.142;  -92.875; -596.000; -506.000
438.265;  -25.050; -639.000; -670.000
438.388;  573.600; -520.000; -410.000
438.511;   94.625; -597.000; -394.000
438.634;  -59.000; -247.000; -125.000
438.757; -134.075; -693.000; -619.000
438.880;  -30.625;  -34.000;  -57.000
439.003;  -88.525; -417.000; -437.000
439.126;  -79.475; -287.000; -167.000
439.248;  -57.600;  -98.000; -139.000
439.371;  -36.150;    9.000;  -53.000
439.494;   29.300;  510.000;  439.000
439.617;  -57.400;   65.000;  -88.000
439.740; -184.425; -968.000; -816.000
439.863; -145.900; -755.000; -595.000
439.986; -136.150; -476.000; -431.000
440.108;  -55.050; -161.000; -112.000
440.231; -162.700; -950.000; -836.000
440.354;  -35.400;  -64.000; -150.000
440.477;   26.725; -566.000; -542.000
440.599;    0.025; -200.000; -225.000
440.722; -126.575; -709.000; -586.000
440.845;   72.325;  751.000;  928.000
440.968; -111.250; -415.000; -311.000
441.090;  -81.000; -199.000;  -33.000
441.213; -181.325;-1021.000; -825.000
441.336;  -61.850; -159.000;   -5.000
441.458;  -82.100; -549.000; -396.000
441.581;  -86.500; -628.000; -629.000
441.703;  -73.350; -152.000;   13.000
441.826; -134.450; -557.000; -400.000
441.948;  -50.300;   56.000;   51.000
442.071;   19.425;  555.000;  424.000
442.193; -128.750; -531.000; -485.000
442.316;   11.000;  152.000;   97.000
442.438;   47.300; -233.000;  -10.000
442.561;   72.950;  272.000;  262.000
442.683;  558.075; -809.000; -522.000
442.806; 1221.275;   -8.000;   74.000
442.928;   24.825; -859.000; -604.000
443.051;  -77.800; -577.000; -373.000
443.173;  -89.050; -341.000; -339.000
443.295;  -97.125; -263.000; -371.000
443.418;  -70.750; -321.000;  -29.000
443.540;   -7.350; -106.000;   -4.000
443.662; -131.250; -563.000; -465.000
443.785;  -22.375;  335.000;  199.000
443.907;  -96.875; -362.000; -208.000
444.029; -143.900; -767.000; -494.000
444.152; -142.225; -644.000; -554.000
444.274;  -45.925;  -18.000;  -24.000
444.396; -110.075; -461.000; -221.000
444.518; -128.000; -691.000; -454.000
444.640; -110.575; -268.000; -111.000
444.763;  -24.375;  388.000;  249.000
444.885; -125.825; -432.000; -392.000
445.007;  -38.700;   35.000;   86.000
445.129; -133.050; -610.000; -515.000
445.251; -105.600; -372.000; -439.000
445.373; -137.550; -537.000; -386.000
445.495;    2.975;  242.000;  350.000
445.617;   52.700;  853.000;  753.000
445.739;  -79.175; -215.000;  -97.000
445.861;  -26.050; -245.000; -112.000
445.984;  -36.250; -267.000; -101.000
446.105;  195.425; -418.000; -251.000
446.227;  621.850; -176.000;  -19.000
446.349;   24.600; -358.000; -249.000
446.471; -102.175; -615.000; -448.000
446.593;  -49.300; -316.000;   19.000
446.715;    0.000;  -67.000;   41.000
446.837;   50.325;  697.000;  832.000
446.959;  -99.900; -457.000; -478.000
447.081; -123.500; -628.000; -518.000
447.203;   50.425;  862.000;  834.000
447.325; -104.925; -270.000;   42.000
447.446;  -10.700;  286.000;  530.000
447.568; -140.650; -921.000; -803.000
447.690;  -86.625; -236.000; -245.000
447.812; -160.300; -798.000; -519.000
447.933;  -39.075;  155.000;  127.000
448.055;  -55.825; -306.000; -261.000
448.177;  146.425;   31.000;   79.000
448.299;   75.825; -935.000; -727.000
448.420;    9.975;  -25.000;  159.000
448.542;  -52.750;   -3.000;   33.000
448.664;  -34.300;  109.000;  322.000
448.785;  -39.975;  265.000;   83.000
448.907;  -84.400; -614.000; -353.000
449.028;  -26.575; -771.000; -471.000
449.150;   68.750;  492.000;  589.000
449.272; -180.075;-1044.000; -913.000
449.393;   24.350;  612.000;  694.000
449.515; -156.225; -634.000; -581.000
449.636;  -70.350; -264.000; -155.000
449.758;   64.175;  763.000;  622.000
449.879;  -88.150; -498.000; -396.000
450.001;  -95.550; -149.000;  -49.000
450.122;  -23.700;  -95.000;  162.000
450.244;  -23.600;   37.000;  364.000
450.365;  -91.000; -495.000; -301.000
450.486;  -46.225;   80.000;  268.000
450.608;   10.875;  393.000;  326.000
450.729;   54.025;  578.000;  645.000
450.850;   -3.775; -574.000; -466.000
450.972;  735.125; -552.000; -389.000
451.093; 4901.150;  190.000;  588.000
451.214; 2071.400; -516.000; -337.000
451.336;  385.375;  773.000;  579.000
451.457;   41.575;  264.000;  393.000
451.578;  -39.350; -118.000;  -74.000
451.699; -126.900; -546.000; -540.000
451.821;  -78.625; -284.000;  -50.000
451.942;    2.100;  278.000;  285.000
452.063;   27.775;  228.000;  419.000
452.184;  537.200;  -54.000;  -49.000
452.305; 1071.125;  103.000;  170.000
452.427;  120.900; -549.000; -301.000
452.548;  -24.625;   23.000;   79.000
452.669;  -48.625; -257.000;  -89.000
452.790;  -57.225;    3.000;  -18.000
452.911;    2.875;  195.000;  259.000
453.032;  -63.950; -289.000;  -60.000
453.153;  -37.550;  -29.000;   81.000
453.274;   63.925;  737.000;  868.000
453.395;  -59.900;  -51.000;  175.000
453.516;  133.900; 1317.000; 1388.000
453.637;  -72.675; -205.000; -150.000
453.758;  -65.575;   15.000;   69.000
453.879; -123.950; -462.000; -250.000
454.000;   62.150; 1086.000;  948.000
454.121; -109.950; -554.000; -326.000
454.242; -124.850; -599.000; -383.000
454.362;  -63.850;  -99.000;  114.000
454.483;  -53.200; -309.000; -229.000
454.604;   40.425;  512.000;  580.000
454.725; -125.675; -627.000; -555.000
454.846; -116.500; -474.000; -406.000
454.967;  -29.725;  230.000;  539.000
455.087;  -49.400;  179.000;  153.000
455.208;   22.575;  554.000;  856.000
455.329;  -73.925;  -22.000;   82.000
455.450;   31.775;  473.000;  633.000
455.570;  -94.225; -234.000; -211.000
455.691;  -49.425;  201.000;  407.000
455.812; -115.700; -270.000;  -92.000
455.932;  -65.300;  107.000;  -97.000
456.053;  -91.425;   36.000;   24.000
456.173; -108.900; -433.000; -355.000
456.294; -138.775; -476.000; -303.000
456.415;  -78.575;  -73.000;   70.000
456.535;  -39.125;  297.000;  273.000
456.656;  -52.325;  132.000;  240.000
456.776;  -68.400;    3.000;  298.000
456.897;  -15.200;  308.000;  513.000
457.017;  -61.525; -153.000;   -3.000
457.138; -114.550; -402.000; -249.000
457.258;  -14.950;  263.000;  224.000
457.379;  -10.125;  509.000;  521.000
457.499;  -38.175;  443.000;  432.000
457.620; -126.650; -407.000; -231.000
457.740;  -86.050; -132.000;  -11.000
457.860;  -57.825;   87.000;   44.000
457.981;  -53.075;  132.000;  124.000
458.101;  -88.975;  -89.000;   40.000
458.221;  -11.275;  336.000;  402.000
458.342;  -64.250;   -4.000;  -37.000
458.462;   28.550;  617.000;  352.000
458.582;  -47.875; -302.000; -294.000
458.703;    2.175;  303.000;  154.000
458.823;  -24.750;   22.000;  163.000
458.943;   24.300;  341.000;  467.000
459.063;  -17.900; 1124.000;  192.000
459.183;  -12.550;  328.000;  313.000
459.304;   -7.100;  315.000;  517.000
459.424;  -74.400; -246.000;  -89.000
459.544;  308.775;  388.000;  764.000
459.664;  831.125;  499.000;  506.000
459.784;  302.700; 1004.000; 1175.000
459.904;   48.875;  867.000;  744.000
460.024;   67.550;  867.000;  684.000
460.144;   -9.350;  449.000;  554.000
460.264;    1.350;  515.000;  327.000
460.385;  -91.700; -145.000; -119.000
460.505;   20.050;  905.000;  858.000
460.625;  -86.000;  -17.000;  -68.000
460.745;  -29.975;  396.000;  541.000
460.864;  -63.725;  153.000;  469.000
460.984;   10.075;  499.000;  573.000
461.104;  133.700; 1656.000; 1775.000
461.224;   17.450;  657.000;  650.000
461.344;  -36.200;  431.000;  360.000
461.464;  -41.550;  258.000;  513.000
461.584;    7.100;  283.000;  466.000
461.704;  -33.525;   58.000;  108.000
461.824;  -52.075;  238.000;  259.000
461.943;  -45.200;  191.000;  130.000
462.063;  -69.625;    2.000;  324.000
462.183;   19.525;  639.000;  717.000
462.303;   90.850; 1678.000; 1230.000
462.422;    8.800;  781.000;  840.000
462.542;  -57.725;  271.000;  391.000
462.662;   28.025;  353.000;  380.000
462.782;  244.625;  833.000;  572.000
462.901;  464.225;  545.000;  717.000
463.021;  270.525; 1702.000; 1638.000
463.141;  -12.350;  337.000;  770.000
463.260;   -9.775;  614.000;  474.000
463.380;    8.075;  902.000;  884.000
463.499;  -36.100;  342.000;  332.000
463.619;  -36.025;  581.000;  559.000
463.738;  112.400; 1644.000;  903.000
463.858;   15.025;  657.000;  811.000
463.978;  -43.550;  542.000;  396.000
464.097;   50.800;  921.000; 1114.000
464.217;  104.925; 1196.000; 1143.000
464.336;  108.975; 1068.000; 1130.000
464.455;  -14.150;  328.000;  659.000
464.575;   36.250;  597.000;  602.000
464.694;  173.175; 1204.000; 1179.000
464.814;  115.650; 1190.000; 1138.000
464.933;   81.425; 1095.000; 1027.000
465.052;   88.625; 1412.000; 1054.000
465.172;   74.925;  922.000;  799.000
465.291;  121.275; 1376.000; 1320.000
465.410;   13.650;  462.000;  735.000
465.530;   93.450; 1355.000; 1310.000
465.649;   72.725; 1209.000; 1273.000
465.768;  137.925; 1673.000; 1508.000
465.888;   51.125;  941.000; 1174.000
466.007;   93.500; 1335.000; 1440.000
466.126;   -7.725;  721.000;  641.000
466.245;   36.850; 1176.000; 1187.000
466.364;   22.150;  950.000; 1060.000
466.484;   68.525; 1024.000; 1213.000
466.603;   31.950; 1101.000; 1222.000
466.722;  115.250; 1490.000; 1769.000
466.841;   72.525; 1151.000; 1401.000
466.960;   35.275; 1069.000;  972.000
467.079;  142.375; 1971.000; 1786.000
467.198;   50.925; 1238.000; 1181.000
467.317;   86.425; 1768.000; 1162.000
467.436;   63.600; 1709.000; 1261.000
467.555;  117.550; 1796.000; 1746.000
467.674;   57.000; 1227.000; 1329.000
467.793;   42.100; 1376.000; 1374.000
467.912;   89.750; 1658.000; 1539.000
468.031;  128.250; 2038.000; 1930.000
468.150;  118.425; 1842.000; 1837.000
468.269;  190.125; 2313.000; 2090.000
468.388;  185.975; 2168.000; 2339.000
468.507;  235.750; 2884.000; 2903.000
468.626;  236.625; 2555.000; 2541.000
468.744;  130.475; 2018.000; 2174.000
468.863;  201.325; 2312.000; 2523.000
468.982;   89.675; 1503.000; 1555.000
469.101;  219.400; 2788.000; 2692.000
469.220;  155.625; 2333.000; 2176.000
469.338;  251.800; 2935.000; 3051.000
469.457;  189.875; 2719.000; 2545.000
469.576;  340.825; 3953.000; 3784.000
469.695;  246.250; 2877.000; 3066.000
469.813;  396.750; 4148.000; 4192.000
469.932;  415.575; 4255.000; 4485.000
470.051;  426.525; 4075.000; 4161.000
470.169;  850.250; 4470.000; 4338.000
470.288; 1435.375; 4700.000; 4809.000
470.406;  860.225; 5059.000; 5194.000
470.525;  626.950; 6101.000; 5787.000
470.644;  646.675; 6847.000; 6794.000
470.762;  816.275; 8397.000; 7873.000
470.881;  902.050; 8651.000; 8464.000
470.999; 1020.275; 9685.000; 9151.000
471.118; 1103.650;11174.000;10711.000

