
Integration time [ms]: 100.000
Averaging Nr. [scans]: 40
Smoothing Nr. [pixels]: 0
Data measured with spectrometer [name]: 2101012U2
Wave   ;Sample   ;Dark     ;Reference
[nm]   ;[counts] ;[counts] ;[counts] 

197.733;   50.875;  516.000;  404.000
197.879;  -84.225; -610.000; -634.000
198.025;  -42.250; -475.000; -420.000
198.171;  -70.250; -602.000; -612.000
198.317;  -48.975; -401.000; -316.000
198.463;  -57.050; -655.000; -404.000
198.609;   16.350;  181.000; -137.000
198.755;  -75.200; -644.000; -410.000
198.901;  -62.525; -505.000; -424.000
199.047;  -61.525; -615.000; -488.000
199.193;  -39.250; -230.000; -468.000
199.339;  -39.700; -222.000; -369.000
199.485;   28.775;  330.000;  271.000
199.631;   17.075;  227.000;  310.000
199.777;  -61.900; -466.000; -398.000
199.923;  -61.050; -610.000; -424.000
200.069;   -9.800; -141.000;  -58.000
200.215;   57.350;  128.000;  453.000
200.361;   33.125;  243.000;  477.000
200.507;  -69.625; -600.000; -373.000
200.653;  -43.275; -371.000; -194.000
200.798;  -32.350; -215.000; -125.000
200.944;  -19.025; -146.000;  -41.000
201.090;   47.025;   61.000;  222.000
201.236;  -12.900; -116.000; -158.000
201.382;  117.650;  874.000;  903.000
201.528;   -2.500;  -58.000;  -48.000
201.674;  -67.575; -386.000; -293.000
201.819;  -64.150; -540.000; -439.000
201.965;  -85.450; -699.000; -447.000
202.111;  -26.475; -273.000; -226.000
202.257;  -39.900; -250.000; -238.000
202.402;   -4.450;   13.000;  -36.000
202.548;  -25.000; -169.000; -116.000
202.694;   97.050;  410.000; -183.000
202.840;  -72.400; -603.000; -531.000
202.985;  -85.100; -681.000; -639.000
203.131;  -93.350; -832.000; -666.000
203.277;  -37.025; -199.000; -262.000
203.423;  -50.875; -434.000; -520.000
203.568;  -67.075; -462.000; -237.000
203.714;  -76.050; -535.000; -542.000
203.860;  -91.275; -682.000; -641.000
204.005;   23.150;  112.000;  167.000
204.151;   67.100;  561.000;  556.000
204.296;  -28.775; -354.000; -221.000
204.442;  -82.500; -600.000; -547.000
204.588;  -73.600; -592.000; -579.000
204.733;   19.425;  178.000;  168.000
204.879; -132.950;-1018.000; -822.000
205.025;  -11.500;  -99.000;  126.000
205.170;   -5.475;  -17.000;   94.000
205.316;   67.000;  438.000;  661.000
205.461;  -83.825; -698.000; -554.000
205.607;   65.000;  609.000;  665.000
205.752;  -84.150; -626.000; -551.000
205.898;  -61.200; -501.000; -391.000
206.043;  -55.925; -578.000; -506.000
206.189;  -45.500; -243.000; -285.000
206.334;  100.425;  554.000;  606.000
206.480;   74.925;  409.000;  239.000
206.625;  -77.250; -529.000; -552.000
206.771;  -45.025; -451.000; -373.000
206.916;  -39.250; -210.000; -537.000
207.062;  -76.300; -545.000; -591.000
207.207;  -67.400; -546.000; -443.000
207.353;   54.600;  185.000;  460.000
207.498;   10.475;  196.000;   85.000
207.643;  -69.200; -501.000; -370.000
207.789; -136.675;-1069.000; -910.000
207.934; -107.100; -665.000; -713.000
208.080;  -31.825; -154.000;   66.000
208.225;  -18.450;  -22.000;  -57.000
208.370;  -80.425; -727.000; -619.000
208.516;  -81.300; -741.000; -487.000
208.661;  -30.750; -127.000;  -69.000
208.806;  -34.025; -165.000; -171.000
208.952; -136.275;-1044.000; -731.000
209.097;   78.875;  378.000;  349.000
209.242;  -48.650; -307.000; -382.000
209.387;   61.250;  392.000;  350.000
209.533;  -49.950; -321.000; -350.000
209.678;   76.550;  472.000;  543.000
209.823;  -58.425; -408.000; -310.000
209.969; -117.600; -860.000; -757.000
210.114; -101.200; -907.000; -719.000
210.259; -133.850; -939.000; -889.000
210.404;  -14.550; -171.000;  103.000
210.549;   -2.750;  108.000;    3.000
210.695;  -15.000;   -3.000;  -95.000
210.840;   23.800;   94.000;   67.000
210.985;  -47.300; -484.000; -303.000
211.130;   58.975;  268.000;  406.000
211.275;   11.200;  207.000;  199.000
211.420;  -52.025; -300.000; -289.000
211.566;  -62.350; -536.000; -489.000
211.711;   12.575;  218.000;  157.000
211.856;  -66.425; -545.000; -519.000
212.001;   -1.100;  151.000;   44.000
212.146;   24.600;  153.000;   49.000
212.291;  -49.725; -210.000; -186.000
212.436;  -14.500; -280.000;   -6.000
212.581; -100.925; -685.000; -653.000
212.726;  -69.750; -487.000; -538.000
212.871;  -59.600; -552.000; -217.000
213.016; -156.400;-1172.000;-1029.000
213.161;   50.500;  406.000;  291.000
213.306;  -76.275; -435.000; -577.000
213.451; -104.275; -778.000; -689.000
213.596;  -46.975; -455.000; -347.000
213.741;  -75.750; -448.000; -538.000
213.886;  -77.325; -498.000; -517.000
214.031;  -30.100; -294.000; -124.000
214.176;  -47.325; -408.000; -341.000
214.321;  -22.025; -296.000; -157.000
214.466;  -23.175; -163.000;  -43.000
214.611;   -7.975;  -61.000;  -10.000
214.756; -107.300; -948.000; -858.000
214.901;  -28.125; -388.000; -226.000
215.046; -124.725; -797.000; -825.000
215.191;   17.700;  128.000;   35.000
215.336;   -3.700; -157.000;  -19.000
215.480;  -81.500; -684.000; -505.000
215.625;  -14.175; -175.000;  -19.000
215.770;  -99.975; -757.000; -662.000
215.915;   -4.850;   -5.000;  -97.000
216.060;   -4.200; -113.000;  -21.000
216.205; -116.150; -731.000; -779.000
216.349;  -77.100; -470.000; -533.000
216.494; -135.100; -939.000; -867.000
216.639; -128.525; -823.000; -888.000
216.784;  -77.500; -577.000; -525.000
216.929;   46.475;  392.000;  281.000
217.073;  -11.025; -244.000;  -31.000
217.218;   17.175;   78.000;  -47.000
217.363;  -91.450; -656.000; -618.000
217.507;  -95.800; -623.000; -588.000
217.652; -120.550; -845.000; -874.000
217.797; -103.850; -708.000; -659.000
217.942;  -98.950; -856.000; -720.000
218.086;   45.150;  608.000;  539.000
218.231;  -26.075; -174.000;  -26.000
218.376;  -46.650; -337.000; -229.000
218.520;    0.200;  -41.000;   96.000
218.665;  -44.775; -338.000; -204.000
218.810;  -45.050; -275.000; -233.000
218.954;    9.325;  201.000;   35.000
219.099; -113.275; -713.000; -963.000
219.243;  -71.575; -589.000; -554.000
219.388;  -28.750; -264.000; -136.000
219.532;  -11.550; -116.000; -116.000
219.677;  -79.175; -564.000; -521.000
219.822;   -0.575;   33.000;   89.000
219.966;   -0.825;   17.000;  -99.000
220.111;  -40.325; -328.000;  -40.000
220.255;  -96.125; -797.000; -750.000
220.400;  -24.025; -180.000; -146.000
220.544;  -70.900; -516.000; -450.000
220.689;  -63.775; -422.000; -451.000
220.833;  -19.650; -123.000;  -58.000
220.978;  -45.700; -393.000; -563.000
221.122;   35.225;  319.000;  307.000
221.267; -122.900; -906.000; -837.000
221.411;  -80.000; -478.000; -394.000
221.555;  -10.850; -104.000;  -23.000
221.700;  -27.125; -329.000; -222.000
221.844;   19.900;  255.000;  272.000
221.989;  -53.975; -328.000; -311.000
222.133;  -58.175; -289.000; -307.000
222.277;  -27.025;    5.000;   78.000
222.422;   -1.625;  227.000;  113.000
222.566;  -35.300; -381.000; -214.000
222.711;  -64.025; -414.000; -479.000
222.855;  -77.175; -643.000; -586.000
222.999;  -89.225; -642.000; -717.000
223.144;  -29.700; -195.000; -194.000
223.288;   52.800;  423.000;  251.000
223.432;   14.775;  184.000;  230.000
223.576;   -0.450;  152.000;  -21.000
223.721;   35.350;  364.000;  273.000
223.865;  -59.000; -472.000; -475.000
224.009;  218.000; 1673.000; 1631.000
224.153; -100.450; -660.000; -671.000
224.298;  -76.375; -531.000; -489.000
224.442;  -23.650;  -74.000;  -33.000
224.586;  -10.975; -169.000; -106.000
224.730; -104.675; -858.000; -670.000
224.875; -112.150; -739.000; -688.000
225.019;   18.700;  102.000;  188.000
225.163;   57.000;  208.000;  341.000
225.307;   10.900;   97.000;  -91.000
225.451;   41.600;  360.000;  481.000
225.595;   21.850;  264.000;  176.000
225.739;  -11.650; -170.000;  -94.000
225.884;   -3.500;   86.000;    5.000
226.028; -105.225; -760.000; -626.000
226.172;  -40.375; -260.000; -273.000
226.316; -131.200; -941.000; -902.000
226.460;  -82.625; -645.000; -493.000
226.604;  -61.075; -406.000; -400.000
226.748; -107.200; -836.000; -733.000
226.892;  -34.525; -227.000; -181.000
227.036;  -61.425; -537.000; -447.000
227.180;  -54.825; -551.000; -375.000
227.324;  -81.900; -561.000; -580.000
227.468; -113.350; -819.000; -717.000
227.612;    8.050;  242.000;  -28.000
227.756; -101.550; -845.000; -698.000
227.900;   53.250;  342.000;  441.000
228.044;  -62.175; -509.000; -290.000
228.188;   64.925;  448.000;  568.000
228.332;  -90.450; -546.000; -472.000
228.476;  -23.400; -223.000; -149.000
228.620;  -28.675; -210.000; -150.000
228.764;   51.950;  431.000;  349.000
228.908;  -20.175; -155.000;   30.000
229.052;  -62.500; -615.000; -528.000
229.195;  -15.250; -172.000;   13.000
229.339;  -28.475; -235.000; -305.000
229.483;  -28.225;    5.000; -162.000
229.627;  -10.600; -156.000;  139.000
229.771;  -50.525; -218.000; -294.000
229.915;   -1.400;  230.000;   79.000
230.059;  -87.975; -648.000; -663.000
230.202;  -50.350; -370.000; -317.000
230.346;  -15.850; -107.000;  107.000
230.490;  -71.125; -489.000; -521.000
230.634; -102.100; -736.000; -553.000
230.777;   67.675;  478.000;  509.000
230.921;  -58.625; -450.000; -359.000
231.065;  -41.400; -246.000; -286.000
231.209;   19.250;  261.000;  265.000
231.352;    3.625;   54.000;   40.000
231.496;   19.125;  568.000;  188.000
231.640;  -89.875; -693.000; -621.000
231.783;   62.125;  546.000;  525.000
231.927;  -41.550; -294.000; -365.000
232.071; -123.200; -962.000; -736.000
232.214; -124.675; -980.000; -764.000
232.358; -117.025; -683.000; -599.000
232.502;   -5.000;  -19.000;    7.000
232.645; -136.600;-1090.000; -927.000
232.789;  -39.000; -257.000; -218.000
232.933;  -36.075; -407.000; -224.000
233.076; -149.575;-1038.000; -897.000
233.220; -101.000; -752.000; -777.000
233.363;  -83.825; -669.000; -477.000
233.507;   48.075;  371.000;  129.000
233.650; -108.650; -764.000; -834.000
233.794;   43.575;  438.000;  461.000
233.938;  -60.275; -530.000; -362.000
234.081;  -11.525;  -93.000;   31.000
234.225;  -84.550; -631.000; -539.000
234.368; -109.900; -773.000; -723.000
234.512;  -56.150; -385.000; -299.000
234.655;  -98.100; -582.000; -555.000
234.798;  -82.075; -493.000; -466.000
234.942; -135.375; -884.000;-1002.000
235.085;  -76.925; -651.000; -443.000
235.229;  -80.900; -405.000; -410.000
235.372;  -62.000; -247.000; -191.000
235.516;  -66.250; -397.000; -321.000
235.659;    3.650;   92.000;  121.000
235.802;   -3.800;  -38.000;  -22.000
235.946;   17.925;  335.000;  215.000
236.089;   24.400;  126.000;  250.000
236.233;   48.325;  275.000;  298.000
236.376;  -48.375; -235.000; -378.000
236.519;  -62.850; -297.000; -319.000
236.663;  -25.625; -215.000; -117.000
236.806; -151.400;-1029.000; -999.000
236.949;   54.875;  543.000;  431.000
237.092;   54.200;  412.000;  391.000
237.236;  -89.950; -589.000; -502.000
237.379;   48.525;  352.000;  428.000
237.522; -110.100; -879.000; -768.000
237.666;  -21.125; -271.000;   18.000
237.809; -124.175; -851.000; -823.000
237.952;   38.125;  469.000;  271.000
238.095;  -61.350; -447.000; -442.000
238.238;   60.475;  688.000;  700.000
238.382;   -0.600;  166.000;  103.000
238.525;  -82.325; -598.000; -511.000
238.668; -144.300;-1060.000; -985.000
238.811; -100.200; -638.000; -643.000
238.954;  -63.475; -483.000; -334.000
239.097;   80.925;  617.000;  664.000
239.241;   17.225;  394.000;  326.000
239.384;  -42.625; -254.000; -214.000
239.527;  -73.725; -424.000; -224.000
239.670; -154.700; -994.000;-1091.000
239.813; -114.275; -696.000; -658.000
239.956;   67.825;  579.000;  473.000
240.099; -119.550; -778.000; -725.000
240.242;   57.025;  428.000;  432.000
240.385;   56.925;  466.000;  450.000
240.528;  -75.700; -706.000; -473.000
240.671;   25.925;  189.000;  134.000
240.814;  -58.675; -441.000; -158.000
240.957; -103.575; -767.000; -578.000
241.100; -103.575; -779.000; -755.000
241.243; -139.550;-1234.000; -893.000
241.386;  -74.400; -508.000; -379.000
241.529;  -95.800; -735.000; -547.000
241.672;  -80.475; -566.000; -495.000
241.815; -117.600; -832.000; -808.000
241.958;  -37.250; -125.000; -182.000
242.101;  -68.325; -545.000; -390.000
242.244;  -57.225; -270.000; -325.000
242.387;  -53.350; -304.000; -246.000
242.530;   54.850;  470.000;  134.000
242.673;  -59.725; -381.000; -309.000
242.815; -120.925; -925.000; -899.000
242.958;  -59.275; -482.000; -381.000
243.101;   -1.600;  132.000;  187.000
243.244;  -78.725; -564.000; -521.000
243.387;  -43.400; -313.000; -316.000
243.530;  -96.675; -657.000; -674.000
243.672;   -5.700;   43.000;  -92.000
243.815;  -52.925; -355.000; -283.000
243.958;  -15.400;   98.000;  -26.000
244.101;   -5.050;   59.000;  -16.000
244.243;  -24.050;  -47.000;  101.000
244.386; -111.050; -761.000; -630.000
244.529;  -37.075; -132.000; -139.000
244.672; -146.950;-1154.000; -951.000
244.814; -108.775; -621.000; -794.000
244.957;  -30.675; -380.000; -304.000
245.100;  -81.950; -489.000; -489.000
245.242;  -70.075; -387.000; -374.000
245.385;  -24.275;  -59.000;  -39.000
245.528; -115.075; -871.000; -705.000
245.670;   76.725;  612.000;  634.000
245.813;  -82.925; -599.000; -547.000
245.956;  -43.275; -324.000; -275.000
246.098;  -79.450; -508.000; -650.000
246.241;   -3.175;  194.000;   48.000
246.383;  -14.225; -119.000;  -73.000
246.526;  -98.625; -454.000; -525.000
246.669; -106.250; -889.000; -780.000
246.811;   13.575;  172.000;   -1.000
246.954;  -64.100; -512.000; -426.000
247.096;  -35.775;  -84.000;   -6.000
247.239;  -65.375; -482.000; -445.000
247.381;  -85.425; -647.000; -488.000
247.524;   96.475;  645.000;  679.000
247.666;  -20.175;   58.000;   11.000
247.809; -118.325; -887.000; -691.000
247.951;  -10.925;  -75.000;  138.000
248.094;   17.675;  432.000;  308.000
248.236; -171.900;-1262.000;-1238.000
248.378;    6.575; -356.000;  -81.000
248.521;  -34.100; -334.000; -337.000
248.663;  -47.850; -236.000; -267.000
248.806;  -28.800; -300.000; -266.000
248.948; -102.825; -886.000; -763.000
249.090;  -67.600; -428.000; -398.000
249.233;  -44.000; -344.000; -381.000
249.375;  -77.550; -474.000; -451.000
249.518;  -29.875;  -83.000; -133.000
249.660;  -26.275; -103.000;    3.000
249.802; -161.700;-1303.000;-1189.000
249.945;  -80.350; -612.000; -540.000
250.087; -116.650; -834.000; -768.000
250.229;  -66.875; -362.000; -480.000
250.371;  -68.125; -494.000; -439.000
250.514;  -54.075; -310.000; -244.000
250.656;  -68.925;   69.000;  102.000
250.798; -126.400; -849.000; -800.000
250.940;  -63.775; -322.000; -322.000
251.083;  -27.450; -335.000; -111.000
251.225;   59.725;  338.000;  310.000
251.367;  -56.075; -274.000; -373.000
251.509;  -43.175; -265.000; -210.000
251.651; -104.325; -731.000; -671.000
251.794;   42.225;  538.000;  632.000
251.936; -120.825; -821.000; -747.000
252.078;  -89.600; -540.000; -461.000
252.220;  -85.050; -645.000; -477.000
252.362;   93.425;  344.000;  462.000
252.504;  -87.975; -677.000; -584.000
252.646; -120.850; -875.000; -722.000
252.788;  -11.825;   14.000; -128.000
252.931;  -31.225; -257.000; -253.000
253.073;  -55.925; -376.000; -317.000
253.215;   -9.850;  141.000;  122.000
253.357;  -27.375;   82.000; -153.000
253.499;  -58.200; -374.000; -234.000
253.641; -103.225; -749.000; -594.000
253.783;  -94.475; -609.000; -527.000
253.925;  -98.075; -586.000; -591.000
254.067; -114.975; -744.000; -667.000
254.209;  -40.075; -391.000; -259.000
254.351; -135.750; -865.000; -883.000
254.493;  -62.450; -441.000; -417.000
254.635; -132.850; -936.000; -818.000
254.777;  -96.350; -752.000; -687.000
254.918;  -79.175; -512.000; -430.000
255.060;  -68.150; -551.000; -395.000
255.202;  -53.850; -473.000; -261.000
255.344;  -87.475; -658.000; -455.000
255.486;  -74.175; -471.000; -406.000
255.628; -102.675; -780.000; -781.000
255.770;  -99.725; -676.000; -536.000
255.912;  -73.950; -559.000; -468.000
256.053;  -85.675; -730.000; -508.000
256.195;  151.725; 1008.000;  903.000
256.337; -105.000; -861.000; -595.000
256.479;   54.050;  532.000;  416.000
256.621;  -46.450; -394.000; -212.000
256.762; -105.875; -789.000; -742.000
256.904;   59.775;  485.000;  487.000
257.046;  -58.025; -381.000; -271.000
257.188;  -28.925; -351.000; -264.000
257.329;  -82.350; -525.000; -464.000
257.471; -109.100; -939.000; -807.000
257.613;  -80.125; -584.000; -498.000
257.755; -163.300;-1073.000; -982.000
257.896;   23.650;  286.000;  392.000
258.038;  -75.300; -403.000; -352.000
258.180;  -49.050; -354.000; -279.000
258.321;  -84.125; -581.000; -457.000
258.463;  -16.200;  -71.000;  133.000
258.605;  -83.950; -562.000; -570.000
258.746; -105.525; -886.000; -772.000
258.888; -152.725;-1026.000;-1020.000
259.029;    0.775;  121.000;   -8.000
259.171; -100.525; -614.000; -550.000
259.313;   -4.900;  -49.000;  -47.000
259.454;  -73.575; -536.000; -414.000
259.596;  -49.825; -483.000; -390.000
259.737;  -70.300; -590.000; -474.000
259.879;   22.725;  217.000;  311.000
260.020;   85.850;  901.000;  636.000
260.162;  -50.175; -146.000; -253.000
260.303; -115.275; -768.000; -687.000
260.445; -102.575; -609.000; -613.000
260.586;   24.800;  392.000;  157.000
260.728;  -61.800; -360.000; -248.000
260.869;  -85.325; -350.000; -343.000
261.011;   67.500;  706.000;  537.000
261.152;  -54.150; -479.000; -319.000
261.293;  -84.500; -576.000; -595.000
261.435;  -52.400; -219.000; -184.000
261.576;  -65.350; -455.000; -325.000
261.718;   52.925;  420.000;  470.000
261.859; -145.450; -940.000; -949.000
262.000; -129.750; -951.000;-1016.000
262.142;  -31.425;  -52.000;  -60.000
262.283; -105.825; -808.000; -691.000
262.424; -112.975; -666.000; -625.000
262.566; -167.025;-1161.000; -983.000
262.707; -126.250; -840.000; -830.000
262.848; -114.825; -769.000; -726.000
262.990;  -55.500; -362.000; -345.000
263.131;   79.950;  650.000;  681.000
263.272;  -11.825;  -61.000;  -41.000
263.413;  -98.975; -589.000; -561.000
263.555;  -77.225; -669.000; -143.000
263.696;  -83.550; -550.000; -641.000
263.837;  -65.775; -449.000; -551.000
263.978;    5.875;   -5.000;  -77.000
264.119;  -63.150; -283.000; -264.000
264.261; -120.825; -847.000; -630.000
264.402;   -4.875;   33.000;   40.000
264.543;  -75.925; -509.000; -524.000
264.684;  -20.450;   61.000;  -50.000
264.825;  -75.450; -816.000; -538.000
264.966;   -2.850;  -84.000;  -67.000
265.107; -126.025; -646.000; -670.000
265.248; -128.000; -825.000; -812.000
265.390;  -17.600;  152.000;   -9.000
265.531;  -45.625; -238.000; -107.000
265.672;  -83.225; -557.000; -630.000
265.813;   35.925;  563.000;  439.000
265.954; -160.625; -959.000; -940.000
266.095;  -31.725; -372.000; -322.000
266.236; -102.975; -686.000; -548.000
266.377;  -55.150; -243.000; -297.000
266.518;  -83.450; -619.000; -547.000
266.659;   32.825;  170.000;  268.000
266.800;    1.650;   83.000;   85.000
266.941;  -93.650; -487.000; -478.000
267.082;   21.325;  354.000;   99.000
267.223;  -51.100; -344.000; -273.000
267.364; -116.975; -892.000; -686.000
267.504;  -27.650;    3.000;  135.000
267.645;   -1.850;  160.000;   67.000
267.786;  -31.625; -147.000;  -86.000
267.927;  -78.950; -473.000; -379.000
268.068;  -22.125; -186.000;  -61.000
268.209;  -40.300; -175.000; -413.000
268.350;  -66.800; -388.000; -532.000
268.490; -102.675; -648.000; -521.000
268.631;   29.950;  127.000;  225.000
268.772; -121.500; -874.000; -647.000
268.913;  -66.375; -328.000; -476.000
269.054;  -19.325; -117.000;   12.000
269.194;  -45.700; -418.000; -402.000
269.335; -146.575;-1137.000;-1074.000
269.476;  -30.375;   33.000;  -35.000
269.617;  -35.700; -347.000; -392.000
269.757;  -89.300; -713.000; -646.000
269.898; -116.125; -856.000; -613.000
270.039;  -64.800; -415.000; -405.000
270.180; -142.375; -952.000; -816.000
270.320;  -30.100; -190.000; -250.000
270.461;  -38.000; -277.000; -249.000
270.602;  -19.525; -186.000; -156.000
270.742; -123.225; -868.000; -943.000
270.883;  -57.250; -442.000; -390.000
271.023;  -48.175; -358.000; -357.000
271.164;  -87.775; -607.000; -528.000
271.305;  -93.000; -666.000; -654.000
271.445; -112.700; -722.000; -683.000
271.586;  -76.225; -462.000; -283.000
271.726;  -52.600; -397.000; -322.000
271.867;  -51.775; -594.000; -534.000
272.008;  161.250; -473.000; -285.000
272.148;  130.750;  462.000;  468.000
272.289;   -2.800; -113.000; -181.000
272.429;    9.025;   19.000;  185.000
272.570;  -97.700; -633.000; -737.000
272.710; -104.075; -825.000; -775.000
272.851;  -41.275;  113.000; -130.000
272.991; -161.025;-1173.000;-1077.000
273.131;  -72.350; -419.000; -459.000
273.272; -106.750; -683.000; -723.000
273.412;   -2.225; -143.000;  -31.000
273.553;  -57.475; -488.000; -507.000
273.693;  116.200;  913.000;  858.000
273.834;  -90.900; -894.000; -692.000
273.974;  -91.450; -664.000; -615.000
274.114;  -95.475; -772.000; -560.000
274.255;   72.550;  414.000;  373.000
274.395;   -7.275; -180.000; -125.000
274.535;   43.525;  199.000;  350.000
274.676;   17.475;  225.000;   94.000
274.816;   -4.750;  110.000;   34.000
274.956;  -85.350; -624.000; -690.000
275.097;  -63.675;-1014.000; -922.000
275.237; -104.525; -913.000; -803.000
275.377; -111.825; -778.000; -689.000
275.517; -143.050; -878.000; -937.000
275.658;  -68.900; -590.000; -555.000
275.798;  -78.150; -606.000; -413.000
275.938;    5.550;  215.000;  323.000
276.078; -103.200; -626.000; -395.000
276.218;    8.075;   99.000;  104.000
276.359; -119.850;-1026.000;-1024.000
276.499;  -81.300; -605.000; -446.000
276.639;  -45.400; -305.000; -151.000
276.779;  -58.650; -475.000; -357.000
276.919; -104.550; -783.000; -624.000
277.059;  -34.975; -261.000; -212.000
277.199;  -45.900; -357.000; -259.000
277.340;   38.900;  287.000;  175.000
277.480; -118.500; -840.000; -693.000
277.620;   29.700;  192.000;   16.000
277.760; -204.350;-1533.000;-1294.000
277.900;    1.575;  113.000;   33.000
278.040;    7.050;  137.000;  159.000
278.180;   17.250;  270.000;  170.000
278.320;   -7.400;   21.000;   56.000
278.460;  -77.825; -443.000; -469.000
278.600;  -93.950; -708.000; -598.000
278.740;   58.275;  448.000;  224.000
278.880;  -71.000; -768.000; -791.000
279.020;  -16.350; -194.000; -144.000
279.160;  -98.175; -672.000; -595.000
279.300; -132.475; -926.000; -873.000
279.440;  -99.775; -709.000; -622.000
279.579;  -24.450;-1014.000; -929.000
279.719;  -65.050; -410.000; -394.000
279.859;   66.350;   -4.000;   41.000
279.999;   19.125; -208.000;  101.000
280.139;  -31.775; -435.000; -387.000
280.279;  -73.475; -708.000; -745.000
280.419;  -24.850; -229.000; -147.000
280.559;  -42.750; -259.000; -180.000
280.698;  -89.850; -790.000; -639.000
280.838;  -96.025; -778.000; -800.000
280.978; -105.575; -846.000; -790.000
281.118; -109.125; -811.000; -704.000
281.257;   -3.750;   24.000;    6.000
281.397; -118.600;-1094.000; -960.000
281.537;  -96.925; -599.000; -712.000
281.677;  -17.975; -150.000; -101.000
281.816;  -90.475; -700.000; -630.000
281.956;  -26.350; -193.000; -257.000
282.096;  -74.850; -539.000; -396.000
282.235;  -94.625; -672.000; -638.000
282.375;  -28.775; -243.000;  -98.000
282.515; -102.100; -715.000; -707.000
282.654;   13.375;   29.000;  106.000
282.794;   32.900;  388.000;  244.000
282.934;  -62.275; -530.000; -491.000
283.073; -133.900;-1030.000; -857.000
283.213;  -47.325; -460.000; -467.000
283.353;  -48.050; -408.000; -349.000
283.492;  -40.925; -264.000; -296.000
283.632;  -51.550; -254.000; -168.000
283.771; -107.875; -859.000; -730.000
283.911;  -63.450; -369.000; -260.000
284.050; -124.675; -794.000; -748.000
284.190; -155.300;-1229.000;-1096.000
284.329; -153.325;-1055.000; -964.000
284.469;  -61.600; -516.000; -591.000
284.608;  -64.300; -559.000; -598.000
284.748;  -83.750; -614.000; -570.000
284.887;  -10.025;  -87.000;  -20.000
285.027; -118.000; -844.000; -892.000
285.166;  -45.875; -192.000; -249.000
285.306;   -2.675; -116.000;  -33.000
285.445;  -44.875; -229.000; -343.000
285.584;  -98.075; -630.000; -494.000
285.724;  -50.650; -282.000; -322.000
285.863; -127.300; -857.000; -507.000
286.002;  -71.975; -366.000; -276.000
286.142; -108.300; -715.000; -622.000
286.281;  -78.325; -525.000; -493.000
286.420;  -82.750; -554.000; -417.000
286.560;   78.425;  653.000;  623.000
286.699; -141.500; -958.000; -912.000
286.838;  -82.075; -590.000; -591.000
286.978;  -85.550; -533.000; -537.000
287.117; -129.025;-1085.000; -950.000
287.256;  -31.400; -228.000; -211.000
287.395;  -60.875; -197.000; -378.000
287.535;  -60.550; -370.000; -298.000
287.674;  -91.600; -509.000; -484.000
287.813;   47.900;  661.000;  533.000
287.952; -139.525;-1010.000; -871.000
288.091; -148.025;-1049.000; -915.000
288.231;   -4.725;   13.000;   15.000
288.370; -170.075;-1217.000;-1200.000
288.509; -102.775; -728.000; -645.000
288.648;  -83.425; -770.000; -548.000
288.787;  -54.375; -243.000;  -87.000
288.926;  -61.150; -454.000; -475.000
289.065;  107.400;  859.000;  672.000
289.204;  -70.575; -377.000; -217.000
289.344; -109.025; -791.000; -690.000
289.483;   13.200;  416.000;  304.000
289.622;  -50.575; -291.000; -149.000
289.761;  -10.100; -309.000; -166.000
289.900; -124.575; -785.000; -626.000
290.039;  -30.900;  -12.000;  -95.000
290.178;  -57.025; -274.000; -180.000
290.317;  -81.350; -618.000; -479.000
290.456;  -77.725; -463.000; -451.000
290.595; -145.150; -961.000; -833.000
290.734; -145.600; -904.000; -891.000
290.873;  -65.600; -456.000; -420.000
291.011; -119.625; -833.000; -843.000
291.150;  -87.150; -770.000; -682.000
291.289;  -28.875; -343.000; -110.000
291.428; -100.175; -599.000; -480.000
291.567;  -64.950; -370.000; -442.000
291.706;  -15.675;  109.000;  154.000
291.845;  -95.050; -597.000; -505.000
291.984; -176.950;-1234.000;-1061.000
292.122;   68.475;  602.000;  582.000
292.261;   37.925;  620.000;  463.000
292.400;   -6.375; -144.000;  211.000
292.539; -119.425; -959.000; -813.000
292.678;  -42.050; -325.000; -300.000
292.816; -155.950;-1136.000; -965.000
292.955;  -89.675; -844.000; -684.000
293.094;  -26.550; -173.000; -337.000
293.233;  -46.325; -556.000; -400.000
293.371;  -40.650; -225.000;  -84.000
293.510; -115.025; -866.000; -780.000
293.649; -127.400; -959.000; -924.000
293.787;  -68.000;-1083.000;-1012.000
293.926;   -1.850; -113.000;  -32.000
294.065;  -61.575; -379.000; -290.000
294.203;   47.375;  298.000;  406.000
294.342;  -10.875;   74.000;  156.000
294.481; 7149.775;51180.000; -836.000
294.619;  -43.800; -425.000; -582.000
294.758; -140.825;-1230.000;-1137.000
294.896;   56.325; -125.000;    5.000
295.035; -124.825;-1040.000;-1006.000
295.174; -146.150;-1082.000; -954.000
295.312;  -47.700; -323.000; -203.000
295.451;  -14.975; -307.000; -428.000
295.589;  -59.075; -389.000; -518.000
295.728;    3.525; -292.000; -165.000
295.866;   10.900;  -36.000;  -51.000
296.005;  -79.400; -584.000; -341.000
296.143;  -76.275; -558.000; -596.000
296.282; -112.325; -957.000; -881.000
296.420; -106.250; -657.000; -557.000
296.559;  -83.425; -892.000; -633.000
296.697;   10.300; -847.000; -665.000
296.835;   37.950;-1141.000;-1002.000
296.974;   46.150;  -23.000;   39.000
297.112;   -8.775; -443.000; -504.000
297.251;  -66.350; -815.000; -755.000
297.389;   72.275; -576.000; -438.000
297.527;   42.075; -145.000;  -83.000
297.666;  -54.425; -486.000; -438.000
297.804;  -48.575; -404.000; -264.000
297.942;  -16.550; -136.000; -161.000
298.081;   -5.050; -183.000;   63.000
298.219;   52.375;  -17.000;  -19.000
298.357;   42.500; -144.000;  -71.000
298.495;   23.750; -810.000; -812.000
298.634;   73.250;  245.000;  219.000
298.772;   42.525; -220.000; -338.000
298.910;  -33.750; -309.000; -182.000
299.048;   -0.925; -130.000; -153.000
299.187;  -31.775; -350.000; -250.000
299.325;   14.375;   52.000;  122.000
299.463;   54.825; -389.000; -299.000
299.601;   95.850; -327.000; -271.000
299.739;  -99.850; -908.000; -883.000
299.877;  -91.900; -791.000; -703.000
300.016;  -53.650;-1095.000; -935.000
300.154;  148.625;  -19.000; -161.000
300.292;   62.525; -428.000; -348.000
300.430;   34.825; -408.000; -291.000
300.568; -109.775; -940.000; -874.000
300.706;  -47.375; -366.000; -469.000
300.844;  -91.275;-1108.000; -979.000
300.982;  119.125;  246.000;  282.000
301.120; -104.800; -965.000; -866.000
301.258;  -71.000; -812.000; -705.000
301.396;   36.425;  104.000;  -41.000
301.534;   62.050; -218.000; -293.000
301.672;  -14.850; -664.000; -521.000
301.810;   33.375; -613.000; -545.000
301.948;  107.275;   53.000;  149.000
302.086;  590.275; -250.000;  -32.000
302.224;  929.525; -610.000; -585.000
302.362;   20.825; -558.000; -622.000
302.500;  -12.475; -923.000; -893.000
302.638;   97.325;  128.000;  245.000
302.776;   -5.600; -352.000; -408.000
302.913;   39.725;  447.000;  236.000
303.051;    2.325;  -86.000;  -23.000
303.189;   41.825;   90.000;  118.000
303.327;  -39.950; -341.000; -256.000
303.465;  -84.025; -832.000; -588.000
303.603;  -89.275; -805.000; -604.000
303.740;   79.000;  417.000;  241.000
303.878;   10.025; -800.000; -759.000
304.016; -102.300; -915.000; -790.000
304.154; -130.600;-1123.000;-1152.000
304.291;  -59.475; -505.000; -554.000
304.429;   23.475;  102.000;   74.000
304.567; -136.000; -908.000; -893.000
304.705;  -53.375; -408.000; -515.000
304.842;   78.650; -616.000; -540.000
304.980;   51.300;  215.000;   35.000
305.118;   39.425; -367.000; -365.000
305.255;  -70.125; -945.000; -927.000
305.393;   54.800;  178.000;  239.000
305.531; -111.725;-1173.000; -956.000
305.668;  -71.200; -663.000; -582.000
305.806;   91.700; -358.000; -439.000
305.943;   87.000; -629.000; -637.000
306.081;   51.525; -378.000; -267.000
306.219; -121.275; -863.000; -748.000
306.356;    7.550;  158.000;   27.000
306.494;   93.800;  981.000;  761.000
306.631;   -6.125;  -11.000;  -55.000
306.769;    3.200; -613.000; -485.000
306.906;  -18.325; -284.000; -258.000
307.044;  -77.725; -473.000; -488.000
307.181;  -56.825; -410.000; -332.000
307.319;    3.400;  112.000;   87.000
307.456; -162.350;-1191.000;-1153.000
307.594; -104.650; -980.000; -727.000
307.731;  -10.025; -371.000; -164.000
307.868;  -15.825;  -15.000;   20.000
308.006; -138.775; -961.000; -847.000
308.143;  -70.750; -618.000; -330.000
308.281;  137.750;  -37.000; -254.000
308.418;  -28.500; -748.000; -640.000
308.555;  -68.225; -400.000; -250.000
308.693;  -73.725; -577.000; -573.000
308.830; -113.475; -712.000; -657.000
308.967;  -21.775; -215.000;  -95.000
309.105;  -44.500; -507.000; -396.000
309.242;   26.325; -468.000; -367.000
309.379;  253.925; -577.000; -655.000
309.517;  -85.075; -936.000; -948.000
309.654; -116.875; -910.000; -734.000
309.791;  -86.000; -662.000; -580.000
309.928; -102.550; -977.000; -914.000
310.065;  158.350;  819.000;  697.000
310.203;    0.450; -825.000; -850.000
310.340;  -32.325; -465.000; -321.000
310.477;  -83.450; -412.000; -516.000
310.614;  -72.825; -383.000; -473.000
310.751;  -76.150; -427.000; -518.000
310.889;  -24.425;    1.000;   11.000
311.026; -156.750;-1161.000; -939.000
311.163;  -51.025; -386.000; -380.000
311.300;  -81.300; -512.000; -479.000
311.437;  -84.425; -658.000; -619.000
311.574; -155.250;-1226.000; -985.000
311.711;  -71.875; -595.000; -433.000
311.848;  -39.750; -380.000; -388.000
311.985;    3.850;  270.000;   93.000
312.122; -108.800; -932.000; -762.000
312.259; -121.450; -941.000; -994.000
312.396;  -83.775; -508.000; -551.000
312.533; -102.725; -812.000; -790.000
312.670; -123.875;-1070.000; -898.000
312.807;  -41.875; -352.000; -367.000
312.944;  -76.350; -513.000; -611.000
313.081;  -39.625; -150.000; -415.000
313.218; -111.575;-1111.000; -867.000
313.355;    4.425; -531.000; -449.000
313.492;    2.525; -455.000; -292.000
313.629;  112.875;  815.000;  735.000
313.766; -159.550;-1176.000;-1008.000
313.902;  -22.825; -186.000;   21.000
314.039;  -38.400; -372.000; -289.000
314.176;   23.475;  286.000;  192.000
314.313;  -69.700; -569.000; -473.000
314.450;  -87.125; -788.000; -684.000
314.587;  -55.350; -468.000; -480.000
314.723;   -5.175;  -78.000;  130.000
314.860;   34.900;  318.000;  332.000
314.997;   28.100;  223.000;  142.000
315.134;  -48.700; -385.000; -368.000
315.270;  -40.150; -480.000; -496.000
315.407; -125.000;-1094.000; -967.000
315.544;  -72.975; -657.000; -538.000
315.681;  -62.600; -681.000; -565.000
315.817;   35.300; -133.000; -176.000
315.954;   14.750; -613.000; -392.000
316.091; -128.350;-1045.000;-1023.000
316.227;  -18.725;  -71.000; -179.000
316.364;  -10.975;   23.000;    6.000
316.500;  -45.775; -113.000; -300.000
316.637;  -51.350; -181.000; -302.000
316.774;  -72.550; -625.000; -358.000
316.910;  -98.100; -598.000; -629.000
317.047;  -75.150; -487.000; -351.000
317.183;  -65.675; -435.000; -566.000
317.320;   -8.350; -367.000; -321.000
317.456;  -71.675; -733.000; -805.000
317.593;  -97.350; -598.000; -641.000
317.729;   -5.575;  168.000;  -67.000
317.866; -192.750;-1434.000;-1285.000
318.002; -105.500; -708.000; -948.000
318.139;  -87.700; -883.000; -867.000
318.275; -106.700;-1003.000; -738.000
318.412;  -58.425; -517.000; -336.000
318.548;  -48.325; -751.000; -720.000
318.685;  -99.575; -985.000; -888.000
318.821; -107.500; -762.000; -735.000
318.957;  -25.600;   34.000;  -23.000
319.094;   29.300;  297.000;  154.000
319.230;  -52.300; -756.000; -742.000
319.367;  118.975; -471.000; -520.000
319.503;   60.000; -538.000; -436.000
319.639; -104.725; -877.000; -793.000
319.775;  -68.700; -750.000; -685.000
319.912;  -62.025; -424.000; -519.000
320.048;  -80.425;-1184.000;-1184.000
320.184;   62.425;   59.000;   70.000
320.321;  -71.525; -497.000; -467.000
320.457;   60.325;  475.000;  662.000
320.593;  -75.350; -375.000; -382.000
320.729; -106.775; -732.000; -734.000
320.866;  -71.450; -577.000; -635.000
321.002;  -81.400; -759.000; -809.000
321.138;  -10.200; -135.000; -211.000
321.274;   71.650; -148.000; -115.000
321.410;  -38.400; -585.000; -353.000
321.546;  -49.425;-1011.000; -911.000
321.683;   42.000;  400.000;  185.000
321.819;   -2.675;  -48.000; -117.000
321.955; -114.500; -743.000; -722.000
322.091;  -62.025; -585.000; -540.000
322.227;   -3.725; -382.000; -202.000
322.363;  -26.925; -320.000; -215.000
322.499;  -34.375; -343.000; -331.000
322.635;  146.975;  636.000;  443.000
322.771;   16.800; -139.000;   12.000
322.907;   75.975;  129.000;  327.000
323.043;  -22.075; -115.000; -206.000
323.179;  -54.725; -394.000; -363.000
323.315;   12.675; -401.000; -371.000
323.451;   94.800; -328.000; -236.000
323.587;   55.850;  -60.000;  -77.000
323.723;    2.700; -682.000; -601.000
323.859;  -14.800; -258.000;  -76.000
323.995;  -48.750; -467.000; -409.000
324.131; -127.050; -967.000; -892.000
324.267;  -37.400; -254.000; -276.000
324.402; -117.725; -960.000; -983.000
324.538;  -24.675; -279.000; -104.000
324.674;   22.575;  164.000;   77.000
324.810;  130.525;  226.000;  308.000
324.946;   13.800; -810.000; -658.000
325.082;  -82.175; -568.000; -475.000
325.217;   -9.125;  -62.000;   16.000
325.353; -110.425; -764.000; -659.000
325.489;  -73.675; -540.000; -506.000
325.625;  -80.750; -579.000; -525.000
325.760;   51.650;  517.000;  376.000
325.896;  -35.950; -515.000; -702.000
326.032;  -54.475; -403.000; -352.000
326.168;  -65.175; -462.000; -369.000
326.303;  -68.375; -352.000; -461.000
326.439;  -38.425; -336.000; -276.000
326.575;    4.000; -190.000;  -29.000
326.710;  -20.025; -156.000;  -30.000
326.846;  -27.275;  146.000;  103.000
326.982; -101.300; -530.000; -548.000
327.117;  -79.675; -481.000; -442.000
327.253;  -92.700; -745.000; -742.000
327.388; -152.150;-1137.000;-1153.000
327.524;  -62.825; -811.000; -578.000
327.659;  -15.350;  -58.000;  -22.000
327.795;  -23.350;   69.000;   45.000
327.931;  -85.800; -723.000; -499.000
328.066;  -41.200; -417.000; -276.000
328.202;  -13.025;   12.000; -129.000
328.337;   93.075;  957.000;  713.000
328.473;   29.725;  -12.000;  -74.000
328.608;  -24.975; -256.000; -267.000
328.743;  -91.000; -799.000; -664.000
328.879;   -5.775;  214.000;  114.000
329.014;  -38.650; -102.000; -122.000
329.150;  -98.275; -358.000; -483.000
329.285;  -71.400; -465.000; -466.000
329.421;  -64.700; -548.000; -246.000
329.556;  -15.350;  -36.000;   85.000
329.691; -115.850; -633.000; -615.000
329.827;  -80.475; -626.000; -480.000
329.962;  -41.850;  131.000; -301.000
330.097;  -92.225; -673.000; -585.000
330.233;  -66.675; -410.000; -223.000
330.368; -125.325; -839.000; -628.000
330.503;  -25.100;    3.000;   98.000
330.638;    6.675;  -93.000; -125.000
330.774;  -70.250; -609.000; -530.000
330.909;  -46.200; -434.000; -244.000
331.044; -103.050; -714.000; -708.000
331.179; -169.400;-1217.000;-1109.000
331.315;   -6.975;   77.000;   20.000
331.450;   14.000;  157.000;  285.000
331.585;  -90.750; -805.000; -706.000
331.720;  -87.450; -510.000; -460.000
331.855;  -19.400;  -35.000; -102.000
331.990;  243.700;   62.000;  138.000
332.126;  123.675; -110.000;   71.000
332.261;  -25.450; -379.000; -265.000
332.396;  -13.100; -135.000; -242.000
332.531; -102.700;-1074.000;-1031.000
332.666;   28.100; -519.000; -363.000
332.801; -109.400; -726.000; -807.000
332.936;  -25.650; -192.000; -122.000
333.071; -141.400; -870.000; -817.000
333.206;   26.500;  307.000;  379.000
333.341;   40.250;  344.000;  418.000
333.476;  -82.875; -627.000; -623.000
333.611;  -38.575; -251.000; -173.000
333.746;  -54.725; -381.000; -464.000
333.881; -115.475; -973.000; -935.000
334.016; -127.825; -936.000; -917.000
334.151; -116.425; -746.000; -702.000
334.286;   20.875;  152.000;  186.000
334.421;  -13.375; -125.000; -178.000
334.556;  -96.150; -611.000; -567.000
334.690;  -94.250; -631.000; -577.000
334.825;   27.050;  381.000;   83.000
334.960;  -56.275; -285.000; -413.000
335.095;   -3.275;  135.000;  -91.000
335.230;  -95.225; -722.000; -738.000
335.365; -139.950;-1084.000; -990.000
335.499; -122.600;-1108.000;-1037.000
335.634;   28.700;    9.000;  534.000
335.769; -107.225; -755.000; -720.000
335.904;  -61.050; -603.000; -561.000
336.038;  -52.225; -735.000; -657.000
336.173; -123.300;-1206.000;-1194.000
336.308;   11.225; -116.000; -189.000
336.443;   27.675; -544.000; -634.000
336.577;  -61.550; -936.000; -787.000
336.712;   52.675;   -4.000;  -12.000
336.847;  -30.925; -724.000; -607.000
336.981;   63.600; -272.000; -208.000
337.116;  296.725;  615.000;  501.000
337.250;  143.800; -434.000; -421.000
337.385;  242.475; -297.000; -208.000
337.520;   75.975; -632.000; -603.000
337.654;  -34.650; -215.000; -126.000
337.789; -143.875; -989.000; -933.000
337.923;  -27.700; -104.000; -205.000
338.058;  -95.925; -673.000; -738.000
338.192;  -29.750; -611.000; -488.000
338.327;  -20.075;  -18.000; -155.000
338.461;  -52.600; -299.000; -469.000
338.596; -106.875; -780.000; -638.000
338.730;  -97.600; -767.000; -803.000
338.865;   73.500;  -46.000; -140.000
338.999;  -60.500; -846.000; -702.000
339.134;  -27.275; -634.000; -536.000
339.268;   25.550; -741.000; -603.000
339.403;  340.050; -740.000; -775.000
339.537;   96.175; -894.000; -820.000
339.671; -119.450; -829.000; -813.000
339.806;  -61.625; -556.000; -512.000
339.940;   -6.450; -261.000; -235.000
340.074; -113.425; -685.000; -510.000
340.209;  -64.575; -351.000; -230.000
340.343;  -89.800; -517.000; -573.000
340.477;  139.150;  998.000; 1036.000
340.612;  -54.025;-1033.000; -900.000
340.746;  116.600; -199.000; -243.000
340.880;  -78.900; -924.000; -785.000
341.014;  -21.325;  -45.000; -154.000
341.149; -110.450; -756.000; -718.000
341.283; -117.775; -839.000; -754.000
341.417; -112.850;-1124.000; -938.000
341.551;  134.775; -768.000; -708.000
341.685;  -38.550; -633.000; -611.000
341.820;  -76.500; -562.000; -493.000
341.954;  -54.500; -218.000; -349.000
342.088; -158.925;-1102.000;-1019.000
342.222;   48.775;  565.000;  618.000
342.356;  -72.200; -395.000; -335.000
342.490;  -83.225; -880.000; -841.000
342.624;  -38.850; -339.000; -242.000
342.758;  -14.000; -364.000; -312.000
342.892;  -75.875; -710.000; -585.000
343.026;  -34.700;  -58.000; -116.000
343.160;  -66.800; -426.000; -376.000
343.294;  -78.025; -474.000; -337.000
343.428;  -31.025; -488.000; -448.000
343.562;  -11.375; -172.000;  -23.000
343.696;  -46.350; -385.000; -314.000
343.830;  -33.875; -362.000; -356.000
343.964;    1.950; -231.000; -168.000
344.098;  904.575;  199.000;   70.000
344.232;  726.975; -266.000; -127.000
344.366;   89.850; -567.000; -453.000
344.500;   35.475; -665.000; -744.000
344.634;   20.700; -324.000; -164.000
344.768;  -10.100; -531.000; -341.000
344.902;   26.800;  278.000;  256.000
345.035;  -90.525; -556.000; -496.000
345.169; -134.350; -933.000; -656.000
345.303;  -55.750; -308.000; -482.000
345.437;  -78.275; -826.000; -717.000
345.571;  -70.425; -675.000; -594.000
345.704;  -68.725; -309.000; -532.000
345.838;  -28.050; -331.000; -284.000
345.972;  -30.175; -543.000; -495.000
346.106;  150.200; -179.000; -190.000
346.239;  404.625; -312.000; -243.000
346.373;   10.975; -343.000; -302.000
346.507; -140.800; -950.000; -962.000
346.640;  117.875;  -30.000;   13.000
346.774;  -48.725; -650.000; -797.000
346.908;  -30.675; -138.000;  -11.000
347.041;  -91.250; -646.000; -593.000
347.175;   -2.050;  259.000;   27.000
347.309;  -68.175; -698.000; -628.000
347.442; -113.850; -883.000; -732.000
347.576;  267.400;  670.000;  668.000
347.709;  184.900; -123.000;  -52.000
347.843; -100.450; -933.000; -825.000
347.976;   38.125;  235.000;  294.000
348.110; -176.825;-1268.000;-1186.000
348.243; -121.500; -679.000; -772.000
348.377;   10.275;  -26.000;   60.000
348.510;   38.725;  403.000;  540.000
348.644;  -38.750;  -37.000; -159.000
348.777;  -11.525;  180.000;  191.000
348.911;  -58.775; -142.000; -112.000
349.044;  143.625;  471.000;  448.000
349.178;  144.200;-1069.000;-1006.000
349.311;  108.300;  141.000;  255.000
349.444;   -4.525; -927.000; -813.000
349.578;  -38.050; -347.000; -200.000
349.711;  -96.925; -959.000; -862.000
349.845;  -10.375; -661.000; -591.000
349.978; -139.700;-1224.000;-1137.000
350.111;  -84.575; -546.000; -612.000
350.244;  -66.525; -596.000; -700.000
350.378;  -16.250; -392.000; -393.000
350.511;  -77.125; -393.000; -426.000
350.644; -104.975; -808.000; -806.000
350.778;    8.825;  168.000;  104.000
350.911;   -9.575;  134.000;  140.000
351.044;  -85.100; -685.000; -615.000
351.177;  -34.950; -321.000; -281.000
351.310;  -17.575;    3.000; -131.000
351.444;  -95.650; -888.000; -788.000
351.577;  122.325;  140.000;   90.000
351.710;  101.900;  593.000;  417.000
351.843;  -30.125; -165.000;  -77.000
351.976;    1.925;  149.000;  -79.000
352.109;  -86.450; -621.000; -612.000
352.242;  -32.125; -464.000; -419.000
352.376;  -55.925; -580.000; -636.000
352.509;  170.900; -437.000; -356.000
352.642;   -0.650; -654.000; -604.000
352.775;   55.050; -141.000;  -98.000
352.908; -111.925; -933.000; -904.000
353.041; -102.100; -814.000; -824.000
353.174;  -54.925; -551.000; -424.000
353.307;  -91.150; -753.000; -764.000
353.440;   65.925;  541.000;  453.000
353.573; -120.700; -957.000;-1008.000
353.706;  -40.350; -384.000; -558.000
353.839;  -28.900; -264.000; -220.000
353.971; -106.000; -657.000; -512.000
354.104;  -86.575; -896.000; -835.000
354.237;  -40.725; -627.000; -662.000
354.370;  -84.900; -846.000; -879.000
354.503; -184.100;-1231.000;-1308.000
354.636;  -46.925; -529.000; -348.000
354.769; -126.350; -937.000; -860.000
354.902;   -3.550; -230.000; -139.000
355.034;  -18.125; -164.000; -220.000
355.167;  -21.700; -262.000; -162.000
355.300;  -90.775;-1061.000; -880.000
355.433;  918.850;  -71.000;  -14.000
355.565; 1465.200; -402.000; -384.000
355.698;  357.625; -356.000; -296.000
355.831;    5.900; -882.000; -801.000
355.964;   71.700; -285.000; -170.000
356.096;  -79.250; -856.000; -843.000
356.229;    7.275; -523.000; -530.000
356.362;  310.600; -373.000; -266.000
356.494;  582.875; -229.000; -162.000
356.627;  464.775;  269.000;  377.000
356.760;  640.725;  120.000;   53.000
356.892;  912.675; -286.000; -601.000
357.025;  641.575;  403.000;  389.000
357.157;  609.250; -167.000; -179.000
357.290;  647.050; -856.000; -713.000
357.423;  170.500; -667.000; -556.000
357.555;  116.700; -217.000; -228.000
357.688;  124.275; -483.000; -364.000
357.820;  437.750; -870.000; -877.000
357.953; 3610.475; -563.000; -589.000
358.085;  775.400; -632.000; -612.000
358.218; 1117.750;-1131.000; -932.000
358.350;  203.425;  -58.000;  312.000
358.483; -116.225;-1300.000;-1187.000
358.615;  -23.450;-1182.000;-1078.000
358.747;  -54.075;-1187.000;-1058.000
358.880;   21.200; -810.000; -744.000
359.012;  -15.650; -376.000; -202.000
359.145;  -44.225; -480.000; -511.000
359.277;   57.775; -962.000; -913.000
359.409; 2996.425;  536.000;  231.000
359.542;  790.625; -738.000; -688.000
359.674;   60.375;   46.000;   13.000
359.806;  -62.825; -565.000; -438.000
359.939;  -64.200; -617.000; -516.000
360.071;  -12.500; -583.000; -579.000
360.203;  -27.975; -411.000; -364.000
360.335;   46.800;  164.000;  -16.000
360.468;  180.750; -249.000; -307.000
360.600; 2386.900; -547.000; -454.000
360.732; 2719.400; -546.000; -423.000
360.864;  374.950;-1216.000;-1044.000
360.996;  271.325; -516.000; -554.000
361.129;   46.775; -389.000; -598.000
361.261;   14.250;  110.000; -113.000
361.393;  -16.350; -252.000; -214.000
361.525;   21.050;   94.000;  244.000
361.657;  -52.975; -821.000; -703.000
361.789;    0.475; -139.000; -155.000
361.921;  222.475; -642.000; -593.000
362.053;  259.900;  524.000;  541.000
362.185;   56.350;  288.000;   72.000
362.318;  -88.675; -709.000; -705.000
362.450;  117.475;  294.000;  444.000
362.582;  101.350; -913.000; -870.000
362.714;  -32.425; -353.000; -332.000
362.846;  -96.825; -606.000; -490.000
362.978; -133.450; -941.000; -811.000
363.109;   28.050; -161.000; -260.000
363.241;  421.975; -739.000; -749.000
363.373;  430.950; -649.000; -564.000
363.505;  629.850; -186.000;  -91.000
363.637;  131.700; -787.000; -601.000
363.769; -127.775;-1067.000;-1080.000
363.901;  -70.375; -596.000; -654.000
364.033; -125.600;-1103.000;-1062.000
364.165;  -17.600; -283.000; -283.000
364.296;   86.400; -316.000; -177.000
364.428;   54.275;-1344.000;-1220.000
364.560;  -74.050; -679.000; -661.000
364.692;  -74.125; -738.000; -835.000
364.824;  266.650; -588.000; -456.000
364.955;  415.325; -402.000; -564.000
365.087;  869.600;-1097.000; -852.000
365.219;    7.100; -686.000; -816.000
365.351;  -86.300; -526.000; -572.000
365.482;   50.200;  300.000;  240.000
365.614;  -55.525; -402.000; -314.000
365.746; -110.350; -729.000; -752.000
365.877;  -94.575; -706.000; -672.000
366.009;  242.625;  -35.000;  -62.000
366.141;  -92.475;-1249.000;-1134.000
366.272; -133.450; -803.000; -719.000
366.404; -105.575;-1005.000; -874.000
366.535;  -17.275; -139.000;  -12.000
366.667; -115.050; -644.000; -649.000
366.799;   34.475;  353.000;  203.000
366.930; -133.475; -862.000; -996.000
367.062;  116.675; -639.000; -613.000
367.193;  149.750; -872.000; -842.000
367.325;  -69.775; -580.000; -684.000
367.456;   38.725; -246.000;   31.000
367.588;  134.775; -371.000; -318.000
367.719;   22.800;  -44.000;  -45.000
367.851;  -25.525; -222.000; -241.000
367.982;  -46.350; -875.000; -732.000
368.113;   74.450; -475.000; -358.000
368.245; -114.900; -960.000; -841.000
368.376;  -25.700; -254.000; -302.000
368.508;  -25.950; -188.000; -263.000
368.639; -161.450;-1166.000;-1034.000
368.770;   -6.800; -670.000; -589.000
368.902;  -85.150; -836.000; -926.000
369.033; -114.050; -906.000; -855.000
369.164;  -64.175; -720.000; -653.000
369.296; -111.275; -452.000; -601.000
369.427;  -12.900; -209.000; -144.000
369.558;  -44.675; -593.000; -377.000
369.689;  -99.550; -721.000; -569.000
369.821; -129.975; -951.000; -845.000
369.952;   -9.475;   42.000; -108.000
370.083;  -57.200; -229.000; -108.000
370.214;  -94.700; -735.000; -650.000
370.345;   -7.775;   65.000;   81.000
370.477;  -95.725; -810.000; -790.000
370.608;  228.700; -328.000; -264.000
370.739;  -51.700;-1233.000;-1292.000
370.870;  -38.250;-1102.000; -923.000
371.001;   75.850; -378.000; -467.000
371.132;  -62.850; -754.000; -735.000
371.263;  -25.550;  -42.000; -148.000
371.394; -133.375; -841.000; -748.000
371.525;   17.550;  345.000;  225.000
371.657;  -88.775; -808.000; -670.000
371.788;   56.100;  103.000;  199.000
371.919;  157.425; -384.000; -304.000
372.050; 3533.875;  -91.000; -156.000
372.181; 1056.250; -188.000; -294.000
372.311;  350.200;   42.000; -127.000
372.442;   25.975; -457.000; -451.000
372.573;  -29.175; -444.000; -340.000
372.704; -138.450;-1008.000; -980.000
372.835;   66.750; -228.000; -289.000
372.966;  -89.025; -646.000; -554.000
373.097;  -81.575; -575.000; -711.000
373.228;  -37.575; -717.000; -542.000
373.359;  126.275; -824.000; -536.000
373.490;  907.475; -881.000; -727.000
373.620; 1129.225;-1001.000; -803.000
373.751; 1740.100; -332.000; -396.000
373.882;  772.150; -663.000; -733.000
374.013;   53.275; -449.000; -262.000
374.143;  -46.250; -581.000; -659.000
374.274;  -99.600; -987.000; -908.000
374.405;  152.950; -388.000; -276.000
374.536;  428.150; -526.000; -387.000
374.666; 1095.525; -759.000; -807.000
374.797;  215.600; -817.000; -868.000
374.928;  852.750; -710.000; -560.000
375.058;  862.025; -535.000; -500.000
375.189;   63.925;  -59.000;  -93.000
375.320; -115.975; -928.000;-1034.000
375.450;  -40.875; -625.000; -616.000
375.581;  -45.675; -526.000; -436.000
375.712;  -47.025; -574.000; -250.000
375.842;  304.075; -438.000; -415.000
375.973;  205.725; -554.000; -513.000
376.103;  -41.450; -665.000; -648.000
376.234;  -71.900; -531.000; -552.000
376.364;  -40.725; -944.000; -867.000
376.495;  325.050;  925.000;  529.000
376.625;   -8.850; -472.000; -485.000
376.756;   63.325; -709.000; -678.000
376.886;  -79.375;-1178.000;-1026.000
377.017;   29.000;-1048.000;-1061.000
377.147;  341.025; -786.000; -782.000
377.278;   37.675;  174.000;  228.000
377.408; -127.275; -801.000; -815.000
377.538; -109.625; -707.000; -693.000
377.669;  -91.675; -537.000; -613.000
377.799; -102.350; -645.000; -635.000
377.929;  -57.025; -610.000; -428.000
378.060; -136.525; -781.000; -847.000
378.190;  -70.350; -726.000; -531.000
378.320;  -58.900; -401.000; -406.000
378.451;  -24.675; -131.000;  -22.000
378.581;   -2.400;  -67.000; -110.000
378.711;  143.975; 1035.000;  866.000
378.841;  -16.950; -533.000; -675.000
378.972;  -84.650; -871.000; -751.000
379.102;  -13.975; -652.000; -579.000
379.232;  -29.875; -126.000;  -73.000
379.362; -115.700;-1001.000; -885.000
379.492;   14.675; -373.000; -424.000
379.623;   92.550;    0.000;  111.000
379.753; -104.100;-1107.000; -974.000
379.883;  195.500;   59.000;  156.000
380.013;   -2.425;-1081.000;-1017.000
380.143; -114.600;-1097.000;-1056.000
380.273; -100.800; -985.000; -861.000
380.403;  -13.150; -344.000; -257.000
380.533;  -41.675; -651.000; -664.000
380.663;   73.925;  173.000;  128.000
380.793;  -84.975;-1027.000;-1074.000
380.923;  -27.300; -103.000;  -34.000
381.053;  -91.525; -613.000; -623.000
381.183;  -42.175; -106.000; -248.000
381.313;   26.725; -656.000; -470.000
381.443;   30.500; -692.000; -473.000
381.573;  201.150; -402.000; -409.000
381.703;  262.425;-1249.000;-1095.000
381.833; -125.275;-1454.000;-1336.000
381.963;   97.350; -134.000;  -87.000
382.093; 1368.850; -925.000; -909.000
382.223;  406.450; -713.000; -602.000
382.353;  -18.925; -801.000; -608.000
382.482;  360.875;-1091.000; -964.000
382.612;  742.575; -872.000; -644.000
382.742;  390.775; -695.000; -622.000
382.872;  248.200; -565.000; -551.000
383.002;   61.150;  347.000; -132.000
383.131;  -12.775; -226.000; -160.000
383.261;  -55.125; -706.000; -768.000
383.391;  297.250; -552.000; -377.000
383.521; 3081.325;  451.000;  263.000
383.650;  721.650; -947.000; -904.000
383.780;  -17.725; -783.000; -656.000
383.910;  115.675;  880.000;  802.000
384.039;   20.150; -794.000; -656.000
384.169;  211.900;-1205.000;-1017.000
384.299;  -24.675; -650.000; -662.000
384.428;  -96.850; -764.000; -680.000
384.558;  -52.700; -308.000; -275.000
384.687;  -42.850; -414.000; -334.000
384.817;    8.200;   75.000;   -2.000
384.947;   18.900; -234.000; -141.000
385.076;  289.625;  982.000;  912.000
385.206;   98.450;  369.000;  480.000
385.335;  -21.275; -549.000; -417.000
385.465;  -70.100; -655.000; -663.000
385.594;  117.250;  -53.000;  -44.000
385.724;  425.300; -868.000; -838.000
385.853;  110.575; -296.000; -270.000
385.982; 1360.675; -743.000; -787.000
386.112; 2082.275;-1052.000; -871.000
386.241;  130.675; -307.000; -312.000
386.371;    5.650; -174.000;  -87.000
386.500;   -2.200; -825.000; -789.000
386.629;   13.625; -874.000; -817.000
386.759;   63.825;  -43.000;   68.000
386.888;  -24.050; -170.000; -250.000
387.017;  -82.350; -648.000; -620.000
387.147;  -93.550; -771.000; -798.000
387.276;   -5.675; -410.000; -397.000
387.405;    2.400; -398.000; -342.000
387.535;  -42.900; -452.000; -361.000
387.664;  -73.900; -692.000; -620.000
387.793;   66.775; -198.000; -113.000
387.922;  498.025;  255.000;  200.000
388.052;   24.375; -576.000; -423.000
388.181;    9.075; -342.000; -472.000
388.310;   21.050; -889.000; -710.000
388.439;  -62.100; -749.000; -742.000
388.568;  188.300;  365.000;  244.000
388.697; 1034.875; -756.000; -653.000
388.826;  198.100; -768.000; -666.000
388.956;   70.325; -285.000; -307.000
389.085;  -26.475; -347.000; -287.000
389.214; -120.175; -842.000; -872.000
389.343;  -60.000; -645.000; -413.000
389.472;  371.300;  126.000;  149.000
389.601;  487.850;   91.000;    0.000
389.730;    5.300; -568.000; -687.000
389.859;   59.800;  226.000;   46.000
389.988;  164.475; -423.000; -408.000
390.117;  149.750; -168.000; -146.000
390.246;  -11.900; -331.000; -320.000
390.375;   93.125; -673.000; -626.000
390.504;  -76.275; -703.000; -621.000
390.633; -119.400; -672.000; -726.000
390.761;  -73.075; -732.000; -645.000
390.890;   19.400;   -4.000; -130.000
391.019;  -48.650; -421.000; -441.000
391.148; -121.300; -826.000; -855.000
391.277;  -78.375; -576.000; -493.000
391.406;  -82.200; -821.000; -805.000
391.534;   25.425;  574.000; -301.000
391.663;  -66.425; -583.000; -645.000
391.792;  -94.125; -673.000; -701.000
391.921;   96.825;   -3.000;   15.000
392.050;  175.125; -287.000; -228.000
392.178;  -47.950;-1206.000;-1061.000
392.307;  123.325; -758.000; -712.000
392.436;   59.100; -427.000; -641.000
392.564;   25.300;  166.000;   -6.000
392.693;  -99.975; -860.000; -682.000
392.822;  185.625; -529.000; -534.000
392.950;   74.525; -880.000; -714.000
393.079;  314.800; -188.000; -328.000
393.208;   12.225; -488.000; -511.000
393.336;  -19.125; -170.000; -145.000
393.465;  -41.875; -317.000; -199.000
393.593;    2.400;   62.000;   79.000
393.722; -165.350;-1121.000; -916.000
393.850;  -41.750; -188.000;  -61.000
393.979; -148.250; -926.000; -805.000
394.107;  -73.275; -517.000; -537.000
394.236;  -19.325; -570.000; -507.000
394.364;  195.875;  383.000;  206.000
394.493;  264.275; -911.000; -767.000
394.621;  -31.275; -955.000; -916.000
394.750;  691.425; -873.000; -923.000
394.878; 2849.250; -247.000; -149.000
395.007; 3876.850; -721.000; -807.000
395.135;  284.900; -790.000; -721.000
395.263;  -91.900;-1038.000;-1040.000
395.392;  -10.150;  -25.000; -107.000
395.520; -135.225; -818.000; -679.000
395.648; -110.125; -865.000; -915.000
395.777;  -23.400; -366.000; -405.000
395.905;  -53.075; -449.000; -564.000
396.033;   -4.825;  217.000;  172.000
396.162;  460.550; -399.000; -453.000
396.290;  422.350;  -17.000;   -2.000
396.418;   82.225; -555.000; -514.000
396.546;  -69.600; -571.000; -466.000
396.674; -112.925; -850.000; -878.000
396.803;   -0.175;  -72.000;  -23.000
396.931;   80.025; -179.000; -199.000
397.059;   46.300;-1026.000; -989.000
397.187; -127.275;-1026.000; -975.000
397.315; -136.775; -884.000; -649.000
397.443; -112.450; -592.000; -443.000
397.572;  -96.275; -578.000; -424.000
397.700;  -23.425; -607.000; -614.000
397.828;   11.600;  120.000;  -90.000
397.956;  -56.525; -508.000; -478.000
398.084;  -68.575; -767.000; -626.000
398.212;   15.200;  137.000;  124.000
398.340;    2.500;  -56.000;  159.000
398.468;   12.525; -390.000; -169.000
398.596; -135.975; -993.000; -953.000
398.724; -120.350; -762.000; -767.000
398.852; -162.575;-1024.000; -976.000
398.980;  -70.600; -560.000; -560.000
399.108;  -66.050; -982.000; -735.000
399.236;   17.100;   13.000;    8.000
399.363;   20.375;  222.000;  196.000
399.491;  -78.075; -404.000; -398.000
399.619; -125.775; -829.000; -800.000
399.747; -107.175; -859.000; -771.000
399.875;   67.250;  220.000;  234.000
400.003;  -47.850; -359.000; -284.000
400.130; -106.925; -421.000; -341.000
400.258;  -30.750;  -83.000;   38.000
400.386;  -60.375; -352.000; -168.000
400.514;  -59.000; -526.000; -587.000
400.641;  -92.925; -928.000; -802.000
400.769; -145.050; -979.000; -888.000
400.897; -109.175; -838.000; -793.000
401.025;  -33.950; -166.000; -152.000
401.152;   -0.050;  220.000;   38.000
401.280;  -89.150; -430.000; -429.000
401.408; -115.150; -712.000; -576.000
401.535; -117.000; -735.000; -758.000
401.663; -191.075;-1134.000;-1054.000
401.790;  -96.425; -514.000; -525.000
401.918;   25.675;  436.000;  405.000
402.046;  -34.825;  134.000;  122.000
402.173;  -36.600;  -18.000;    7.000
402.301;  -71.575; -519.000; -397.000
402.428;   39.900;  528.000;  383.000
402.556; -147.100;-1188.000; -913.000
402.683;  -16.850;  -20.000;   -1.000
402.811;  -32.575;  -37.000; -206.000
402.938;  -16.875;   20.000;   27.000
403.066;  207.850; -574.000; -558.000
403.193;  339.250;  299.000;  239.000
403.321;  257.575; -396.000; -574.000
403.448;  325.000;   83.000;   27.000
403.575;  141.125;  -90.000;  -46.000
403.703;  -80.450; -732.000; -557.000
403.830;  -65.375; -531.000; -496.000
403.957; -153.525;-1117.000;-1023.000
404.085;    5.125;  -61.000; -172.000
404.212;  112.725;  -50.000;   63.000
404.339;  267.900; -566.000; -306.000
404.467; 5669.400; -612.000; -524.000
404.594; 3744.925; -287.000; -227.000
404.721;  872.050; -869.000; -764.000
404.848;   77.400; -113.000; -202.000
404.976; -107.800; -856.000; -783.000
405.103;  -28.900;  -14.000;  -82.000
405.230;   -1.050;  190.000;  226.000
405.357;   18.400;  117.000;   44.000
405.484;  276.700;  -49.000;    5.000
405.612;   38.225; -548.000; -563.000
405.739;  -62.550; -488.000; -243.000
405.866;   77.950;  669.000;  385.000
405.993;  -38.150; -398.000; -102.000
406.120; -146.400; -801.000; -887.000
406.247;  -51.975; -323.000; -342.000
406.374;  423.125;  540.000;  629.000
406.501;  107.050; -632.000; -702.000
406.628;  -78.125; -621.000; -589.000
406.755;  -90.175; -803.000; -620.000
406.882;  -36.875; -228.000; -277.000
407.009; -110.225; -719.000; -628.000
407.136;   41.475; -480.000; -401.000
407.263;  129.050; -939.000; -829.000
407.390;  -87.200; -692.000; -614.000
407.517; -173.825;-1139.000;-1187.000
407.644;  -73.900; -332.000; -256.000
407.771;  -84.250; -249.000; -287.000
407.898;    6.500;  168.000;  328.000
408.025;  -76.475; -421.000; -313.000
408.151;  -31.500;   82.000;  153.000
408.278;  -63.375; -267.000; -216.000
408.405; -121.725; -931.000; -899.000
408.532;  -72.225; -549.000; -542.000
408.659; -125.050; -677.000; -648.000
408.785; -211.700;-1298.000;-1170.000
408.912;  -70.000; -412.000; -296.000
409.039; -112.100; -610.000; -686.000
409.166; -122.225; -591.000; -555.000
409.292; -101.225; -571.000; -534.000
409.419; -143.900; -665.000; -649.000
409.546;  -83.225; -431.000; -192.000
409.672; -125.625; -713.000; -545.000
409.799;  -23.225;  -36.000;   34.000
409.926;  -43.000; -180.000; -179.000
410.052; -175.300;-1127.000;-1091.000
410.179;  -72.275; -368.000; -392.000
410.305;  -76.525; -375.000; -493.000
410.432;  -51.350; -220.000; -333.000
410.558;  -93.175; -305.000; -380.000
410.685; -119.525; -688.000; -431.000
410.812; -114.600; -409.000; -588.000
410.938; -152.550; -964.000; -808.000
411.065;  -97.850; -671.000; -645.000
411.191;  -18.700; -189.000; -174.000
411.317; -121.650; -823.000; -742.000
411.444;  -75.825; -317.000; -246.000
411.570;  -71.450; -339.000; -294.000
411.697; -143.625; -758.000; -752.000
411.823; -170.975; -989.000; -999.000
411.949;  -37.325;  -56.000;   17.000
412.076; -107.600; -539.000; -519.000
412.202; -123.200; -758.000; -757.000
412.329; -121.125; -798.000; -752.000
412.455; -120.350; -821.000; -657.000
412.581;  -24.600;  -15.000;  172.000
412.707;  -72.975; -540.000; -457.000
412.834;   19.900;  156.000;  219.000
412.960;  -83.750; -785.000; -784.000
413.086; -107.150; -743.000; -701.000
413.212;  140.550;  604.000;  578.000
413.339;  -67.225; -685.000; -701.000
413.465;   -5.600; -364.000; -310.000
413.591;  -89.825; -757.000; -474.000
413.717;  -56.675; -358.000; -366.000
413.843; -142.300; -839.000; -861.000
413.969;  -60.250;  -47.000; -292.000
414.096;  -98.575; -679.000; -679.000
414.222;   -1.875;  -33.000;   85.000
414.348;  -39.375; -652.000; -385.000
414.474;   68.275;   38.000;  -52.000
414.600;  -25.975; -126.000; -144.000
414.726;  -28.725;  -96.000;  -55.000
414.852;  -64.800; -365.000; -342.000
414.978;   28.325;  104.000;  -18.000
415.104;   40.875;   38.000;   80.000
415.230;    9.350; -329.000; -330.000
415.356;   42.025; -409.000; -514.000
415.482;  181.850;   13.000;  -35.000
415.608;  278.475; -247.000; -323.000
415.734;  945.900;   67.000;   38.000
415.860;19712.650; -875.000; -767.000
415.986;14231.800; -685.000; -607.000
416.111; 1203.300; -798.000; -652.000
416.237;  248.950; -424.000; -571.000
416.363; 1076.950; -765.000; -733.000
416.489; 4076.950; -324.000; -251.000
416.615;  440.425; -707.000; -742.000
416.741;  -32.975; -677.000; -784.000
416.866;  -93.175; -673.000; -736.000
416.992; -140.375; -801.000; -818.000
417.118;  -23.300;  -41.000;  -80.000
417.244;  -88.850; -798.000; -531.000
417.369;  -88.375; -801.000; -612.000
417.495;  -14.700; -325.000; -254.000
417.621;  -92.950;-1015.000; -803.000
417.746;  -13.800; -579.000; -572.000
417.872;   44.875; -254.000; -144.000
417.998;   30.350; -515.000; -530.000
418.123; 1040.075;-1073.000; -845.000
418.249; 5293.375; -512.000; -601.000
418.374;  751.650; -916.000; -824.000
418.500;  107.625; -383.000; -482.000
418.626;  100.425;   70.000;  -59.000
418.751;  101.575; -549.000; -448.000
418.877;  195.775; -637.000; -643.000
419.002; 1789.400; -688.000; -560.000
419.128;12341.025; -930.000; -721.000
419.253; 2995.050; -967.000; -837.000
419.379;  381.450; -391.000; -338.000
419.504;  379.925;  325.000;  415.000
419.629;  502.800; -393.000; -212.000
419.755; 3486.550; -317.000; -254.000
419.880;20655.550;  -98.000;   67.000
420.006;11266.975; -280.000; -221.000
420.131;28989.125; -662.000; -775.000
420.256; 4160.650; -315.000; -316.000
420.382;  557.025; -665.000; -687.000
420.507;   72.225; -649.000; -778.000
420.632;  134.650; -337.000; -339.000
420.758;  242.900; -251.000; -425.000
420.883;  -98.250; -876.000; -672.000
421.008; -118.150; -775.000; -619.000
421.133;  -74.725; -509.000; -467.000
421.259;  -32.050; -325.000; -259.000
421.384; -121.825; -834.000; -693.000
421.509;  -56.175;-1052.000; -862.000
421.634; 1133.025; -936.000; -820.000
421.759;  480.925; -359.000; -327.000
421.885;  -57.425; -717.000; -656.000
422.010;  -86.725; -673.000; -542.000
422.135; -157.975; -695.000; -727.000
422.260;   18.500;  340.000;  280.000
422.385;  -31.225;   12.000;  -98.000
422.510;   10.600;  151.000;  -26.000
422.635;    9.250;  -87.000;  -43.000
422.760;   71.525; -766.000; -791.000
422.885;   50.350;  -57.000;  -80.000
423.010;  -38.400; -112.000; -169.000
423.135; -106.475; -481.000; -561.000
423.260;  -34.500; -150.000; -245.000
423.385;   63.475;  476.000;  222.000
423.510;    7.325;   71.000;  -22.000
423.635;   90.300;  133.000;   45.000
423.760;   41.250;  383.000;  328.000
423.885;   43.900;  336.000;  391.000
424.010;    5.850;  -68.000;  -13.000
424.135;  -22.650;    5.000;  -33.000
424.259;  -94.050; -654.000; -457.000
424.384;  -59.750; -279.000; -272.000
424.509;  -44.050; -260.000; -186.000
424.634; -101.025; -761.000; -623.000
424.759;  -39.500; -688.000; -544.000
424.883;  -17.875; -506.000; -527.000
425.008;  150.525; -502.000; -410.000
425.133; 1947.125; -679.000; -653.000
425.258;  912.375; -517.000; -381.000
425.382;  996.925; -867.000; -774.000
425.507; 2554.450; -487.000; -543.000
425.632;  428.225; -802.000; -663.000
425.756;  441.150; -256.000; -146.000
425.881; 6370.025; -831.000; -857.000
426.006;17190.050; -604.000; -355.000
426.130; 2666.250; -696.000; -508.000
426.255;  319.100; -611.000; -491.000
426.379;  154.275; -189.000; -577.000
426.504;  359.675;  660.000;  544.000
426.629; 4003.750; -519.000; -466.000
426.753; 2739.000;   64.000;  -46.000
426.878;  309.125; -252.000; -288.000
427.002;  179.350; -651.000; -668.000
427.127; 1574.325;  -35.000; -158.000
427.251;11200.600;  372.000;  401.000
427.375; 3171.800; -191.000; -173.000
427.500; 2218.050; -616.000; -610.000
427.624;  765.550; -234.000; -400.000
427.749;   73.100; -216.000; -225.000
427.873;  -40.550; -499.000; -412.000
427.997;  -71.900; -222.000; -230.000
428.122;   71.675;  795.000;  703.000
428.246;   58.475;  433.000;  434.000
428.371; -122.825; -869.000; -773.000
428.495; -114.575; -624.000; -646.000
428.619;  -20.300; -186.000; -117.000
428.743;   16.675;   65.000;  132.000
428.868;    6.725; -732.000; -643.000
428.992; 1349.375; -219.000; -326.000
429.116;  554.400; -329.000; -357.000
429.240;  264.175;  419.000;  426.000
429.365;  -27.425; -454.000; -574.000
429.489;  -60.575; -638.000; -647.000
429.613;   16.675; -236.000; -177.000
429.737;   30.100; -563.000; -432.000
429.861;  274.200; -247.000; -133.000
429.985; 5434.725; -425.000; -305.000
430.109; 6011.075; -770.000; -908.000
430.234;  674.325;   76.000;  -50.000
430.358;   68.425; -250.000; -160.000
430.482;  -85.750; -672.000; -564.000
430.606;  -68.575; -655.000; -375.000
430.730;    5.950; -437.000; -388.000
430.854;  123.500; -909.000; -835.000
430.978;  -76.075; -795.000; -764.000
431.102;  -74.050; -499.000; -422.000
431.226; -130.950; -874.000; -815.000
431.350;   25.500;  345.000;  422.000
431.474;  -80.300; -661.000; -373.000
431.597; -159.325;-1060.000; -848.000
431.721;  -85.075; -276.000; -267.000
431.845; -130.950; -704.000; -472.000
431.969;  -92.450; -304.000; -349.000
432.093; -105.725; -395.000; -317.000
432.217;  -38.375;   32.000;   82.000
432.341;  -86.925; -523.000; -518.000
432.464;  -19.025;   96.000;   40.000
432.588;  187.750; -401.000; -329.000
432.712;   91.800;  -52.000;  -52.000
432.836;   32.900;  213.000;  263.000
432.959;  -28.525; -372.000; -311.000
433.083;   69.575;   11.000;    2.000
433.207;  354.525;  285.000;  930.000
433.330; 4997.175; -391.000; -200.000
433.454; 6105.175; -654.000; -638.000
433.578; 3515.775;  583.000;  278.000
433.701;  634.200; -623.000; -675.000
433.825;  152.775; -292.000; -299.000
433.949;  144.900;   28.000;  -72.000
434.072;   38.650; -410.000; -323.000
434.196;  -21.400; -309.000; -117.000
434.319; 3701.900;25482.000;25124.000
434.443;  708.225; -656.000; -603.000
434.566; 2576.175;  281.000;   62.000
434.690;  442.325; -637.000; -383.000
434.813;   48.225; -251.000; -173.000
434.937;  -97.275; -569.000; -696.000
435.060;  -37.250; -423.000; -332.000
435.184;  298.500; -492.000; -217.000
435.307;  167.200;  159.000;  102.000
435.431;  -25.775;  -40.000;   24.000
435.554;  -83.700; -399.000; -240.000
435.677;  -93.925; -350.000; -258.000
435.801;  -41.200;  -25.000;   49.000
435.924;  -28.875;    1.000;  -67.000
436.048; -115.725;-1019.000; -732.000
436.171;  -76.450; -240.000;  -66.000
436.294;  -23.975; -248.000; -229.000
436.417;   84.675; -963.000; -849.000
436.541;  -87.375; -814.000; -840.000
436.664;  -61.525; -242.000; -316.000
436.787;  -29.725;   13.000;  113.000
436.910; -138.275; -792.000; -422.000
437.034;    6.675;  142.000;  143.000
437.157;   42.225;  -11.000;    0.000
437.280;  -55.800; -392.000; -292.000
437.403;  -93.725; -982.000; -869.000
437.526;  611.425; -903.000; -865.000
437.649; 2271.500; -505.000; -332.000
437.772;  325.600; -692.000; -540.000
437.896;  106.075;  700.000;  544.000
438.019;  -89.550; -758.000; -503.000
438.142;  -91.725; -596.000; -506.000
438.265;  -12.575; -639.000; -670.000
438.388;  547.775; -520.000; -410.000
438.511;  107.250; -597.000; -394.000
438.634;  -55.575; -247.000; -125.000
438.757; -146.925; -693.000; -619.000
438.880;  -42.350;  -34.000;  -57.000
439.003;  -79.825; -417.000; -437.000
439.126;  -71.650; -287.000; -167.000
439.248;  -67.300;  -98.000; -139.000
439.371;  -40.950;    9.000;  -53.000
439.494;   28.475;  510.000;  439.000
439.617;  -63.550;   65.000;  -88.000
439.740; -172.525; -968.000; -816.000
439.863; -152.750; -755.000; -595.000
439.986; -126.350; -476.000; -431.000
440.108;  -54.500; -161.000; -112.000
440.231; -168.775; -950.000; -836.000
440.354;  -53.750;  -64.000; -150.000
440.477;   30.350; -566.000; -542.000
440.599;  -12.500; -200.000; -225.000
440.722; -119.175; -709.000; -586.000
440.845;   56.525;  751.000;  928.000
440.968; -114.525; -415.000; -311.000
441.090;  -84.125; -199.000;  -33.000
441.213; -186.600;-1021.000; -825.000
441.336;  -71.150; -159.000;   -5.000
441.458;  -88.475; -549.000; -396.000
441.581;  -86.700; -628.000; -629.000
441.703;  -72.475; -152.000;   13.000
441.826; -122.875; -557.000; -400.000
441.948;  -51.775;   56.000;   51.000
442.071;   25.525;  555.000;  424.000
442.193; -127.500; -531.000; -485.000
442.316;    4.900;  152.000;   97.000
442.438;   31.600; -233.000;  -10.000
442.561;   61.875;  272.000;  262.000
442.683;  512.875; -809.000; -522.000
442.806; 1105.575;   -8.000;   74.000
442.928;   15.700; -859.000; -604.000
443.051;  -80.850; -577.000; -373.000
443.173;  -81.825; -341.000; -339.000
443.295;  -98.375; -263.000; -371.000
443.418;  -76.550; -321.000;  -29.000
443.540;  -15.925; -106.000;   -4.000
443.662; -124.300; -563.000; -465.000
443.785;  -17.250;  335.000;  199.000
443.907;  -94.950; -362.000; -208.000
444.029; -138.175; -767.000; -494.000
444.152; -149.775; -644.000; -554.000
444.274;  -50.600;  -18.000;  -24.000
444.396; -120.450; -461.000; -221.000
444.518; -143.200; -691.000; -454.000
444.640; -110.800; -268.000; -111.000
444.763;  -35.250;  388.000;  249.000
444.885; -127.350; -432.000; -392.000
445.007;  -35.275;   35.000;   86.000
445.129; -100.750; -610.000; -515.000
445.251; -109.975; -372.000; -439.000
445.373; -134.750; -537.000; -386.000
445.495;    0.425;  242.000;  350.000
445.617;   55.650;  853.000;  753.000
445.739;  -74.725; -215.000;  -97.000
445.861;  -24.825; -245.000; -112.000
445.984;  -42.775; -267.000; -101.000
446.105;  185.325; -418.000; -251.000
446.227;  591.450; -176.000;  -19.000
446.349;    8.750; -358.000; -249.000
446.471; -106.650; -615.000; -448.000
446.593;  -78.250; -316.000;   19.000
446.715;  -24.075;  -67.000;   41.000
446.837;   45.200;  697.000;  832.000
446.959; -106.750; -457.000; -478.000
447.081; -134.950; -628.000; -518.000
447.203;   30.275;  862.000;  834.000
447.325;  -98.775; -270.000;   42.000
447.446;  -23.100;  286.000;  530.000
447.568; -156.375; -921.000; -803.000
447.690;  -79.775; -236.000; -245.000
447.812; -152.775; -798.000; -519.000
447.933;  -54.975;  155.000;  127.000
448.055;  -70.050; -306.000; -261.000
448.177;  116.925;   31.000;   79.000
448.299;   73.450; -935.000; -727.000
448.420;   23.525;  -25.000;  159.000
448.542;  -40.075;   -3.000;   33.000
448.664;  -40.275;  109.000;  322.000
448.785;  -36.025;  265.000;   83.000
448.907;  -99.175; -614.000; -353.000
449.028;  -33.000; -771.000; -471.000
449.150;   49.775;  492.000;  589.000
449.272; -188.525;-1044.000; -913.000
449.393;   20.475;  612.000;  694.000
449.515; -139.425; -634.000; -581.000
449.636;  -74.300; -264.000; -155.000
449.758;   63.050;  763.000;  622.000
449.879; -104.725; -498.000; -396.000
450.001;  -85.150; -149.000;  -49.000
450.122;  -46.800;  -95.000;  162.000
450.244;  -31.625;   37.000;  364.000
450.365; -112.600; -495.000; -301.000
450.486;  -39.750;   80.000;  268.000
450.608;   -0.100;  393.000;  326.000
450.729;   64.600;  578.000;  645.000
450.850;   -5.400; -574.000; -466.000
450.972;  733.850; -552.000; -389.000
451.093; 4779.925;  190.000;  588.000
451.214; 2064.425; -516.000; -337.000
451.336;  375.675;  773.000;  579.000
451.457;   51.075;  264.000;  393.000
451.578;  -63.500; -118.000;  -74.000
451.699; -124.300; -546.000; -540.000
451.821;  -66.000; -284.000;  -50.000
451.942;  -22.325;  278.000;  285.000
452.063;   23.625;  228.000;  419.000
452.184;  536.575;  -54.000;  -49.000
452.305; 1055.475;  103.000;  170.000
452.427;  125.650; -549.000; -301.000
452.548;  -34.450;   23.000;   79.000
452.669;  -43.825; -257.000;  -89.000
452.790;  -53.850;    3.000;  -18.000
452.911;  -11.775;  195.000;  259.000
453.032;  -79.500; -289.000;  -60.000
453.153;  -47.625;  -29.000;   81.000
453.274;   42.325;  737.000;  868.000
453.395;  -62.825;  -51.000;  175.000
453.516;  104.100; 1317.000; 1388.000
453.637;  -66.475; -205.000; -150.000
453.758;  -66.325;   15.000;   69.000
453.879; -128.000; -462.000; -250.000
454.000;   62.075; 1086.000;  948.000
454.121; -121.475; -554.000; -326.000
454.242; -128.075; -599.000; -383.000
454.362;  -57.550;  -99.000;  114.000
454.483;  -52.475; -309.000; -229.000
454.604;   47.000;  512.000;  580.000
454.725; -132.675; -627.000; -555.000
454.846; -115.050; -474.000; -406.000
454.967;  -30.300;  230.000;  539.000
455.087;  -49.850;  179.000;  153.000
455.208;    4.525;  554.000;  856.000
455.329;  -59.825;  -22.000;   82.000
455.450;   25.150;  473.000;  633.000
455.570;  -82.200; -234.000; -211.000
455.691;  -51.475;  201.000;  407.000
455.812; -115.950; -270.000;  -92.000
455.932;  -58.850;  107.000;  -97.000
456.053;  -86.350;   36.000;   24.000
456.173; -119.625; -433.000; -355.000
456.294; -133.575; -476.000; -303.000
456.415;  -72.150;  -73.000;   70.000
456.535;  -35.575;  297.000;  273.000
456.656;  -73.250;  132.000;  240.000
456.776;  -78.175;    3.000;  298.000
456.897;  -27.825;  308.000;  513.000
457.017;  -99.250; -153.000;   -3.000
457.138; -118.750; -402.000; -249.000
457.258;  -23.300;  263.000;  224.000
457.379;  -16.675;  509.000;  521.000
457.499;  -21.300;  443.000;  432.000
457.620; -135.800; -407.000; -231.000
457.740; -105.500; -132.000;  -11.000
457.860;  -66.025;   87.000;   44.000
457.981;  -54.200;  132.000;  124.000
458.101;  -93.050;  -89.000;   40.000
458.221;  -23.000;  336.000;  402.000
458.342;  -70.100;   -4.000;  -37.000
458.462;   12.975;  617.000;  352.000
458.582;  -48.000; -302.000; -294.000
458.703;  -11.150;  303.000;  154.000
458.823;  -38.225;   22.000;  163.000
458.943;   14.400;  341.000;  467.000
459.063;  -33.100; 1124.000;  192.000
459.183;  -26.175;  328.000;  313.000
459.304;   -5.975;  315.000;  517.000
459.424;  -72.450; -246.000;  -89.000
459.544;  332.350;  388.000;  764.000
459.664;  811.825;  499.000;  506.000
459.784;  289.725; 1004.000; 1175.000
459.904;   52.600;  867.000;  744.000
460.024;   59.625;  867.000;  684.000
460.144;    4.875;  449.000;  554.000
460.264;  -21.100;  515.000;  327.000
460.385; -104.750; -145.000; -119.000
460.505;   24.325;  905.000;  858.000
460.625;  -94.175;  -17.000;  -68.000
460.745;  -47.100;  396.000;  541.000
460.864;  -39.250;  153.000;  469.000
460.984;    1.200;  499.000;  573.000
461.104;  142.850; 1656.000; 1775.000
461.224;    2.050;  657.000;  650.000
461.344;  -31.475;  431.000;  360.000
461.464;  -46.950;  258.000;  513.000
461.584;  -12.025;  283.000;  466.000
461.704;  -61.800;   58.000;  108.000
461.824;  -64.675;  238.000;  259.000
461.943;  -46.975;  191.000;  130.000
462.063;  -77.475;    2.000;  324.000
462.183;   23.525;  639.000;  717.000
462.303;  107.375; 1678.000; 1230.000
462.422;   12.525;  781.000;  840.000
462.542;  -30.875;  271.000;  391.000
462.662;   21.700;  353.000;  380.000
462.782;  234.075;  833.000;  572.000
462.901;  449.950;  545.000;  717.000
463.021;  274.050; 1702.000; 1638.000
463.141;  -32.850;  337.000;  770.000
463.260;    0.300;  614.000;  474.000
463.380;   -1.650;  902.000;  884.000
463.499;  -43.550;  342.000;  332.000
463.619;  -41.925;  581.000;  559.000
463.738;  119.725; 1644.000;  903.000
463.858;    1.600;  657.000;  811.000
463.978;  -26.000;  542.000;  396.000
464.097;   51.650;  921.000; 1114.000
464.217;  116.500; 1196.000; 1143.000
464.336;  103.075; 1068.000; 1130.000
464.455;  -14.100;  328.000;  659.000
464.575;   33.650;  597.000;  602.000
464.694;  172.600; 1204.000; 1179.000
464.814;  116.650; 1190.000; 1138.000
464.933;   64.875; 1095.000; 1027.000
465.052;   78.350; 1412.000; 1054.000
465.172;   70.225;  922.000;  799.000
465.291;  125.525; 1376.000; 1320.000
465.410;   25.825;  462.000;  735.000
465.530;   82.925; 1355.000; 1310.000
465.649;   77.025; 1209.000; 1273.000
465.768;  109.325; 1673.000; 1508.000
465.888;   43.125;  941.000; 1174.000
466.007;   63.150; 1335.000; 1440.000
466.126;   -4.675;  721.000;  641.000
466.245;   30.575; 1176.000; 1187.000
466.364;   -0.500;  950.000; 1060.000
466.484;   44.300; 1024.000; 1213.000
466.603;   43.750; 1101.000; 1222.000
466.722;  118.275; 1490.000; 1769.000
466.841;   84.275; 1151.000; 1401.000
466.960;   34.325; 1069.000;  972.000
467.079;  137.025; 1971.000; 1786.000
467.198;   40.150; 1238.000; 1181.000
467.317;   67.800; 1768.000; 1162.000
467.436;   69.800; 1709.000; 1261.000
467.555;  136.600; 1796.000; 1746.000
467.674;   51.300; 1227.000; 1329.000
467.793;   45.750; 1376.000; 1374.000
467.912;   76.450; 1658.000; 1539.000
468.031;  124.300; 2038.000; 1930.000
468.150;  127.950; 1842.000; 1837.000
468.269;  195.125; 2313.000; 2090.000
468.388;  178.000; 2168.000; 2339.000
468.507;  242.425; 2884.000; 2903.000
468.626;  228.225; 2555.000; 2541.000
468.744;  146.825; 2018.000; 2174.000
468.863;  202.250; 2312.000; 2523.000
468.982;   92.925; 1503.000; 1555.000
469.101;  216.875; 2788.000; 2692.000
469.220;  144.500; 2333.000; 2176.000
469.338;  239.475; 2935.000; 3051.000
469.457;  209.900; 2719.000; 2545.000
469.576;  355.175; 3953.000; 3784.000
469.695;  245.225; 2877.000; 3066.000
469.813;  422.225; 4148.000; 4192.000
469.932;  415.150; 4255.000; 4485.000
470.051;  426.325; 4075.000; 4161.000
470.169;  837.975; 4470.000; 4338.000
470.288; 1439.600; 4700.000; 4809.000
470.406;  890.875; 5059.000; 5194.000
470.525;  629.600; 6101.000; 5787.000
470.644;  652.325; 6847.000; 6794.000
470.762;  802.500; 8397.000; 7873.000
470.881;  902.000; 8651.000; 8464.000
470.999; 1048.250; 9685.000; 9151.000
471.118; 1118.100;11174.000;10711.000

