
Integration time [ms]: 100.000
Averaging Nr. [scans]: 40
Smoothing Nr. [pixels]: 0
Data measured with spectrometer [name]: 2101012U2
Wave   ;Sample   ;Dark     ;Reference
[nm]   ;[counts] ;[counts] ;[counts] 

197.733;   59.725;  516.000;  404.000
197.879;  -86.850; -610.000; -634.000
198.025;  -55.900; -475.000; -420.000
198.171;  -77.350; -602.000; -612.000
198.317;  -30.200; -401.000; -316.000
198.463;  -74.275; -655.000; -404.000
198.609;   31.950;  181.000; -137.000
198.755;  -76.450; -644.000; -410.000
198.901;  -62.575; -505.000; -424.000
199.047;  -73.250; -615.000; -488.000
199.193;  -37.525; -230.000; -468.000
199.339;  -55.700; -222.000; -369.000
199.485;   41.000;  330.000;  271.000
199.631;   11.325;  227.000;  310.000
199.777;  -56.250; -466.000; -398.000
199.923;  -64.050; -610.000; -424.000
200.069;    3.150; -141.000;  -58.000
200.215;   43.500;  128.000;  453.000
200.361;   44.500;  243.000;  477.000
200.507;  -67.425; -600.000; -373.000
200.653;  -25.900; -371.000; -194.000
200.798;  -38.050; -215.000; -125.000
200.944;  -10.950; -146.000;  -41.000
201.090;   31.125;   61.000;  222.000
201.236;   -2.000; -116.000; -158.000
201.382;  125.125;  874.000;  903.000
201.528;  -11.600;  -58.000;  -48.000
201.674;  -63.975; -386.000; -293.000
201.819;  -72.550; -540.000; -439.000
201.965; -103.750; -699.000; -447.000
202.111;  -23.150; -273.000; -226.000
202.257;  -43.250; -250.000; -238.000
202.402;   23.225;   13.000;  -36.000
202.548;  -41.225; -169.000; -116.000
202.694;   82.650;  410.000; -183.000
202.840;  -83.950; -603.000; -531.000
202.985;  -83.650; -681.000; -639.000
203.131; -114.350; -832.000; -666.000
203.277;  -30.175; -199.000; -262.000
203.423;  -58.100; -434.000; -520.000
203.568;  -31.500; -462.000; -237.000
203.714;  -62.825; -535.000; -542.000
203.860;  -81.400; -682.000; -641.000
204.005;   20.850;  112.000;  167.000
204.151;   79.175;  561.000;  556.000
204.296;  -61.575; -354.000; -221.000
204.442;  -85.000; -600.000; -547.000
204.588;  -87.625; -592.000; -579.000
204.733;    9.875;  178.000;  168.000
204.879; -127.225;-1018.000; -822.000
205.025;    3.075;  -99.000;  126.000
205.170;   -8.950;  -17.000;   94.000
205.316;   94.075;  438.000;  661.000
205.461;  -74.750; -698.000; -554.000
205.607;   94.725;  609.000;  665.000
205.752;  -69.075; -626.000; -551.000
205.898;  -49.500; -501.000; -391.000
206.043;  -77.775; -578.000; -506.000
206.189;  -42.125; -243.000; -285.000
206.334;   85.650;  554.000;  606.000
206.480;   72.725;  409.000;  239.000
206.625;  -91.500; -529.000; -552.000
206.771;  -47.350; -451.000; -373.000
206.916;  -36.650; -210.000; -537.000
207.062;  -72.600; -545.000; -591.000
207.207;  -70.750; -546.000; -443.000
207.353;   66.200;  185.000;  460.000
207.498;    5.275;  196.000;   85.000
207.643;  -48.600; -501.000; -370.000
207.789; -138.600;-1069.000; -910.000
207.934;  -99.950; -665.000; -713.000
208.080;  -33.325; -154.000;   66.000
208.225;  -14.250;  -22.000;  -57.000
208.370; -101.575; -727.000; -619.000
208.516;  -75.650; -741.000; -487.000
208.661;  -38.225; -127.000;  -69.000
208.806;  -12.375; -165.000; -171.000
208.952; -136.400;-1044.000; -731.000
209.097;   76.900;  378.000;  349.000
209.242;  -41.400; -307.000; -382.000
209.387;   75.750;  392.000;  350.000
209.533;  -46.200; -321.000; -350.000
209.678;   77.450;  472.000;  543.000
209.823;  -58.675; -408.000; -310.000
209.969;  -98.650; -860.000; -757.000
210.114; -121.825; -907.000; -719.000
210.259; -122.500; -939.000; -889.000
210.404;   -6.600; -171.000;  103.000
210.549;   17.200;  108.000;    3.000
210.695;  -24.775;   -3.000;  -95.000
210.840;   42.400;   94.000;   67.000
210.985;  -62.850; -484.000; -303.000
211.130;   73.075;  268.000;  406.000
211.275;   10.675;  207.000;  199.000
211.420;  -56.100; -300.000; -289.000
211.566;  -81.475; -536.000; -489.000
211.711;   11.075;  218.000;  157.000
211.856;  -77.125; -545.000; -519.000
212.001;   25.300;  151.000;   44.000
212.146;   17.250;  153.000;   49.000
212.291;  -21.975; -210.000; -186.000
212.436;  -28.575; -280.000;   -6.000
212.581;  -92.850; -685.000; -653.000
212.726;  -68.450; -487.000; -538.000
212.871;  -46.000; -552.000; -217.000
213.016; -166.775;-1172.000;-1029.000
213.161;   55.450;  406.000;  291.000
213.306;  -83.725; -435.000; -577.000
213.451; -103.525; -778.000; -689.000
213.596;  -38.700; -455.000; -347.000
213.741;  -51.575; -448.000; -538.000
213.886;  -82.425; -498.000; -517.000
214.031;   -6.150; -294.000; -124.000
214.176;  -50.950; -408.000; -341.000
214.321;   -5.500; -296.000; -157.000
214.466;  -30.875; -163.000;  -43.000
214.611;   -2.450;  -61.000;  -10.000
214.756; -123.200; -948.000; -858.000
214.901;   -2.050; -388.000; -226.000
215.046; -123.325; -797.000; -825.000
215.191;   19.325;  128.000;   35.000
215.336;  -23.625; -157.000;  -19.000
215.480;  -59.000; -684.000; -505.000
215.625;  -10.725; -175.000;  -19.000
215.770;  -79.400; -757.000; -662.000
215.915;   -6.325;   -5.000;  -97.000
216.060;   -2.025; -113.000;  -21.000
216.205; -107.025; -731.000; -779.000
216.349;  -70.650; -470.000; -533.000
216.494; -140.025; -939.000; -867.000
216.639; -114.400; -823.000; -888.000
216.784;  -99.150; -577.000; -525.000
216.929;   46.250;  392.000;  281.000
217.073;   -8.200; -244.000;  -31.000
217.218;   29.000;   78.000;  -47.000
217.363;  -85.125; -656.000; -618.000
217.507;  -70.825; -623.000; -588.000
217.652; -135.925; -845.000; -874.000
217.797;  -81.150; -708.000; -659.000
217.942; -127.900; -856.000; -720.000
218.086;   73.575;  608.000;  539.000
218.231;  -22.925; -174.000;  -26.000
218.376;  -31.375; -337.000; -229.000
218.520;  -10.475;  -41.000;   96.000
218.665;  -33.775; -338.000; -204.000
218.810;  -47.700; -275.000; -233.000
218.954;   13.475;  201.000;   35.000
219.099; -114.125; -713.000; -963.000
219.243;  -71.400; -589.000; -554.000
219.388;  -51.875; -264.000; -136.000
219.532;   -8.675; -116.000; -116.000
219.677;  -88.300; -564.000; -521.000
219.822;    6.575;   33.000;   89.000
219.966;    6.350;   17.000;  -99.000
220.111;  -22.525; -328.000;  -40.000
220.255;  -91.100; -797.000; -750.000
220.400;  -12.000; -180.000; -146.000
220.544;  -82.225; -516.000; -450.000
220.689;  -49.625; -422.000; -451.000
220.833;  -22.875; -123.000;  -58.000
220.978;  -55.725; -393.000; -563.000
221.122;   11.175;  319.000;  307.000
221.267; -122.450; -906.000; -837.000
221.411;  -90.075; -478.000; -394.000
221.555;   -5.625; -104.000;  -23.000
221.700;  -39.450; -329.000; -222.000
221.844;   40.100;  255.000;  272.000
221.989;  -49.575; -328.000; -311.000
222.133;  -29.500; -289.000; -307.000
222.277;  -15.750;    5.000;   78.000
222.422;   26.850;  227.000;  113.000
222.566;  -42.550; -381.000; -214.000
222.711;  -46.900; -414.000; -479.000
222.855;  -79.200; -643.000; -586.000
222.999;  -85.400; -642.000; -717.000
223.144;  -41.425; -195.000; -194.000
223.288;   42.325;  423.000;  251.000
223.432;   18.825;  184.000;  230.000
223.576;   23.250;  152.000;  -21.000
223.721;   38.900;  364.000;  273.000
223.865;  -65.975; -472.000; -475.000
224.009;  272.375; 1673.000; 1631.000
224.153;  -91.100; -660.000; -671.000
224.298;  -79.150; -531.000; -489.000
224.442;   -7.475;  -74.000;  -33.000
224.586;  -25.650; -169.000; -106.000
224.730; -100.150; -858.000; -670.000
224.875; -112.000; -739.000; -688.000
225.019;  -10.725;  102.000;  188.000
225.163;   52.500;  208.000;  341.000
225.307;   17.850;   97.000;  -91.000
225.451;   44.300;  360.000;  481.000
225.595;   30.025;  264.000;  176.000
225.739;  -20.850; -170.000;  -94.000
225.884;    8.500;   86.000;    5.000
226.028;  -97.450; -760.000; -626.000
226.172;  -41.650; -260.000; -273.000
226.316; -134.575; -941.000; -902.000
226.460;  -68.175; -645.000; -493.000
226.604;  -46.925; -406.000; -400.000
226.748; -107.025; -836.000; -733.000
226.892;  -41.125; -227.000; -181.000
227.036;  -44.150; -537.000; -447.000
227.180;  -66.675; -551.000; -375.000
227.324;  -70.900; -561.000; -580.000
227.468; -137.875; -819.000; -717.000
227.612;   25.500;  242.000;  -28.000
227.756; -119.600; -845.000; -698.000
227.900;   56.450;  342.000;  441.000
228.044;  -67.675; -509.000; -290.000
228.188;   57.975;  448.000;  568.000
228.332;  -92.550; -546.000; -472.000
228.476;  -39.200; -223.000; -149.000
228.620;  -42.125; -210.000; -150.000
228.764;   66.875;  431.000;  349.000
228.908;  -22.000; -155.000;   30.000
229.052;  -58.950; -615.000; -528.000
229.195;  -22.375; -172.000;   13.000
229.339;  -37.800; -235.000; -305.000
229.483;  -25.625;    5.000; -162.000
229.627;   -6.875; -156.000;  139.000
229.771;  -64.125; -218.000; -294.000
229.915;    3.750;  230.000;   79.000
230.059; -105.250; -648.000; -663.000
230.202;  -36.325; -370.000; -317.000
230.346;  -19.350; -107.000;  107.000
230.490;  -63.575; -489.000; -521.000
230.634; -121.375; -736.000; -553.000
230.777;   60.775;  478.000;  509.000
230.921;  -62.350; -450.000; -359.000
231.065;  -43.325; -246.000; -286.000
231.209;   25.475;  261.000;  265.000
231.352;   21.575;   54.000;   40.000
231.496;   15.350;  568.000;  188.000
231.640;  -77.225; -693.000; -621.000
231.783;   64.450;  546.000;  525.000
231.927;  -54.575; -294.000; -365.000
232.071; -131.200; -962.000; -736.000
232.214; -113.375; -980.000; -764.000
232.358; -105.150; -683.000; -599.000
232.502;   15.600;  -19.000;    7.000
232.645; -153.425;-1090.000; -927.000
232.789;  -19.950; -257.000; -218.000
232.933;  -60.025; -407.000; -224.000
233.076; -127.575;-1038.000; -897.000
233.220; -130.275; -752.000; -777.000
233.363;  -82.500; -669.000; -477.000
233.507;   53.900;  371.000;  129.000
233.650; -100.275; -764.000; -834.000
233.794;   44.950;  438.000;  461.000
233.938;  -63.325; -530.000; -362.000
234.081;  -18.825;  -93.000;   31.000
234.225;  -63.600; -631.000; -539.000
234.368; -120.850; -773.000; -723.000
234.512;  -41.825; -385.000; -299.000
234.655; -120.825; -582.000; -555.000
234.798;  -74.700; -493.000; -466.000
234.942; -140.125; -884.000;-1002.000
235.085;  -85.525; -651.000; -443.000
235.229;  -79.475; -405.000; -410.000
235.372;  -57.525; -247.000; -191.000
235.516;  -68.025; -397.000; -321.000
235.659;   10.750;   92.000;  121.000
235.802;  -24.950;  -38.000;  -22.000
235.946;   24.200;  335.000;  215.000
236.089;   23.325;  126.000;  250.000
236.233;   57.650;  275.000;  298.000
236.376;  -52.325; -235.000; -378.000
236.519;  -51.675; -297.000; -319.000
236.663;  -28.875; -215.000; -117.000
236.806; -138.450;-1029.000; -999.000
236.949;   69.150;  543.000;  431.000
237.092;   63.075;  412.000;  391.000
237.236;  -88.500; -589.000; -502.000
237.379;   70.400;  352.000;  428.000
237.522; -137.325; -879.000; -768.000
237.666;   -9.950; -271.000;   18.000
237.809; -145.575; -851.000; -823.000
237.952;   35.850;  469.000;  271.000
238.095;  -79.950; -447.000; -442.000
238.238;   80.050;  688.000;  700.000
238.382;   -9.675;  166.000;  103.000
238.525;  -82.450; -598.000; -511.000
238.668; -149.950;-1060.000; -985.000
238.811;  -85.725; -638.000; -643.000
238.954;  -68.075; -483.000; -334.000
239.097;  106.825;  617.000;  664.000
239.241;   19.825;  394.000;  326.000
239.384;  -19.300; -254.000; -214.000
239.527;  -67.525; -424.000; -224.000
239.670; -152.900; -994.000;-1091.000
239.813; -123.225; -696.000; -658.000
239.956;   89.225;  579.000;  473.000
240.099; -126.175; -778.000; -725.000
240.242;   73.200;  428.000;  432.000
240.385;   49.250;  466.000;  450.000
240.528;  -66.650; -706.000; -473.000
240.671;   22.000;  189.000;  134.000
240.814;  -47.050; -441.000; -158.000
240.957; -106.475; -767.000; -578.000
241.100;  -87.275; -779.000; -755.000
241.243; -154.650;-1234.000; -893.000
241.386;  -67.475; -508.000; -379.000
241.529; -101.775; -735.000; -547.000
241.672;  -71.400; -566.000; -495.000
241.815; -126.400; -832.000; -808.000
241.958;  -29.650; -125.000; -182.000
242.101;  -95.925; -545.000; -390.000
242.244;  -44.575; -270.000; -325.000
242.387;  -55.250; -304.000; -246.000
242.530;   55.825;  470.000;  134.000
242.673;  -62.950; -381.000; -309.000
242.815; -120.525; -925.000; -899.000
242.958;  -78.175; -482.000; -381.000
243.101;   11.700;  132.000;  187.000
243.244;  -86.175; -564.000; -521.000
243.387;  -57.725; -313.000; -316.000
243.530;  -96.775; -657.000; -674.000
243.672;   15.025;   43.000;  -92.000
243.815;  -73.450; -355.000; -283.000
243.958;   -1.400;   98.000;  -26.000
244.101;   -0.075;   59.000;  -16.000
244.243;    6.525;  -47.000;  101.000
244.386; -116.100; -761.000; -630.000
244.529;  -28.700; -132.000; -139.000
244.672; -165.100;-1154.000; -951.000
244.814;  -97.250; -621.000; -794.000
244.957;  -75.475; -380.000; -304.000
245.100;  -73.975; -489.000; -489.000
245.242;  -69.125; -387.000; -374.000
245.385;  -12.925;  -59.000;  -39.000
245.528; -121.650; -871.000; -705.000
245.670;   87.950;  612.000;  634.000
245.813;  -96.025; -599.000; -547.000
245.956;  -36.775; -324.000; -275.000
246.098;  -82.100; -508.000; -650.000
246.241;    9.850;  194.000;   48.000
246.383;  -40.200; -119.000;  -73.000
246.526;  -68.050; -454.000; -525.000
246.669; -123.975; -889.000; -780.000
246.811;   18.050;  172.000;   -1.000
246.954;  -75.025; -512.000; -426.000
247.096;  -23.375;  -84.000;   -6.000
247.239;  -84.450; -482.000; -445.000
247.381;  -83.825; -647.000; -488.000
247.524;   79.150;  645.000;  679.000
247.666;   -7.525;   58.000;   11.000
247.809; -121.175; -887.000; -691.000
247.951;  -14.800;  -75.000;  138.000
248.094;   30.575;  432.000;  308.000
248.236; -173.725;-1262.000;-1238.000
248.378;  -46.475; -356.000;  -81.000
248.521;  -43.400; -334.000; -337.000
248.663;  -48.725; -236.000; -267.000
248.806;  -45.225; -300.000; -266.000
248.948; -144.000; -886.000; -763.000
249.090;  -67.825; -428.000; -398.000
249.233;  -78.450; -344.000; -381.000
249.375;  -68.325; -474.000; -451.000
249.518;  -36.925;  -83.000; -133.000
249.660;   -2.150; -103.000;    3.000
249.802; -196.025;-1303.000;-1189.000
249.945;  -82.450; -612.000; -540.000
250.087; -127.875; -834.000; -768.000
250.229;  -60.950; -362.000; -480.000
250.371;  -79.800; -494.000; -439.000
250.514;  -39.600; -310.000; -244.000
250.656;  -48.075;   69.000;  102.000
250.798; -132.125; -849.000; -800.000
250.940;  -70.850; -322.000; -322.000
251.083;  -33.500; -335.000; -111.000
251.225;   39.850;  338.000;  310.000
251.367;  -41.850; -274.000; -373.000
251.509;  -42.475; -265.000; -210.000
251.651;  -97.675; -731.000; -671.000
251.794;   52.550;  538.000;  632.000
251.936; -127.150; -821.000; -747.000
252.078; -106.600; -540.000; -461.000
252.220;  -73.500; -645.000; -477.000
252.362;   21.425;  344.000;  462.000
252.504;  -91.625; -677.000; -584.000
252.646; -128.950; -875.000; -722.000
252.788;  -14.700;   14.000; -128.000
252.931;  -61.250; -257.000; -253.000
253.073;  -52.425; -376.000; -317.000
253.215;  -18.225;  141.000;  122.000
253.357;  -16.775;   82.000; -153.000
253.499;  -60.000; -374.000; -234.000
253.641; -100.975; -749.000; -594.000
253.783; -112.875; -609.000; -527.000
253.925;  -94.825; -586.000; -591.000
254.067; -104.950; -744.000; -667.000
254.209;  -44.375; -391.000; -259.000
254.351; -164.225; -865.000; -883.000
254.493;  -74.400; -441.000; -417.000
254.635; -153.175; -936.000; -818.000
254.777; -101.125; -752.000; -687.000
254.918;  -88.150; -512.000; -430.000
255.060;  -57.775; -551.000; -395.000
255.202;  -80.975; -473.000; -261.000
255.344;  -79.700; -658.000; -455.000
255.486;  -75.425; -471.000; -406.000
255.628; -108.425; -780.000; -781.000
255.770;  -94.050; -676.000; -536.000
255.912;  -72.425; -559.000; -468.000
256.053; -103.975; -730.000; -508.000
256.195;  144.575; 1008.000;  903.000
256.337; -116.725; -861.000; -595.000
256.479;   71.675;  532.000;  416.000
256.621;  -60.625; -394.000; -212.000
256.762;  -89.800; -789.000; -742.000
256.904;   58.000;  485.000;  487.000
257.046;  -47.425; -381.000; -271.000
257.188;  -56.125; -351.000; -264.000
257.329;  -83.400; -525.000; -464.000
257.471; -126.850; -939.000; -807.000
257.613;  -79.450; -584.000; -498.000
257.755; -163.150;-1073.000; -982.000
257.896;   35.900;  286.000;  392.000
258.038;  -72.300; -403.000; -352.000
258.180;  -55.400; -354.000; -279.000
258.321;  -98.200; -581.000; -457.000
258.463;   -9.050;  -71.000;  133.000
258.605; -102.300; -562.000; -570.000
258.746; -125.100; -886.000; -772.000
258.888; -165.100;-1026.000;-1020.000
259.029;   25.250;  121.000;   -8.000
259.171; -107.500; -614.000; -550.000
259.313;   -3.625;  -49.000;  -47.000
259.454;  -81.650; -536.000; -414.000
259.596;  -51.750; -483.000; -390.000
259.737;  -79.900; -590.000; -474.000
259.879;   31.175;  217.000;  311.000
260.020;   66.725;  901.000;  636.000
260.162;  -30.700; -146.000; -253.000
260.303; -122.425; -768.000; -687.000
260.445;  -79.250; -609.000; -613.000
260.586;   17.225;  392.000;  157.000
260.728;  -46.275; -360.000; -248.000
260.869; -128.150; -350.000; -343.000
261.011;   74.900;  706.000;  537.000
261.152;  -76.050; -479.000; -319.000
261.293;  -90.700; -576.000; -595.000
261.435;  -47.850; -219.000; -184.000
261.576;  -59.750; -455.000; -325.000
261.718;   43.000;  420.000;  470.000
261.859; -130.900; -940.000; -949.000
262.000; -146.850; -951.000;-1016.000
262.142;  -20.500;  -52.000;  -60.000
262.283; -126.550; -808.000; -691.000
262.424;  -94.125; -666.000; -625.000
262.566; -153.650;-1161.000; -983.000
262.707; -117.150; -840.000; -830.000
262.848; -129.275; -769.000; -726.000
262.990;  -41.175; -362.000; -345.000
263.131;   63.875;  650.000;  681.000
263.272;   -8.650;  -61.000;  -41.000
263.413;  -96.350; -589.000; -561.000
263.555;  -78.075; -669.000; -143.000
263.696; -102.475; -550.000; -641.000
263.837;  -62.650; -449.000; -551.000
263.978;   -9.000;   -5.000;  -77.000
264.119;  -48.325; -283.000; -264.000
264.261; -122.725; -847.000; -630.000
264.402;  -17.800;   33.000;   40.000
264.543; -105.200; -509.000; -524.000
264.684;   -5.600;   61.000;  -50.000
264.825;  -96.800; -816.000; -538.000
264.966;   -6.350;  -84.000;  -67.000
265.107; -138.300; -646.000; -670.000
265.248; -118.200; -825.000; -812.000
265.390;  -19.200;  152.000;   -9.000
265.531;  -20.775; -238.000; -107.000
265.672; -109.450; -557.000; -630.000
265.813;   52.700;  563.000;  439.000
265.954; -155.150; -959.000; -940.000
266.095;  -23.325; -372.000; -322.000
266.236; -110.125; -686.000; -548.000
266.377;  -64.225; -243.000; -297.000
266.518;  -77.875; -619.000; -547.000
266.659;   11.500;  170.000;  268.000
266.800;  -10.875;   83.000;   85.000
266.941;  -91.150; -487.000; -478.000
267.082;    2.425;  354.000;   99.000
267.223;  -49.650; -344.000; -273.000
267.364; -134.425; -892.000; -686.000
267.504;  -19.950;    3.000;  135.000
267.645;  -12.225;  160.000;   67.000
267.786;  -35.275; -147.000;  -86.000
267.927;  -93.950; -473.000; -379.000
268.068;  -33.650; -186.000;  -61.000
268.209;  -76.450; -175.000; -413.000
268.350;  -62.750; -388.000; -532.000
268.490; -101.500; -648.000; -521.000
268.631;   30.825;  127.000;  225.000
268.772; -125.450; -874.000; -647.000
268.913;  -57.250; -328.000; -476.000
269.054;  -40.825; -117.000;   12.000
269.194;  -60.175; -418.000; -402.000
269.335; -173.375;-1137.000;-1074.000
269.476;  -16.625;   33.000;  -35.000
269.617;  -70.250; -347.000; -392.000
269.757; -103.975; -713.000; -646.000
269.898; -118.900; -856.000; -613.000
270.039;  -76.225; -415.000; -405.000
270.180; -157.125; -952.000; -816.000
270.320;  -39.975; -190.000; -250.000
270.461;  -46.175; -277.000; -249.000
270.602;  -27.275; -186.000; -156.000
270.742; -138.975; -868.000; -943.000
270.883;  -70.700; -442.000; -390.000
271.023;  -76.250; -358.000; -357.000
271.164;  -86.625; -607.000; -528.000
271.305; -124.475; -666.000; -654.000
271.445; -104.100; -722.000; -683.000
271.586;  -80.300; -462.000; -283.000
271.726;  -51.775; -397.000; -322.000
271.867;  -93.700; -594.000; -534.000
272.008;  -32.750; -473.000; -285.000
272.148;   44.150;  462.000;  468.000
272.289;  -32.575; -113.000; -181.000
272.429;  -28.875;   19.000;  185.000
272.570; -114.750; -633.000; -737.000
272.710; -127.525; -825.000; -775.000
272.851;  -30.550;  113.000; -130.000
272.991; -172.125;-1173.000;-1077.000
273.131;  -71.775; -419.000; -459.000
273.272; -127.950; -683.000; -723.000
273.412;  -18.925; -143.000;  -31.000
273.553;  -87.800; -488.000; -507.000
273.693;  108.950;  913.000;  858.000
273.834; -149.900; -894.000; -692.000
273.974;  -98.025; -664.000; -615.000
274.114; -136.275; -772.000; -560.000
274.255;   32.950;  414.000;  373.000
274.395;  -52.975; -180.000; -125.000
274.535;   26.750;  199.000;  350.000
274.676;   17.625;  225.000;   94.000
274.816;   -9.000;  110.000;   34.000
274.956; -113.500; -624.000; -690.000
275.097; -145.000;-1014.000; -922.000
275.237; -152.725; -913.000; -803.000
275.377; -118.375; -778.000; -689.000
275.517; -179.825; -878.000; -937.000
275.658;  -83.650; -590.000; -555.000
275.798;  -99.000; -606.000; -413.000
275.938;   17.075;  215.000;  323.000
276.078; -100.275; -626.000; -395.000
276.218;  -17.100;   99.000;  104.000
276.359; -150.750;-1026.000;-1024.000
276.499;  -93.100; -605.000; -446.000
276.639;  -46.575; -305.000; -151.000
276.779;  -51.850; -475.000; -357.000
276.919; -131.575; -783.000; -624.000
277.059;  -34.025; -261.000; -212.000
277.199;  -68.475; -357.000; -259.000
277.340;   25.100;  287.000;  175.000
277.480; -127.700; -840.000; -693.000
277.620;   33.475;  192.000;   16.000
277.760; -226.325;-1533.000;-1294.000
277.900;   -2.175;  113.000;   33.000
278.040;  -20.050;  137.000;  159.000
278.180;   18.525;  270.000;  170.000
278.320;  -10.875;   21.000;   56.000
278.460;  -81.025; -443.000; -469.000
278.600; -107.075; -708.000; -598.000
278.740;   48.375;  448.000;  224.000
278.880; -153.625; -768.000; -791.000
279.020;  -39.750; -194.000; -144.000
279.160; -110.975; -672.000; -595.000
279.300; -133.550; -926.000; -873.000
279.440; -119.375; -709.000; -622.000
279.579; -145.525;-1014.000; -929.000
279.719; -105.675; -410.000; -394.000
279.859;   -1.200;   -4.000;   41.000
279.999;  -38.075; -208.000;  101.000
280.139;  -66.800; -435.000; -387.000
280.279; -119.675; -708.000; -745.000
280.419;  -23.125; -229.000; -147.000
280.559;  -65.975; -259.000; -180.000
280.698; -117.700; -790.000; -639.000
280.838; -128.325; -778.000; -800.000
280.978; -103.875; -846.000; -790.000
281.118; -125.225; -811.000; -704.000
281.257;    0.600;   24.000;    6.000
281.397; -174.750;-1094.000; -960.000
281.537; -113.875; -599.000; -712.000
281.677;  -34.050; -150.000; -101.000
281.816; -102.650; -700.000; -630.000
281.956;  -51.250; -193.000; -257.000
282.096;  -82.625; -539.000; -396.000
282.235; -124.850; -672.000; -638.000
282.375;  -40.525; -243.000;  -98.000
282.515; -128.475; -715.000; -707.000
282.654;   -8.700;   29.000;  106.000
282.794;    2.575;  388.000;  244.000
282.934;  -67.225; -530.000; -491.000
283.073; -155.500;-1030.000; -857.000
283.213;  -62.525; -460.000; -467.000
283.353;  -67.875; -408.000; -349.000
283.492;  -38.800; -264.000; -296.000
283.632;  -66.925; -254.000; -168.000
283.771; -105.275; -859.000; -730.000
283.911;  -74.850; -369.000; -260.000
284.050; -129.800; -794.000; -748.000
284.190; -168.475;-1229.000;-1096.000
284.329; -158.725;-1055.000; -964.000
284.469; -117.525; -516.000; -591.000
284.608;  -74.100; -559.000; -598.000
284.748;  -99.400; -614.000; -570.000
284.887;  -21.000;  -87.000;  -20.000
285.027; -138.775; -844.000; -892.000
285.166;  -39.975; -192.000; -249.000
285.306;  -41.950; -116.000;  -33.000
285.445;  -52.575; -229.000; -343.000
285.584; -108.450; -630.000; -494.000
285.724;  -51.800; -282.000; -322.000
285.863; -131.050; -857.000; -507.000
286.002;  -55.800; -366.000; -276.000
286.142; -129.250; -715.000; -622.000
286.281;  -83.500; -525.000; -493.000
286.420; -114.300; -554.000; -417.000
286.560;   91.850;  653.000;  623.000
286.699; -161.450; -958.000; -912.000
286.838;  -99.600; -590.000; -591.000
286.978; -109.500; -533.000; -537.000
287.117; -142.225;-1085.000; -950.000
287.256;  -64.300; -228.000; -211.000
287.395;  -65.625; -197.000; -378.000
287.535;  -73.925; -370.000; -298.000
287.674;  -89.675; -509.000; -484.000
287.813;   51.675;  661.000;  533.000
287.952; -147.875;-1010.000; -871.000
288.091; -163.875;-1049.000; -915.000
288.231;  -23.125;   13.000;   15.000
288.370; -199.400;-1217.000;-1200.000
288.509;  -88.800; -728.000; -645.000
288.648; -105.325; -770.000; -548.000
288.787;  -55.350; -243.000;  -87.000
288.926;  -80.675; -454.000; -475.000
289.065;   88.600;  859.000;  672.000
289.204;  -66.200; -377.000; -217.000
289.344; -112.800; -791.000; -690.000
289.483;   -7.850;  416.000;  304.000
289.622;  -43.450; -291.000; -149.000
289.761;  -32.500; -309.000; -166.000
289.900; -114.100; -785.000; -626.000
290.039;  -22.750;  -12.000;  -95.000
290.178;  -47.725; -274.000; -180.000
290.317; -109.800; -618.000; -479.000
290.456;  -70.575; -463.000; -451.000
290.595; -164.000; -961.000; -833.000
290.734; -161.775; -904.000; -891.000
290.873;  -89.100; -456.000; -420.000
291.011; -118.900; -833.000; -843.000
291.150; -130.050; -770.000; -682.000
291.289;  -46.800; -343.000; -110.000
291.428; -116.175; -599.000; -480.000
291.567;  -70.525; -370.000; -442.000
291.706;   -3.100;  109.000;  154.000
291.845; -103.450; -597.000; -505.000
291.984; -186.975;-1234.000;-1061.000
292.122;   57.225;  602.000;  582.000
292.261;   24.650;  620.000;  463.000
292.400;  -12.925; -144.000;  211.000
292.539; -149.950; -959.000; -813.000
292.678;  -58.000; -325.000; -300.000
292.816; -177.450;-1136.000; -965.000
292.955; -122.400; -844.000; -684.000
293.094;  -51.650; -173.000; -337.000
293.233;  -59.475; -556.000; -400.000
293.371;  -62.800; -225.000;  -84.000
293.510; -117.975; -866.000; -780.000
293.649; -157.475; -959.000; -924.000
293.787; -158.925;-1083.000;-1012.000
293.926;  -41.775; -113.000;  -32.000
294.065;  -62.300; -379.000; -290.000
294.203;   14.125;  298.000;  406.000
294.342;   -5.400;   74.000;  156.000
294.481; 5401.525;51180.000; -836.000
294.619;  -43.725; -425.000; -582.000
294.758; -181.950;-1230.000;-1137.000
294.896;  -13.025; -125.000;    5.000
295.035; -170.450;-1040.000;-1006.000
295.174; -152.625;-1082.000; -954.000
295.312;  -87.500; -323.000; -203.000
295.451;  -69.750; -307.000; -428.000
295.589;  -94.825; -389.000; -518.000
295.728;  -16.650; -292.000; -165.000
295.866;  -43.225;  -36.000;  -51.000
296.005;  -76.300; -584.000; -341.000
296.143; -104.100; -558.000; -596.000
296.282; -134.725; -957.000; -881.000
296.420; -120.950; -657.000; -557.000
296.559; -104.975; -892.000; -633.000
296.697; -129.400; -847.000; -665.000
296.835; -152.375;-1141.000;-1002.000
296.974;  -21.200;  -23.000;   39.000
297.112;  -73.575; -443.000; -504.000
297.251; -133.050; -815.000; -755.000
297.389;  -91.125; -576.000; -438.000
297.527;  -35.725; -145.000;  -83.000
297.666;  -86.050; -486.000; -438.000
297.804;  -89.700; -404.000; -264.000
297.942;  -21.250; -136.000; -161.000
298.081;  -47.025; -183.000;   63.000
298.219;  -16.375;  -17.000;  -19.000
298.357;  -38.175; -144.000;  -71.000
298.495; -137.400; -810.000; -812.000
298.634;  -18.450;  245.000;  219.000
298.772;  -56.350; -220.000; -338.000
298.910;  -87.025; -309.000; -182.000
299.048;  -23.525; -130.000; -153.000
299.187;  -60.200; -350.000; -250.000
299.325;  -12.850;   52.000;  122.000
299.463;  -75.700; -389.000; -299.000
299.601;  -49.025; -327.000; -271.000
299.739; -169.125; -908.000; -883.000
299.877; -109.725; -791.000; -703.000
300.016; -174.875;-1095.000; -935.000
300.154;  -13.725;  -19.000; -161.000
300.292; -101.325; -428.000; -348.000
300.430;  -64.175; -408.000; -291.000
300.568; -168.550; -940.000; -874.000
300.706;  -73.350; -366.000; -469.000
300.844; -180.225;-1108.000; -979.000
300.982;   48.025;  246.000;  282.000
301.120; -174.575; -965.000; -866.000
301.258; -114.325; -812.000; -705.000
301.396;  -15.025;  104.000;  -41.000
301.534;  -70.325; -218.000; -293.000
301.672; -106.725; -664.000; -521.000
301.810; -100.075; -613.000; -545.000
301.948;  -29.975;   53.000;  149.000
302.086;  -35.225; -250.000;  -32.000
302.224; -123.350; -610.000; -585.000
302.362; -108.525; -558.000; -622.000
302.500; -158.325; -923.000; -893.000
302.638;  -17.775;  128.000;  245.000
302.776;  -73.775; -352.000; -408.000
302.913;   28.075;  447.000;  236.000
303.051;  -47.250;  -86.000;  -23.000
303.189;   -8.150;   90.000;  118.000
303.327;  -86.600; -341.000; -256.000
303.465; -106.250; -832.000; -588.000
303.603; -130.925; -805.000; -604.000
303.740;   27.775;  417.000;  241.000
303.878; -125.700; -800.000; -759.000
304.016; -119.275; -915.000; -790.000
304.154; -202.075;-1123.000;-1152.000
304.291;  -95.350; -505.000; -554.000
304.429;   -7.150;  102.000;   74.000
304.567; -155.300; -908.000; -893.000
304.705;  -95.850; -408.000; -515.000
304.842;  -99.250; -616.000; -540.000
304.980;  -21.300;  215.000;   35.000
305.118;  -51.150; -367.000; -365.000
305.255; -170.075; -945.000; -927.000
305.393;   12.150;  178.000;  239.000
305.531; -172.250;-1173.000; -956.000
305.668; -100.975; -663.000; -582.000
305.806;  -86.550; -358.000; -439.000
305.943;  -97.600; -629.000; -637.000
306.081;  -70.925; -378.000; -267.000
306.219; -128.125; -863.000; -748.000
306.356;  -35.825;  158.000;   27.000
306.494;   81.250;  981.000;  761.000
306.631;  -35.825;  -11.000;  -55.000
306.769;  -82.725; -613.000; -485.000
306.906;  -86.600; -284.000; -258.000
307.044;  -92.900; -473.000; -488.000
307.181;  -81.900; -410.000; -332.000
307.319;  -11.750;  112.000;   87.000
307.456; -196.875;-1191.000;-1153.000
307.594; -143.825; -980.000; -727.000
307.731;  -62.150; -371.000; -164.000
307.868;  -15.850;  -15.000;   20.000
308.006; -159.400; -961.000; -847.000
308.143;  -88.950; -618.000; -330.000
308.281;  -36.575;  -37.000; -254.000
308.418; -112.000; -748.000; -640.000
308.555; -101.900; -400.000; -250.000
308.693;  -92.400; -577.000; -573.000
308.830; -136.000; -712.000; -657.000
308.967;  -30.950; -215.000;  -95.000
309.105;  -85.250; -507.000; -396.000
309.242;  -84.225; -468.000; -367.000
309.379; -136.675; -577.000; -655.000
309.517; -148.875; -936.000; -948.000
309.654; -128.850; -910.000; -734.000
309.791; -105.900; -662.000; -580.000
309.928; -167.700; -977.000; -914.000
310.065;   66.425;  819.000;  697.000
310.203; -157.475; -825.000; -850.000
310.340;  -85.650; -465.000; -321.000
310.477; -110.225; -412.000; -516.000
310.614;  -81.275; -383.000; -473.000
310.751; -105.000; -427.000; -518.000
310.889;  -46.075;    1.000;   11.000
311.026; -178.275;-1161.000; -939.000
311.163;  -67.750; -386.000; -380.000
311.300; -129.025; -512.000; -479.000
311.437; -106.700; -658.000; -619.000
311.574; -191.100;-1226.000; -985.000
311.711;  -97.975; -595.000; -433.000
311.848;  -64.250; -380.000; -388.000
311.985;  -12.950;  270.000;   93.000
312.122; -160.000; -932.000; -762.000
312.259; -154.175; -941.000; -994.000
312.396; -123.475; -508.000; -551.000
312.533; -114.675; -812.000; -790.000
312.670; -176.575;-1070.000; -898.000
312.807;  -72.025; -352.000; -367.000
312.944; -118.075; -513.000; -611.000
313.081;  -79.425; -150.000; -415.000
313.218; -166.125;-1111.000; -867.000
313.355;  -92.150; -531.000; -449.000
313.492;  -85.350; -455.000; -292.000
313.629;   70.000;  815.000;  735.000
313.766; -194.300;-1176.000;-1008.000
313.902;  -42.150; -186.000;   21.000
314.039;  -86.050; -372.000; -289.000
314.176;   11.650;  286.000;  192.000
314.313; -106.050; -569.000; -473.000
314.450; -124.475; -788.000; -684.000
314.587;  -98.950; -468.000; -480.000
314.723;  -24.000;  -78.000;  130.000
314.860;  -12.700;  318.000;  332.000
314.997;    0.650;  223.000;  142.000
315.134;  -93.225; -385.000; -368.000
315.270;  -99.475; -480.000; -496.000
315.407; -188.275;-1094.000; -967.000
315.544;  -98.675; -657.000; -538.000
315.681; -128.100; -681.000; -565.000
315.817;  -47.050; -133.000; -176.000
315.954;  -98.500; -613.000; -392.000
316.091; -182.200;-1045.000;-1023.000
316.227;  -52.200;  -71.000; -179.000
316.364;   -3.575;   23.000;    6.000
316.500;  -63.075; -113.000; -300.000
316.637;  -52.425; -181.000; -302.000
316.774; -124.200; -625.000; -358.000
316.910; -103.900; -598.000; -629.000
317.047; -118.450; -487.000; -351.000
317.183;  -90.150; -435.000; -566.000
317.320;  -84.400; -367.000; -321.000
317.456; -126.525; -733.000; -805.000
317.593; -133.850; -598.000; -641.000
317.729;  -15.450;  168.000;  -67.000
317.866; -224.025;-1434.000;-1285.000
318.002; -106.300; -708.000; -948.000
318.139; -158.175; -883.000; -867.000
318.275; -127.425;-1003.000; -738.000
318.412;  -90.225; -517.000; -336.000
318.548; -126.000; -751.000; -720.000
318.685; -170.125; -985.000; -888.000
318.821; -139.075; -762.000; -735.000
318.957;  -41.375;   34.000;  -23.000
319.094;   29.950;  297.000;  154.000
319.230; -146.050; -756.000; -742.000
319.367;  -88.175; -471.000; -520.000
319.503; -105.075; -538.000; -436.000
319.639; -140.775; -877.000; -793.000
319.775; -134.225; -750.000; -685.000
319.912;  -72.025; -424.000; -519.000
320.048; -200.225;-1184.000;-1184.000
320.184;  -14.250;   59.000;   70.000
320.321;  -93.200; -497.000; -467.000
320.457;   34.825;  475.000;  662.000
320.593; -101.200; -375.000; -382.000
320.729; -128.350; -732.000; -734.000
320.866; -117.000; -577.000; -635.000
321.002; -119.750; -759.000; -809.000
321.138;  -71.375; -135.000; -211.000
321.274;  -37.150; -148.000; -115.000
321.410; -116.525; -585.000; -353.000
321.546; -157.175;-1011.000; -911.000
321.683;    8.250;  400.000;  185.000
321.819;  -35.400;  -48.000; -117.000
321.955; -146.425; -743.000; -722.000
322.091; -104.425; -585.000; -540.000
322.227;  -72.675; -382.000; -202.000
322.363;  -63.200; -320.000; -215.000
322.499;  -89.575; -343.000; -331.000
322.635;   39.375;  636.000;  443.000
322.771;  -48.700; -139.000;   12.000
322.907;    9.900;  129.000;  327.000
323.043;  -71.000; -115.000; -206.000
323.179;  -74.775; -394.000; -363.000
323.315;  -96.825; -401.000; -371.000
323.451;  -65.650; -328.000; -236.000
323.587;  -63.950;  -60.000;  -77.000
323.723; -101.400; -682.000; -601.000
323.859;  -57.525; -258.000;  -76.000
323.995;  -84.550; -467.000; -409.000
324.131; -164.475; -967.000; -892.000
324.267;  -47.700; -254.000; -276.000
324.402; -172.075; -960.000; -983.000
324.538;  -51.450; -279.000; -104.000
324.674;  -29.600;  164.000;   77.000
324.810;   -0.375;  226.000;  308.000
324.946;  -92.500; -810.000; -658.000
325.082;  -90.375; -568.000; -475.000
325.217;  -49.225;  -62.000;   16.000
325.353; -121.075; -764.000; -659.000
325.489; -113.150; -540.000; -506.000
325.625;  -88.500; -579.000; -525.000
325.760;   -7.600;  517.000;  376.000
325.896;  -98.225; -515.000; -702.000
326.032;  -82.475; -403.000; -352.000
326.168;  -84.925; -462.000; -369.000
326.303;  -84.375; -352.000; -461.000
326.439;  -46.700; -336.000; -276.000
326.575;  -49.075; -190.000;  -29.000
326.710;  -21.525; -156.000;  -30.000
326.846;  -34.075;  146.000;  103.000
326.982; -110.050; -530.000; -548.000
327.117;  -98.725; -481.000; -442.000
327.253; -121.025; -745.000; -742.000
327.388; -179.775;-1137.000;-1153.000
327.524; -127.825; -811.000; -578.000
327.659;  -53.700;  -58.000;  -22.000
327.795;  -13.400;   69.000;   45.000
327.931; -121.250; -723.000; -499.000
328.066;  -63.375; -417.000; -276.000
328.202;  -49.550;   12.000; -129.000
328.337;   78.075;  957.000;  713.000
328.473;   11.975;  -12.000;  -74.000
328.608;  -51.625; -256.000; -267.000
328.743; -151.975; -799.000; -664.000
328.879;  -10.875;  214.000;  114.000
329.014;  -58.925; -102.000; -122.000
329.150;  -98.575; -358.000; -483.000
329.285; -117.450; -465.000; -466.000
329.421;  -71.425; -548.000; -246.000
329.556;  -38.450;  -36.000;   85.000
329.691; -111.950; -633.000; -615.000
329.827; -103.325; -626.000; -480.000
329.962;  -59.975;  131.000; -301.000
330.097; -126.000; -673.000; -585.000
330.233;  -67.900; -410.000; -223.000
330.368; -162.975; -839.000; -628.000
330.503;  -23.050;    3.000;   98.000
330.638;  -39.675;  -93.000; -125.000
330.774; -101.475; -609.000; -530.000
330.909;  -86.075; -434.000; -244.000
331.044; -121.425; -714.000; -708.000
331.179; -218.350;-1217.000;-1109.000
331.315;   -9.475;   77.000;   20.000
331.450;  -20.350;  157.000;  285.000
331.585; -116.125; -805.000; -706.000
331.720; -120.100; -510.000; -460.000
331.855;  -48.900;  -35.000; -102.000
331.990;  -37.250;   62.000;  138.000
332.126;  -34.300; -110.000;   71.000
332.261;  -74.475; -379.000; -265.000
332.396;  -57.200; -135.000; -242.000
332.531; -181.725;-1074.000;-1031.000
332.666;  -74.500; -519.000; -363.000
332.801; -143.150; -726.000; -807.000
332.936;  -32.825; -192.000; -122.000
333.071; -169.450; -870.000; -817.000
333.206;   -3.975;  307.000;  379.000
333.341;   -1.750;  344.000;  418.000
333.476; -112.900; -627.000; -623.000
333.611;  -66.125; -251.000; -173.000
333.746;  -65.200; -381.000; -464.000
333.881; -164.825; -973.000; -935.000
334.016; -158.250; -936.000; -917.000
334.151; -157.925; -746.000; -702.000
334.286;   -1.700;  152.000;  186.000
334.421;  -51.125; -125.000; -178.000
334.556; -112.925; -611.000; -567.000
334.690; -132.425; -631.000; -577.000
334.825;   28.350;  381.000;   83.000
334.960; -110.075; -285.000; -413.000
335.095;  -26.050;  135.000;  -91.000
335.230; -140.575; -722.000; -738.000
335.365; -168.200;-1084.000; -990.000
335.499; -174.925;-1108.000;-1037.000
335.634;  -19.175;    9.000;  534.000
335.769; -150.700; -755.000; -720.000
335.904; -103.250; -603.000; -561.000
336.038; -141.800; -735.000; -657.000
336.173; -200.425;-1206.000;-1194.000
336.308;  -73.275; -116.000; -189.000
336.443;  -72.900; -544.000; -634.000
336.577; -162.000; -936.000; -787.000
336.712;  -16.950;   -4.000;  -12.000
336.847; -143.325; -724.000; -607.000
336.981;  -68.525; -272.000; -208.000
337.116;   27.825;  615.000;  501.000
337.250;  -95.475; -434.000; -421.000
337.385;  -72.875; -297.000; -208.000
337.520; -126.600; -632.000; -603.000
337.654;  -85.175; -215.000; -126.000
337.789; -154.425; -989.000; -933.000
337.923;  -67.900; -104.000; -205.000
338.058; -131.575; -673.000; -738.000
338.192; -133.175; -611.000; -488.000
338.327;  -57.675;  -18.000; -155.000
338.461; -108.575; -299.000; -469.000
338.596; -122.800; -780.000; -638.000
338.730; -137.550; -767.000; -803.000
338.865;  -40.875;  -46.000; -140.000
338.999; -164.075; -846.000; -702.000
339.134; -106.325; -634.000; -536.000
339.268; -135.375; -741.000; -603.000
339.403; -128.700; -740.000; -775.000
339.537; -159.225; -894.000; -820.000
339.671; -152.925; -829.000; -813.000
339.806; -123.725; -556.000; -512.000
339.940;  -56.225; -261.000; -235.000
340.074; -125.275; -685.000; -510.000
340.209;  -60.250; -351.000; -230.000
340.343; -109.050; -517.000; -573.000
340.477;  121.175;  998.000; 1036.000
340.612; -158.050;-1033.000; -900.000
340.746;  -72.950; -199.000; -243.000
340.880; -165.950; -924.000; -785.000
341.014;  -42.450;  -45.000; -154.000
341.149; -141.850; -756.000; -718.000
341.283; -130.725; -839.000; -754.000
341.417; -192.000;-1124.000; -938.000
341.551; -119.675; -768.000; -708.000
341.685; -120.475; -633.000; -611.000
341.820; -112.750; -562.000; -493.000
341.954;  -99.175; -218.000; -349.000
342.088; -164.325;-1102.000;-1019.000
342.222;   17.600;  565.000;  618.000
342.356;  -96.775; -395.000; -335.000
342.490; -153.450; -880.000; -841.000
342.624;  -67.350; -339.000; -242.000
342.758;  -85.675; -364.000; -312.000
342.892; -113.200; -710.000; -585.000
343.026;  -59.150;  -58.000; -116.000
343.160;  -93.425; -426.000; -376.000
343.294; -115.375; -474.000; -337.000
343.428;  -97.500; -488.000; -448.000
343.562;  -56.800; -172.000;  -23.000
343.696;  -74.850; -385.000; -314.000
343.830;  -87.825; -362.000; -356.000
343.964;  -49.200; -231.000; -168.000
344.098;  -39.650;  199.000;   70.000
344.232;  -60.925; -266.000; -127.000
344.366; -134.800; -567.000; -453.000
344.500; -126.325; -665.000; -744.000
344.634;  -79.200; -324.000; -164.000
344.768;  -88.700; -531.000; -341.000
344.902;  -23.350;  278.000;  256.000
345.035;  -90.900; -556.000; -496.000
345.169; -168.850; -933.000; -656.000
345.303;  -91.750; -308.000; -482.000
345.437; -143.175; -826.000; -717.000
345.571; -126.550; -675.000; -594.000
345.704; -101.050; -309.000; -532.000
345.838;  -68.750; -331.000; -284.000
345.972; -125.450; -543.000; -495.000
346.106;  -25.500; -179.000; -190.000
346.239;  -84.525; -312.000; -243.000
346.373;  -66.550; -343.000; -302.000
346.507; -188.125; -950.000; -962.000
346.640;  -24.975;  -30.000;   13.000
346.774; -140.375; -650.000; -797.000
346.908;  -47.400; -138.000;  -11.000
347.041; -136.700; -646.000; -593.000
347.175;  -18.400;  259.000;   27.000
347.309; -150.150; -698.000; -628.000
347.442; -149.925; -883.000; -732.000
347.576;   57.925;  670.000;  668.000
347.709;  -34.000; -123.000;  -52.000
347.843; -175.475; -933.000; -825.000
347.976;   -0.600;  235.000;  294.000
348.110; -216.200;-1268.000;-1186.000
348.243; -120.600; -679.000; -772.000
348.377;  -37.525;  -26.000;   60.000
348.510;   25.100;  403.000;  540.000
348.644;  -66.650;  -37.000; -159.000
348.777;  -22.575;  180.000;  191.000
348.911;  -59.250; -142.000; -112.000
349.044;   12.200;  471.000;  448.000
349.178; -196.125;-1069.000;-1006.000
349.311;   -7.050;  141.000;  255.000
349.444; -170.325; -927.000; -813.000
349.578;  -47.750; -347.000; -200.000
349.711; -176.225; -959.000; -862.000
349.845; -128.075; -661.000; -591.000
349.978; -219.325;-1224.000;-1137.000
350.111; -111.075; -546.000; -612.000
350.244; -141.800; -596.000; -700.000
350.378;  -92.425; -392.000; -393.000
350.511; -103.625; -393.000; -426.000
350.644; -143.700; -808.000; -806.000
350.778;  -38.050;  168.000;  104.000
350.911;  -29.425;  134.000;  140.000
351.044; -141.250; -685.000; -615.000
351.177;  -74.525; -321.000; -281.000
351.310;  -52.525;    3.000; -131.000
351.444; -142.500; -888.000; -788.000
351.577;  -30.650;  140.000;   90.000
351.710;   55.950;  593.000;  417.000
351.843;  -81.650; -165.000;  -77.000
351.976;  -24.000;  149.000;  -79.000
352.109; -137.200; -621.000; -612.000
352.242;  -90.000; -464.000; -419.000
352.376; -132.525; -580.000; -636.000
352.509;  -95.775; -437.000; -356.000
352.642; -191.175; -654.000; -604.000
352.775;  -58.050; -141.000;  -98.000
352.908; -166.175; -933.000; -904.000
353.041; -146.950; -814.000; -824.000
353.174; -109.325; -551.000; -424.000
353.307; -134.500; -753.000; -764.000
353.440;   25.150;  541.000;  453.000
353.573; -162.000; -957.000;-1008.000
353.706; -144.675; -384.000; -558.000
353.839;  -60.900; -264.000; -220.000
353.971; -133.650; -657.000; -512.000
354.104; -165.975; -896.000; -835.000
354.237; -134.400; -627.000; -662.000
354.370; -138.200; -846.000; -879.000
354.503; -226.225;-1231.000;-1308.000
354.636;  -80.275; -529.000; -348.000
354.769; -168.100; -937.000; -860.000
354.902;  -62.400; -230.000; -139.000
355.034;  -69.550; -164.000; -220.000
355.167;  -74.800; -262.000; -162.000
355.300; -179.025;-1061.000; -880.000
355.433;  -35.025;  -71.000;  -14.000
355.565; -102.375; -402.000; -384.000
355.698;  -86.525; -356.000; -296.000
355.831; -167.400; -882.000; -801.000
355.964;  -60.625; -285.000; -170.000
356.096; -176.275; -856.000; -843.000
356.229; -117.475; -523.000; -530.000
356.362;  -91.300; -373.000; -266.000
356.494;  -62.825; -229.000; -162.000
356.627;   -6.925;  269.000;  377.000
356.760;  -27.850;  120.000;   53.000
356.892; -134.700; -286.000; -601.000
357.025;   25.500;  403.000;  389.000
357.157;  -74.800; -167.000; -179.000
357.290; -139.350; -856.000; -713.000
357.423; -137.200; -667.000; -556.000
357.555;  -69.575; -217.000; -228.000
357.688; -103.400; -483.000; -364.000
357.820; -165.425; -870.000; -877.000
357.953; -136.875; -563.000; -589.000
358.085; -133.100; -632.000; -612.000
358.218; -176.475;-1131.000; -932.000
358.350;  -27.825;  -58.000;  312.000
358.483; -222.925;-1300.000;-1187.000
358.615; -179.400;-1182.000;-1078.000
358.747; -206.775;-1187.000;-1058.000
358.880; -141.500; -810.000; -744.000
359.012; -101.800; -376.000; -202.000
359.145; -106.325; -480.000; -511.000
359.277; -181.525; -962.000; -913.000
359.409;   27.950;  536.000;  231.000
359.542; -151.700; -738.000; -688.000
359.674;  -21.800;   46.000;   13.000
359.806; -121.425; -565.000; -438.000
359.939; -107.575; -617.000; -516.000
360.071; -130.000; -583.000; -579.000
360.203;  -81.600; -411.000; -364.000
360.335;  -33.350;  164.000;  -16.000
360.468;  -57.675; -249.000; -307.000
360.600; -129.900; -547.000; -454.000
360.732; -114.325; -546.000; -423.000
360.864; -202.300;-1216.000;-1044.000
360.996; -101.950; -516.000; -554.000
361.129; -124.250; -389.000; -598.000
361.261;  -39.700;  110.000; -113.000
361.393;  -91.175; -252.000; -214.000
361.525;  -23.525;   94.000;  244.000
361.657; -150.800; -821.000; -703.000
361.789;  -40.875; -139.000; -155.000
361.921; -129.650; -642.000; -593.000
362.053;   30.350;  524.000;  541.000
362.185;  -25.625;  288.000;   72.000
362.318; -137.650; -709.000; -705.000
362.450;    5.575;  294.000;  444.000
362.582; -165.925; -913.000; -870.000
362.714;  -95.775; -353.000; -332.000
362.846; -119.275; -606.000; -490.000
362.978; -185.850; -941.000; -811.000
363.109;  -65.775; -161.000; -260.000
363.241; -156.725; -739.000; -749.000
363.373; -117.325; -649.000; -564.000
363.505;  -62.800; -186.000;  -91.000
363.637; -124.725; -787.000; -601.000
363.769; -201.125;-1067.000;-1080.000
363.901; -118.350; -596.000; -654.000
364.033; -203.525;-1103.000;-1062.000
364.165;  -63.200; -283.000; -283.000
364.296;  -97.175; -316.000; -177.000
364.428; -210.725;-1344.000;-1220.000
364.560; -138.150; -679.000; -661.000
364.692; -125.300; -738.000; -835.000
364.824; -135.125; -588.000; -456.000
364.955;  -81.400; -402.000; -564.000
365.087; -183.250;-1097.000; -852.000
365.219; -132.850; -686.000; -816.000
365.351; -134.025; -526.000; -572.000
365.482;  -11.300;  300.000;  240.000
365.614; -100.175; -402.000; -314.000
365.746; -145.800; -729.000; -752.000
365.877; -160.075; -706.000; -672.000
366.009;  -54.900;  -35.000;  -62.000
366.141; -223.800;-1249.000;-1134.000
366.272; -142.375; -803.000; -719.000
366.404; -146.025;-1005.000; -874.000
366.535;  -47.200; -139.000;  -12.000
366.667; -148.950; -644.000; -649.000
366.799;    7.700;  353.000;  203.000
366.930; -179.700; -862.000; -996.000
367.062; -119.725; -639.000; -613.000
367.193; -172.025; -872.000; -842.000
367.325; -108.750; -580.000; -684.000
367.456;  -87.200; -246.000;   31.000
367.588;  -94.925; -371.000; -318.000
367.719;  -88.700;  -44.000;  -45.000
367.851;  -75.300; -222.000; -241.000
367.982; -177.250; -875.000; -732.000
368.113;  -87.575; -475.000; -358.000
368.245; -182.325; -960.000; -841.000
368.376;  -74.100; -254.000; -302.000
368.508;  -70.525; -188.000; -263.000
368.639; -187.475;-1166.000;-1034.000
368.770; -135.225; -670.000; -589.000
368.902; -155.725; -836.000; -926.000
369.033; -169.800; -906.000; -855.000
369.164; -108.000; -720.000; -653.000
369.296; -148.925; -452.000; -601.000
369.427;  -72.200; -209.000; -144.000
369.558; -105.425; -593.000; -377.000
369.689; -115.075; -721.000; -569.000
369.821; -178.250; -951.000; -845.000
369.952;  -41.975;   42.000; -108.000
370.083;  -81.775; -229.000; -108.000
370.214; -132.500; -735.000; -650.000
370.345;  -51.525;   65.000;   81.000
370.477; -145.300; -810.000; -790.000
370.608;  -90.000; -328.000; -264.000
370.739; -196.150;-1233.000;-1292.000
370.870; -178.775;-1102.000; -923.000
371.001;  -85.925; -378.000; -467.000
371.132; -149.425; -754.000; -735.000
371.263;  -54.200;  -42.000; -148.000
371.394; -162.200; -841.000; -748.000
371.525;    4.650;  345.000;  225.000
371.657; -166.175; -808.000; -670.000
371.788;  -18.500;  103.000;  199.000
371.919; -100.675; -384.000; -304.000
372.050;  -48.875;  -91.000; -156.000
372.181;  -53.200; -188.000; -294.000
372.311;  -46.450;   42.000; -127.000
372.442; -121.525; -457.000; -451.000
372.573;  -89.800; -444.000; -340.000
372.704; -194.100;-1008.000; -980.000
372.835;  -84.900; -228.000; -289.000
372.966; -137.000; -646.000; -554.000
373.097; -140.050; -575.000; -711.000
373.228; -140.900; -717.000; -542.000
373.359; -147.225; -824.000; -536.000
373.490; -153.300; -881.000; -727.000
373.620; -168.225;-1001.000; -803.000
373.751; -105.325; -332.000; -396.000
373.882; -127.075; -663.000; -733.000
374.013;  -83.375; -449.000; -262.000
374.143; -119.825; -581.000; -659.000
374.274; -198.975; -987.000; -908.000
374.405;  -66.775; -388.000; -276.000
374.536; -124.725; -526.000; -387.000
374.666; -148.150; -759.000; -807.000
374.797; -171.025; -817.000; -868.000
374.928; -125.000; -710.000; -560.000
375.058; -130.450; -535.000; -500.000
375.189;  -56.925;  -59.000;  -93.000
375.320; -185.550; -928.000;-1034.000
375.450; -117.400; -625.000; -616.000
375.581; -124.450; -526.000; -436.000
375.712;  -80.525; -574.000; -250.000
375.842; -111.100; -438.000; -415.000
375.973; -114.300; -554.000; -513.000
376.103; -140.200; -665.000; -648.000
376.234; -125.275; -531.000; -552.000
376.364; -183.150; -944.000; -867.000
376.495;   59.375;  925.000;  529.000
376.625; -128.500; -472.000; -485.000
376.756; -136.075; -709.000; -678.000
376.886; -209.500;-1178.000;-1026.000
377.017; -183.450;-1048.000;-1061.000
377.147; -166.650; -786.000; -782.000
377.278;  -12.850;  174.000;  228.000
377.408; -169.050; -801.000; -815.000
377.538; -142.475; -707.000; -693.000
377.669; -139.550; -537.000; -613.000
377.799; -141.625; -645.000; -635.000
377.929; -137.750; -610.000; -428.000
378.060; -154.950; -781.000; -847.000
378.190; -147.250; -726.000; -531.000
378.320;  -92.750; -401.000; -406.000
378.451;  -39.825; -131.000;  -22.000
378.581;  -52.575;  -67.000; -110.000
378.711;   67.100; 1035.000;  866.000
378.841; -129.700; -533.000; -675.000
378.972; -172.475; -871.000; -751.000
379.102; -120.325; -652.000; -579.000
379.232;  -91.600; -126.000;  -73.000
379.362; -166.775;-1001.000; -885.000
379.492; -125.325; -373.000; -424.000
379.623;  -10.025;    0.000;  111.000
379.753; -173.425;-1107.000; -974.000
379.883;  -24.950;   59.000;  156.000
380.013; -202.225;-1081.000;-1017.000
380.143; -184.300;-1097.000;-1056.000
380.273; -176.050; -985.000; -861.000
380.403;  -86.575; -344.000; -257.000
380.533; -155.650; -651.000; -664.000
380.663;  -13.025;  173.000;  128.000
380.793; -203.225;-1027.000;-1074.000
380.923;  -64.800; -103.000;  -34.000
381.053; -131.925; -613.000; -623.000
381.183;  -57.400; -106.000; -248.000
381.313; -136.475; -656.000; -470.000
381.443; -121.125; -692.000; -473.000
381.573; -119.350; -402.000; -409.000
381.703; -220.625;-1249.000;-1095.000
381.833; -248.750;-1454.000;-1336.000
381.963;  -40.325; -134.000;  -87.000
382.093; -185.550; -925.000; -909.000
382.223; -148.400; -713.000; -602.000
382.353; -154.150; -801.000; -608.000
382.482; -181.125;-1091.000; -964.000
382.612; -156.700; -872.000; -644.000
382.742; -144.525; -695.000; -622.000
382.872; -117.950; -565.000; -551.000
383.002;  -24.475;  347.000; -132.000
383.131;  -91.950; -226.000; -160.000
383.261; -142.600; -706.000; -768.000
383.391; -133.700; -552.000; -377.000
383.521;    8.225;  451.000;  263.000
383.650; -183.700; -947.000; -904.000
383.780; -134.100; -783.000; -656.000
383.910;   42.600;  880.000;  802.000
384.039; -151.125; -794.000; -656.000
384.169; -211.825;-1205.000;-1017.000
384.299; -140.350; -650.000; -662.000
384.428; -164.250; -764.000; -680.000
384.558;  -87.650; -308.000; -275.000
384.687; -114.225; -414.000; -334.000
384.817;  -48.675;   75.000;   -2.000
384.947;  -79.075; -234.000; -141.000
385.076;   94.400;  982.000;  912.000
385.206;   -1.175;  369.000;  480.000
385.335;  -97.675; -549.000; -417.000
385.465; -155.800; -655.000; -663.000
385.594;  -57.325;  -53.000;  -44.000
385.724; -179.875; -868.000; -838.000
385.853;  -81.575; -296.000; -270.000
385.982; -163.775; -743.000; -787.000
386.112; -176.600;-1052.000; -871.000
386.241; -104.225; -307.000; -312.000
386.371;  -57.925; -174.000;  -87.000
386.500; -167.250; -825.000; -789.000
386.629; -153.650; -874.000; -817.000
386.759;  -49.875;  -43.000;   68.000
386.888;  -56.975; -170.000; -250.000
387.017; -144.925; -648.000; -620.000
387.147; -146.350; -771.000; -798.000
387.276; -126.025; -410.000; -397.000
387.405;  -88.275; -398.000; -342.000
387.535; -128.875; -452.000; -361.000
387.664; -130.525; -692.000; -620.000
387.793;  -88.075; -198.000; -113.000
387.922;   -6.575;  255.000;  200.000
388.052; -129.900; -576.000; -423.000
388.181; -104.400; -342.000; -472.000
388.310; -171.700; -889.000; -710.000
388.439; -166.100; -749.000; -742.000
388.568;  -41.450;  365.000;  244.000
388.697; -133.825; -756.000; -653.000
388.826; -145.250; -768.000; -666.000
388.956;  -84.325; -285.000; -307.000
389.085; -108.900; -347.000; -287.000
389.214; -149.700; -842.000; -872.000
389.343; -129.550; -645.000; -413.000
389.472;   -6.325;  126.000;  149.000
389.601;  -50.250;   91.000;    0.000
389.730; -110.525; -568.000; -687.000
389.859;  -33.025;  226.000;   46.000
389.988;  -94.475; -423.000; -408.000
390.117;  -85.950; -168.000; -146.000
390.246;  -84.450; -331.000; -320.000
390.375; -144.525; -673.000; -626.000
390.504; -134.200; -703.000; -621.000
390.633; -167.000; -672.000; -726.000
390.761; -147.050; -732.000; -645.000
390.890;  -59.725;   -4.000; -130.000
391.019; -107.525; -421.000; -441.000
391.148; -168.075; -826.000; -855.000
391.277; -117.100; -576.000; -493.000
391.406; -170.400; -821.000; -805.000
391.534;  -21.225;  574.000; -301.000
391.663; -138.950; -583.000; -645.000
391.792; -137.375; -673.000; -701.000
391.921;  -50.175;   -3.000;   15.000
392.050;  -80.250; -287.000; -228.000
392.178; -215.575;-1206.000;-1061.000
392.307; -160.525; -758.000; -712.000
392.436; -154.250; -427.000; -641.000
392.564;  -44.625;  166.000;   -6.000
392.693; -166.150; -860.000; -682.000
392.822; -125.525; -529.000; -534.000
392.950; -171.725; -880.000; -714.000
393.079;  -85.975; -188.000; -328.000
393.208; -128.600; -488.000; -511.000
393.336;  -68.500; -170.000; -145.000
393.465;  -92.400; -317.000; -199.000
393.593;  -28.425;   62.000;   79.000
393.722; -196.375;-1121.000; -916.000
393.850;  -54.275; -188.000;  -61.000
393.979; -196.925; -926.000; -805.000
394.107; -112.725; -517.000; -537.000
394.236; -135.975; -570.000; -507.000
394.364;   -8.250;  383.000;  206.000
394.493; -169.100; -911.000; -767.000
394.621; -167.675; -955.000; -916.000
394.750; -182.750; -873.000; -923.000
394.878;  -77.600; -247.000; -149.000
395.007; -162.150; -721.000; -807.000
395.135; -142.250; -790.000; -721.000
395.263; -183.450;-1038.000;-1040.000
395.392;  -40.250;  -25.000; -107.000
395.520; -184.675; -818.000; -679.000
395.648; -156.675; -865.000; -915.000
395.777; -135.350; -366.000; -405.000
395.905; -114.225; -449.000; -564.000
396.033;  -51.225;  217.000;  172.000
396.162;  -95.725; -399.000; -453.000
396.290;  -87.525;  -17.000;   -2.000
396.418; -114.575; -555.000; -514.000
396.546; -160.125; -571.000; -466.000
396.674; -174.775; -850.000; -878.000
396.803;  -50.400;  -72.000;  -23.000
396.931;  -64.550; -179.000; -199.000
397.059; -204.150;-1026.000; -989.000
397.187; -164.025;-1026.000; -975.000
397.315; -174.825; -884.000; -649.000
397.443; -122.950; -592.000; -443.000
397.572; -132.200; -578.000; -424.000
397.700; -133.700; -607.000; -614.000
397.828;  -90.025;  120.000;  -90.000
397.956; -107.850; -508.000; -478.000
398.084; -159.250; -767.000; -626.000
398.212;  -27.200;  137.000;  124.000
398.340;  -48.625;  -56.000;  159.000
398.468;  -87.425; -390.000; -169.000
398.596; -196.050; -993.000; -953.000
398.724; -142.450; -762.000; -767.000
398.852; -204.750;-1024.000; -976.000
398.980; -121.625; -560.000; -560.000
399.108; -165.450; -982.000; -735.000
399.236;  -58.450;   13.000;    8.000
399.363;  -45.450;  222.000;  196.000
399.491; -111.950; -404.000; -398.000
399.619; -176.925; -829.000; -800.000
399.747; -156.575; -859.000; -771.000
399.875;  -30.675;  220.000;  234.000
400.003;  -91.475; -359.000; -284.000
400.130; -119.025; -421.000; -341.000
400.258;  -48.500;  -83.000;   38.000
400.386; -101.475; -352.000; -168.000
400.514; -111.575; -526.000; -587.000
400.641; -193.625; -928.000; -802.000
400.769; -189.300; -979.000; -888.000
400.897; -164.750; -838.000; -793.000
401.025;  -61.075; -166.000; -152.000
401.152;  -37.675;  220.000;   38.000
401.280;  -97.275; -430.000; -429.000
401.408; -156.350; -712.000; -576.000
401.535; -138.625; -735.000; -758.000
401.663; -225.075;-1134.000;-1054.000
401.790; -110.825; -514.000; -525.000
401.918;   14.350;  436.000;  405.000
402.046;  -33.950;  134.000;  122.000
402.173;  -68.425;  -18.000;    7.000
402.301; -108.500; -519.000; -397.000
402.428;   14.675;  528.000;  383.000
402.556; -183.925;-1188.000; -913.000
402.683;  -84.025;  -20.000;   -1.000
402.811;  -49.750;  -37.000; -206.000
402.938;  -50.150;   20.000;   27.000
403.066; -120.875; -574.000; -558.000
403.193;  -69.350;  299.000;  239.000
403.321; -113.950; -396.000; -574.000
403.448;  -53.675;   83.000;   27.000
403.575;  -42.525;  -90.000;  -46.000
403.703; -156.875; -732.000; -557.000
403.830; -111.250; -531.000; -496.000
403.957; -212.925;-1117.000;-1023.000
404.085;  -63.675;  -61.000; -172.000
404.212;  -55.125;  -50.000;   63.000
404.339;  -98.400; -566.000; -306.000
404.467; -128.900; -612.000; -524.000
404.594;  -83.075; -287.000; -227.000
404.721; -166.275; -869.000; -764.000
404.848;  -62.875; -113.000; -202.000
404.976; -176.950; -856.000; -783.000
405.103;  -53.000;  -14.000;  -82.000
405.230;  -62.675;  190.000;  226.000
405.357;  -49.600;  117.000;   44.000
405.484;  -78.425;  -49.000;    5.000
405.612; -116.475; -548.000; -563.000
405.739; -121.225; -488.000; -243.000
405.866;   30.000;  669.000;  385.000
405.993; -103.550; -398.000; -102.000
406.120; -171.100; -801.000; -887.000
406.247; -114.800; -323.000; -342.000
406.374;   27.175;  540.000;  629.000
406.501; -155.975; -632.000; -702.000
406.628; -113.675; -621.000; -589.000
406.755; -159.000; -803.000; -620.000
406.882;  -88.050; -228.000; -277.000
407.009; -151.175; -719.000; -628.000
407.136;  -86.725; -480.000; -401.000
407.263; -195.775; -939.000; -829.000
407.390; -143.400; -692.000; -614.000
407.517; -222.625;-1139.000;-1187.000
407.644;  -99.725; -332.000; -256.000
407.771; -125.025; -249.000; -287.000
407.898;  -22.425;  168.000;  328.000
408.025; -117.700; -421.000; -313.000
408.151;  -45.900;   82.000;  153.000
408.278; -108.875; -267.000; -216.000
408.405; -170.000; -931.000; -899.000
408.532; -142.725; -549.000; -542.000
408.659; -150.025; -677.000; -648.000
408.785; -236.075;-1298.000;-1170.000
408.912;  -70.975; -412.000; -296.000
409.039; -131.400; -610.000; -686.000
409.166; -126.775; -591.000; -555.000
409.292; -144.575; -571.000; -534.000
409.419; -141.125; -665.000; -649.000
409.546; -105.825; -431.000; -192.000
409.672; -142.575; -713.000; -545.000
409.799;  -67.200;  -36.000;   34.000
409.926;  -80.025; -180.000; -179.000
410.052; -229.275;-1127.000;-1091.000
410.179; -104.325; -368.000; -392.000
410.305; -112.500; -375.000; -493.000
410.432;  -86.650; -220.000; -333.000
410.558; -125.825; -305.000; -380.000
410.685; -125.200; -688.000; -431.000
410.812; -145.025; -409.000; -588.000
410.938; -159.925; -964.000; -808.000
411.065; -138.350; -671.000; -645.000
411.191;  -75.300; -189.000; -174.000
411.317; -174.325; -823.000; -742.000
411.444;  -82.450; -317.000; -246.000
411.570;  -97.075; -339.000; -294.000
411.697; -145.000; -758.000; -752.000
411.823; -213.775; -989.000; -999.000
411.949;  -72.850;  -56.000;   17.000
412.076; -147.100; -539.000; -519.000
412.202; -154.225; -758.000; -757.000
412.329; -177.350; -798.000; -752.000
412.455; -142.300; -821.000; -657.000
412.581;  -54.625;  -15.000;  172.000
412.707; -125.650; -540.000; -457.000
412.834;  -28.900;  156.000;  219.000
412.960; -152.975; -785.000; -784.000
413.086; -168.025; -743.000; -701.000
413.212;   35.975;  604.000;  578.000
413.339; -161.300; -685.000; -701.000
413.465; -115.200; -364.000; -310.000
413.591; -178.425; -757.000; -474.000
413.717;  -88.500; -358.000; -366.000
413.843; -195.000; -839.000; -861.000
413.969; -103.975;  -47.000; -292.000
414.096; -161.400; -679.000; -679.000
414.222;  -39.600;  -33.000;   85.000
414.348; -140.825; -652.000; -385.000
414.474;  -63.325;   38.000;  -52.000
414.600;  -76.925; -126.000; -144.000
414.726;  -47.625;  -96.000;  -55.000
414.852; -122.600; -365.000; -342.000
414.978;  -41.800;  104.000;  -18.000
415.104;  -62.450;   38.000;   80.000
415.230;  -92.200; -329.000; -330.000
415.356; -132.700; -409.000; -514.000
415.482;  -71.400;   13.000;  -35.000
415.608; -101.950; -247.000; -323.000
415.734;  -29.400;   67.000;   38.000
415.860; -168.975; -875.000; -767.000
415.986; -150.625; -685.000; -607.000
416.111; -161.575; -798.000; -652.000
416.237; -123.275; -424.000; -571.000
416.363; -167.700; -765.000; -733.000
416.489;  -93.300; -324.000; -251.000
416.615; -179.500; -707.000; -742.000
416.741; -150.150; -677.000; -784.000
416.866; -168.700; -673.000; -736.000
416.992; -170.650; -801.000; -818.000
417.118;  -98.400;  -41.000;  -80.000
417.244; -159.175; -798.000; -531.000
417.369; -163.925; -801.000; -612.000
417.495; -101.200; -325.000; -254.000
417.621; -201.825;-1015.000; -803.000
417.746; -118.675; -579.000; -572.000
417.872;  -80.375; -254.000; -144.000
417.998; -115.700; -515.000; -530.000
418.123; -193.250;-1073.000; -845.000
418.249; -127.100; -512.000; -601.000
418.374; -189.750; -916.000; -824.000
418.500; -107.450; -383.000; -482.000
418.626;  -52.575;   70.000;  -59.000
418.751; -119.825; -549.000; -448.000
418.877; -168.525; -637.000; -643.000
419.002; -140.700; -688.000; -560.000
419.128; -187.775; -930.000; -721.000
419.253; -185.875; -967.000; -837.000
419.379; -134.825; -391.000; -338.000
419.504;  -11.850;  325.000;  415.000
419.629;  -98.800; -393.000; -212.000
419.755;  -86.550; -317.000; -254.000
419.880;  -89.600;  -98.000;   67.000
420.006;  -85.625; -280.000; -221.000
420.131; -161.825; -662.000; -775.000
420.256; -104.850; -315.000; -316.000
420.382; -156.200; -665.000; -687.000
420.507; -154.050; -649.000; -778.000
420.632; -114.725; -337.000; -339.000
420.758;  -83.025; -251.000; -425.000
420.883; -172.225; -876.000; -672.000
421.008; -153.075; -775.000; -619.000
421.133; -140.350; -509.000; -467.000
421.259;  -88.950; -325.000; -259.000
421.384; -179.575; -834.000; -693.000
421.509; -165.375;-1052.000; -862.000
421.634; -198.875; -936.000; -820.000
421.759; -114.175; -359.000; -327.000
421.885; -148.800; -717.000; -656.000
422.010; -125.050; -673.000; -542.000
422.135; -189.625; -695.000; -727.000
422.260;  -11.275;  340.000;  280.000
422.385;  -75.975;   12.000;  -98.000
422.510;  -28.775;  151.000;  -26.000
422.635;  -83.800;  -87.000;  -43.000
422.760; -151.975; -766.000; -791.000
422.885;  -62.475;  -57.000;  -80.000
423.010;  -74.350; -112.000; -169.000
423.135; -128.975; -481.000; -561.000
423.260;  -75.975; -150.000; -245.000
423.385;  -31.575;  476.000;  222.000
423.510;  -34.625;   71.000;  -22.000
423.635;  -58.975;  133.000;   45.000
423.760;   -4.850;  383.000;  328.000
423.885;  -40.275;  336.000;  391.000
424.010;  -58.825;  -68.000;  -13.000
424.135;  -76.350;    5.000;  -33.000
424.259; -131.875; -654.000; -457.000
424.384; -114.425; -279.000; -272.000
424.509;  -89.500; -260.000; -186.000
424.634; -174.325; -761.000; -623.000
424.759; -132.225; -688.000; -544.000
424.883; -145.350; -506.000; -527.000
425.008; -131.825; -502.000; -410.000
425.133; -170.975; -679.000; -653.000
425.258; -126.100; -517.000; -381.000
425.382; -154.225; -867.000; -774.000
425.507; -122.000; -487.000; -543.000
425.632; -171.350; -802.000; -663.000
425.756;  -87.800; -256.000; -146.000
425.881; -181.900; -831.000; -857.000
426.006; -118.800; -604.000; -355.000
426.130; -167.625; -696.000; -508.000
426.255; -129.600; -611.000; -491.000
426.379;  -93.800; -189.000; -577.000
426.504;   24.925;  660.000;  544.000
426.629; -151.550; -519.000; -466.000
426.753;  -63.050;   64.000;  -46.000
426.878;  -95.650; -252.000; -288.000
427.002; -176.050; -651.000; -668.000
427.127; -102.550;  -35.000; -158.000
427.251;   -2.300;  372.000;  401.000
427.375;  -99.550; -191.000; -173.000
427.500; -137.500; -616.000; -610.000
427.624; -116.250; -234.000; -400.000
427.749;  -97.400; -216.000; -225.000
427.873; -141.550; -499.000; -412.000
427.997;  -91.800; -222.000; -230.000
428.122;   21.900;  795.000;  703.000
428.246;   11.275;  433.000;  434.000
428.371; -194.450; -869.000; -773.000
428.495; -151.725; -624.000; -646.000
428.619;  -84.700; -186.000; -117.000
428.743;  -31.750;   65.000;  132.000
428.868; -172.225; -732.000; -643.000
428.992;  -93.300; -219.000; -326.000
429.116; -115.200; -329.000; -357.000
429.240;  -33.300;  419.000;  426.000
429.365; -125.550; -454.000; -574.000
429.489; -156.800; -638.000; -647.000
429.613;  -97.625; -236.000; -177.000
429.737; -117.100; -563.000; -432.000
429.861; -110.650; -247.000; -133.000
429.985; -116.300; -425.000; -305.000
430.109; -206.050; -770.000; -908.000
430.234;  -45.800;   76.000;  -50.000
430.358; -115.250; -250.000; -160.000
430.482; -153.500; -672.000; -564.000
430.606; -155.050; -655.000; -375.000
430.730; -123.200; -437.000; -388.000
430.854; -190.300; -909.000; -835.000
430.978; -158.725; -795.000; -764.000
431.102; -153.100; -499.000; -422.000
431.226; -175.225; -874.000; -815.000
431.350;  -23.725;  345.000;  422.000
431.474; -133.300; -661.000; -373.000
431.597; -207.650;-1060.000; -848.000
431.721; -103.650; -276.000; -267.000
431.845; -165.150; -704.000; -472.000
431.969; -103.875; -304.000; -349.000
432.093; -137.300; -395.000; -317.000
432.217;  -43.400;   32.000;   82.000
432.341; -139.525; -523.000; -518.000
432.464;  -69.500;   96.000;   40.000
432.588; -142.350; -401.000; -329.000
432.712;  -72.125;  -52.000;  -52.000
432.836;  -50.900;  213.000;  263.000
432.959; -106.600; -372.000; -311.000
433.083;  -80.900;   11.000;    2.000
433.207;   10.300;  285.000;  930.000
433.330; -116.500; -391.000; -200.000
433.454; -151.250; -654.000; -638.000
433.578;   -0.750;  583.000;  278.000
433.701; -151.325; -623.000; -675.000
433.825; -121.550; -292.000; -299.000
433.949;  -76.775;   28.000;  -72.000
434.072; -119.450; -410.000; -323.000
434.196;  -83.150; -309.000; -117.000
434.319; 3726.325;25482.000;25124.000
434.443; -146.175; -656.000; -603.000
434.566;  -47.900;  281.000;   62.000
434.690; -129.825; -637.000; -383.000
434.813; -112.250; -251.000; -173.000
434.937; -141.400; -569.000; -696.000
435.060; -122.700; -423.000; -332.000
435.184; -114.150; -492.000; -217.000
435.307;  -64.750;  159.000;  102.000
435.431;  -66.150;  -40.000;   24.000
435.554; -108.750; -399.000; -240.000
435.677; -113.100; -350.000; -258.000
435.801;  -73.575;  -25.000;   49.000
435.924;  -54.550;    1.000;  -67.000
436.048; -195.600;-1019.000; -732.000
436.171;  -99.800; -240.000;  -66.000
436.294; -117.300; -248.000; -229.000
436.417; -201.575; -963.000; -849.000
436.541; -176.900; -814.000; -840.000
436.664;  -84.175; -242.000; -316.000
436.787;  -75.925;   13.000;  113.000
436.910; -150.150; -792.000; -422.000
437.034;  -51.750;  142.000;  143.000
437.157;  -44.275;  -11.000;    0.000
437.280; -126.600; -392.000; -292.000
437.403; -193.050; -982.000; -869.000
437.526; -187.075; -903.000; -865.000
437.649; -109.800; -505.000; -332.000
437.772; -174.425; -692.000; -540.000
437.896;   27.400;  700.000;  544.000
438.019; -169.600; -758.000; -503.000
438.142; -137.800; -596.000; -506.000
438.265; -170.250; -639.000; -670.000
438.388; -117.300; -520.000; -410.000
438.511; -157.875; -597.000; -394.000
438.634; -119.000; -247.000; -125.000
438.757; -179.000; -693.000; -619.000
438.880;  -75.775;  -34.000;  -57.000
439.003; -147.500; -417.000; -437.000
439.126;  -94.425; -287.000; -167.000
439.248;  -89.400;  -98.000; -139.000
439.371;  -65.225;    9.000;  -53.000
439.494;   -5.900;  510.000;  439.000
439.617;  -67.400;   65.000;  -88.000
439.740; -198.325; -968.000; -816.000
439.863; -160.400; -755.000; -595.000
439.986; -150.150; -476.000; -431.000
440.108;  -88.400; -161.000; -112.000
440.231; -214.850; -950.000; -836.000
440.354;  -76.350;  -64.000; -150.000
440.477; -174.425; -566.000; -542.000
440.599; -131.075; -200.000; -225.000
440.722; -154.700; -709.000; -586.000
440.845;   62.125;  751.000;  928.000
440.968; -135.700; -415.000; -311.000
441.090;  -78.650; -199.000;  -33.000
441.213; -187.475;-1021.000; -825.000
441.336;  -69.750; -159.000;   -5.000
441.458; -132.250; -549.000; -396.000
441.581; -159.800; -628.000; -629.000
441.703; -108.600; -152.000;   13.000
441.826; -127.175; -557.000; -400.000
441.948;  -66.325;   56.000;   51.000
442.071;    7.325;  555.000;  424.000
442.193; -166.825; -531.000; -485.000
442.316;  -50.350;  152.000;   97.000
442.438; -109.250; -233.000;  -10.000
442.561;  -39.350;  272.000;  262.000
442.683; -164.350; -809.000; -522.000
442.806;  -65.675;   -8.000;   74.000
442.928; -206.550; -859.000; -604.000
443.051; -143.850; -577.000; -373.000
443.173; -133.225; -341.000; -339.000
443.295; -126.975; -263.000; -371.000
443.418; -111.350; -321.000;  -29.000
443.540;  -73.050; -106.000;   -4.000
443.662; -165.625; -563.000; -465.000
443.785;  -40.450;  335.000;  199.000
443.907; -143.150; -362.000; -208.000
444.029; -154.900; -767.000; -494.000
444.152; -168.800; -644.000; -554.000
444.274;  -69.975;  -18.000;  -24.000
444.396; -150.450; -461.000; -221.000
444.518; -141.325; -691.000; -454.000
444.640; -146.525; -268.000; -111.000
444.763;  -33.525;  388.000;  249.000
444.885; -160.750; -432.000; -392.000
445.007;  -56.175;   35.000;   86.000
445.129; -154.875; -610.000; -515.000
445.251; -135.975; -372.000; -439.000
445.373; -177.750; -537.000; -386.000
445.495;  -21.475;  242.000;  350.000
445.617;    1.400;  853.000;  753.000
445.739; -103.900; -215.000;  -97.000
445.861;  -99.250; -245.000; -112.000
445.984; -101.925; -267.000; -101.000
446.105; -144.600; -418.000; -251.000
446.227;  -80.925; -176.000;  -19.000
446.349; -139.500; -358.000; -249.000
446.471; -150.700; -615.000; -448.000
446.593; -111.450; -316.000;   19.000
446.715;  -81.425;  -67.000;   41.000
446.837;   24.200;  697.000;  832.000
446.959; -129.575; -457.000; -478.000
447.081; -174.400; -628.000; -518.000
447.203;   33.875;  862.000;  834.000
447.325; -102.700; -270.000;   42.000
447.446;  -26.325;  286.000;  530.000
447.568; -204.925; -921.000; -803.000
447.690; -125.300; -236.000; -245.000
447.812; -183.250; -798.000; -519.000
447.933;  -63.125;  155.000;  127.000
448.055; -134.075; -306.000; -261.000
448.177;  -58.800;   31.000;   79.000
448.299; -228.875; -935.000; -727.000
448.420;  -39.700;  -25.000;  159.000
448.542;  -88.775;   -3.000;   33.000
448.664;  -40.675;  109.000;  322.000
448.785;  -73.250;  265.000;   83.000
448.907; -135.975; -614.000; -353.000
449.028; -165.825; -771.000; -471.000
449.150;   20.100;  492.000;  589.000
449.272; -228.025;-1044.000; -913.000
449.393;    5.775;  612.000;  694.000
449.515; -196.850; -634.000; -581.000
449.636; -107.625; -264.000; -155.000
449.758;    8.725;  763.000;  622.000
449.879; -126.425; -498.000; -396.000
450.001; -113.775; -149.000;  -49.000
450.122;  -73.375;  -95.000;  162.000
450.244;  -67.300;   37.000;  364.000
450.365; -132.700; -495.000; -301.000
450.486;  -84.425;   80.000;  268.000
450.608;  -41.500;  393.000;  326.000
450.729;  -20.275;  578.000;  645.000
450.850; -152.500; -574.000; -466.000
450.972; -169.100; -552.000; -389.000
451.093;  -37.475;  190.000;  588.000
451.214; -150.575; -516.000; -337.000
451.336;   27.600;  773.000;  579.000
451.457;  -47.050;  264.000;  393.000
451.578;  -84.150; -118.000;  -74.000
451.699; -170.100; -546.000; -540.000
451.821; -102.650; -284.000;  -50.000
451.942;  -50.000;  278.000;  285.000
452.063;  -29.050;  228.000;  419.000
452.184; -111.200;  -54.000;  -49.000
452.305;  -53.150;  103.000;  170.000
452.427; -156.600; -549.000; -301.000
452.548;  -91.875;   23.000;   79.000
452.669; -102.750; -257.000;  -89.000
452.790;  -85.850;    3.000;  -18.000
452.911;  -62.475;  195.000;  259.000
453.032;  -92.575; -289.000;  -60.000
453.153;  -82.800;  -29.000;   81.000
453.274;   38.800;  737.000;  868.000
453.395;  -86.375;  -51.000;  175.000
453.516;   85.975; 1317.000; 1388.000
453.637; -121.550; -205.000; -150.000
453.758;  -78.550;   15.000;   69.000
453.879; -140.625; -462.000; -250.000
454.000;   61.450; 1086.000;  948.000
454.121; -171.125; -554.000; -326.000
454.242; -152.625; -599.000; -383.000
454.362;  -90.350;  -99.000;  114.000
454.483; -118.900; -309.000; -229.000
454.604;  -38.400;  512.000;  580.000
454.725; -162.650; -627.000; -555.000
454.846; -161.200; -474.000; -406.000
454.967;  -42.950;  230.000;  539.000
455.087;  -71.800;  179.000;  153.000
455.208;    1.075;  554.000;  856.000
455.329;  -94.550;  -22.000;   82.000
455.450;   -1.150;  473.000;  633.000
455.570; -122.050; -234.000; -211.000
455.691;  -47.225;  201.000;  407.000
455.812; -132.300; -270.000;  -92.000
455.932;  -62.325;  107.000;  -97.000
456.053; -109.950;   36.000;   24.000
456.173; -130.375; -433.000; -355.000
456.294; -161.050; -476.000; -303.000
456.415;  -87.725;  -73.000;   70.000
456.535;  -68.250;  297.000;  273.000
456.656;  -68.500;  132.000;  240.000
456.776; -107.875;    3.000;  298.000
456.897;  -17.250;  308.000;  513.000
457.017; -113.750; -153.000;   -3.000
457.138; -138.575; -402.000; -249.000
457.258;  -59.075;  263.000;  224.000
457.379;  -29.550;  509.000;  521.000
457.499;  -51.750;  443.000;  432.000
457.620; -140.200; -407.000; -231.000
457.740; -108.100; -132.000;  -11.000
457.860;  -80.975;   87.000;   44.000
457.981;  -93.050;  132.000;  124.000
458.101; -111.350;  -89.000;   40.000
458.221;  -44.775;  336.000;  402.000
458.342;  -69.775;   -4.000;  -37.000
458.462;  -43.300;  617.000;  352.000
458.582; -114.425; -302.000; -294.000
458.703;  -99.875;  303.000;  154.000
458.823;  -76.075;   22.000;  163.000
458.943;  -45.725;  341.000;  467.000
459.063;  -76.025; 1124.000;  192.000
459.183;  -61.075;  328.000;  313.000
459.304;  -11.150;  315.000;  517.000
459.424; -115.250; -246.000;  -89.000
459.544;   -9.900;  388.000;  764.000
459.664;  -39.800;  499.000;  506.000
459.784;   49.750; 1004.000; 1175.000
459.904;   -2.775;  867.000;  744.000
460.024;   26.750;  867.000;  684.000
460.144;  -32.925;  449.000;  554.000
460.264;  -13.325;  515.000;  327.000
460.385; -115.600; -145.000; -119.000
460.505;   19.575;  905.000;  858.000
460.625; -123.250;  -17.000;  -68.000
460.745;  -29.350;  396.000;  541.000
460.864;  -68.350;  153.000;  469.000
460.984;  -34.125;  499.000;  573.000
461.104;  100.700; 1656.000; 1775.000
461.224;   -1.600;  657.000;  650.000
461.344;  -64.150;  431.000;  360.000
461.464;  -62.425;  258.000;  513.000
461.584;  -58.050;  283.000;  466.000
461.704;  -91.800;   58.000;  108.000
461.824;  -95.750;  238.000;  259.000
461.943;  -61.225;  191.000;  130.000
462.063; -107.325;    2.000;  324.000
462.183;    9.625;  639.000;  717.000
462.303;   79.750; 1678.000; 1230.000
462.422;   17.650;  781.000;  840.000
462.542;  -90.925;  271.000;  391.000
462.662;  -36.450;  353.000;  380.000
462.782;  -30.775;  833.000;  572.000
462.901;  -17.450;  545.000;  717.000
463.021;  124.550; 1702.000; 1638.000
463.141;  -43.750;  337.000;  770.000
463.260;  -47.475;  614.000;  474.000
463.380;   -5.650;  902.000;  884.000
463.499;  -66.475;  342.000;  332.000
463.619;  -48.725;  581.000;  559.000
463.738;   81.050; 1644.000;  903.000
463.858;   -6.550;  657.000;  811.000
463.978;  -61.525;  542.000;  396.000
464.097;   24.675;  921.000; 1114.000
464.217;   33.900; 1196.000; 1143.000
464.336;   52.650; 1068.000; 1130.000
464.455;  -62.975;  328.000;  659.000
464.575;   -7.675;  597.000;  602.000
464.694;   33.925; 1204.000; 1179.000
464.814;   32.625; 1190.000; 1138.000
464.933;   22.675; 1095.000; 1027.000
465.052;   57.075; 1412.000; 1054.000
465.172;   -6.450;  922.000;  799.000
465.291;   84.250; 1376.000; 1320.000
465.410;  -19.725;  462.000;  735.000
465.530;   61.625; 1355.000; 1310.000
465.649;   29.900; 1209.000; 1273.000
465.768;  105.125; 1673.000; 1508.000
465.888;   13.225;  941.000; 1174.000
466.007;   67.150; 1335.000; 1440.000
466.126;  -25.125;  721.000;  641.000
466.245;   25.700; 1176.000; 1187.000
466.364;    0.200;  950.000; 1060.000
466.484;   41.675; 1024.000; 1213.000
466.603;   20.300; 1101.000; 1222.000
466.722;  105.925; 1490.000; 1769.000
466.841;   42.800; 1151.000; 1401.000
466.960;   31.575; 1069.000;  972.000
467.079;  116.450; 1971.000; 1786.000
467.198;   26.875; 1238.000; 1181.000
467.317;   63.725; 1768.000; 1162.000
467.436;   56.950; 1709.000; 1261.000
467.555;  111.100; 1796.000; 1746.000
467.674;   60.250; 1227.000; 1329.000
467.793;   12.725; 1376.000; 1374.000
467.912;   66.125; 1658.000; 1539.000
468.031;  117.650; 2038.000; 1930.000
468.150;  112.825; 1842.000; 1837.000
468.269;  156.250; 2313.000; 2090.000
468.388;  174.100; 2168.000; 2339.000
468.507;  251.600; 2884.000; 2903.000
468.626;  212.350; 2555.000; 2541.000
468.744;  119.300; 2018.000; 2174.000
468.863;  195.375; 2312.000; 2523.000
468.982;   56.900; 1503.000; 1555.000
469.101;  215.650; 2788.000; 2692.000
469.220;  118.150; 2333.000; 2176.000
469.338;  236.025; 2935.000; 3051.000
469.457;  168.425; 2719.000; 2545.000
469.576;  335.675; 3953.000; 3784.000
469.695;  203.425; 2877.000; 3066.000
469.813;  411.325; 4148.000; 4192.000
469.932;  352.200; 4255.000; 4485.000
470.051;  348.900; 4075.000; 4161.000
470.169;  372.625; 4470.000; 4338.000
470.288;  429.425; 4700.000; 4809.000
470.406;  472.075; 5059.000; 5194.000
470.525;  564.925; 6101.000; 5787.000
470.644;  641.300; 6847.000; 6794.000
470.762;  795.550; 8397.000; 7873.000
470.881;  840.175; 8651.000; 8464.000
470.999;  963.450; 9685.000; 9151.000
471.118; 1073.925;11174.000;10711.000

