
Integration time [ms]: 100.000
Averaging Nr. [scans]: 40
Smoothing Nr. [pixels]: 0
Data measured with spectrometer [name]: 2101012U2
Wave   ;Sample   ;Dark     ;Reference
[nm]   ;[counts] ;[counts] ;[counts] 

197.733;   64.650;  516.000;  404.000
197.879;  -67.375; -610.000; -634.000
198.025;  -48.400; -475.000; -420.000
198.171;  -72.375; -602.000; -612.000
198.317;  -34.575; -401.000; -316.000
198.463;  -64.000; -655.000; -404.000
198.609;   27.400;  181.000; -137.000
198.755;  -66.225; -644.000; -410.000
198.901;  -55.300; -505.000; -424.000
199.047;  -52.250; -615.000; -488.000
199.193;  -36.875; -230.000; -468.000
199.339;  -30.175; -222.000; -369.000
199.485;   27.650;  330.000;  271.000
199.631;   15.175;  227.000;  310.000
199.777;  -27.175; -466.000; -398.000
199.923;  -63.500; -610.000; -424.000
200.069;    3.775; -141.000;  -58.000
200.215;   52.675;  128.000;  453.000
200.361;   38.825;  243.000;  477.000
200.507;  -38.900; -600.000; -373.000
200.653;  -29.475; -371.000; -194.000
200.798;  -26.925; -215.000; -125.000
200.944;   -7.325; -146.000;  -41.000
201.090;   27.175;   61.000;  222.000
201.236;   -2.225; -116.000; -158.000
201.382;  113.200;  874.000;  903.000
201.528;   17.200;  -58.000;  -48.000
201.674;  -64.075; -386.000; -293.000
201.819;  -58.175; -540.000; -439.000
201.965;  -81.825; -699.000; -447.000
202.111;  -18.100; -273.000; -226.000
202.257;  -31.025; -250.000; -238.000
202.402;   13.350;   13.000;  -36.000
202.548;  -33.600; -169.000; -116.000
202.694;   78.700;  410.000; -183.000
202.840;  -71.225; -603.000; -531.000
202.985;  -70.350; -681.000; -639.000
203.131; -108.025; -832.000; -666.000
203.277;   -9.750; -199.000; -262.000
203.423;  -61.525; -434.000; -520.000
203.568;  -36.025; -462.000; -237.000
203.714;  -51.850; -535.000; -542.000
203.860;  -77.000; -682.000; -641.000
204.005;    4.475;  112.000;  167.000
204.151;   72.475;  561.000;  556.000
204.296;  -47.875; -354.000; -221.000
204.442;  -70.750; -600.000; -547.000
204.588;  -73.600; -592.000; -579.000
204.733;   32.525;  178.000;  168.000
204.879; -124.775;-1018.000; -822.000
205.025;   -0.225;  -99.000;  126.000
205.170;   -7.100;  -17.000;   94.000
205.316;   79.575;  438.000;  661.000
205.461;  -83.825; -698.000; -554.000
205.607;   69.525;  609.000;  665.000
205.752;  -64.725; -626.000; -551.000
205.898;  -52.275; -501.000; -391.000
206.043;  -49.400; -578.000; -506.000
206.189;  -33.250; -243.000; -285.000
206.334;   79.450;  554.000;  606.000
206.480;   80.425;  409.000;  239.000
206.625;  -81.950; -529.000; -552.000
206.771;  -46.350; -451.000; -373.000
206.916;  -21.975; -210.000; -537.000
207.062;  -59.825; -545.000; -591.000
207.207;  -52.975; -546.000; -443.000
207.353;   33.825;  185.000;  460.000
207.498;   -3.600;  196.000;   85.000
207.643;  -45.775; -501.000; -370.000
207.789; -126.850;-1069.000; -910.000
207.934;  -88.800; -665.000; -713.000
208.080;  -24.700; -154.000;   66.000
208.225;   -4.875;  -22.000;  -57.000
208.370;  -75.200; -727.000; -619.000
208.516;  -69.600; -741.000; -487.000
208.661;  -17.575; -127.000;  -69.000
208.806;  -23.975; -165.000; -171.000
208.952; -104.875;-1044.000; -731.000
209.097;   68.550;  378.000;  349.000
209.242;  -44.250; -307.000; -382.000
209.387;   75.775;  392.000;  350.000
209.533;  -47.800; -321.000; -350.000
209.678;   80.975;  472.000;  543.000
209.823;  -57.925; -408.000; -310.000
209.969; -104.500; -860.000; -757.000
210.114; -101.275; -907.000; -719.000
210.259;  -99.675; -939.000; -889.000
210.404;   -0.700; -171.000;  103.000
210.549;   12.050;  108.000;    3.000
210.695;  -22.850;   -3.000;  -95.000
210.840;   34.900;   94.000;   67.000
210.985;  -45.200; -484.000; -303.000
211.130;   53.600;  268.000;  406.000
211.275;   23.850;  207.000;  199.000
211.420;  -40.925; -300.000; -289.000
211.566;  -72.175; -536.000; -489.000
211.711;   23.550;  218.000;  157.000
211.856;  -66.775; -545.000; -519.000
212.001;   14.975;  151.000;   44.000
212.146;    8.000;  153.000;   49.000
212.291;  -19.725; -210.000; -186.000
212.436;  -22.200; -280.000;   -6.000
212.581;  -71.350; -685.000; -653.000
212.726;  -62.275; -487.000; -538.000
212.871;  -39.775; -552.000; -217.000
213.016; -131.575;-1172.000;-1029.000
213.161;   55.050;  406.000;  291.000
213.306;  -56.575; -435.000; -577.000
213.451;  -82.250; -778.000; -689.000
213.596;  -47.925; -455.000; -347.000
213.741;  -57.525; -448.000; -538.000
213.886;  -67.100; -498.000; -517.000
214.031;  -24.650; -294.000; -124.000
214.176;  -42.125; -408.000; -341.000
214.321;  -14.650; -296.000; -157.000
214.466;  -24.225; -163.000;  -43.000
214.611;   -2.875;  -61.000;  -10.000
214.756;  -99.900; -948.000; -858.000
214.901;  -21.700; -388.000; -226.000
215.046; -103.325; -797.000; -825.000
215.191;   23.200;  128.000;   35.000
215.336;  -26.725; -157.000;  -19.000
215.480;  -68.950; -684.000; -505.000
215.625;  -24.900; -175.000;  -19.000
215.770;  -77.000; -757.000; -662.000
215.915;  -13.725;   -5.000;  -97.000
216.060;   -7.475; -113.000;  -21.000
216.205; -100.350; -731.000; -779.000
216.349;  -72.025; -470.000; -533.000
216.494; -125.875; -939.000; -867.000
216.639; -104.825; -823.000; -888.000
216.784;  -77.050; -577.000; -525.000
216.929;   41.150;  392.000;  281.000
217.073;  -22.325; -244.000;  -31.000
217.218;   21.925;   78.000;  -47.000
217.363;  -72.275; -656.000; -618.000
217.507;  -70.650; -623.000; -588.000
217.652; -110.250; -845.000; -874.000
217.797;  -92.500; -708.000; -659.000
217.942; -103.425; -856.000; -720.000
218.086;   74.475;  608.000;  539.000
218.231;  -13.375; -174.000;  -26.000
218.376;  -23.750; -337.000; -229.000
218.520;   -5.950;  -41.000;   96.000
218.665;  -32.975; -338.000; -204.000
218.810;  -42.625; -275.000; -233.000
218.954;    4.125;  201.000;   35.000
219.099; -101.650; -713.000; -963.000
219.243;  -59.275; -589.000; -554.000
219.388;  -27.275; -264.000; -136.000
219.532;   -9.450; -116.000; -116.000
219.677;  -71.825; -564.000; -521.000
219.822;    3.825;   33.000;   89.000
219.966;    5.850;   17.000;  -99.000
220.111;  -42.225; -328.000;  -40.000
220.255;  -89.825; -797.000; -750.000
220.400;  -25.325; -180.000; -146.000
220.544;  -61.850; -516.000; -450.000
220.689;  -51.425; -422.000; -451.000
220.833;  -18.650; -123.000;  -58.000
220.978;  -49.525; -393.000; -563.000
221.122;   17.350;  319.000;  307.000
221.267; -108.675; -906.000; -837.000
221.411;  -56.300; -478.000; -394.000
221.555;   -7.975; -104.000;  -23.000
221.700;  -37.400; -329.000; -222.000
221.844;   42.250;  255.000;  272.000
221.989;  -39.550; -328.000; -311.000
222.133;  -35.025; -289.000; -307.000
222.277;   -7.900;    5.000;   78.000
222.422;    7.400;  227.000;  113.000
222.566;  -35.125; -381.000; -214.000
222.711;  -43.300; -414.000; -479.000
222.855;  -71.125; -643.000; -586.000
222.999;  -82.400; -642.000; -717.000
223.144;  -22.175; -195.000; -194.000
223.288;   64.600;  423.000;  251.000
223.432;   25.075;  184.000;  230.000
223.576;   20.075;  152.000;  -21.000
223.721;   45.450;  364.000;  273.000
223.865;  -50.400; -472.000; -475.000
224.009;  219.800; 1673.000; 1631.000
224.153;  -77.625; -660.000; -671.000
224.298;  -74.700; -531.000; -489.000
224.442;  -19.125;  -74.000;  -33.000
224.586;   -8.800; -169.000; -106.000
224.730;  -85.125; -858.000; -670.000
224.875; -100.150; -739.000; -688.000
225.019;    7.700;  102.000;  188.000
225.163;   48.600;  208.000;  341.000
225.307;   15.625;   97.000;  -91.000
225.451;   54.175;  360.000;  481.000
225.595;   18.350;  264.000;  176.000
225.739;  -17.025; -170.000;  -94.000
225.884;    6.200;   86.000;    5.000
226.028;  -81.950; -760.000; -626.000
226.172;  -40.825; -260.000; -273.000
226.316; -107.900; -941.000; -902.000
226.460;  -57.775; -645.000; -493.000
226.604;  -45.650; -406.000; -400.000
226.748;  -83.050; -836.000; -733.000
226.892;  -20.475; -227.000; -181.000
227.036;  -48.925; -537.000; -447.000
227.180;  -65.400; -551.000; -375.000
227.324;  -63.975; -561.000; -580.000
227.468; -107.875; -819.000; -717.000
227.612;   12.475;  242.000;  -28.000
227.756;  -89.550; -845.000; -698.000
227.900;   50.225;  342.000;  441.000
228.044;  -45.600; -509.000; -290.000
228.188;   60.150;  448.000;  568.000
228.332;  -79.200; -546.000; -472.000
228.476;   -5.475; -223.000; -149.000
228.620;  -31.500; -210.000; -150.000
228.764;   58.500;  431.000;  349.000
228.908;   -8.475; -155.000;   30.000
229.052;  -53.225; -615.000; -528.000
229.195;  -19.875; -172.000;   13.000
229.339;  -30.900; -235.000; -305.000
229.483;   -7.925;    5.000; -162.000
229.627;    9.275; -156.000;  139.000
229.771;  -36.450; -218.000; -294.000
229.915;    7.850;  230.000;   79.000
230.059;  -84.075; -648.000; -663.000
230.202;  -43.525; -370.000; -317.000
230.346;  -28.925; -107.000;  107.000
230.490;  -64.950; -489.000; -521.000
230.634;  -93.725; -736.000; -553.000
230.777;   60.975;  478.000;  509.000
230.921;  -48.550; -450.000; -359.000
231.065;  -35.450; -246.000; -286.000
231.209;   16.850;  261.000;  265.000
231.352;   17.200;   54.000;   40.000
231.496;   22.450;  568.000;  188.000
231.640;  -78.425; -693.000; -621.000
231.783;   50.725;  546.000;  525.000
231.927;  -41.050; -294.000; -365.000
232.071; -116.625; -962.000; -736.000
232.214; -101.725; -980.000; -764.000
232.358;  -92.950; -683.000; -599.000
232.502;    6.375;  -19.000;    7.000
232.645; -129.425;-1090.000; -927.000
232.789;  -20.300; -257.000; -218.000
232.933;  -36.275; -407.000; -224.000
233.076; -116.225;-1038.000; -897.000
233.220; -103.425; -752.000; -777.000
233.363;  -70.075; -669.000; -477.000
233.507;   62.700;  371.000;  129.000
233.650;  -96.275; -764.000; -834.000
233.794;   37.875;  438.000;  461.000
233.938;  -63.850; -530.000; -362.000
234.081;  -16.575;  -93.000;   31.000
234.225;  -65.875; -631.000; -539.000
234.368;  -99.000; -773.000; -723.000
234.512;  -36.050; -385.000; -299.000
234.655;  -82.625; -582.000; -555.000
234.798;  -66.825; -493.000; -466.000
234.942; -106.550; -884.000;-1002.000
235.085;  -65.250; -651.000; -443.000
235.229;  -70.675; -405.000; -410.000
235.372;  -41.650; -247.000; -191.000
235.516;  -64.675; -397.000; -321.000
235.659;   19.500;   92.000;  121.000
235.802;   -8.525;  -38.000;  -22.000
235.946;   24.950;  335.000;  215.000
236.089;   18.725;  126.000;  250.000
236.233;   46.750;  275.000;  298.000
236.376;  -43.400; -235.000; -378.000
236.519;  -54.050; -297.000; -319.000
236.663;  -20.150; -215.000; -117.000
236.806; -131.550;-1029.000; -999.000
236.949;   62.125;  543.000;  431.000
237.092;   56.650;  412.000;  391.000
237.236;  -88.825; -589.000; -502.000
237.379;   62.600;  352.000;  428.000
237.522; -109.525; -879.000; -768.000
237.666;  -24.225; -271.000;   18.000
237.809; -118.675; -851.000; -823.000
237.952;   26.425;  469.000;  271.000
238.095;  -53.125; -447.000; -442.000
238.238;   73.275;  688.000;  700.000
238.382;   -3.875;  166.000;  103.000
238.525;  -62.850; -598.000; -511.000
238.668; -129.000;-1060.000; -985.000
238.811;  -83.125; -638.000; -643.000
238.954;  -49.550; -483.000; -334.000
239.097;   89.325;  617.000;  664.000
239.241;   35.650;  394.000;  326.000
239.384;  -20.625; -254.000; -214.000
239.527;  -56.375; -424.000; -224.000
239.670; -127.625; -994.000;-1091.000
239.813; -113.325; -696.000; -658.000
239.956;   70.000;  579.000;  473.000
240.099; -104.700; -778.000; -725.000
240.242;   54.350;  428.000;  432.000
240.385;   44.700;  466.000;  450.000
240.528;  -65.675; -706.000; -473.000
240.671;   15.900;  189.000;  134.000
240.814;  -46.550; -441.000; -158.000
240.957;  -98.700; -767.000; -578.000
241.100;  -85.350; -779.000; -755.000
241.243; -141.075;-1234.000; -893.000
241.386;  -58.450; -508.000; -379.000
241.529;  -91.175; -735.000; -547.000
241.672;  -54.025; -566.000; -495.000
241.815; -109.050; -832.000; -808.000
241.958;  -25.900; -125.000; -182.000
242.101;  -88.425; -545.000; -390.000
242.244;  -37.275; -270.000; -325.000
242.387;  -40.750; -304.000; -246.000
242.530;   43.825;  470.000;  134.000
242.673;  -30.275; -381.000; -309.000
242.815; -118.525; -925.000; -899.000
242.958;  -77.975; -482.000; -381.000
243.101;   17.175;  132.000;  187.000
243.244;  -99.000; -564.000; -521.000
243.387;  -49.425; -313.000; -316.000
243.530;  -98.775; -657.000; -674.000
243.672;    0.275;   43.000;  -92.000
243.815;  -49.075; -355.000; -283.000
243.958;   15.450;   98.000;  -26.000
244.101;   -0.350;   59.000;  -16.000
244.243;  -14.650;  -47.000;  101.000
244.386; -109.700; -761.000; -630.000
244.529;  -37.150; -132.000; -139.000
244.672; -160.300;-1154.000; -951.000
244.814;  -86.150; -621.000; -794.000
244.957;  -48.125; -380.000; -304.000
245.100;  -74.225; -489.000; -489.000
245.242;  -54.825; -387.000; -374.000
245.385;    3.575;  -59.000;  -39.000
245.528; -121.075; -871.000; -705.000
245.670;   75.950;  612.000;  634.000
245.813;  -74.475; -599.000; -547.000
245.956;  -35.325; -324.000; -275.000
246.098;  -67.825; -508.000; -650.000
246.241;    7.450;  194.000;   48.000
246.383;  -16.200; -119.000;  -73.000
246.526;  -64.600; -454.000; -525.000
246.669; -107.475; -889.000; -780.000
246.811;    6.675;  172.000;   -1.000
246.954;  -72.675; -512.000; -426.000
247.096;  -21.275;  -84.000;   -6.000
247.239;  -68.800; -482.000; -445.000
247.381;  -66.025; -647.000; -488.000
247.524;   82.525;  645.000;  679.000
247.666;  -13.550;   58.000;   11.000
247.809; -107.125; -887.000; -691.000
247.951;  -18.600;  -75.000;  138.000
248.094;   10.350;  432.000;  308.000
248.236; -150.925;-1262.000;-1238.000
248.378;  -17.800; -356.000;  -81.000
248.521;  -27.300; -334.000; -337.000
248.663;  -38.925; -236.000; -267.000
248.806;  -29.775; -300.000; -266.000
248.948; -104.075; -886.000; -763.000
249.090;  -55.350; -428.000; -398.000
249.233;  -55.300; -344.000; -381.000
249.375;  -53.425; -474.000; -451.000
249.518;  -18.650;  -83.000; -133.000
249.660;  -22.775; -103.000;    3.000
249.802; -162.250;-1303.000;-1189.000
249.945;  -80.125; -612.000; -540.000
250.087; -100.650; -834.000; -768.000
250.229;  -44.250; -362.000; -480.000
250.371;  -57.050; -494.000; -439.000
250.514;  -43.800; -310.000; -244.000
250.656;  -60.625;   69.000;  102.000
250.798; -126.400; -849.000; -800.000
250.940;  -69.525; -322.000; -322.000
251.083;  -30.625; -335.000; -111.000
251.225;   57.875;  338.000;  310.000
251.367;  -41.800; -274.000; -373.000
251.509;  -42.725; -265.000; -210.000
251.651;  -89.650; -731.000; -671.000
251.794;   54.925;  538.000;  632.000
251.936; -110.225; -821.000; -747.000
252.078;  -76.200; -540.000; -461.000
252.220;  -75.625; -645.000; -477.000
252.362;   50.800;  344.000;  462.000
252.504;  -81.350; -677.000; -584.000
252.646; -104.725; -875.000; -722.000
252.788;  -13.275;   14.000; -128.000
252.931;  -50.550; -257.000; -253.000
253.073;  -48.925; -376.000; -317.000
253.215;  -21.350;  141.000;  122.000
253.357;  -17.550;   82.000; -153.000
253.499;  -45.250; -374.000; -234.000
253.641;  -90.200; -749.000; -594.000
253.783;  -95.050; -609.000; -527.000
253.925;  -78.400; -586.000; -591.000
254.067; -116.250; -744.000; -667.000
254.209;  -27.500; -391.000; -259.000
254.351; -132.900; -865.000; -883.000
254.493;  -55.675; -441.000; -417.000
254.635; -119.025; -936.000; -818.000
254.777;  -86.675; -752.000; -687.000
254.918;  -54.700; -512.000; -430.000
255.060;  -64.100; -551.000; -395.000
255.202;  -58.975; -473.000; -261.000
255.344;  -67.750; -658.000; -455.000
255.486;  -74.950; -471.000; -406.000
255.628; -104.750; -780.000; -781.000
255.770;  -92.825; -676.000; -536.000
255.912;  -61.025; -559.000; -468.000
256.053;  -89.325; -730.000; -508.000
256.195;  147.400; 1008.000;  903.000
256.337;  -91.050; -861.000; -595.000
256.479;   63.450;  532.000;  416.000
256.621;  -44.250; -394.000; -212.000
256.762;  -92.100; -789.000; -742.000
256.904;   31.375;  485.000;  487.000
257.046;  -39.000; -381.000; -271.000
257.188;  -54.325; -351.000; -264.000
257.329;  -76.900; -525.000; -464.000
257.471; -117.275; -939.000; -807.000
257.613;  -55.425; -584.000; -498.000
257.755; -135.250;-1073.000; -982.000
257.896;   28.325;  286.000;  392.000
258.038;  -63.500; -403.000; -352.000
258.180;  -43.875; -354.000; -279.000
258.321;  -75.675; -581.000; -457.000
258.463;   -9.850;  -71.000;  133.000
258.605;  -88.375; -562.000; -570.000
258.746;  -93.425; -886.000; -772.000
258.888; -151.500;-1026.000;-1020.000
259.029;   22.975;  121.000;   -8.000
259.171;  -87.900; -614.000; -550.000
259.313;   -5.025;  -49.000;  -47.000
259.454;  -62.450; -536.000; -414.000
259.596;  -54.775; -483.000; -390.000
259.737;  -70.725; -590.000; -474.000
259.879;   35.000;  217.000;  311.000
260.020;   84.300;  901.000;  636.000
260.162;  -34.100; -146.000; -253.000
260.303; -105.850; -768.000; -687.000
260.445;  -81.775; -609.000; -613.000
260.586;   22.900;  392.000;  157.000
260.728;  -32.150; -360.000; -248.000
260.869;  -66.975; -350.000; -343.000
261.011;   70.250;  706.000;  537.000
261.152;  -57.100; -479.000; -319.000
261.293;  -71.225; -576.000; -595.000
261.435;  -31.875; -219.000; -184.000
261.576;  -49.950; -455.000; -325.000
261.718;   48.225;  420.000;  470.000
261.859; -120.850; -940.000; -949.000
262.000; -127.125; -951.000;-1016.000
262.142;  -17.050;  -52.000;  -60.000
262.283; -106.900; -808.000; -691.000
262.424;  -80.975; -666.000; -625.000
262.566; -144.900;-1161.000; -983.000
262.707;  -96.575; -840.000; -830.000
262.848; -109.325; -769.000; -726.000
262.990;  -47.650; -362.000; -345.000
263.131;   71.450;  650.000;  681.000
263.272;  -12.025;  -61.000;  -41.000
263.413;  -88.525; -589.000; -561.000
263.555;  -71.475; -669.000; -143.000
263.696;  -84.525; -550.000; -641.000
263.837;  -62.100; -449.000; -551.000
263.978;   -3.825;   -5.000;  -77.000
264.119;  -42.800; -283.000; -264.000
264.261;  -95.975; -847.000; -630.000
264.402;   -5.950;   33.000;   40.000
264.543;  -83.850; -509.000; -524.000
264.684;   -2.050;   61.000;  -50.000
264.825;  -88.175; -816.000; -538.000
264.966;   -8.175;  -84.000;  -67.000
265.107; -110.150; -646.000; -670.000
265.248; -114.575; -825.000; -812.000
265.390;  -20.125;  152.000;   -9.000
265.531;  -20.300; -238.000; -107.000
265.672;  -77.175; -557.000; -630.000
265.813;   63.875;  563.000;  439.000
265.954; -128.225; -959.000; -940.000
266.095;  -19.700; -372.000; -322.000
266.236;  -86.150; -686.000; -548.000
266.377;  -45.550; -243.000; -297.000
266.518;  -65.650; -619.000; -547.000
266.659;   13.225;  170.000;  268.000
266.800;    1.875;   83.000;   85.000
266.941;  -66.975; -487.000; -478.000
267.082;   16.225;  354.000;   99.000
267.223;  -62.475; -344.000; -273.000
267.364; -116.650; -892.000; -686.000
267.504;  -10.075;    3.000;  135.000
267.645;   -1.275;  160.000;   67.000
267.786;  -37.875; -147.000;  -86.000
267.927;  -71.650; -473.000; -379.000
268.068;  -27.825; -186.000;  -61.000
268.209;  -41.525; -175.000; -413.000
268.350;  -62.350; -388.000; -532.000
268.490;  -85.475; -648.000; -521.000
268.631;   30.250;  127.000;  225.000
268.772;  -98.575; -874.000; -647.000
268.913;  -42.900; -328.000; -476.000
269.054;   -8.300; -117.000;   12.000
269.194;  -51.475; -418.000; -402.000
269.335; -151.600;-1137.000;-1074.000
269.476;   -5.925;   33.000;  -35.000
269.617;  -54.775; -347.000; -392.000
269.757;  -87.725; -713.000; -646.000
269.898;  -98.500; -856.000; -613.000
270.039;  -55.775; -415.000; -405.000
270.180; -137.125; -952.000; -816.000
270.320;  -23.050; -190.000; -250.000
270.461;  -45.600; -277.000; -249.000
270.602;  -22.900; -186.000; -156.000
270.742; -130.725; -868.000; -943.000
270.883;  -52.775; -442.000; -390.000
271.023;  -61.150; -358.000; -357.000
271.164;  -66.700; -607.000; -528.000
271.305;  -85.975; -666.000; -654.000
271.445;  -83.700; -722.000; -683.000
271.586;  -70.975; -462.000; -283.000
271.726;  -43.425; -397.000; -322.000
271.867;  -75.400; -594.000; -534.000
272.008;   49.425; -473.000; -285.000
272.148;   62.125;  462.000;  468.000
272.289;   -9.500; -113.000; -181.000
272.429;   -1.775;   19.000;  185.000
272.570;  -88.325; -633.000; -737.000
272.710; -103.375; -825.000; -775.000
272.851;  -41.325;  113.000; -130.000
272.991; -155.500;-1173.000;-1077.000
273.131;  -62.500; -419.000; -459.000
273.272;  -88.675; -683.000; -723.000
273.412;   -8.200; -143.000;  -31.000
273.553;  -77.300; -488.000; -507.000
273.693;  108.325;  913.000;  858.000
273.834; -104.800; -894.000; -692.000
273.974;  -87.975; -664.000; -615.000
274.114;  -90.125; -772.000; -560.000
274.255;   43.025;  414.000;  373.000
274.395;   -6.425; -180.000; -125.000
274.535;   42.700;  199.000;  350.000
274.676;    2.650;  225.000;   94.000
274.816;   -8.100;  110.000;   34.000
274.956; -105.425; -624.000; -690.000
275.097; -104.000;-1014.000; -922.000
275.237; -114.475; -913.000; -803.000
275.377;  -93.700; -778.000; -689.000
275.517; -147.025; -878.000; -937.000
275.658;  -65.300; -590.000; -555.000
275.798;  -86.100; -606.000; -413.000
275.938;    2.650;  215.000;  323.000
276.078;  -87.100; -626.000; -395.000
276.218;   10.725;   99.000;  104.000
276.359; -135.825;-1026.000;-1024.000
276.499;  -69.600; -605.000; -446.000
276.639;  -44.075; -305.000; -151.000
276.779;  -56.100; -475.000; -357.000
276.919;  -97.025; -783.000; -624.000
277.059;  -11.775; -261.000; -212.000
277.199;  -42.325; -357.000; -259.000
277.340;   24.225;  287.000;  175.000
277.480; -113.775; -840.000; -693.000
277.620;   20.875;  192.000;   16.000
277.760; -181.500;-1533.000;-1294.000
277.900;    1.875;  113.000;   33.000
278.040;    0.700;  137.000;  159.000
278.180;   29.350;  270.000;  170.000
278.320;   -7.400;   21.000;   56.000
278.460;  -78.475; -443.000; -469.000
278.600;  -74.250; -708.000; -598.000
278.740;   43.725;  448.000;  224.000
278.880; -108.375; -768.000; -791.000
279.020;  -23.225; -194.000; -144.000
279.160;  -89.125; -672.000; -595.000
279.300; -112.625; -926.000; -873.000
279.440;  -95.700; -709.000; -622.000
279.579;  -78.250;-1014.000; -929.000
279.719;  -68.225; -410.000; -394.000
279.859;   28.825;   -4.000;   41.000
279.999;  -18.050; -208.000;  101.000
280.139;  -40.400; -435.000; -387.000
280.279; -101.450; -708.000; -745.000
280.419;  -21.800; -229.000; -147.000
280.559;  -32.675; -259.000; -180.000
280.698;  -91.500; -790.000; -639.000
280.838;  -98.150; -778.000; -800.000
280.978;  -87.400; -846.000; -790.000
281.118; -104.550; -811.000; -704.000
281.257;   -0.750;   24.000;    6.000
281.397; -143.350;-1094.000; -960.000
281.537;  -96.275; -599.000; -712.000
281.677;  -22.225; -150.000; -101.000
281.816;  -85.275; -700.000; -630.000
281.956;  -15.475; -193.000; -257.000
282.096;  -50.175; -539.000; -396.000
282.235;  -95.025; -672.000; -638.000
282.375;  -12.350; -243.000;  -98.000
282.515;  -78.750; -715.000; -707.000
282.654;   23.725;   29.000;  106.000
282.794;   31.025;  388.000;  244.000
282.934;  -54.075; -530.000; -491.000
283.073; -124.825;-1030.000; -857.000
283.213;  -57.575; -460.000; -467.000
283.353;  -50.800; -408.000; -349.000
283.492;  -27.000; -264.000; -296.000
283.632;  -33.300; -254.000; -168.000
283.771;  -83.800; -859.000; -730.000
283.911;  -40.775; -369.000; -260.000
284.050; -109.825; -794.000; -748.000
284.190; -144.675;-1229.000;-1096.000
284.329; -128.600;-1055.000; -964.000
284.469;  -97.225; -516.000; -591.000
284.608;  -56.875; -559.000; -598.000
284.748;  -76.000; -614.000; -570.000
284.887;    2.475;  -87.000;  -20.000
285.027; -124.125; -844.000; -892.000
285.166;  -26.750; -192.000; -249.000
285.306;  -10.325; -116.000;  -33.000
285.445;  -36.775; -229.000; -343.000
285.584;  -89.600; -630.000; -494.000
285.724;  -35.600; -282.000; -322.000
285.863;  -97.750; -857.000; -507.000
286.002;  -49.725; -366.000; -276.000
286.142; -100.725; -715.000; -622.000
286.281;  -71.500; -525.000; -493.000
286.420;  -64.850; -554.000; -417.000
286.560;   88.575;  653.000;  623.000
286.699; -126.900; -958.000; -912.000
286.838;  -76.550; -590.000; -591.000
286.978;  -84.350; -533.000; -537.000
287.117; -134.475;-1085.000; -950.000
287.256;  -34.600; -228.000; -211.000
287.395;  -48.725; -197.000; -378.000
287.535;  -59.825; -370.000; -298.000
287.674;  -69.950; -509.000; -484.000
287.813;   51.175;  661.000;  533.000
287.952; -120.800;-1010.000; -871.000
288.091; -141.675;-1049.000; -915.000
288.231;    1.750;   13.000;   15.000
288.370; -161.575;-1217.000;-1200.000
288.509;  -79.250; -728.000; -645.000
288.648;  -78.025; -770.000; -548.000
288.787;  -31.975; -243.000;  -87.000
288.926;  -60.800; -454.000; -475.000
289.065;  103.525;  859.000;  672.000
289.204;  -57.550; -377.000; -217.000
289.344; -100.400; -791.000; -690.000
289.483;   15.950;  416.000;  304.000
289.622;  -31.700; -291.000; -149.000
289.761;  -17.175; -309.000; -166.000
289.900;  -92.250; -785.000; -626.000
290.039;  -22.400;  -12.000;  -95.000
290.178;  -42.925; -274.000; -180.000
290.317;  -85.825; -618.000; -479.000
290.456;  -67.825; -463.000; -451.000
290.595; -127.225; -961.000; -833.000
290.734; -122.250; -904.000; -891.000
290.873;  -65.975; -456.000; -420.000
291.011; -108.275; -833.000; -843.000
291.150; -111.950; -770.000; -682.000
291.289;  -32.075; -343.000; -110.000
291.428;  -97.250; -599.000; -480.000
291.567;  -59.475; -370.000; -442.000
291.706;   -0.200;  109.000;  154.000
291.845;  -72.500; -597.000; -505.000
291.984; -171.175;-1234.000;-1061.000
292.122;   78.000;  602.000;  582.000
292.261;   45.750;  620.000;  463.000
292.400;   -2.450; -144.000;  211.000
292.539; -116.900; -959.000; -813.000
292.678;  -36.750; -325.000; -300.000
292.816; -141.900;-1136.000; -965.000
292.955;  -88.250; -844.000; -684.000
293.094;  -30.725; -173.000; -337.000
293.233;  -51.450; -556.000; -400.000
293.371;  -25.200; -225.000;  -84.000
293.510; -105.425; -866.000; -780.000
293.649; -129.725; -959.000; -924.000
293.787; -108.225;-1083.000;-1012.000
293.926;  -19.875; -113.000;  -32.000
294.065;  -45.700; -379.000; -290.000
294.203;   25.425;  298.000;  406.000
294.342;   30.500;   74.000;  156.000
294.481; 5259.200;51180.000; -836.000
294.619;  -29.375; -425.000; -582.000
294.758; -146.200;-1230.000;-1137.000
294.896;   -1.900; -125.000;    5.000
295.035; -129.575;-1040.000;-1006.000
295.174; -125.750;-1082.000; -954.000
295.312;  -49.975; -323.000; -203.000
295.451;  -42.175; -307.000; -428.000
295.589;  -57.575; -389.000; -518.000
295.728;    9.800; -292.000; -165.000
295.866;  -15.225;  -36.000;  -51.000
296.005;  -59.300; -584.000; -341.000
296.143;  -74.850; -558.000; -596.000
296.282;  -97.100; -957.000; -881.000
296.420;  -82.925; -657.000; -557.000
296.559;  -82.650; -892.000; -633.000
296.697;  -56.700; -847.000; -665.000
296.835;  -79.775;-1141.000;-1002.000
296.974;   27.425;  -23.000;   39.000
297.112;  -41.075; -443.000; -504.000
297.251;  -81.325; -815.000; -755.000
297.389;  -21.275; -576.000; -438.000
297.527;   11.075; -145.000;  -83.000
297.666;  -61.300; -486.000; -438.000
297.804;  -46.725; -404.000; -264.000
297.942;    5.650; -136.000; -161.000
298.081;  -21.325; -183.000;   63.000
298.219;    8.150;  -17.000;  -19.000
298.357;   -9.100; -144.000;  -71.000
298.495;  -76.450; -810.000; -812.000
298.634;    4.050;  245.000;  219.000
298.772;  -30.675; -220.000; -338.000
298.910;  -58.025; -309.000; -182.000
299.048;  -18.525; -130.000; -153.000
299.187;  -46.375; -350.000; -250.000
299.325;  -10.225;   52.000;  122.000
299.463;  -29.800; -389.000; -299.000
299.601;   -9.500; -327.000; -271.000
299.739; -131.525; -908.000; -883.000
299.877;  -84.050; -791.000; -703.000
300.016; -119.250;-1095.000; -935.000
300.154;   45.375;  -19.000; -161.000
300.292;  -38.225; -428.000; -348.000
300.430;  -32.400; -408.000; -291.000
300.568; -118.225; -940.000; -874.000
300.706;  -62.725; -366.000; -469.000
300.844; -117.025;-1108.000; -979.000
300.982;   57.525;  246.000;  282.000
301.120; -115.750; -965.000; -866.000
301.258;  -88.775; -812.000; -705.000
301.396;    3.275;  104.000;  -41.000
301.534;  -23.975; -218.000; -293.000
301.672;  -64.175; -664.000; -521.000
301.810;  -57.625; -613.000; -545.000
301.948;   30.450;   53.000;  149.000
302.086;  187.075; -250.000;  -32.000
302.224;  186.075; -610.000; -585.000
302.362;  -58.800; -558.000; -622.000
302.500; -107.200; -923.000; -893.000
302.638;   24.325;  128.000;  245.000
302.776;  -37.075; -352.000; -408.000
302.913;   37.750;  447.000;  236.000
303.051;  -33.925;  -86.000;  -23.000
303.189;   16.350;   90.000;  118.000
303.327;  -62.050; -341.000; -256.000
303.465;  -73.600; -832.000; -588.000
303.603;  -94.825; -805.000; -604.000
303.740;   55.950;  417.000;  241.000
303.878;  -71.850; -800.000; -759.000
304.016; -102.500; -915.000; -790.000
304.154; -141.700;-1123.000;-1152.000
304.291;  -57.350; -505.000; -554.000
304.429;    2.625;  102.000;   74.000
304.567; -126.225; -908.000; -893.000
304.705;  -58.025; -408.000; -515.000
304.842;  -22.250; -616.000; -540.000
304.980;   23.500;  215.000;   35.000
305.118;  -18.250; -367.000; -365.000
305.255; -114.975; -945.000; -927.000
305.393;   40.950;  178.000;  239.000
305.531; -139.300;-1173.000; -956.000
305.668;  -72.650; -663.000; -582.000
305.806;   -6.850; -358.000; -439.000
305.943;  -17.450; -629.000; -637.000
306.081;  -26.325; -378.000; -267.000
306.219; -105.875; -863.000; -748.000
306.356;    1.075;  158.000;   27.000
306.494;  128.575;  981.000;  761.000
306.631;    8.250;  -11.000;  -55.000
306.769;   14.250; -613.000; -485.000
306.906;   -7.975; -284.000; -258.000
307.044;  -44.225; -473.000; -488.000
307.181;  -55.325; -410.000; -332.000
307.319;   14.700;  112.000;   87.000
307.456; -153.550;-1191.000;-1153.000
307.594; -103.975; -980.000; -727.000
307.731;  -39.050; -371.000; -164.000
307.868;   13.725;  -15.000;   20.000
308.006; -128.250; -961.000; -847.000
308.143;  -70.725; -618.000; -330.000
308.281;   20.150;  -37.000; -254.000
308.418;  -59.550; -748.000; -640.000
308.555;  -65.675; -400.000; -250.000
308.693;  -54.775; -577.000; -573.000
308.830;  -89.375; -712.000; -657.000
308.967;   -7.800; -215.000;  -95.000
309.105;  -22.250; -507.000; -396.000
309.242;   -7.075; -468.000; -367.000
309.379;   29.450; -577.000; -655.000
309.517; -100.550; -936.000; -948.000
309.654;  -80.600; -910.000; -734.000
309.791;  -50.175; -662.000; -580.000
309.928;  -92.175; -977.000; -914.000
310.065;  140.975;  819.000;  697.000
310.203;  -72.350; -825.000; -850.000
310.340;  -19.125; -465.000; -321.000
310.477;  -68.950; -412.000; -516.000
310.614;  -39.200; -383.000; -473.000
310.751;  -43.275; -427.000; -518.000
310.889;  -11.125;    1.000;   11.000
311.026; -128.450;-1161.000; -939.000
311.163;  -38.425; -386.000; -380.000
311.300;  -50.450; -512.000; -479.000
311.437;  -66.200; -658.000; -619.000
311.574; -130.675;-1226.000; -985.000
311.711;  -49.175; -595.000; -433.000
311.848;  -19.300; -380.000; -388.000
311.985;   27.225;  270.000;   93.000
312.122;  -91.500; -932.000; -762.000
312.259;  -86.200; -941.000; -994.000
312.396;  -49.675; -508.000; -551.000
312.533;  -69.800; -812.000; -790.000
312.670; -110.150;-1070.000; -898.000
312.807;    0.125; -352.000; -367.000
312.944;  -51.700; -513.000; -611.000
313.081;   -7.125; -150.000; -415.000
313.218;  -70.800;-1111.000; -867.000
313.355;    1.200; -531.000; -449.000
313.492;  -12.250; -455.000; -292.000
313.629;  128.150;  815.000;  735.000
313.766; -139.125;-1176.000;-1008.000
313.902;   -3.575; -186.000;   21.000
314.039;  -39.175; -372.000; -289.000
314.176;   43.150;  286.000;  192.000
314.313;  -63.050; -569.000; -473.000
314.450;  -72.050; -788.000; -684.000
314.587;  -48.375; -468.000; -480.000
314.723;   16.275;  -78.000;  130.000
314.860;   41.125;  318.000;  332.000
314.997;   49.100;  223.000;  142.000
315.134;  -20.350; -385.000; -368.000
315.270;  -10.200; -480.000; -496.000
315.407; -104.675;-1094.000; -967.000
315.544;  -41.350; -657.000; -538.000
315.681;  -63.125; -681.000; -565.000
315.817;   45.250; -133.000; -176.000
315.954;   23.075; -613.000; -392.000
316.091; -112.575;-1045.000;-1023.000
316.227;  -29.050;  -71.000; -179.000
316.364;   -1.600;   23.000;    6.000
316.500;  -50.200; -113.000; -300.000
316.637;  -26.500; -181.000; -302.000
316.774;  -81.100; -625.000; -358.000
316.910;  -77.875; -598.000; -629.000
317.047;  -62.750; -487.000; -351.000
317.183;  -51.025; -435.000; -566.000
317.320;   43.300; -367.000; -321.000
317.456;  -20.925; -733.000; -805.000
317.593;  -72.250; -598.000; -641.000
317.729;   -2.925;  168.000;  -67.000
317.866; -188.000;-1434.000;-1285.000
318.002;  -92.775; -708.000; -948.000
318.139; -114.700; -883.000; -867.000
318.275; -114.925;-1003.000; -738.000
318.412;  -61.750; -517.000; -336.000
318.548;  -81.300; -751.000; -720.000
318.685;  -94.050; -985.000; -888.000
318.821;  -70.425; -762.000; -735.000
318.957;  -32.950;   34.000;  -23.000
319.094;   38.500;  297.000;  154.000
319.230;  -89.275; -756.000; -742.000
319.367;  -10.325; -471.000; -520.000
319.503;  -26.000; -538.000; -436.000
319.639;  -87.600; -877.000; -793.000
319.775;  -99.425; -750.000; -685.000
319.912;  -62.175; -424.000; -519.000
320.048;  -95.525;-1184.000;-1184.000
320.184;   92.325;   59.000;   70.000
320.321;  -35.250; -497.000; -467.000
320.457;   71.475;  475.000;  662.000
320.593;  -55.700; -375.000; -382.000
320.729;  -96.875; -732.000; -734.000
320.866;  -63.200; -577.000; -635.000
321.002;  -94.375; -759.000; -809.000
321.138;  -46.500; -135.000; -211.000
321.274;   11.975; -148.000; -115.000
321.410;  -60.900; -585.000; -353.000
321.546;  -90.850;-1011.000; -911.000
321.683;   42.350;  400.000;  185.000
321.819;   -5.125;  -48.000; -117.000
321.955; -130.725; -743.000; -722.000
322.091;  -62.300; -585.000; -540.000
322.227;  -35.275; -382.000; -202.000
322.363;  -44.425; -320.000; -215.000
322.499;  -55.125; -343.000; -331.000
322.635;   99.975;  636.000;  443.000
322.771;   -7.025; -139.000;   12.000
322.907;   33.375;  129.000;  327.000
323.043;  -28.150; -115.000; -206.000
323.179;  -43.950; -394.000; -363.000
323.315;  -54.050; -401.000; -371.000
323.451;   41.650; -328.000; -236.000
323.587;   40.550;  -60.000;  -77.000
323.723;  -51.975; -682.000; -601.000
323.859;  -29.200; -258.000;  -76.000
323.995;  -62.775; -467.000; -409.000
324.131; -120.950; -967.000; -892.000
324.267;  -43.975; -254.000; -276.000
324.402; -135.500; -960.000; -983.000
324.538;  -34.650; -279.000; -104.000
324.674;    3.050;  164.000;   77.000
324.810;   49.075;  226.000;  308.000
324.946;  -45.950; -810.000; -658.000
325.082;  -69.450; -568.000; -475.000
325.217;  -17.325;  -62.000;   16.000
325.353;  -94.950; -764.000; -659.000
325.489;  -92.350; -540.000; -506.000
325.625;  -65.900; -579.000; -525.000
325.760;   78.025;  517.000;  376.000
325.896;   11.800; -515.000; -702.000
326.032;  -48.800; -403.000; -352.000
326.168;  -57.075; -462.000; -369.000
326.303;  -77.700; -352.000; -461.000
326.439;  -17.500; -336.000; -276.000
326.575;   -0.025; -190.000;  -29.000
326.710;  -12.775; -156.000;  -30.000
326.846;   -9.875;  146.000;  103.000
326.982; -100.625; -530.000; -548.000
327.117;  -67.250; -481.000; -442.000
327.253;  -91.475; -745.000; -742.000
327.388; -147.600;-1137.000;-1153.000
327.524;  -79.150; -811.000; -578.000
327.659;  -24.850;  -58.000;  -22.000
327.795;   -9.275;   69.000;   45.000
327.931;  -84.425; -723.000; -499.000
328.066;  -23.350; -417.000; -276.000
328.202;  -17.025;   12.000; -129.000
328.337;   91.600;  957.000;  713.000
328.473;   28.425;  -12.000;  -74.000
328.608;  -20.325; -256.000; -267.000
328.743; -104.850; -799.000; -664.000
328.879;   14.750;  214.000;  114.000
329.014;  -34.525; -102.000; -122.000
329.150;  -66.700; -358.000; -483.000
329.285;  -85.375; -465.000; -466.000
329.421;  -48.050; -548.000; -246.000
329.556;   -7.725;  -36.000;   85.000
329.691;  -84.675; -633.000; -615.000
329.827;  -72.600; -626.000; -480.000
329.962;  -38.600;  131.000; -301.000
330.097;  -69.450; -673.000; -585.000
330.233;  -40.850; -410.000; -223.000
330.368; -109.650; -839.000; -628.000
330.503;  -13.600;    3.000;   98.000
330.638;  -22.250;  -93.000; -125.000
330.774;  -69.425; -609.000; -530.000
330.909;  -45.650; -434.000; -244.000
331.044;  -78.000; -714.000; -708.000
331.179; -167.475;-1217.000;-1109.000
331.315;   -9.375;   77.000;   20.000
331.450;   -0.550;  157.000;  285.000
331.585;  -86.900; -805.000; -706.000
331.720;  -77.725; -510.000; -460.000
331.855;   -2.575;  -35.000; -102.000
331.990;  418.375;   62.000;  138.000
332.126;  214.200; -110.000;   71.000
332.261;   13.950; -379.000; -265.000
332.396;   22.525; -135.000; -242.000
332.531;  -50.450;-1074.000;-1031.000
332.666;   98.750; -519.000; -363.000
332.801;  -95.225; -726.000; -807.000
332.936;  -30.175; -192.000; -122.000
333.071; -138.700; -870.000; -817.000
333.206;   15.400;  307.000;  379.000
333.341;   33.275;  344.000;  418.000
333.476;  -88.850; -627.000; -623.000
333.611;  -45.425; -251.000; -173.000
333.746;  -36.575; -381.000; -464.000
333.881; -122.075; -973.000; -935.000
334.016; -113.100; -936.000; -917.000
334.151; -123.375; -746.000; -702.000
334.286;   14.275;  152.000;  186.000
334.421;  -34.525; -125.000; -178.000
334.556;  -72.875; -611.000; -567.000
334.690;  -84.225; -631.000; -577.000
334.825;   51.975;  381.000;   83.000
334.960;  -55.200; -285.000; -413.000
335.095;    3.125;  135.000;  -91.000
335.230;  -91.100; -722.000; -738.000
335.365; -127.600;-1084.000; -990.000
335.499; -119.125;-1108.000;-1037.000
335.634;   23.450;    9.000;  534.000
335.769;  -90.375; -755.000; -720.000
335.904;  -44.475; -603.000; -561.000
336.038;  -41.025; -735.000; -657.000
336.173; -111.625;-1206.000;-1194.000
336.308;   -0.425; -116.000; -189.000
336.443;   66.800; -544.000; -634.000
336.577;  -64.600; -936.000; -787.000
336.712;   86.750;   -4.000;  -12.000
336.847;  -25.800; -724.000; -607.000
336.981;   45.075; -272.000; -208.000
337.116;  292.575;  615.000;  501.000
337.250;  124.750; -434.000; -421.000
337.385;  481.300; -297.000; -208.000
337.520;  229.850; -632.000; -603.000
337.654;  -31.625; -215.000; -126.000
337.789; -121.150; -989.000; -933.000
337.923;  -45.500; -104.000; -205.000
338.058; -115.150; -673.000; -738.000
338.192;  -48.000; -611.000; -488.000
338.327;   -8.500;  -18.000; -155.000
338.461;  -58.675; -299.000; -469.000
338.596;  -98.050; -780.000; -638.000
338.730;  -91.850; -767.000; -803.000
338.865;  161.850;  -46.000; -140.000
338.999;    7.800; -846.000; -702.000
339.134;    9.800; -634.000; -536.000
339.268;   40.375; -741.000; -603.000
339.403;  570.625; -740.000; -775.000
339.537;  282.550; -894.000; -820.000
339.671;  -92.125; -829.000; -813.000
339.806;  -12.925; -556.000; -512.000
339.940;   43.075; -261.000; -235.000
340.074; -110.800; -685.000; -510.000
340.209;  -60.950; -351.000; -230.000
340.343;  -91.600; -517.000; -573.000
340.477;  130.075;  998.000; 1036.000
340.612;   12.050;-1033.000; -900.000
340.746;  232.100; -199.000; -243.000
340.880;  -92.375; -924.000; -785.000
341.014;  -19.325;  -45.000; -154.000
341.149; -113.525; -756.000; -718.000
341.283; -119.350; -839.000; -754.000
341.417; -128.150;-1124.000; -938.000
341.551;  -49.750; -768.000; -708.000
341.685;  -58.075; -633.000; -611.000
341.820;  -50.825; -562.000; -493.000
341.954;  -43.875; -218.000; -349.000
342.088; -142.300;-1102.000;-1019.000
342.222;   48.800;  565.000;  618.000
342.356;  -77.875; -395.000; -335.000
342.490; -109.525; -880.000; -841.000
342.624;  -54.850; -339.000; -242.000
342.758;  -60.775; -364.000; -312.000
342.892;  -92.775; -710.000; -585.000
343.026;  -46.500;  -58.000; -116.000
343.160;  -63.775; -426.000; -376.000
343.294;  -77.850; -474.000; -337.000
343.428;  -65.875; -488.000; -448.000
343.562;  -40.725; -172.000;  -23.000
343.696;  -45.400; -385.000; -314.000
343.830;  -65.075; -362.000; -356.000
343.964;  -21.175; -231.000; -168.000
344.098;  267.700;  199.000;   70.000
344.232;  231.925; -266.000; -127.000
344.366;   76.600; -567.000; -453.000
344.500;  -34.475; -665.000; -744.000
344.634;  -20.750; -324.000; -164.000
344.768;  -61.325; -531.000; -341.000
344.902;    1.200;  278.000;  256.000
345.035;  -78.625; -556.000; -496.000
345.169; -135.350; -933.000; -656.000
345.303;  -52.650; -308.000; -482.000
345.437;  -95.650; -826.000; -717.000
345.571;  -71.350; -675.000; -594.000
345.704;  -59.875; -309.000; -532.000
345.838;  -14.950; -331.000; -284.000
345.972;  -55.875; -543.000; -495.000
346.106;  250.200; -179.000; -190.000
346.239;  496.550; -312.000; -243.000
346.373;  -20.175; -343.000; -302.000
346.507; -135.625; -950.000; -962.000
346.640;   19.200;  -30.000;   13.000
346.774;  -85.225; -650.000; -797.000
346.908;  -33.500; -138.000;  -11.000
347.041; -104.475; -646.000; -593.000
347.175;    0.250;  259.000;   27.000
347.309;  -92.100; -698.000; -628.000
347.442;  -97.525; -883.000; -732.000
347.576;  124.050;  670.000;  668.000
347.709;   45.625; -123.000;  -52.000
347.843; -123.950; -933.000; -825.000
347.976;   15.875;  235.000;  294.000
348.110; -174.150;-1268.000;-1186.000
348.243;  -94.650; -679.000; -772.000
348.377;   -0.550;  -26.000;   60.000
348.510;   53.450;  403.000;  540.000
348.644;  -50.100;  -37.000; -159.000
348.777;    6.200;  180.000;  191.000
348.911;  -39.950; -142.000; -112.000
349.044;   60.025;  471.000;  448.000
349.178;  -41.625;-1069.000;-1006.000
349.311;  107.450;  141.000;  255.000
349.444;   42.450; -927.000; -813.000
349.578;  -17.400; -347.000; -200.000
349.711; -122.775; -959.000; -862.000
349.845;  -67.475; -661.000; -591.000
349.978; -160.000;-1224.000;-1137.000
350.111;  -76.125; -546.000; -612.000
350.244; -103.325; -596.000; -700.000
350.378;  -52.050; -392.000; -393.000
350.511;  -76.075; -393.000; -426.000
350.644;  -91.725; -808.000; -806.000
350.778;   14.550;  168.000;  104.000
350.911;    1.475;  134.000;  140.000
351.044;  -90.450; -685.000; -615.000
351.177;  -41.100; -321.000; -281.000
351.310;  -20.150;    3.000; -131.000
351.444; -108.150; -888.000; -788.000
351.577;   24.875;  140.000;   90.000
351.710;   66.550;  593.000;  417.000
351.843;  -34.225; -165.000;  -77.000
351.976;   -6.425;  149.000;  -79.000
352.109; -107.350; -621.000; -612.000
352.242;  -57.700; -464.000; -419.000
352.376;  -94.550; -580.000; -636.000
352.509;    6.725; -437.000; -356.000
352.642; -102.200; -654.000; -604.000
352.775;   14.525; -141.000;  -98.000
352.908; -114.425; -933.000; -904.000
353.041; -108.450; -814.000; -824.000
353.174;  -77.825; -551.000; -424.000
353.307;  -88.850; -753.000; -764.000
353.440;   56.475;  541.000;  453.000
353.573;  -93.000; -957.000;-1008.000
353.706;  -45.975; -384.000; -558.000
353.839;  -38.400; -264.000; -220.000
353.971; -101.100; -657.000; -512.000
354.104; -105.400; -896.000; -835.000
354.237;  -74.800; -627.000; -662.000
354.370;  -99.400; -846.000; -879.000
354.503; -167.400;-1231.000;-1308.000
354.636;  -22.350; -529.000; -348.000
354.769; -114.600; -937.000; -860.000
354.902;  -20.000; -230.000; -139.000
355.034;  -15.175; -164.000; -220.000
355.167;    3.325; -262.000; -162.000
355.300;  -69.050;-1061.000; -880.000
355.433; 1475.875;  -71.000;  -14.000
355.565; 2347.325; -402.000; -384.000
355.698;  600.975; -356.000; -296.000
355.831;    7.125; -882.000; -801.000
355.964;   20.200; -285.000; -170.000
356.096;  -72.975; -856.000; -843.000
356.229;   -1.725; -523.000; -530.000
356.362;  544.100; -373.000; -266.000
356.494;  931.475; -229.000; -162.000
356.627;  325.200;  269.000;  377.000
356.760;  907.775;  120.000;   53.000
356.892; 1542.925; -286.000; -601.000
357.025;  345.225;  403.000;  389.000
357.157;  223.975; -167.000; -179.000
357.290; 1199.450; -856.000; -713.000
357.423;  387.575; -667.000; -556.000
357.555;  102.350; -217.000; -228.000
357.688;  135.575; -483.000; -364.000
357.820;  147.950; -870.000; -877.000
357.953; 1291.550; -563.000; -589.000
358.085;  204.975; -632.000; -612.000
358.218;  113.575;-1131.000; -932.000
358.350;   41.750;  -58.000;  312.000
358.483; -152.175;-1300.000;-1187.000
358.615; -121.175;-1182.000;-1078.000
358.747; -144.125;-1187.000;-1058.000
358.880;  -40.175; -810.000; -744.000
359.012;  -48.575; -376.000; -202.000
359.145;  -67.950; -480.000; -511.000
359.277;  -73.875; -962.000; -913.000
359.409; 1099.050;  536.000;  231.000
359.542;  223.500; -738.000; -688.000
359.674;   13.225;   46.000;   13.000
359.806;  -68.525; -565.000; -438.000
359.939;  -43.025; -617.000; -516.000
360.071;   33.475; -583.000; -579.000
360.203;  -20.675; -411.000; -364.000
360.335;   36.425;  164.000;  -16.000
360.468;   78.975; -249.000; -307.000
360.600; 1223.700; -547.000; -454.000
360.732; 4300.775; -546.000; -423.000
360.864;  691.875;-1216.000;-1044.000
360.996;   54.350; -516.000; -554.000
361.129;  -43.150; -389.000; -598.000
361.261;    1.400;  110.000; -113.000
361.393;  -45.525; -252.000; -214.000
361.525;   -5.900;   94.000;  244.000
361.657; -100.950; -821.000; -703.000
361.789;  -22.550; -139.000; -155.000
361.921;  -58.125; -642.000; -593.000
362.053;   86.425;  524.000;  541.000
362.185;   -0.175;  288.000;   72.000
362.318; -116.525; -709.000; -705.000
362.450;   33.025;  294.000;  444.000
362.582;  -97.800; -913.000; -870.000
362.714;  -73.250; -353.000; -332.000
362.846;  -92.125; -606.000; -490.000
362.978; -141.075; -941.000; -811.000
363.109;  -37.750; -161.000; -260.000
363.241;  145.675; -739.000; -749.000
363.373;  676.500; -649.000; -564.000
363.505; 1077.850; -186.000;  -91.000
363.637;  247.000; -787.000; -601.000
363.769; -120.825;-1067.000;-1080.000
363.901;  -69.600; -596.000; -654.000
364.033; -155.800;-1103.000;-1062.000
364.165;  -40.425; -283.000; -283.000
364.296;   95.350; -316.000; -177.000
364.428;  207.050;-1344.000;-1220.000
364.560;  -49.575; -679.000; -661.000
364.692;  -81.475; -738.000; -835.000
364.824;  -11.100; -588.000; -456.000
364.955;  515.925; -402.000; -564.000
365.087; 1722.200;-1097.000; -852.000
365.219;  127.200; -686.000; -816.000
365.351;  -72.575; -526.000; -572.000
365.482;   22.925;  300.000;  240.000
365.614;  -55.800; -402.000; -314.000
365.746;  -97.800; -729.000; -752.000
365.877;  -85.600; -706.000; -672.000
366.009;  425.650;  -35.000;  -62.000
366.141;  -13.975;-1249.000;-1134.000
366.272; -103.475; -803.000; -719.000
366.404; -121.225;-1005.000; -874.000
366.535;  -24.875; -139.000;  -12.000
366.667;  -94.450; -644.000; -649.000
366.799;   42.100;  353.000;  203.000
366.930; -124.575; -862.000; -996.000
367.062;  210.650; -639.000; -613.000
367.193;  344.175; -872.000; -842.000
367.325;  -43.900; -580.000; -684.000
367.456;   13.975; -246.000;   31.000
367.588;  266.175; -371.000; -318.000
367.719;   54.875;  -44.000;  -45.000
367.851;  -30.500; -222.000; -241.000
367.982; -101.750; -875.000; -732.000
368.113;  -31.250; -475.000; -358.000
368.245; -147.425; -960.000; -841.000
368.376;  -41.875; -254.000; -302.000
368.508;  -59.675; -188.000; -263.000
368.639; -145.875;-1166.000;-1034.000
368.770;  -82.400; -670.000; -589.000
368.902; -105.450; -836.000; -926.000
369.033; -124.250; -906.000; -855.000
369.164;  -43.475; -720.000; -653.000
369.296;  -90.050; -452.000; -601.000
369.427;  -16.650; -209.000; -144.000
369.558;  -72.000; -593.000; -377.000
369.689;  -89.375; -721.000; -569.000
369.821; -131.375; -951.000; -845.000
369.952;  -24.850;   42.000; -108.000
370.083;  -59.200; -229.000; -108.000
370.214;  -87.625; -735.000; -650.000
370.345;  -23.600;   65.000;   81.000
370.477; -110.950; -810.000; -790.000
370.608;   18.800; -328.000; -264.000
370.739; -121.475;-1233.000;-1292.000
370.870; -112.100;-1102.000; -923.000
371.001;  -22.775; -378.000; -467.000
371.132; -105.400; -754.000; -735.000
371.263;  -22.025;  -42.000; -148.000
371.394; -133.600; -841.000; -748.000
371.525;   18.500;  345.000;  225.000
371.657; -111.000; -808.000; -670.000
371.788;   33.025;  103.000;  199.000
371.919;   18.050; -384.000; -304.000
372.050; 1131.725;  -91.000; -156.000
372.181;  360.175; -188.000; -294.000
372.311;   82.000;   42.000; -127.000
372.442;  -59.300; -457.000; -451.000
372.573;  -55.375; -444.000; -340.000
372.704; -142.000;-1008.000; -980.000
372.835;  -23.900; -228.000; -289.000
372.966;  -72.650; -646.000; -554.000
373.097;  -89.150; -575.000; -711.000
373.228;  -89.975; -717.000; -542.000
373.359;  -37.100; -824.000; -536.000
373.490;  159.150; -881.000; -727.000
373.620;  220.175;-1001.000; -803.000
373.751;  461.475; -332.000; -396.000
373.882;  190.325; -663.000; -733.000
374.013;  -26.800; -449.000; -262.000
374.143;  -74.375; -581.000; -659.000
374.274; -121.000; -987.000; -908.000
374.405;   60.300; -388.000; -276.000
374.536;   90.550; -526.000; -387.000
374.666;  255.325; -759.000; -807.000
374.797;  -26.725; -817.000; -868.000
374.928;  167.125; -710.000; -560.000
375.058;  171.475; -535.000; -500.000
375.189;   -7.150;  -59.000;  -93.000
375.320; -119.850; -928.000;-1034.000
375.450;  -59.800; -625.000; -616.000
375.581;  -51.475; -526.000; -436.000
375.712;  -50.300; -574.000; -250.000
375.842;   -5.650; -438.000; -415.000
375.973;   -9.050; -554.000; -513.000
376.103; -103.750; -665.000; -648.000
376.234;  -91.150; -531.000; -552.000
376.364; -117.275; -944.000; -867.000
376.495;  130.250;  925.000;  529.000
376.625;  -76.350; -472.000; -485.000
376.756;  -62.825; -709.000; -678.000
376.886; -132.150;-1178.000;-1026.000
377.017;  148.200;-1048.000;-1061.000
377.147;  678.700; -786.000; -782.000
377.278;  115.100;  174.000;  228.000
377.408; -119.700; -801.000; -815.000
377.538;  -90.675; -707.000; -693.000
377.669;  -74.400; -537.000; -613.000
377.799;  -99.725; -645.000; -635.000
377.929;  -79.725; -610.000; -428.000
378.060; -124.225; -781.000; -847.000
378.190;  -33.850; -726.000; -531.000
378.320;  -38.725; -401.000; -406.000
378.451;  -25.950; -131.000;  -22.000
378.581;  -27.450;  -67.000; -110.000
378.711;   81.175; 1035.000;  866.000
378.841;  -74.875; -533.000; -675.000
378.972; -109.775; -871.000; -751.000
379.102;  -72.350; -652.000; -579.000
379.232;  -39.250; -126.000;  -73.000
379.362; -123.500;-1001.000; -885.000
379.492;  -57.025; -373.000; -424.000
379.623;   31.750;    0.000;  111.000
379.753; -114.875;-1107.000; -974.000
379.883;   64.800;   59.000;  156.000
380.013;  -80.750;-1081.000;-1017.000
380.143; -135.400;-1097.000;-1056.000
380.273; -101.525; -985.000; -861.000
380.403;   13.125; -344.000; -257.000
380.533;  -51.075; -651.000; -664.000
380.663;   30.975;  173.000;  128.000
380.793; -150.225;-1027.000;-1074.000
380.923;  -31.125; -103.000;  -34.000
381.053;  -99.200; -613.000; -623.000
381.183;  -43.550; -106.000; -248.000
381.313;  -72.200; -656.000; -470.000
381.443;  -50.000; -692.000; -473.000
381.573;  -42.175; -402.000; -409.000
381.703;  -91.075;-1249.000;-1095.000
381.833; -172.100;-1454.000;-1336.000
381.963;   14.075; -134.000;  -87.000
382.093;  361.400; -925.000; -909.000
382.223;   78.875; -713.000; -602.000
382.353;  -80.250; -801.000; -608.000
382.482;    9.600;-1091.000; -964.000
382.612;  154.650; -872.000; -644.000
382.742;   66.425; -695.000; -622.000
382.872;  -21.775; -565.000; -551.000
383.002;   25.475;  347.000; -132.000
383.131;  -34.900; -226.000; -160.000
383.261;  -24.925; -706.000; -768.000
383.391;  319.600; -552.000; -377.000
383.521; 5102.800;  451.000;  263.000
383.650; 1578.425; -947.000; -904.000
383.780;   51.100; -783.000; -656.000
383.910;  101.650;  880.000;  802.000
384.039;  -80.025; -794.000; -656.000
384.169;  -93.450;-1205.000;-1017.000
384.299;  -85.800; -650.000; -662.000
384.428; -115.100; -764.000; -680.000
384.558;  -54.225; -308.000; -275.000
384.687;  -65.725; -414.000; -334.000
384.817;   -4.050;   75.000;   -2.000
384.947;  -28.100; -234.000; -141.000
385.076;  160.175;  982.000;  912.000
385.206;   38.050;  369.000;  480.000
385.335;  -68.800; -549.000; -417.000
385.465;  -94.750; -655.000; -663.000
385.594;   25.725;  -53.000;  -44.000
385.724;   15.150; -868.000; -838.000
385.853;  -15.225; -296.000; -270.000
385.982;  301.250; -743.000; -787.000
386.112;  589.950;-1052.000; -871.000
386.241;   17.100; -307.000; -312.000
386.371;  -16.000; -174.000;  -87.000
386.500;  -47.975; -825.000; -789.000
386.629;    5.850; -874.000; -817.000
386.759;   80.375;  -43.000;   68.000
386.888;   -6.700; -170.000; -250.000
387.017; -100.075; -648.000; -620.000
387.147; -111.150; -771.000; -798.000
387.276;  -58.350; -410.000; -397.000
387.405;  -45.425; -398.000; -342.000
387.535;  -83.650; -452.000; -361.000
387.664;  -58.950; -692.000; -620.000
387.793;   -9.450; -198.000; -113.000
387.922;  126.350;  255.000;  200.000
388.052;  -58.975; -576.000; -423.000
388.181;  -65.250; -342.000; -472.000
388.310;  -89.800; -889.000; -710.000
388.439;  -94.625; -749.000; -742.000
388.568;   44.275;  365.000;  244.000
388.697;  215.975; -756.000; -653.000
388.826;  -13.600; -768.000; -666.000
388.956;  -31.700; -285.000; -307.000
389.085;  -54.900; -347.000; -287.000
389.214;  -93.200; -842.000; -872.000
389.343;  -88.350; -645.000; -413.000
389.472;  567.950;  126.000;  149.000
389.601;  652.000;   91.000;    0.000
389.730;  -11.225; -568.000; -687.000
389.859;   15.350;  226.000;   46.000
389.988;   32.925; -423.000; -408.000
390.117;   37.075; -168.000; -146.000
390.246;  -33.950; -331.000; -320.000
390.375;  -64.725; -673.000; -626.000
390.504;  -89.050; -703.000; -621.000
390.633; -121.650; -672.000; -726.000
390.761;  -93.250; -732.000; -645.000
390.890;  -14.900;   -4.000; -130.000
391.019;  -68.400; -421.000; -441.000
391.148; -136.125; -826.000; -855.000
391.277;  -94.050; -576.000; -493.000
391.406; -114.300; -821.000; -805.000
391.534;    9.975;  574.000; -301.000
391.663;  -87.500; -583.000; -645.000
391.792;  -81.675; -673.000; -701.000
391.921;  -13.200;   -3.000;   15.000
392.050;   -1.700; -287.000; -228.000
392.178; -126.925;-1206.000;-1061.000
392.307;  -50.000; -758.000; -712.000
392.436;  -44.825; -427.000; -641.000
392.564;   -3.225;  166.000;   -6.000
392.693; -111.225; -860.000; -682.000
392.822;   -8.675; -529.000; -534.000
392.950;  -47.025; -880.000; -714.000
393.079;   64.100; -188.000; -328.000
393.208;  -67.625; -488.000; -511.000
393.336;  -27.775; -170.000; -145.000
393.465;  -53.525; -317.000; -199.000
393.593;   -4.425;   62.000;   79.000
393.722; -140.175;-1121.000; -916.000
393.850;  -27.550; -188.000;  -61.000
393.979; -140.050; -926.000; -805.000
394.107;  -53.400; -517.000; -537.000
394.236;  -53.525; -570.000; -507.000
394.364;  100.800;  383.000;  206.000
394.493;   61.225; -911.000; -767.000
394.621;    7.775; -955.000; -916.000
394.750; 1172.100; -873.000; -923.000
394.878; 4516.950; -247.000; -149.000
395.007; 6718.425; -721.000; -807.000
395.135;  617.650; -790.000; -721.000
395.263;  -34.500;-1038.000;-1040.000
395.392;    4.100;  -25.000; -107.000
395.520; -136.050; -818.000; -679.000
395.648; -122.900; -865.000; -915.000
395.777;  -63.875; -366.000; -405.000
395.905;  -75.175; -449.000; -564.000
396.033;  -11.275;  217.000;  172.000
396.162;   80.650; -399.000; -453.000
396.290;   85.050;  -17.000;   -2.000
396.418;  -41.650; -555.000; -514.000
396.546;  -91.675; -571.000; -466.000
396.674; -115.825; -850.000; -878.000
396.803;  -27.450;  -72.000;  -23.000
396.931;  -31.825; -179.000; -199.000
397.059; -133.000;-1026.000; -989.000
397.187; -141.400;-1026.000; -975.000
397.315; -132.600; -884.000; -649.000
397.443; -103.600; -592.000; -443.000
397.572;  -87.975; -578.000; -424.000
397.700;  -92.125; -607.000; -614.000
397.828;  -47.225;  120.000;  -90.000
397.956;  -31.000; -508.000; -478.000
398.084;  -34.075; -767.000; -626.000
398.212;    1.675;  137.000;  124.000
398.340;  -21.325;  -56.000;  159.000
398.468;  -50.700; -390.000; -169.000
398.596; -149.850; -993.000; -953.000
398.724; -120.675; -762.000; -767.000
398.852; -163.950;-1024.000; -976.000
398.980;  -87.425; -560.000; -560.000
399.108;  -89.750; -982.000; -735.000
399.236;  -14.725;   13.000;    8.000
399.363;   -2.300;  222.000;  196.000
399.491;  -65.475; -404.000; -398.000
399.619; -124.075; -829.000; -800.000
399.747; -108.900; -859.000; -771.000
399.875;   23.750;  220.000;  234.000
400.003;  -74.300; -359.000; -284.000
400.130;  -94.300; -421.000; -341.000
400.258;  -37.500;  -83.000;   38.000
400.386;  -71.400; -352.000; -168.000
400.514;  -94.675; -526.000; -587.000
400.641; -128.100; -928.000; -802.000
400.769; -158.525; -979.000; -888.000
400.897; -126.525; -838.000; -793.000
401.025;  -46.700; -166.000; -152.000
401.152;  -12.950;  220.000;   38.000
401.280;  -80.775; -430.000; -429.000
401.408; -108.950; -712.000; -576.000
401.535; -113.000; -735.000; -758.000
401.663; -178.225;-1134.000;-1054.000
401.790;  -94.125; -514.000; -525.000
401.918;   29.100;  436.000;  405.000
402.046;  -12.475;  134.000;  122.000
402.173;  -24.200;  -18.000;    7.000
402.301;  -69.725; -519.000; -397.000
402.428;   10.275;  528.000;  383.000
402.556; -137.450;-1188.000; -913.000
402.683;  -30.750;  -20.000;   -1.000
402.811;  -17.025;  -37.000; -206.000
402.938;  -14.725;   20.000;   27.000
403.066;   -1.450; -574.000; -558.000
403.193;  105.325;  299.000;  239.000
403.321;   62.425; -396.000; -574.000
403.448;  111.625;   83.000;   27.000
403.575;   27.775;  -90.000;  -46.000
403.703;  -85.175; -732.000; -557.000
403.830;  -49.150; -531.000; -496.000
403.957; -112.900;-1117.000;-1023.000
404.085;   25.450;  -61.000; -172.000
404.212;  129.475;  -50.000;   63.000
404.339;  449.200; -566.000; -306.000
404.467; 9202.325; -612.000; -524.000
404.594; 5743.625; -287.000; -227.000
404.721;  970.325; -869.000; -764.000
404.848;  118.950; -113.000; -202.000
404.976;  -80.700; -856.000; -783.000
405.103;    1.925;  -14.000;  -82.000
405.230;   -5.425;  190.000;  226.000
405.357;   56.950;  117.000;   44.000
405.484;  442.900;  -49.000;    5.000
405.612;  123.800; -548.000; -563.000
405.739;  -59.400; -488.000; -243.000
405.866;   66.600;  669.000;  385.000
405.993;  -50.475; -398.000; -102.000
406.120; -138.750; -801.000; -887.000
406.247;  -76.650; -323.000; -342.000
406.374;  105.000;  540.000;  629.000
406.501;  -76.475; -632.000; -702.000
406.628;  -82.575; -621.000; -589.000
406.755; -110.550; -803.000; -620.000
406.882;  -49.325; -228.000; -277.000
407.009; -114.000; -719.000; -628.000
407.136;  -39.050; -480.000; -401.000
407.263;  -49.050; -939.000; -829.000
407.390;  -97.150; -692.000; -614.000
407.517; -169.750;-1139.000;-1187.000
407.644;  -53.925; -332.000; -256.000
407.771;  -78.850; -249.000; -287.000
407.898;   -2.650;  168.000;  328.000
408.025;  -64.500; -421.000; -313.000
408.151;   -7.050;   82.000;  153.000
408.278;  -70.800; -267.000; -216.000
408.405; -131.925; -931.000; -899.000
408.532; -110.325; -549.000; -542.000
408.659; -117.600; -677.000; -648.000
408.785; -183.000;-1298.000;-1170.000
408.912;  -54.950; -412.000; -296.000
409.039; -107.425; -610.000; -686.000
409.166;  -93.875; -591.000; -555.000
409.292;  -95.000; -571.000; -534.000
409.419; -114.275; -665.000; -649.000
409.546;  -86.925; -431.000; -192.000
409.672; -104.450; -713.000; -545.000
409.799;  -41.550;  -36.000;   34.000
409.926;  -46.600; -180.000; -179.000
410.052; -186.350;-1127.000;-1091.000
410.179;  -84.000; -368.000; -392.000
410.305;  -85.875; -375.000; -493.000
410.432;  -38.275; -220.000; -333.000
410.558;  -72.725; -305.000; -380.000
410.685; -115.600; -688.000; -431.000
410.812; -106.400; -409.000; -588.000
410.938; -132.050; -964.000; -808.000
411.065; -108.725; -671.000; -645.000
411.191;  -47.175; -189.000; -174.000
411.317; -136.600; -823.000; -742.000
411.444;  -86.050; -317.000; -246.000
411.570;  -79.400; -339.000; -294.000
411.697; -126.275; -758.000; -752.000
411.823; -172.200; -989.000; -999.000
411.949;  -37.025;  -56.000;   17.000
412.076;  -99.775; -539.000; -519.000
412.202; -126.950; -758.000; -757.000
412.329; -136.175; -798.000; -752.000
412.455; -109.050; -821.000; -657.000
412.581;  -30.050;  -15.000;  172.000
412.707;  -74.275; -540.000; -457.000
412.834;   -2.625;  156.000;  219.000
412.960; -104.700; -785.000; -784.000
413.086; -105.350; -743.000; -701.000
413.212;  101.125;  604.000;  578.000
413.339;  -85.950; -685.000; -701.000
413.465;  -61.075; -364.000; -310.000
413.591;  -84.600; -757.000; -474.000
413.717;  -59.425; -358.000; -366.000
413.843; -137.950; -839.000; -861.000
413.969;  -54.875;  -47.000; -292.000
414.096;  -93.575; -679.000; -679.000
414.222;  -13.825;  -33.000;   85.000
414.348;  -71.700; -652.000; -385.000
414.474;    4.875;   38.000;  -52.000
414.600;   -9.075; -126.000; -144.000
414.726;    1.625;  -96.000;  -55.000
414.852;  -29.925; -365.000; -342.000
414.978;   29.250;  104.000;  -18.000
415.104;   62.875;   38.000;   80.000
415.230;   34.875; -329.000; -330.000
415.356;   65.825; -409.000; -514.000
415.482;  231.000;   13.000;  -35.000
415.608;  414.200; -247.000; -323.000
415.734; 1362.750;   67.000;   38.000
415.860;28060.950; -875.000; -767.000
415.986;23642.150; -685.000; -607.000
416.111; 2217.675; -798.000; -652.000
416.237;  497.525; -424.000; -571.000
416.363; 1690.850; -765.000; -733.000
416.489; 6984.025; -324.000; -251.000
416.615;  989.150; -707.000; -742.000
416.741;   79.125; -677.000; -784.000
416.866;  -56.225; -673.000; -736.000
416.992;  -91.475; -801.000; -818.000
417.118;   -8.550;  -41.000;  -80.000
417.244;  -56.250; -798.000; -531.000
417.369;  -71.925; -801.000; -612.000
417.495;   -3.925; -325.000; -254.000
417.621;  -81.275;-1015.000; -803.000
417.746;   10.375; -579.000; -572.000
417.872;   72.975; -254.000; -144.000
417.998;  130.600; -515.000; -530.000
418.123; 1566.950;-1073.000; -845.000
418.249; 8881.075; -512.000; -601.000
418.374; 1571.850; -916.000; -824.000
418.500;  255.775; -383.000; -482.000
418.626;  194.075;   70.000;  -59.000
418.751;  162.250; -549.000; -448.000
418.877;  326.500; -637.000; -643.000
419.002; 2599.025; -688.000; -560.000
419.128;19964.525; -930.000; -721.000
419.253; 5770.800; -967.000; -837.000
419.379;  796.700; -391.000; -338.000
419.504;  616.375;  325.000;  415.000
419.629;  855.425; -393.000; -212.000
419.755; 5351.275; -317.000; -254.000
419.880;35565.150;  -98.000;   67.000
420.006;18004.975; -280.000; -221.000
420.131;44571.225; -662.000; -775.000
420.256; 7391.075; -315.000; -316.000
420.382; 1006.250; -665.000; -687.000
420.507;  196.600; -649.000; -778.000
420.632;   42.375; -337.000; -339.000
420.758;   59.875; -251.000; -425.000
420.883;  -93.300; -876.000; -672.000
421.008; -110.050; -775.000; -619.000
421.133;  -90.475; -509.000; -467.000
421.259;  -56.875; -325.000; -259.000
421.384; -128.375; -834.000; -693.000
421.509; -111.250;-1052.000; -862.000
421.634;  151.650; -936.000; -820.000
421.759;   73.550; -359.000; -327.000
421.885;  -93.500; -717.000; -656.000
422.010;  -86.100; -673.000; -542.000
422.135; -143.500; -695.000; -727.000
422.260;   13.750;  340.000;  280.000
422.385;  -42.800;   12.000;  -98.000
422.510;   -0.075;  151.000;  -26.000
422.635;  -13.800;  -87.000;  -43.000
422.760;  -26.450; -766.000; -791.000
422.885;   14.025;  -57.000;  -80.000
423.010;  -28.625; -112.000; -169.000
423.135;  -87.250; -481.000; -561.000
423.260;  -39.525; -150.000; -245.000
423.385;    8.175;  476.000;  222.000
423.510;   -3.075;   71.000;  -22.000
423.635;  -15.075;  133.000;   45.000
423.760;   36.125;  383.000;  328.000
423.885;   27.725;  336.000;  391.000
424.010;    9.275;  -68.000;  -13.000
424.135;  -22.950;    5.000;  -33.000
424.259;  -68.725; -654.000; -457.000
424.384;  -54.200; -279.000; -272.000
424.509;  -24.675; -260.000; -186.000
424.634;  -75.425; -761.000; -623.000
424.759;  -22.450; -688.000; -544.000
424.883;   15.675; -506.000; -527.000
425.008;  201.850; -502.000; -410.000
425.133; 2912.125; -679.000; -653.000
425.258; 1635.375; -517.000; -381.000
425.382;  459.875; -867.000; -774.000
425.507; 1031.600; -487.000; -543.000
425.632;  379.125; -802.000; -663.000
425.756;  705.025; -256.000; -146.000
425.881;10054.625; -831.000; -857.000
426.006;31754.000; -604.000; -355.000
426.130; 5376.575; -696.000; -508.000
426.255;  748.175; -611.000; -491.000
426.379;  279.075; -189.000; -577.000
426.504;  514.200;  660.000;  544.000
426.629; 5831.075; -519.000; -466.000
426.753; 4592.250;   64.000;  -46.000
426.878;  572.950; -252.000; -288.000
427.002;  338.750; -651.000; -668.000
427.127; 2131.350;  -35.000; -158.000
427.251;17700.125;  372.000;  401.000
427.375; 5874.475; -191.000; -173.000
427.500; 1238.900; -616.000; -610.000
427.624;  380.425; -234.000; -400.000
427.749;   91.825; -216.000; -225.000
427.873;  -19.150; -499.000; -412.000
427.997;  -34.300; -222.000; -230.000
428.122;   68.650;  795.000;  703.000
428.246;   40.325;  433.000;  434.000
428.371; -140.975; -869.000; -773.000
428.495; -108.300; -624.000; -646.000
428.619;  -38.850; -186.000; -117.000
428.743;   16.025;   65.000;  132.000
428.868;  -60.675; -732.000; -643.000
428.992;  401.200; -219.000; -326.000
429.116;  164.900; -329.000; -357.000
429.240;  117.575;  419.000;  426.000
429.365;  -40.025; -454.000; -574.000
429.489;  -49.825; -638.000; -647.000
429.613;   52.025; -236.000; -177.000
429.737;   84.375; -563.000; -432.000
429.861;  399.125; -247.000; -133.000
429.985; 8008.725; -425.000; -305.000
430.109;10492.750; -770.000; -908.000
430.234; 1325.300;   76.000;  -50.000
430.358;  170.975; -250.000; -160.000
430.482;  -23.250; -672.000; -564.000
430.606;  -47.175; -655.000; -375.000
430.730;  -52.275; -437.000; -388.000
430.854;  -71.300; -909.000; -835.000
430.978;  -78.675; -795.000; -764.000
431.102;  -76.300; -499.000; -422.000
431.226; -105.250; -874.000; -815.000
431.350;   29.250;  345.000;  422.000
431.474;  -89.100; -661.000; -373.000
431.597; -151.350;-1060.000; -848.000
431.721;  -65.000; -276.000; -267.000
431.845; -134.900; -704.000; -472.000
431.969;  -71.500; -304.000; -349.000
432.093;  -87.400; -395.000; -317.000
432.217;  -25.575;   32.000;   82.000
432.341;  -74.175; -523.000; -518.000
432.464;   -8.200;   96.000;   40.000
432.588;  -29.775; -401.000; -329.000
432.712;    7.100;  -52.000;  -52.000
432.836;   65.600;  213.000;  263.000
432.959;   46.725; -372.000; -311.000
433.083;  156.825;   11.000;    2.000
433.207;  589.300;  285.000;  930.000
433.330; 7716.500; -391.000; -200.000
433.454;11012.600; -654.000; -638.000
433.578; 6009.875;  583.000;  278.000
433.701; 1335.700; -623.000; -675.000
433.825;  171.050; -292.000; -299.000
433.949;   62.900;   28.000;  -72.000
434.072;   -6.200; -410.000; -323.000
434.196;    3.400; -309.000; -117.000
434.319; 3562.275;25482.000;25124.000
434.443;  881.550; -656.000; -603.000
434.566; 4230.125;  281.000;   62.000
434.690;  947.400; -637.000; -383.000
434.813;  165.125; -251.000; -173.000
434.937;  -31.875; -569.000; -696.000
435.060;  -66.600; -423.000; -332.000
435.184;  -14.850; -492.000; -217.000
435.307;    7.275;  159.000;  102.000
435.431;  -35.475;  -40.000;   24.000
435.554;  -75.925; -399.000; -240.000
435.677;  -89.350; -350.000; -258.000
435.801;  -39.700;  -25.000;   49.000
435.924;  -45.400;    1.000;  -67.000
436.048; -146.200;-1019.000; -732.000
436.171;  -68.675; -240.000;  -66.000
436.294;  -16.250; -248.000; -229.000
436.417;  229.550; -963.000; -849.000
436.541;  -18.475; -814.000; -840.000
436.664;  -35.675; -242.000; -316.000
436.787;  -25.175;   13.000;  113.000
436.910; -121.700; -792.000; -422.000
437.034;  -17.500;  142.000;  143.000
437.157;   18.250;  -11.000;    0.000
437.280;  -86.000; -392.000; -292.000
437.403; -128.725; -982.000; -869.000
437.526;    1.600; -903.000; -865.000
437.649;  432.900; -505.000; -332.000
437.772;    4.025; -692.000; -540.000
437.896;   53.525;  700.000;  544.000
438.019;  -98.825; -758.000; -503.000
438.142; -102.375; -596.000; -506.000
438.265; -118.650; -639.000; -670.000
438.388;    9.825; -520.000; -410.000
438.511;  -69.300; -597.000; -394.000
438.634;  -70.675; -247.000; -125.000
438.757; -137.275; -693.000; -619.000
438.880;  -47.225;  -34.000;  -57.000
439.003;  -88.075; -417.000; -437.000
439.126;  -60.250; -287.000; -167.000
439.248;  -60.975;  -98.000; -139.000
439.371;  -44.825;    9.000;  -53.000
439.494;   17.850;  510.000;  439.000
439.617;  -54.525;   65.000;  -88.000
439.740; -171.700; -968.000; -816.000
439.863; -135.375; -755.000; -595.000
439.986; -111.325; -476.000; -431.000
440.108;  -46.275; -161.000; -112.000
440.231; -158.825; -950.000; -836.000
440.354;  -54.600;  -64.000; -150.000
440.477; -111.775; -566.000; -542.000
440.599;  -80.975; -200.000; -225.000
440.722; -114.300; -709.000; -586.000
440.845;   48.150;  751.000;  928.000
440.968; -108.850; -415.000; -311.000
441.090;  -62.200; -199.000;  -33.000
441.213; -162.150;-1021.000; -825.000
441.336;  -55.375; -159.000;   -5.000
441.458;  -91.875; -549.000; -396.000
441.581; -125.475; -628.000; -629.000
441.703;  -80.025; -152.000;   13.000
441.826; -116.325; -557.000; -400.000
441.948;  -55.925;   56.000;   51.000
442.071;   28.100;  555.000;  424.000
442.193; -120.325; -531.000; -485.000
442.316;   -6.400;  152.000;   97.000
442.438;   84.500; -233.000;  -10.000
442.561;   76.075;  272.000;  262.000
442.683;   33.125; -809.000; -522.000
442.806;  251.175;   -8.000;   74.000
442.928; -110.075; -859.000; -604.000
443.051;  -75.525; -577.000; -373.000
443.173;  -82.875; -341.000; -339.000
443.295;  -88.550; -263.000; -371.000
443.418;  -89.575; -321.000;  -29.000
443.540;  -53.375; -106.000;   -4.000
443.662; -135.650; -563.000; -465.000
443.785;  -12.750;  335.000;  199.000
443.907; -100.675; -362.000; -208.000
444.029; -128.475; -767.000; -494.000
444.152; -150.350; -644.000; -554.000
444.274;  -42.775;  -18.000;  -24.000
444.396; -114.475; -461.000; -221.000
444.518; -133.700; -691.000; -454.000
444.640;  -97.825; -268.000; -111.000
444.763;  -30.625;  388.000;  249.000
444.885; -109.475; -432.000; -392.000
445.007;  -26.825;   35.000;   86.000
445.129; -129.125; -610.000; -515.000
445.251;  -93.950; -372.000; -439.000
445.373; -134.550; -537.000; -386.000
445.495;   -7.575;  242.000;  350.000
445.617;   35.325;  853.000;  753.000
445.739;  -75.250; -215.000;  -97.000
445.861;  -62.525; -245.000; -112.000
445.984;  -67.025; -267.000; -101.000
446.105;  -31.875; -418.000; -251.000
446.227;   91.900; -176.000;  -19.000
446.349;  -83.025; -358.000; -249.000
446.471; -113.075; -615.000; -448.000
446.593;  -85.475; -316.000;   19.000
446.715;  -59.625;  -67.000;   41.000
446.837;   46.775;  697.000;  832.000
446.959; -123.450; -457.000; -478.000
447.081; -133.225; -628.000; -518.000
447.203;   39.700;  862.000;  834.000
447.325;  -76.275; -270.000;   42.000
447.446;  -10.500;  286.000;  530.000
447.568; -150.700; -921.000; -803.000
447.690; -101.650; -236.000; -245.000
447.812; -131.825; -798.000; -519.000
447.933;  -34.875;  155.000;  127.000
448.055;  -66.550; -306.000; -261.000
448.177;   39.100;   31.000;   79.000
448.299;  -87.950; -935.000; -727.000
448.420;   -7.500;  -25.000;  159.000
448.542;  -60.525;   -3.000;   33.000
448.664;  -30.350;  109.000;  322.000
448.785;  -37.350;  265.000;   83.000
448.907; -104.025; -614.000; -353.000
449.028; -106.375; -771.000; -471.000
449.150;   41.250;  492.000;  589.000
449.272; -177.950;-1044.000; -913.000
449.393;   24.950;  612.000;  694.000
449.515; -138.725; -634.000; -581.000
449.636;  -61.075; -264.000; -155.000
449.758;   45.875;  763.000;  622.000
449.879;  -86.675; -498.000; -396.000
450.001;  -75.750; -149.000;  -49.000
450.122;  -25.425;  -95.000;  162.000
450.244;   -0.825;   37.000;  364.000
450.365;  -64.775; -495.000; -301.000
450.486;   -4.550;   80.000;  268.000
450.608;   54.825;  393.000;  326.000
450.729;   99.475;  578.000;  645.000
450.850;  104.725; -574.000; -466.000
450.972; 1229.400; -552.000; -389.000
451.093; 8099.900;  190.000;  588.000
451.214; 4284.150; -516.000; -337.000
451.336;  746.150;  773.000;  579.000
451.457;  114.275;  264.000;  393.000
451.578;  -10.650; -118.000;  -74.000
451.699;  -92.900; -546.000; -540.000
451.821;  -56.550; -284.000;  -50.000
451.942;   -3.550;  278.000;  285.000
452.063;   56.825;  228.000;  419.000
452.184;  831.550;  -54.000;  -49.000
452.305; 1798.875;  103.000;  170.000
452.427;  354.650; -549.000; -301.000
452.548;   20.950;   23.000;   79.000
452.669;  -66.850; -257.000;  -89.000
452.790;  -54.600;    3.000;  -18.000
452.911;  -26.175;  195.000;  259.000
453.032;  -70.525; -289.000;  -60.000
453.153;  -54.950;  -29.000;   81.000
453.274;   37.950;  737.000;  868.000
453.395;  -63.025;  -51.000;  175.000
453.516;  101.275; 1317.000; 1388.000
453.637;  -92.600; -205.000; -150.000
453.758;  -66.425;   15.000;   69.000
453.879; -104.750; -462.000; -250.000
454.000;   63.850; 1086.000;  948.000
454.121; -120.250; -554.000; -326.000
454.242; -105.550; -599.000; -383.000
454.362;  -47.025;  -99.000;  114.000
454.483;  -13.825; -309.000; -229.000
454.604;   58.775;  512.000;  580.000
454.725; -126.175; -627.000; -555.000
454.846; -112.325; -474.000; -406.000
454.967;  -14.825;  230.000;  539.000
455.087;  -47.450;  179.000;  153.000
455.208;   11.800;  554.000;  856.000
455.329;  -50.850;  -22.000;   82.000
455.450;   51.450;  473.000;  633.000
455.570;  -56.500; -234.000; -211.000
455.691;  -52.725;  201.000;  407.000
455.812;  -99.775; -270.000;  -92.000
455.932;  -55.325;  107.000;  -97.000
456.053;  -86.125;   36.000;   24.000
456.173;  -98.775; -433.000; -355.000
456.294; -117.475; -476.000; -303.000
456.415;  -63.650;  -73.000;   70.000
456.535;  -42.200;  297.000;  273.000
456.656;  -50.200;  132.000;  240.000
456.776;  -57.500;    3.000;  298.000
456.897;    3.700;  308.000;  513.000
457.017;  -59.100; -153.000;   -3.000
457.138; -108.475; -402.000; -249.000
457.258;  -28.100;  263.000;  224.000
457.379;   -8.650;  509.000;  521.000
457.499;  -23.075;  443.000;  432.000
457.620; -117.200; -407.000; -231.000
457.740;  -91.200; -132.000;  -11.000
457.860;  -50.325;   87.000;   44.000
457.981;  -37.700;  132.000;  124.000
458.101;  -75.200;  -89.000;   40.000
458.221;  -18.275;  336.000;  402.000
458.342;  -42.225;   -4.000;  -37.000
458.462;   55.700;  617.000;  352.000
458.582;   26.275; -302.000; -294.000
458.703;   79.175;  303.000;  154.000
458.823;   17.950;   22.000;  163.000
458.943;   50.375;  341.000;  467.000
459.063;   23.275; 1124.000;  192.000
459.183;  -18.450;  328.000;  313.000
459.304;   18.625;  315.000;  517.000
459.424;  -30.975; -246.000;  -89.000
459.544;  481.800;  388.000;  764.000
459.664; 1333.375;  499.000;  506.000
459.784;  548.475; 1004.000; 1175.000
459.904;   75.475;  867.000;  744.000
460.024;   62.350;  867.000;  684.000
460.144;   -0.125;  449.000;  554.000
460.264;  -12.750;  515.000;  327.000
460.385;  -94.875; -145.000; -119.000
460.505;   30.500;  905.000;  858.000
460.625;  -84.525;  -17.000;  -68.000
460.745;  -20.900;  396.000;  541.000
460.864;  -31.875;  153.000;  469.000
460.984;   35.875;  499.000;  573.000
461.104;  137.625; 1656.000; 1775.000
461.224;    3.950;  657.000;  650.000
461.344;  -29.725;  431.000;  360.000
461.464;  -43.950;  258.000;  513.000
461.584;  -39.575;  283.000;  466.000
461.704;  -73.750;   58.000;  108.000
461.824;  -68.175;  238.000;  259.000
461.943;  -44.850;  191.000;  130.000
462.063;  -74.725;    2.000;  324.000
462.183;   20.200;  639.000;  717.000
462.303;   89.925; 1678.000; 1230.000
462.422;   28.900;  781.000;  840.000
462.542;  -33.100;  271.000;  391.000
462.662;   46.675;  353.000;  380.000
462.782;  347.375;  833.000;  572.000
462.901;  774.675;  545.000;  717.000
463.021;  413.600; 1702.000; 1638.000
463.141;   25.325;  337.000;  770.000
463.260;  -18.400;  614.000;  474.000
463.380;    9.025;  902.000;  884.000
463.499;  -39.550;  342.000;  332.000
463.619;  -32.850;  581.000;  559.000
463.738;  112.500; 1644.000;  903.000
463.858;   11.675;  657.000;  811.000
463.978;  -22.825;  542.000;  396.000
464.097;   49.025;  921.000; 1114.000
464.217;  140.400; 1196.000; 1143.000
464.336;  161.975; 1068.000; 1130.000
464.455;    4.000;  328.000;  659.000
464.575;    8.975;  597.000;  602.000
464.694;  109.550; 1204.000; 1179.000
464.814;  154.575; 1190.000; 1138.000
464.933;   76.150; 1095.000; 1027.000
465.052;   99.775; 1412.000; 1054.000
465.172;   80.525;  922.000;  799.000
465.291;  114.250; 1376.000; 1320.000
465.410;    9.350;  462.000;  735.000
465.530;   79.725; 1355.000; 1310.000
465.649;   65.650; 1209.000; 1273.000
465.768;  143.450; 1673.000; 1508.000
465.888;   82.700;  941.000; 1174.000
466.007;   96.225; 1335.000; 1440.000
466.126;    3.250;  721.000;  641.000
466.245;   52.150; 1176.000; 1187.000
466.364;   24.250;  950.000; 1060.000
466.484;   44.925; 1024.000; 1213.000
466.603;   20.300; 1101.000; 1222.000
466.722;  116.425; 1490.000; 1769.000
466.841;   62.550; 1151.000; 1401.000
466.960;   42.500; 1069.000;  972.000
467.079;  146.350; 1971.000; 1786.000
467.198;   48.625; 1238.000; 1181.000
467.317;   81.550; 1768.000; 1162.000
467.436;   62.275; 1709.000; 1261.000
467.555;  131.300; 1796.000; 1746.000
467.674;   64.325; 1227.000; 1329.000
467.793;   39.675; 1376.000; 1374.000
467.912;   91.800; 1658.000; 1539.000
468.031;  137.150; 2038.000; 1930.000
468.150;  134.150; 1842.000; 1837.000
468.269;  194.325; 2313.000; 2090.000
468.388;  183.800; 2168.000; 2339.000
468.507;  253.850; 2884.000; 2903.000
468.626;  234.625; 2555.000; 2541.000
468.744;  126.225; 2018.000; 2174.000
468.863;  209.450; 2312.000; 2523.000
468.982;   90.000; 1503.000; 1555.000
469.101;  212.375; 2788.000; 2692.000
469.220;  167.025; 2333.000; 2176.000
469.338;  238.775; 2935.000; 3051.000
469.457;  215.300; 2719.000; 2545.000
469.576;  344.950; 3953.000; 3784.000
469.695;  247.550; 2877.000; 3066.000
469.813;  409.925; 4148.000; 4192.000
469.932;  425.925; 4255.000; 4485.000
470.051;  431.775; 4075.000; 4161.000
470.169; 1014.800; 4470.000; 4338.000
470.288; 2046.375; 4700.000; 4809.000
470.406; 1212.925; 5059.000; 5194.000
470.525;  700.550; 6101.000; 5787.000
470.644;  654.150; 6847.000; 6794.000
470.762;  809.225; 8397.000; 7873.000
470.881;  903.600; 8651.000; 8464.000
470.999; 1075.450; 9685.000; 9151.000
471.118; 1143.125;11174.000;10711.000

