
Integration time [ms]: 100.000
Averaging Nr. [scans]: 40
Smoothing Nr. [pixels]: 0
Data measured with spectrometer [name]: 2101012U2
Wave   ;Sample   ;Dark     ;Reference
[nm]   ;[counts] ;[counts] ;[counts] 

197.733;   63.525;  516.000;  404.000
197.879;  -80.625; -610.000; -634.000
198.025;  -42.050; -475.000; -420.000
198.171;  -71.975; -602.000; -612.000
198.317;  -33.500; -401.000; -316.000
198.463;  -57.000; -655.000; -404.000
198.609;   40.800;  181.000; -137.000
198.755;  -83.150; -644.000; -410.000
198.901;  -62.475; -505.000; -424.000
199.047;  -77.175; -615.000; -488.000
199.193;  -36.100; -230.000; -468.000
199.339;  -50.575; -222.000; -369.000
199.485;   47.775;  330.000;  271.000
199.631;   14.100;  227.000;  310.000
199.777;  -42.000; -466.000; -398.000
199.923;  -66.225; -610.000; -424.000
200.069;   -0.225; -141.000;  -58.000
200.215;   57.200;  128.000;  453.000
200.361;   46.950;  243.000;  477.000
200.507;  -60.425; -600.000; -373.000
200.653;  -12.600; -371.000; -194.000
200.798;  -25.550; -215.000; -125.000
200.944;   -5.950; -146.000;  -41.000
201.090;   34.575;   61.000;  222.000
201.236;   -2.025; -116.000; -158.000
201.382;  130.475;  874.000;  903.000
201.528;   10.125;  -58.000;  -48.000
201.674;  -56.775; -386.000; -293.000
201.819;  -44.925; -540.000; -439.000
201.965;  -75.425; -699.000; -447.000
202.111;  -20.975; -273.000; -226.000
202.257;  -36.800; -250.000; -238.000
202.402;   17.400;   13.000;  -36.000
202.548;  -33.275; -169.000; -116.000
202.694;   87.150;  410.000; -183.000
202.840;  -71.375; -603.000; -531.000
202.985;  -58.675; -681.000; -639.000
203.131; -112.025; -832.000; -666.000
203.277;  -18.475; -199.000; -262.000
203.423;  -49.025; -434.000; -520.000
203.568;  -38.325; -462.000; -237.000
203.714;  -63.825; -535.000; -542.000
203.860;  -63.550; -682.000; -641.000
204.005;   11.575;  112.000;  167.000
204.151;   98.725;  561.000;  556.000
204.296;  -54.950; -354.000; -221.000
204.442;  -68.225; -600.000; -547.000
204.588;  -72.550; -592.000; -579.000
204.733;   23.850;  178.000;  168.000
204.879; -143.175;-1018.000; -822.000
205.025;   15.800;  -99.000;  126.000
205.170;    4.625;  -17.000;   94.000
205.316;   85.850;  438.000;  661.000
205.461;  -83.850; -698.000; -554.000
205.607;   94.425;  609.000;  665.000
205.752;  -74.225; -626.000; -551.000
205.898;  -53.050; -501.000; -391.000
206.043;  -65.100; -578.000; -506.000
206.189;  -36.050; -243.000; -285.000
206.334;   74.350;  554.000;  606.000
206.480;   89.800;  409.000;  239.000
206.625;  -85.575; -529.000; -552.000
206.771;  -53.750; -451.000; -373.000
206.916;  -28.625; -210.000; -537.000
207.062;  -70.275; -545.000; -591.000
207.207;  -51.975; -546.000; -443.000
207.353;   56.200;  185.000;  460.000
207.498;   20.025;  196.000;   85.000
207.643;  -45.750; -501.000; -370.000
207.789; -138.650;-1069.000; -910.000
207.934;  -97.700; -665.000; -713.000
208.080;  -22.325; -154.000;   66.000
208.225;   -3.100;  -22.000;  -57.000
208.370;  -63.300; -727.000; -619.000
208.516;  -71.475; -741.000; -487.000
208.661;  -28.975; -127.000;  -69.000
208.806;  -15.900; -165.000; -171.000
208.952; -116.450;-1044.000; -731.000
209.097;   74.950;  378.000;  349.000
209.242;  -48.650; -307.000; -382.000
209.387;   81.475;  392.000;  350.000
209.533;  -58.275; -321.000; -350.000
209.678;   85.900;  472.000;  543.000
209.823;  -59.950; -408.000; -310.000
209.969;  -90.350; -860.000; -757.000
210.114; -110.000; -907.000; -719.000
210.259; -121.000; -939.000; -889.000
210.404;  -11.100; -171.000;  103.000
210.549;   10.825;  108.000;    3.000
210.695;  -15.575;   -3.000;  -95.000
210.840;   50.775;   94.000;   67.000
210.985;  -52.975; -484.000; -303.000
211.130;   80.275;  268.000;  406.000
211.275;   11.900;  207.000;  199.000
211.420;  -37.950; -300.000; -289.000
211.566;  -84.125; -536.000; -489.000
211.711;   29.700;  218.000;  157.000
211.856;  -74.900; -545.000; -519.000
212.001;   11.900;  151.000;   44.000
212.146;   26.800;  153.000;   49.000
212.291;  -14.625; -210.000; -186.000
212.436;  -29.075; -280.000;   -6.000
212.581;  -78.575; -685.000; -653.000
212.726;  -81.050; -487.000; -538.000
212.871;  -37.950; -552.000; -217.000
213.016; -143.300;-1172.000;-1029.000
213.161;   67.025;  406.000;  291.000
213.306;  -69.425; -435.000; -577.000
213.451;  -95.250; -778.000; -689.000
213.596;  -34.325; -455.000; -347.000
213.741;  -49.025; -448.000; -538.000
213.886;  -73.950; -498.000; -517.000
214.031;  -23.425; -294.000; -124.000
214.176;  -46.125; -408.000; -341.000
214.321;  -13.350; -296.000; -157.000
214.466;  -19.600; -163.000;  -43.000
214.611;   16.975;  -61.000;  -10.000
214.756; -122.875; -948.000; -858.000
214.901;  -28.500; -388.000; -226.000
215.046; -121.275; -797.000; -825.000
215.191;   23.475;  128.000;   35.000
215.336;  -16.125; -157.000;  -19.000
215.480;  -55.225; -684.000; -505.000
215.625;  -15.850; -175.000;  -19.000
215.770;  -88.325; -757.000; -662.000
215.915;   -0.950;   -5.000;  -97.000
216.060;   -0.125; -113.000;  -21.000
216.205;  -99.850; -731.000; -779.000
216.349;  -65.025; -470.000; -533.000
216.494; -135.750; -939.000; -867.000
216.639; -115.150; -823.000; -888.000
216.784; -102.525; -577.000; -525.000
216.929;   47.250;  392.000;  281.000
217.073;  -10.725; -244.000;  -31.000
217.218;   24.800;   78.000;  -47.000
217.363;  -79.675; -656.000; -618.000
217.507;  -82.000; -623.000; -588.000
217.652; -118.000; -845.000; -874.000
217.797;  -93.200; -708.000; -659.000
217.942; -107.850; -856.000; -720.000
218.086;   84.500;  608.000;  539.000
218.231;  -25.875; -174.000;  -26.000
218.376;  -35.450; -337.000; -229.000
218.520;    4.900;  -41.000;   96.000
218.665;  -28.000; -338.000; -204.000
218.810;  -45.600; -275.000; -233.000
218.954;   20.800;  201.000;   35.000
219.099; -114.200; -713.000; -963.000
219.243;  -69.975; -589.000; -554.000
219.388;  -26.000; -264.000; -136.000
219.532;   -2.725; -116.000; -116.000
219.677;  -83.200; -564.000; -521.000
219.822;   22.650;   33.000;   89.000
219.966;    8.775;   17.000;  -99.000
220.111;  -38.950; -328.000;  -40.000
220.255;  -87.450; -797.000; -750.000
220.400;  -14.925; -180.000; -146.000
220.544;  -68.050; -516.000; -450.000
220.689;  -63.425; -422.000; -451.000
220.833;   -8.325; -123.000;  -58.000
220.978;  -44.575; -393.000; -563.000
221.122;   29.625;  319.000;  307.000
221.267; -108.800; -906.000; -837.000
221.411;  -61.800; -478.000; -394.000
221.555;   12.950; -104.000;  -23.000
221.700;  -43.275; -329.000; -222.000
221.844;   33.425;  255.000;  272.000
221.989;  -48.925; -328.000; -311.000
222.133;  -27.350; -289.000; -307.000
222.277;  -18.125;    5.000;   78.000
222.422;   18.075;  227.000;  113.000
222.566;  -44.275; -381.000; -214.000
222.711;  -60.475; -414.000; -479.000
222.855;  -81.000; -643.000; -586.000
222.999;  -79.200; -642.000; -717.000
223.144;  -24.475; -195.000; -194.000
223.288;   61.050;  423.000;  251.000
223.432;   50.925;  184.000;  230.000
223.576;   25.000;  152.000;  -21.000
223.721;   33.325;  364.000;  273.000
223.865;  -53.575; -472.000; -475.000
224.009;  282.275; 1673.000; 1631.000
224.153;  -79.025; -660.000; -671.000
224.298;  -71.975; -531.000; -489.000
224.442;   -0.725;  -74.000;  -33.000
224.586;   -1.500; -169.000; -106.000
224.730;  -91.575; -858.000; -670.000
224.875; -112.150; -739.000; -688.000
225.019;   17.775;  102.000;  188.000
225.163;   73.950;  208.000;  341.000
225.307;   22.475;   97.000;  -91.000
225.451;   47.025;  360.000;  481.000
225.595;   39.650;  264.000;  176.000
225.739;  -17.300; -170.000;  -94.000
225.884;   -3.250;   86.000;    5.000
226.028; -108.850; -760.000; -626.000
226.172;  -26.225; -260.000; -273.000
226.316; -118.025; -941.000; -902.000
226.460;  -73.300; -645.000; -493.000
226.604;  -55.350; -406.000; -400.000
226.748; -105.425; -836.000; -733.000
226.892;  -32.850; -227.000; -181.000
227.036;  -41.150; -537.000; -447.000
227.180;  -52.900; -551.000; -375.000
227.324;  -52.800; -561.000; -580.000
227.468; -112.325; -819.000; -717.000
227.612;   21.050;  242.000;  -28.000
227.756;  -93.050; -845.000; -698.000
227.900;   64.350;  342.000;  441.000
228.044;  -62.300; -509.000; -290.000
228.188;   70.325;  448.000;  568.000
228.332;  -83.050; -546.000; -472.000
228.476;  -23.375; -223.000; -149.000
228.620;  -33.375; -210.000; -150.000
228.764;   69.200;  431.000;  349.000
228.908;  -17.450; -155.000;   30.000
229.052;  -49.225; -615.000; -528.000
229.195;  -16.125; -172.000;   13.000
229.339;  -22.625; -235.000; -305.000
229.483;  -38.150;    5.000; -162.000
229.627;    7.500; -156.000;  139.000
229.771;  -29.750; -218.000; -294.000
229.915;   11.950;  230.000;   79.000
230.059; -100.125; -648.000; -663.000
230.202;  -34.450; -370.000; -317.000
230.346;  -24.250; -107.000;  107.000
230.490;  -55.200; -489.000; -521.000
230.634; -115.650; -736.000; -553.000
230.777;   79.450;  478.000;  509.000
230.921;  -61.475; -450.000; -359.000
231.065;  -29.275; -246.000; -286.000
231.209;   31.025;  261.000;  265.000
231.352;   28.025;   54.000;   40.000
231.496;   25.925;  568.000;  188.000
231.640;  -83.275; -693.000; -621.000
231.783;   59.875;  546.000;  525.000
231.927;  -37.600; -294.000; -365.000
232.071; -115.250; -962.000; -736.000
232.214; -107.000; -980.000; -764.000
232.358; -105.350; -683.000; -599.000
232.502;    6.675;  -19.000;    7.000
232.645; -151.850;-1090.000; -927.000
232.789;  -22.875; -257.000; -218.000
232.933;  -31.550; -407.000; -224.000
233.076; -117.900;-1038.000; -897.000
233.220; -106.950; -752.000; -777.000
233.363;  -60.000; -669.000; -477.000
233.507;   56.175;  371.000;  129.000
233.650; -103.425; -764.000; -834.000
233.794;   38.375;  438.000;  461.000
233.938;  -50.300; -530.000; -362.000
234.081;  -19.650;  -93.000;   31.000
234.225;  -60.025; -631.000; -539.000
234.368; -118.350; -773.000; -723.000
234.512;  -34.600; -385.000; -299.000
234.655;  -81.175; -582.000; -555.000
234.798;  -55.050; -493.000; -466.000
234.942; -142.725; -884.000;-1002.000
235.085;  -66.525; -651.000; -443.000
235.229;  -73.400; -405.000; -410.000
235.372;  -52.675; -247.000; -191.000
235.516;  -53.625; -397.000; -321.000
235.659;   24.775;   92.000;  121.000
235.802;  -22.625;  -38.000;  -22.000
235.946;   32.275;  335.000;  215.000
236.089;   27.800;  126.000;  250.000
236.233;   49.650;  275.000;  298.000
236.376;  -44.700; -235.000; -378.000
236.519;  -37.850; -297.000; -319.000
236.663;  -22.650; -215.000; -117.000
236.806; -137.075;-1029.000; -999.000
236.949;   80.600;  543.000;  431.000
237.092;   70.675;  412.000;  391.000
237.236;  -75.900; -589.000; -502.000
237.379;   68.350;  352.000;  428.000
237.522; -122.225; -879.000; -768.000
237.666;  -15.700; -271.000;   18.000
237.809; -125.125; -851.000; -823.000
237.952;   38.750;  469.000;  271.000
238.095;  -59.000; -447.000; -442.000
238.238;   85.600;  688.000;  700.000
238.382;   -6.125;  166.000;  103.000
238.525;  -70.850; -598.000; -511.000
238.668; -140.925;-1060.000; -985.000
238.811;  -75.275; -638.000; -643.000
238.954;  -62.575; -483.000; -334.000
239.097;  116.250;  617.000;  664.000
239.241;   14.300;  394.000;  326.000
239.384;  -51.175; -254.000; -214.000
239.527;  -57.250; -424.000; -224.000
239.670; -150.800; -994.000;-1091.000
239.813; -117.775; -696.000; -658.000
239.956;   77.125;  579.000;  473.000
240.099; -114.175; -778.000; -725.000
240.242;   66.075;  428.000;  432.000
240.385;   46.150;  466.000;  450.000
240.528;  -79.100; -706.000; -473.000
240.671;   17.525;  189.000;  134.000
240.814;  -53.300; -441.000; -158.000
240.957;  -93.150; -767.000; -578.000
241.100;  -90.075; -779.000; -755.000
241.243; -150.575;-1234.000; -893.000
241.386;  -59.575; -508.000; -379.000
241.529;  -89.850; -735.000; -547.000
241.672;  -55.800; -566.000; -495.000
241.815; -124.350; -832.000; -808.000
241.958;  -29.850; -125.000; -182.000
242.101;  -84.500; -545.000; -390.000
242.244;  -37.725; -270.000; -325.000
242.387;  -35.050; -304.000; -246.000
242.530;   53.700;  470.000;  134.000
242.673;  -48.225; -381.000; -309.000
242.815; -129.000; -925.000; -899.000
242.958;  -74.975; -482.000; -381.000
243.101;    6.375;  132.000;  187.000
243.244;  -76.400; -564.000; -521.000
243.387;  -37.700; -313.000; -316.000
243.530; -105.200; -657.000; -674.000
243.672;    2.925;   43.000;  -92.000
243.815;  -49.175; -355.000; -283.000
243.958;    7.700;   98.000;  -26.000
244.101;    0.125;   59.000;  -16.000
244.243;  -13.600;  -47.000;  101.000
244.386; -111.200; -761.000; -630.000
244.529;  -12.675; -132.000; -139.000
244.672; -160.200;-1154.000; -951.000
244.814; -105.375; -621.000; -794.000
244.957;  -36.700; -380.000; -304.000
245.100;  -73.750; -489.000; -489.000
245.242;  -64.175; -387.000; -374.000
245.385;   -0.225;  -59.000;  -39.000
245.528; -120.525; -871.000; -705.000
245.670;  104.100;  612.000;  634.000
245.813;  -82.275; -599.000; -547.000
245.956;  -30.250; -324.000; -275.000
246.098;  -78.550; -508.000; -650.000
246.241;   11.100;  194.000;   48.000
246.383;  -27.475; -119.000;  -73.000
246.526;  -80.025; -454.000; -525.000
246.669; -121.300; -889.000; -780.000
246.811;   28.075;  172.000;   -1.000
246.954;  -63.000; -512.000; -426.000
247.096;  -12.600;  -84.000;   -6.000
247.239;  -79.875; -482.000; -445.000
247.381;  -84.325; -647.000; -488.000
247.524;   65.225;  645.000;  679.000
247.666;    4.500;   58.000;   11.000
247.809; -107.475; -887.000; -691.000
247.951;  -22.025;  -75.000;  138.000
248.094;   16.400;  432.000;  308.000
248.236; -158.700;-1262.000;-1238.000
248.378;  -44.775; -356.000;  -81.000
248.521;  -54.275; -334.000; -337.000
248.663;  -42.100; -236.000; -267.000
248.806;  -34.675; -300.000; -266.000
248.948; -128.675; -886.000; -763.000
249.090;  -73.375; -428.000; -398.000
249.233;  -77.475; -344.000; -381.000
249.375;  -66.125; -474.000; -451.000
249.518;  -22.700;  -83.000; -133.000
249.660;  -14.725; -103.000;    3.000
249.802; -183.775;-1303.000;-1189.000
249.945;  -83.500; -612.000; -540.000
250.087; -113.150; -834.000; -768.000
250.229;  -55.450; -362.000; -480.000
250.371;  -64.875; -494.000; -439.000
250.514;  -49.725; -310.000; -244.000
250.656;   -8.950;   69.000;  102.000
250.798; -123.675; -849.000; -800.000
250.940;  -77.775; -322.000; -322.000
251.083;  -27.850; -335.000; -111.000
251.225;   47.075;  338.000;  310.000
251.367;  -42.575; -274.000; -373.000
251.509;  -43.725; -265.000; -210.000
251.651;  -94.525; -731.000; -671.000
251.794;   60.575;  538.000;  632.000
251.936; -106.800; -821.000; -747.000
252.078;  -86.475; -540.000; -461.000
252.220;  -68.575; -645.000; -477.000
252.362;   43.125;  344.000;  462.000
252.504;  -89.950; -677.000; -584.000
252.646; -114.950; -875.000; -722.000
252.788;  -13.200;   14.000; -128.000
252.931;  -45.875; -257.000; -253.000
253.073;  -44.550; -376.000; -317.000
253.215;  -15.550;  141.000;  122.000
253.357;  -19.375;   82.000; -153.000
253.499;  -61.100; -374.000; -234.000
253.641; -100.125; -749.000; -594.000
253.783;  -98.625; -609.000; -527.000
253.925;  -88.550; -586.000; -591.000
254.067; -120.375; -744.000; -667.000
254.209;  -46.450; -391.000; -259.000
254.351; -148.025; -865.000; -883.000
254.493;  -68.250; -441.000; -417.000
254.635; -144.700; -936.000; -818.000
254.777;  -90.400; -752.000; -687.000
254.918;  -70.975; -512.000; -430.000
255.060;  -68.325; -551.000; -395.000
255.202;  -68.025; -473.000; -261.000
255.344;  -82.500; -658.000; -455.000
255.486;  -80.000; -471.000; -406.000
255.628; -109.975; -780.000; -781.000
255.770; -103.400; -676.000; -536.000
255.912;  -58.525; -559.000; -468.000
256.053;  -94.850; -730.000; -508.000
256.195;  155.950; 1008.000;  903.000
256.337; -112.725; -861.000; -595.000
256.479;   61.250;  532.000;  416.000
256.621;  -50.625; -394.000; -212.000
256.762; -102.525; -789.000; -742.000
256.904;   42.475;  485.000;  487.000
257.046;  -37.900; -381.000; -271.000
257.188;  -54.575; -351.000; -264.000
257.329;  -79.725; -525.000; -464.000
257.471; -116.350; -939.000; -807.000
257.613;  -72.475; -584.000; -498.000
257.755; -157.525;-1073.000; -982.000
257.896;   37.775;  286.000;  392.000
258.038;  -81.800; -403.000; -352.000
258.180;  -48.125; -354.000; -279.000
258.321;  -69.050; -581.000; -457.000
258.463;   -6.825;  -71.000;  133.000
258.605; -104.200; -562.000; -570.000
258.746; -123.050; -886.000; -772.000
258.888; -155.525;-1026.000;-1020.000
259.029;   19.025;  121.000;   -8.000
259.171;  -92.400; -614.000; -550.000
259.313;    1.250;  -49.000;  -47.000
259.454;  -75.125; -536.000; -414.000
259.596;  -53.150; -483.000; -390.000
259.737;  -72.400; -590.000; -474.000
259.879;   38.850;  217.000;  311.000
260.020;   92.300;  901.000;  636.000
260.162;  -35.775; -146.000; -253.000
260.303; -125.875; -768.000; -687.000
260.445;  -85.050; -609.000; -613.000
260.586;   14.175;  392.000;  157.000
260.728;  -49.850; -360.000; -248.000
260.869; -122.525; -350.000; -343.000
261.011;   72.125;  706.000;  537.000
261.152;  -81.950; -479.000; -319.000
261.293;  -83.400; -576.000; -595.000
261.435;  -36.300; -219.000; -184.000
261.576;  -59.175; -455.000; -325.000
261.718;   41.650;  420.000;  470.000
261.859; -123.400; -940.000; -949.000
262.000; -146.625; -951.000;-1016.000
262.142;  -16.375;  -52.000;  -60.000
262.283; -123.825; -808.000; -691.000
262.424;  -98.825; -666.000; -625.000
262.566; -153.525;-1161.000; -983.000
262.707; -118.450; -840.000; -830.000
262.848; -109.275; -769.000; -726.000
262.990;  -62.325; -362.000; -345.000
263.131;   73.825;  650.000;  681.000
263.272;   -7.375;  -61.000;  -41.000
263.413;  -95.600; -589.000; -561.000
263.555;  -69.850; -669.000; -143.000
263.696;  -93.625; -550.000; -641.000
263.837;  -61.925; -449.000; -551.000
263.978;  -22.250;   -5.000;  -77.000
264.119;  -56.150; -283.000; -264.000
264.261; -121.775; -847.000; -630.000
264.402;    5.675;   33.000;   40.000
264.543;  -82.400; -509.000; -524.000
264.684;   -8.475;   61.000;  -50.000
264.825;  -83.975; -816.000; -538.000
264.966;  -14.400;  -84.000;  -67.000
265.107; -132.975; -646.000; -670.000
265.248; -114.375; -825.000; -812.000
265.390;  -15.550;  152.000;   -9.000
265.531;  -22.900; -238.000; -107.000
265.672;  -90.975; -557.000; -630.000
265.813;   56.375;  563.000;  439.000
265.954; -147.725; -959.000; -940.000
266.095;  -26.500; -372.000; -322.000
266.236; -105.050; -686.000; -548.000
266.377;  -52.250; -243.000; -297.000
266.518;  -73.700; -619.000; -547.000
266.659;   25.725;  170.000;  268.000
266.800;  -13.775;   83.000;   85.000
266.941;  -83.025; -487.000; -478.000
267.082;   -1.625;  354.000;   99.000
267.223;  -52.275; -344.000; -273.000
267.364; -126.675; -892.000; -686.000
267.504;  -14.525;    3.000;  135.000
267.645;  -16.225;  160.000;   67.000
267.786;  -37.650; -147.000;  -86.000
267.927;  -79.225; -473.000; -379.000
268.068;  -38.000; -186.000;  -61.000
268.209;  -65.725; -175.000; -413.000
268.350;  -63.350; -388.000; -532.000
268.490;  -98.525; -648.000; -521.000
268.631;   30.075;  127.000;  225.000
268.772; -135.825; -874.000; -647.000
268.913;  -46.475; -328.000; -476.000
269.054;  -23.850; -117.000;   12.000
269.194;  -54.425; -418.000; -402.000
269.335; -159.700;-1137.000;-1074.000
269.476;  -19.225;   33.000;  -35.000
269.617;  -74.175; -347.000; -392.000
269.757; -102.325; -713.000; -646.000
269.898; -113.050; -856.000; -613.000
270.039;  -67.875; -415.000; -405.000
270.180; -145.525; -952.000; -816.000
270.320;  -26.050; -190.000; -250.000
270.461;  -58.175; -277.000; -249.000
270.602;  -18.750; -186.000; -156.000
270.742; -132.325; -868.000; -943.000
270.883;  -69.625; -442.000; -390.000
271.023;  -65.775; -358.000; -357.000
271.164;  -74.425; -607.000; -528.000
271.305; -118.050; -666.000; -654.000
271.445;  -99.475; -722.000; -683.000
271.586;  -71.950; -462.000; -283.000
271.726;  -42.400; -397.000; -322.000
271.867;  -93.050; -594.000; -534.000
272.008;  -37.800; -473.000; -285.000
272.148;   43.450;  462.000;  468.000
272.289;  -34.150; -113.000; -181.000
272.429;   -5.750;   19.000;  185.000
272.570; -115.025; -633.000; -737.000
272.710; -124.425; -825.000; -775.000
272.851;  -22.125;  113.000; -130.000
272.991; -182.900;-1173.000;-1077.000
273.131;  -65.150; -419.000; -459.000
273.272; -117.725; -683.000; -723.000
273.412;  -12.500; -143.000;  -31.000
273.553;  -80.125; -488.000; -507.000
273.693;  110.975;  913.000;  858.000
273.834; -143.750; -894.000; -692.000
273.974;  -95.000; -664.000; -615.000
274.114; -115.450; -772.000; -560.000
274.255;   45.000;  414.000;  373.000
274.395;  -39.850; -180.000; -125.000
274.535;   14.700;  199.000;  350.000
274.676;   14.050;  225.000;   94.000
274.816;   -2.200;  110.000;   34.000
274.956;  -99.950; -624.000; -690.000
275.097; -140.650;-1014.000; -922.000
275.237; -153.025; -913.000; -803.000
275.377; -113.000; -778.000; -689.000
275.517; -158.925; -878.000; -937.000
275.658;  -79.125; -590.000; -555.000
275.798; -102.750; -606.000; -413.000
275.938;   12.425;  215.000;  323.000
276.078;  -93.050; -626.000; -395.000
276.218;   -8.425;   99.000;  104.000
276.359; -153.525;-1026.000;-1024.000
276.499;  -83.200; -605.000; -446.000
276.639;  -36.350; -305.000; -151.000
276.779;  -57.850; -475.000; -357.000
276.919; -114.425; -783.000; -624.000
277.059;  -32.975; -261.000; -212.000
277.199;  -53.850; -357.000; -259.000
277.340;   28.050;  287.000;  175.000
277.480; -122.825; -840.000; -693.000
277.620;   22.000;  192.000;   16.000
277.760; -226.075;-1533.000;-1294.000
277.900;    1.350;  113.000;   33.000
278.040;  -10.625;  137.000;  159.000
278.180;    8.150;  270.000;  170.000
278.320;  -15.000;   21.000;   56.000
278.460;  -65.950; -443.000; -469.000
278.600;  -91.500; -708.000; -598.000
278.740;   45.500;  448.000;  224.000
278.880; -138.075; -768.000; -791.000
279.020;  -42.650; -194.000; -144.000
279.160; -104.800; -672.000; -595.000
279.300; -123.575; -926.000; -873.000
279.440; -107.625; -709.000; -622.000
279.579; -132.500;-1014.000; -929.000
279.719;  -82.850; -410.000; -394.000
279.859;   24.325;   -4.000;   41.000
279.999;  -44.400; -208.000;  101.000
280.139;  -72.775; -435.000; -387.000
280.279; -120.075; -708.000; -745.000
280.419;  -17.325; -229.000; -147.000
280.559;  -63.575; -259.000; -180.000
280.698;  -96.400; -790.000; -639.000
280.838; -124.150; -778.000; -800.000
280.978; -100.825; -846.000; -790.000
281.118; -127.350; -811.000; -704.000
281.257;    1.375;   24.000;    6.000
281.397; -167.325;-1094.000; -960.000
281.537; -108.725; -599.000; -712.000
281.677;  -29.575; -150.000; -101.000
281.816;  -93.600; -700.000; -630.000
281.956;  -49.450; -193.000; -257.000
282.096;  -76.050; -539.000; -396.000
282.235; -119.925; -672.000; -638.000
282.375;  -38.750; -243.000;  -98.000
282.515; -119.700; -715.000; -707.000
282.654;    1.650;   29.000;  106.000
282.794;   28.050;  388.000;  244.000
282.934;  -58.850; -530.000; -491.000
283.073; -150.775;-1030.000; -857.000
283.213;  -65.925; -460.000; -467.000
283.353;  -77.575; -408.000; -349.000
283.492;  -36.175; -264.000; -296.000
283.632;  -49.325; -254.000; -168.000
283.771; -115.175; -859.000; -730.000
283.911;  -65.850; -369.000; -260.000
284.050; -119.050; -794.000; -748.000
284.190; -182.225;-1229.000;-1096.000
284.329; -143.325;-1055.000; -964.000
284.469; -119.975; -516.000; -591.000
284.608;  -73.675; -559.000; -598.000
284.748;  -88.625; -614.000; -570.000
284.887;  -15.225;  -87.000;  -20.000
285.027; -140.100; -844.000; -892.000
285.166;  -49.375; -192.000; -249.000
285.306;  -51.000; -116.000;  -33.000
285.445;  -49.400; -229.000; -343.000
285.584; -112.075; -630.000; -494.000
285.724;  -49.075; -282.000; -322.000
285.863; -115.325; -857.000; -507.000
286.002;  -70.800; -366.000; -276.000
286.142; -104.250; -715.000; -622.000
286.281;  -78.025; -525.000; -493.000
286.420;  -97.000; -554.000; -417.000
286.560;   68.350;  653.000;  623.000
286.699; -148.175; -958.000; -912.000
286.838;  -96.600; -590.000; -591.000
286.978;  -96.100; -533.000; -537.000
287.117; -140.975;-1085.000; -950.000
287.256;  -49.325; -228.000; -211.000
287.395;  -45.275; -197.000; -378.000
287.535;  -66.000; -370.000; -298.000
287.674;  -82.050; -509.000; -484.000
287.813;   52.075;  661.000;  533.000
287.952; -148.700;-1010.000; -871.000
288.091; -163.000;-1049.000; -915.000
288.231;  -17.750;   13.000;   15.000
288.370; -190.400;-1217.000;-1200.000
288.509; -103.750; -728.000; -645.000
288.648;  -96.725; -770.000; -548.000
288.787;  -44.175; -243.000;  -87.000
288.926;  -80.100; -454.000; -475.000
289.065;  104.325;  859.000;  672.000
289.204;  -75.300; -377.000; -217.000
289.344; -109.200; -791.000; -690.000
289.483;    1.825;  416.000;  304.000
289.622;  -38.850; -291.000; -149.000
289.761;  -28.075; -309.000; -166.000
289.900; -126.800; -785.000; -626.000
290.039;  -26.225;  -12.000;  -95.000
290.178;  -46.950; -274.000; -180.000
290.317;  -94.050; -618.000; -479.000
290.456;  -66.625; -463.000; -451.000
290.595; -146.900; -961.000; -833.000
290.734; -155.075; -904.000; -891.000
290.873;  -85.375; -456.000; -420.000
291.011; -128.650; -833.000; -843.000
291.150; -130.625; -770.000; -682.000
291.289;  -33.025; -343.000; -110.000
291.428; -112.275; -599.000; -480.000
291.567;  -59.900; -370.000; -442.000
291.706;  -31.700;  109.000;  154.000
291.845; -112.875; -597.000; -505.000
291.984; -192.575;-1234.000;-1061.000
292.122;   78.550;  602.000;  582.000
292.261;   21.700;  620.000;  463.000
292.400;   -8.450; -144.000;  211.000
292.539; -143.225; -959.000; -813.000
292.678;  -45.450; -325.000; -300.000
292.816; -176.950;-1136.000; -965.000
292.955; -114.075; -844.000; -684.000
293.094;  -36.850; -173.000; -337.000
293.233;  -58.075; -556.000; -400.000
293.371;  -49.925; -225.000;  -84.000
293.510; -117.600; -866.000; -780.000
293.649; -155.175; -959.000; -924.000
293.787; -158.575;-1083.000;-1012.000
293.926;  -31.025; -113.000;  -32.000
294.065;  -61.300; -379.000; -290.000
294.203;   21.125;  298.000;  406.000
294.342;    0.100;   74.000;  156.000
294.481; 6681.500;51180.000; -836.000
294.619;  -39.925; -425.000; -582.000
294.758; -184.150;-1230.000;-1137.000
294.896;  -16.850; -125.000;    5.000
295.035; -171.400;-1040.000;-1006.000
295.174; -143.550;-1082.000; -954.000
295.312;  -74.050; -323.000; -203.000
295.451;  -66.175; -307.000; -428.000
295.589;  -94.300; -389.000; -518.000
295.728;    4.150; -292.000; -165.000
295.866;  -28.025;  -36.000;  -51.000
296.005;  -76.750; -584.000; -341.000
296.143;  -90.625; -558.000; -596.000
296.282; -120.025; -957.000; -881.000
296.420; -100.175; -657.000; -557.000
296.559; -120.500; -892.000; -633.000
296.697; -116.275; -847.000; -665.000
296.835; -160.850;-1141.000;-1002.000
296.974;   -4.350;  -23.000;   39.000
297.112;  -79.825; -443.000; -504.000
297.251; -120.275; -815.000; -755.000
297.389;  -78.025; -576.000; -438.000
297.527;  -43.625; -145.000;  -83.000
297.666;  -85.800; -486.000; -438.000
297.804;  -85.125; -404.000; -264.000
297.942;  -15.850; -136.000; -161.000
298.081;  -30.350; -183.000;   63.000
298.219;  -20.300;  -17.000;  -19.000
298.357;  -57.925; -144.000;  -71.000
298.495; -131.575; -810.000; -812.000
298.634;   -9.525;  245.000;  219.000
298.772;  -53.250; -220.000; -338.000
298.910;  -66.075; -309.000; -182.000
299.048;  -34.250; -130.000; -153.000
299.187;  -55.300; -350.000; -250.000
299.325;   -8.750;   52.000;  122.000
299.463;  -66.450; -389.000; -299.000
299.601;  -45.025; -327.000; -271.000
299.739; -141.275; -908.000; -883.000
299.877; -112.475; -791.000; -703.000
300.016; -175.325;-1095.000; -935.000
300.154;  -24.350;  -19.000; -161.000
300.292;  -82.250; -428.000; -348.000
300.430;  -69.775; -408.000; -291.000
300.568; -142.375; -940.000; -874.000
300.706;  -77.475; -366.000; -469.000
300.844; -174.575;-1108.000; -979.000
300.982;   38.125;  246.000;  282.000
301.120; -165.225; -965.000; -866.000
301.258; -124.825; -812.000; -705.000
301.396;   -9.050;  104.000;  -41.000
301.534;  -40.075; -218.000; -293.000
301.672; -109.450; -664.000; -521.000
301.810;  -96.725; -613.000; -545.000
301.948;  -20.125;   53.000;  149.000
302.086;  -41.725; -250.000;  -32.000
302.224; -111.275; -610.000; -585.000
302.362; -103.875; -558.000; -622.000
302.500; -150.525; -923.000; -893.000
302.638;    3.175;  128.000;  245.000
302.776;  -62.200; -352.000; -408.000
302.913;   36.875;  447.000;  236.000
303.051;  -52.825;  -86.000;  -23.000
303.189;   -2.025;   90.000;  118.000
303.327;  -66.900; -341.000; -256.000
303.465; -124.900; -832.000; -588.000
303.603; -126.250; -805.000; -604.000
303.740;   25.675;  417.000;  241.000
303.878; -132.875; -800.000; -759.000
304.016; -125.000; -915.000; -790.000
304.154; -184.725;-1123.000;-1152.000
304.291;  -78.500; -505.000; -554.000
304.429;  -14.050;  102.000;   74.000
304.567; -153.200; -908.000; -893.000
304.705;  -83.250; -408.000; -515.000
304.842; -100.375; -616.000; -540.000
304.980;  -13.125;  215.000;   35.000
305.118;  -58.125; -367.000; -365.000
305.255; -150.525; -945.000; -927.000
305.393;   28.300;  178.000;  239.000
305.531; -166.625;-1173.000; -956.000
305.668;  -95.550; -663.000; -582.000
305.806;  -76.600; -358.000; -439.000
305.943; -102.650; -629.000; -637.000
306.081;  -76.475; -378.000; -267.000
306.219; -125.675; -863.000; -748.000
306.356;   -9.900;  158.000;   27.000
306.494;  103.475;  981.000;  761.000
306.631;  -25.600;  -11.000;  -55.000
306.769;  -76.175; -613.000; -485.000
306.906;  -82.750; -284.000; -258.000
307.044;  -76.950; -473.000; -488.000
307.181;  -79.475; -410.000; -332.000
307.319;   -2.825;  112.000;   87.000
307.456; -193.825;-1191.000;-1153.000
307.594; -132.525; -980.000; -727.000
307.731;  -48.825; -371.000; -164.000
307.868;   -7.225;  -15.000;   20.000
308.006; -152.650; -961.000; -847.000
308.143;  -98.525; -618.000; -330.000
308.281;  -38.175;  -37.000; -254.000
308.418;  -98.575; -748.000; -640.000
308.555; -102.075; -400.000; -250.000
308.693; -100.325; -577.000; -573.000
308.830; -140.325; -712.000; -657.000
308.967;  -25.875; -215.000;  -95.000
309.105;  -80.000; -507.000; -396.000
309.242;  -67.525; -468.000; -367.000
309.379; -120.025; -577.000; -655.000
309.517; -146.250; -936.000; -948.000
309.654; -133.450; -910.000; -734.000
309.791; -101.225; -662.000; -580.000
309.928; -150.350; -977.000; -914.000
310.065;   72.550;  819.000;  697.000
310.203; -147.825; -825.000; -850.000
310.340;  -90.475; -465.000; -321.000
310.477; -104.800; -412.000; -516.000
310.614;  -84.700; -383.000; -473.000
310.751; -104.025; -427.000; -518.000
310.889;  -47.250;    1.000;   11.000
311.026; -174.350;-1161.000; -939.000
311.163;  -66.650; -386.000; -380.000
311.300;  -99.175; -512.000; -479.000
311.437;  -91.525; -658.000; -619.000
311.574; -184.475;-1226.000; -985.000
311.711;  -84.850; -595.000; -433.000
311.848;  -67.325; -380.000; -388.000
311.985;  -13.850;  270.000;   93.000
312.122; -153.350; -932.000; -762.000
312.259; -143.950; -941.000; -994.000
312.396; -117.525; -508.000; -551.000
312.533; -117.600; -812.000; -790.000
312.670; -179.600;-1070.000; -898.000
312.807;  -56.950; -352.000; -367.000
312.944; -102.725; -513.000; -611.000
313.081;  -71.150; -150.000; -415.000
313.218; -148.025;-1111.000; -867.000
313.355;  -83.275; -531.000; -449.000
313.492;  -69.825; -455.000; -292.000
313.629;   87.975;  815.000;  735.000
313.766; -194.325;-1176.000;-1008.000
313.902;  -24.600; -186.000;   21.000
314.039;  -81.125; -372.000; -289.000
314.176;   22.975;  286.000;  192.000
314.313; -101.750; -569.000; -473.000
314.450; -118.325; -788.000; -684.000
314.587;  -92.050; -468.000; -480.000
314.723;  -21.575;  -78.000;  130.000
314.860;    3.825;  318.000;  332.000
314.997;   16.325;  223.000;  142.000
315.134;  -83.325; -385.000; -368.000
315.270;  -84.525; -480.000; -496.000
315.407; -181.750;-1094.000; -967.000
315.544;  -98.700; -657.000; -538.000
315.681; -129.175; -681.000; -565.000
315.817;  -41.875; -133.000; -176.000
315.954; -115.400; -613.000; -392.000
316.091; -165.600;-1045.000;-1023.000
316.227;  -41.200;  -71.000; -179.000
316.364;  -23.650;   23.000;    6.000
316.500;  -75.550; -113.000; -300.000
316.637;  -49.800; -181.000; -302.000
316.774; -111.075; -625.000; -358.000
316.910;  -95.775; -598.000; -629.000
317.047; -104.575; -487.000; -351.000
317.183; -100.600; -435.000; -566.000
317.320;  -80.425; -367.000; -321.000
317.456; -132.100; -733.000; -805.000
317.593; -119.250; -598.000; -641.000
317.729;   -3.625;  168.000;  -67.000
317.866; -224.525;-1434.000;-1285.000
318.002; -106.225; -708.000; -948.000
318.139; -158.975; -883.000; -867.000
318.275; -126.650;-1003.000; -738.000
318.412; -103.150; -517.000; -336.000
318.548; -110.925; -751.000; -720.000
318.685; -157.925; -985.000; -888.000
318.821; -127.525; -762.000; -735.000
318.957;  -36.925;   34.000;  -23.000
319.094;    7.125;  297.000;  154.000
319.230; -141.750; -756.000; -742.000
319.367;  -85.900; -471.000; -520.000
319.503;  -87.875; -538.000; -436.000
319.639; -133.500; -877.000; -793.000
319.775; -138.100; -750.000; -685.000
319.912;  -70.175; -424.000; -519.000
320.048; -180.250;-1184.000;-1184.000
320.184;   -9.375;   59.000;   70.000
320.321;  -89.525; -497.000; -467.000
320.457;   50.375;  475.000;  662.000
320.593;  -88.925; -375.000; -382.000
320.729; -122.100; -732.000; -734.000
320.866; -105.150; -577.000; -635.000
321.002; -119.125; -759.000; -809.000
321.138;  -64.425; -135.000; -211.000
321.274;  -23.425; -148.000; -115.000
321.410; -109.300; -585.000; -353.000
321.546; -162.100;-1011.000; -911.000
321.683;    1.300;  400.000;  185.000
321.819;  -37.725;  -48.000; -117.000
321.955; -140.575; -743.000; -722.000
322.091;  -88.350; -585.000; -540.000
322.227;  -59.050; -382.000; -202.000
322.363;  -67.425; -320.000; -215.000
322.499;  -67.475; -343.000; -331.000
322.635;   44.650;  636.000;  443.000
322.771;  -27.425; -139.000;   12.000
322.907;   22.800;  129.000;  327.000
323.043;  -75.475; -115.000; -206.000
323.179;  -76.475; -394.000; -363.000
323.315;  -93.575; -401.000; -371.000
323.451;  -58.675; -328.000; -236.000
323.587;  -46.125;  -60.000;  -77.000
323.723; -108.975; -682.000; -601.000
323.859;  -39.950; -258.000;  -76.000
323.995;  -75.400; -467.000; -409.000
324.131; -157.300; -967.000; -892.000
324.267;  -57.525; -254.000; -276.000
324.402; -161.650; -960.000; -983.000
324.538;  -51.325; -279.000; -104.000
324.674;  -11.500;  164.000;   77.000
324.810;   -2.125;  226.000;  308.000
324.946;  -82.100; -810.000; -658.000
325.082;  -82.700; -568.000; -475.000
325.217;  -37.400;  -62.000;   16.000
325.353; -117.550; -764.000; -659.000
325.489; -112.050; -540.000; -506.000
325.625;  -84.450; -579.000; -525.000
325.760;    5.725;  517.000;  376.000
325.896;  -99.225; -515.000; -702.000
326.032;  -80.350; -403.000; -352.000
326.168;  -80.900; -462.000; -369.000
326.303;  -87.950; -352.000; -461.000
326.439;  -43.250; -336.000; -276.000
326.575;  -51.225; -190.000;  -29.000
326.710;  -42.100; -156.000;  -30.000
326.846;  -26.900;  146.000;  103.000
326.982; -104.325; -530.000; -548.000
327.117; -104.550; -481.000; -442.000
327.253; -116.725; -745.000; -742.000
327.388; -215.625;-1137.000;-1153.000
327.524; -106.925; -811.000; -578.000
327.659;  -50.500;  -58.000;  -22.000
327.795;  -23.825;   69.000;   45.000
327.931; -111.150; -723.000; -499.000
328.066;  -60.750; -417.000; -276.000
328.202;  -60.600;   12.000; -129.000
328.337;   90.450;  957.000;  713.000
328.473;   30.475;  -12.000;  -74.000
328.608;  -49.250; -256.000; -267.000
328.743; -139.450; -799.000; -664.000
328.879;   -1.525;  214.000;  114.000
329.014;  -66.675; -102.000; -122.000
329.150;  -98.375; -358.000; -483.000
329.285; -101.900; -465.000; -466.000
329.421;  -52.700; -548.000; -246.000
329.556;  -17.050;  -36.000;   85.000
329.691; -108.950; -633.000; -615.000
329.827; -101.875; -626.000; -480.000
329.962;  -58.600;  131.000; -301.000
330.097; -115.275; -673.000; -585.000
330.233;  -67.825; -410.000; -223.000
330.368; -136.575; -839.000; -628.000
330.503;  -24.225;    3.000;   98.000
330.638;  -46.050;  -93.000; -125.000
330.774; -102.350; -609.000; -530.000
330.909;  -85.300; -434.000; -244.000
331.044; -113.650; -714.000; -708.000
331.179; -187.200;-1217.000;-1109.000
331.315;    1.400;   77.000;   20.000
331.450;  -17.100;  157.000;  285.000
331.585; -118.500; -805.000; -706.000
331.720; -107.725; -510.000; -460.000
331.855;  -33.350;  -35.000; -102.000
331.990;  -33.400;   62.000;  138.000
332.126;  -13.525; -110.000;   71.000
332.261;  -78.200; -379.000; -265.000
332.396;  -56.375; -135.000; -242.000
332.531; -178.300;-1074.000;-1031.000
332.666;  -77.200; -519.000; -363.000
332.801; -139.650; -726.000; -807.000
332.936;  -39.150; -192.000; -122.000
333.071; -173.050; -870.000; -817.000
333.206;    0.550;  307.000;  379.000
333.341;   11.500;  344.000;  418.000
333.476; -100.050; -627.000; -623.000
333.611;  -60.550; -251.000; -173.000
333.746;  -73.275; -381.000; -464.000
333.881; -156.450; -973.000; -935.000
334.016; -147.150; -936.000; -917.000
334.151; -142.825; -746.000; -702.000
334.286;  -11.750;  152.000;  186.000
334.421;  -55.875; -125.000; -178.000
334.556; -110.150; -611.000; -567.000
334.690; -105.950; -631.000; -577.000
334.825;   33.050;  381.000;   83.000
334.960;  -92.825; -285.000; -413.000
335.095;   -5.100;  135.000;  -91.000
335.230; -146.275; -722.000; -738.000
335.365; -161.425;-1084.000; -990.000
335.499; -182.250;-1108.000;-1037.000
335.634;  -13.750;    9.000;  534.000
335.769; -142.900; -755.000; -720.000
335.904; -109.650; -603.000; -561.000
336.038; -139.625; -735.000; -657.000
336.173; -195.750;-1206.000;-1194.000
336.308;  -62.375; -116.000; -189.000
336.443;  -91.450; -544.000; -634.000
336.577; -148.325; -936.000; -787.000
336.712;  -21.775;   -4.000;  -12.000
336.847; -132.425; -724.000; -607.000
336.981;  -58.150; -272.000; -208.000
337.116;   23.425;  615.000;  501.000
337.250;  -81.550; -434.000; -421.000
337.385;  -87.200; -297.000; -208.000
337.520; -109.475; -632.000; -603.000
337.654;  -80.375; -215.000; -126.000
337.789; -145.525; -989.000; -933.000
337.923;  -50.600; -104.000; -205.000
338.058; -125.800; -673.000; -738.000
338.192; -114.150; -611.000; -488.000
338.327;  -47.550;  -18.000; -155.000
338.461; -110.275; -299.000; -469.000
338.596; -117.525; -780.000; -638.000
338.730; -146.750; -767.000; -803.000
338.865;  -22.300;  -46.000; -140.000
338.999; -150.800; -846.000; -702.000
339.134; -100.850; -634.000; -536.000
339.268; -130.300; -741.000; -603.000
339.403; -120.775; -740.000; -775.000
339.537; -149.200; -894.000; -820.000
339.671; -148.250; -829.000; -813.000
339.806; -113.150; -556.000; -512.000
339.940;  -52.025; -261.000; -235.000
340.074; -116.075; -685.000; -510.000
340.209;  -59.525; -351.000; -230.000
340.343; -114.975; -517.000; -573.000
340.477;  123.900;  998.000; 1036.000
340.612; -161.450;-1033.000; -900.000
340.746;  -70.825; -199.000; -243.000
340.880; -152.300; -924.000; -785.000
341.014;  -35.775;  -45.000; -154.000
341.149; -132.500; -756.000; -718.000
341.283; -134.900; -839.000; -754.000
341.417; -184.850;-1124.000; -938.000
341.551; -111.175; -768.000; -708.000
341.685; -116.125; -633.000; -611.000
341.820; -117.575; -562.000; -493.000
341.954;  -86.150; -218.000; -349.000
342.088; -168.550;-1102.000;-1019.000
342.222;   30.075;  565.000;  618.000
342.356;  -97.975; -395.000; -335.000
342.490; -156.325; -880.000; -841.000
342.624;  -73.850; -339.000; -242.000
342.758;  -76.900; -364.000; -312.000
342.892; -113.325; -710.000; -585.000
343.026;  -57.500;  -58.000; -116.000
343.160;  -65.175; -426.000; -376.000
343.294;  -88.775; -474.000; -337.000
343.428;  -98.575; -488.000; -448.000
343.562;  -62.150; -172.000;  -23.000
343.696;  -68.800; -385.000; -314.000
343.830;  -83.625; -362.000; -356.000
343.964;  -49.475; -231.000; -168.000
344.098;  -35.150;  199.000;   70.000
344.232;  -68.650; -266.000; -127.000
344.366; -124.000; -567.000; -453.000
344.500; -110.675; -665.000; -744.000
344.634;  -68.850; -324.000; -164.000
344.768;  -91.025; -531.000; -341.000
344.902;  -10.050;  278.000;  256.000
345.035;  -75.325; -556.000; -496.000
345.169; -172.525; -933.000; -656.000
345.303;  -72.275; -308.000; -482.000
345.437; -152.950; -826.000; -717.000
345.571; -113.425; -675.000; -594.000
345.704; -100.500; -309.000; -532.000
345.838;  -60.600; -331.000; -284.000
345.972; -110.925; -543.000; -495.000
346.106;  -27.625; -179.000; -190.000
346.239;  -62.825; -312.000; -243.000
346.373;  -82.275; -343.000; -302.000
346.507; -194.400; -950.000; -962.000
346.640;  -37.825;  -30.000;   13.000
346.774; -122.375; -650.000; -797.000
346.908;  -30.075; -138.000;  -11.000
347.041; -130.875; -646.000; -593.000
347.175;  -25.275;  259.000;   27.000
347.309; -130.100; -698.000; -628.000
347.442; -137.175; -883.000; -732.000
347.576;   59.725;  670.000;  668.000
347.709;  -34.375; -123.000;  -52.000
347.843; -164.200; -933.000; -825.000
347.976;   10.025;  235.000;  294.000
348.110; -197.975;-1268.000;-1186.000
348.243; -126.875; -679.000; -772.000
348.377;  -39.500;  -26.000;   60.000
348.510;   23.900;  403.000;  540.000
348.644;  -66.150;  -37.000; -159.000
348.777;  -18.800;  180.000;  191.000
348.911;  -71.225; -142.000; -112.000
349.044;   32.625;  471.000;  448.000
349.178; -196.700;-1069.000;-1006.000
349.311;    9.000;  141.000;  255.000
349.444; -155.200; -927.000; -813.000
349.578;  -69.550; -347.000; -200.000
349.711; -161.025; -959.000; -862.000
349.845; -115.225; -661.000; -591.000
349.978; -214.525;-1224.000;-1137.000
350.111; -114.900; -546.000; -612.000
350.244; -129.900; -596.000; -700.000
350.378;  -94.350; -392.000; -393.000
350.511;  -95.825; -393.000; -426.000
350.644; -133.625; -808.000; -806.000
350.778;  -35.800;  168.000;  104.000
350.911;  -14.400;  134.000;  140.000
351.044; -120.675; -685.000; -615.000
351.177;  -70.425; -321.000; -281.000
351.310;  -52.650;    3.000; -131.000
351.444; -147.925; -888.000; -788.000
351.577;  -27.100;  140.000;   90.000
351.710;   55.350;  593.000;  417.000
351.843;  -41.050; -165.000;  -77.000
351.976;  -31.875;  149.000;  -79.000
352.109; -128.625; -621.000; -612.000
352.242;  -83.175; -464.000; -419.000
352.376; -130.600; -580.000; -636.000
352.509;  -92.450; -437.000; -356.000
352.642; -191.850; -654.000; -604.000
352.775;  -48.475; -141.000;  -98.000
352.908; -153.700; -933.000; -904.000
353.041; -142.125; -814.000; -824.000
353.174; -107.750; -551.000; -424.000
353.307; -123.075; -753.000; -764.000
353.440;   30.850;  541.000;  453.000
353.573; -155.125; -957.000;-1008.000
353.706; -101.175; -384.000; -558.000
353.839;  -69.425; -264.000; -220.000
353.971; -115.925; -657.000; -512.000
354.104; -156.975; -896.000; -835.000
354.237; -136.525; -627.000; -662.000
354.370; -118.250; -846.000; -879.000
354.503; -220.050;-1231.000;-1308.000
354.636;  -57.700; -529.000; -348.000
354.769; -174.550; -937.000; -860.000
354.902;  -64.325; -230.000; -139.000
355.034;  -59.200; -164.000; -220.000
355.167;  -61.625; -262.000; -162.000
355.300; -176.800;-1061.000; -880.000
355.433;  -30.575;  -71.000;  -14.000
355.565;  -99.450; -402.000; -384.000
355.698;  -80.675; -356.000; -296.000
355.831; -151.525; -882.000; -801.000
355.964;  -51.525; -285.000; -170.000
356.096; -161.500; -856.000; -843.000
356.229; -107.625; -523.000; -530.000
356.362;  -70.900; -373.000; -266.000
356.494;  -52.375; -229.000; -162.000
356.627;  -18.575;  269.000;  377.000
356.760;  -12.975;  120.000;   53.000
356.892; -114.225; -286.000; -601.000
357.025;   26.550;  403.000;  389.000
357.157;  -61.525; -167.000; -179.000
357.290; -137.575; -856.000; -713.000
357.423; -130.250; -667.000; -556.000
357.555;  -48.325; -217.000; -228.000
357.688; -114.475; -483.000; -364.000
357.820; -160.825; -870.000; -877.000
357.953; -114.175; -563.000; -589.000
358.085; -127.325; -632.000; -612.000
358.218; -180.050;-1131.000; -932.000
358.350;  -31.575;  -58.000;  312.000
358.483; -205.100;-1300.000;-1187.000
358.615; -165.825;-1182.000;-1078.000
358.747; -203.975;-1187.000;-1058.000
358.880; -125.775; -810.000; -744.000
359.012;  -88.100; -376.000; -202.000
359.145;  -98.400; -480.000; -511.000
359.277; -177.500; -962.000; -913.000
359.409;   24.875;  536.000;  231.000
359.542; -158.875; -738.000; -688.000
359.674;  -33.375;   46.000;   13.000
359.806; -108.575; -565.000; -438.000
359.939; -109.825; -617.000; -516.000
360.071; -130.775; -583.000; -579.000
360.203;  -73.250; -411.000; -364.000
360.335;  -37.125;  164.000;  -16.000
360.468;  -65.800; -249.000; -307.000
360.600; -117.825; -547.000; -454.000
360.732; -107.175; -546.000; -423.000
360.864; -186.725;-1216.000;-1044.000
360.996;  -92.300; -516.000; -554.000
361.129; -111.200; -389.000; -598.000
361.261;  -43.500;  110.000; -113.000
361.393;  -73.850; -252.000; -214.000
361.525;  -18.025;   94.000;  244.000
361.657; -159.075; -821.000; -703.000
361.789;  -58.225; -139.000; -155.000
361.921; -118.650; -642.000; -593.000
362.053;   43.325;  524.000;  541.000
362.185;  -30.700;  288.000;   72.000
362.318; -126.775; -709.000; -705.000
362.450;   11.800;  294.000;  444.000
362.582; -147.925; -913.000; -870.000
362.714;  -93.475; -353.000; -332.000
362.846; -105.600; -606.000; -490.000
362.978; -172.475; -941.000; -811.000
363.109;  -69.125; -161.000; -260.000
363.241; -146.925; -739.000; -749.000
363.373; -115.125; -649.000; -564.000
363.505;  -58.250; -186.000;  -91.000
363.637; -119.650; -787.000; -601.000
363.769; -179.850;-1067.000;-1080.000
363.901; -114.575; -596.000; -654.000
364.033; -193.200;-1103.000;-1062.000
364.165;  -61.275; -283.000; -283.000
364.296;  -83.425; -316.000; -177.000
364.428; -197.175;-1344.000;-1220.000
364.560; -131.100; -679.000; -661.000
364.692; -129.825; -738.000; -835.000
364.824; -109.500; -588.000; -456.000
364.955;  -72.450; -402.000; -564.000
365.087; -186.050;-1097.000; -852.000
365.219; -128.275; -686.000; -816.000
365.351; -127.300; -526.000; -572.000
365.482;    8.425;  300.000;  240.000
365.614;  -86.825; -402.000; -314.000
365.746; -137.900; -729.000; -752.000
365.877; -137.025; -706.000; -672.000
366.009;  -37.050;  -35.000;  -62.000
366.141; -195.500;-1249.000;-1134.000
366.272; -139.300; -803.000; -719.000
366.404; -152.150;-1005.000; -874.000
366.535;  -62.975; -139.000;  -12.000
366.667; -130.850; -644.000; -649.000
366.799;   21.825;  353.000;  203.000
366.930; -186.425; -862.000; -996.000
367.062; -102.475; -639.000; -613.000
367.193; -167.075; -872.000; -842.000
367.325; -110.125; -580.000; -684.000
367.456;  -70.900; -246.000;   31.000
367.588;  -72.050; -371.000; -318.000
367.719;  -58.350;  -44.000;  -45.000
367.851;  -67.650; -222.000; -241.000
367.982; -154.150; -875.000; -732.000
368.113;  -86.525; -475.000; -358.000
368.245; -187.425; -960.000; -841.000
368.376;  -69.975; -254.000; -302.000
368.508;  -61.225; -188.000; -263.000
368.639; -192.400;-1166.000;-1034.000
368.770; -138.025; -670.000; -589.000
368.902; -140.975; -836.000; -926.000
369.033; -163.375; -906.000; -855.000
369.164; -125.425; -720.000; -653.000
369.296; -125.825; -452.000; -601.000
369.427;  -53.925; -209.000; -144.000
369.558;  -93.275; -593.000; -377.000
369.689; -110.475; -721.000; -569.000
369.821; -172.725; -951.000; -845.000
369.952;  -44.525;   42.000; -108.000
370.083;  -72.325; -229.000; -108.000
370.214; -131.700; -735.000; -650.000
370.345;  -36.250;   65.000;   81.000
370.477; -149.075; -810.000; -790.000
370.608;  -83.700; -328.000; -264.000
370.739; -199.500;-1233.000;-1292.000
370.870; -169.275;-1102.000; -923.000
371.001;  -85.125; -378.000; -467.000
371.132; -141.050; -754.000; -735.000
371.263;  -52.025;  -42.000; -148.000
371.394; -162.725; -841.000; -748.000
371.525;   -1.125;  345.000;  225.000
371.657; -145.175; -808.000; -670.000
371.788;  -11.400;  103.000;  199.000
371.919; -107.650; -384.000; -304.000
372.050;  -61.850;  -91.000; -156.000
372.181;  -57.825; -188.000; -294.000
372.311;  -35.750;   42.000; -127.000
372.442; -119.225; -457.000; -451.000
372.573;  -73.000; -444.000; -340.000
372.704; -175.475;-1008.000; -980.000
372.835;  -66.250; -228.000; -289.000
372.966; -157.625; -646.000; -554.000
373.097; -133.625; -575.000; -711.000
373.228; -134.850; -717.000; -542.000
373.359; -143.800; -824.000; -536.000
373.490; -167.975; -881.000; -727.000
373.620; -150.650;-1001.000; -803.000
373.751; -101.275; -332.000; -396.000
373.882; -110.575; -663.000; -733.000
374.013;  -83.775; -449.000; -262.000
374.143; -114.550; -581.000; -659.000
374.274; -170.975; -987.000; -908.000
374.405;  -73.875; -388.000; -276.000
374.536;  -99.425; -526.000; -387.000
374.666; -132.425; -759.000; -807.000
374.797; -169.750; -817.000; -868.000
374.928; -112.575; -710.000; -560.000
375.058; -116.450; -535.000; -500.000
375.189;  -54.700;  -59.000;  -93.000
375.320; -192.550; -928.000;-1034.000
375.450; -120.425; -625.000; -616.000
375.581; -113.650; -526.000; -436.000
375.712;  -72.775; -574.000; -250.000
375.842; -110.950; -438.000; -415.000
375.973; -111.450; -554.000; -513.000
376.103; -143.225; -665.000; -648.000
376.234; -121.275; -531.000; -552.000
376.364; -173.275; -944.000; -867.000
376.495;   86.900;  925.000;  529.000
376.625; -114.600; -472.000; -485.000
376.756; -138.100; -709.000; -678.000
376.886; -204.850;-1178.000;-1026.000
377.017; -175.825;-1048.000;-1061.000
377.147; -159.625; -786.000; -782.000
377.278;  -13.800;  174.000;  228.000
377.408; -163.000; -801.000; -815.000
377.538; -140.850; -707.000; -693.000
377.669; -133.250; -537.000; -613.000
377.799; -132.550; -645.000; -635.000
377.929; -110.850; -610.000; -428.000
378.060; -159.350; -781.000; -847.000
378.190; -145.100; -726.000; -531.000
378.320; -100.125; -401.000; -406.000
378.451;  -45.775; -131.000;  -22.000
378.581;  -41.475;  -67.000; -110.000
378.711;   70.700; 1035.000;  866.000
378.841; -116.950; -533.000; -675.000
378.972; -162.675; -871.000; -751.000
379.102; -108.625; -652.000; -579.000
379.232;  -73.850; -126.000;  -73.000
379.362; -169.825;-1001.000; -885.000
379.492; -123.250; -373.000; -424.000
379.623;  -11.975;    0.000;  111.000
379.753; -183.125;-1107.000; -974.000
379.883;  -32.175;   59.000;  156.000
380.013; -192.400;-1081.000;-1017.000
380.143; -188.700;-1097.000;-1056.000
380.273; -177.850; -985.000; -861.000
380.403;  -68.375; -344.000; -257.000
380.533; -161.325; -651.000; -664.000
380.663;  -18.650;  173.000;  128.000
380.793; -196.375;-1027.000;-1074.000
380.923;  -61.200; -103.000;  -34.000
381.053; -139.425; -613.000; -623.000
381.183;  -69.925; -106.000; -248.000
381.313; -142.400; -656.000; -470.000
381.443; -115.825; -692.000; -473.000
381.573; -103.950; -402.000; -409.000
381.703; -198.825;-1249.000;-1095.000
381.833; -236.825;-1454.000;-1336.000
381.963;  -28.275; -134.000;  -87.000
382.093; -168.075; -925.000; -909.000
382.223; -138.650; -713.000; -602.000
382.353; -156.150; -801.000; -608.000
382.482; -171.825;-1091.000; -964.000
382.612; -149.925; -872.000; -644.000
382.742; -128.075; -695.000; -622.000
382.872; -103.750; -565.000; -551.000
383.002;  -23.725;  347.000; -132.000
383.131;  -95.300; -226.000; -160.000
383.261; -125.475; -706.000; -768.000
383.391; -112.800; -552.000; -377.000
383.521;   12.450;  451.000;  263.000
383.650; -183.775; -947.000; -904.000
383.780; -123.325; -783.000; -656.000
383.910;   68.250;  880.000;  802.000
384.039; -157.150; -794.000; -656.000
384.169; -208.475;-1205.000;-1017.000
384.299; -136.950; -650.000; -662.000
384.428; -142.500; -764.000; -680.000
384.558;  -78.575; -308.000; -275.000
384.687; -106.725; -414.000; -334.000
384.817;  -27.275;   75.000;   -2.000
384.947;  -72.675; -234.000; -141.000
385.076;  108.825;  982.000;  912.000
385.206;   13.950;  369.000;  480.000
385.335; -102.300; -549.000; -417.000
385.465; -142.500; -655.000; -663.000
385.594;  -42.375;  -53.000;  -44.000
385.724; -175.100; -868.000; -838.000
385.853;  -78.250; -296.000; -270.000
385.982; -164.350; -743.000; -787.000
386.112; -166.675;-1052.000; -871.000
386.241; -101.750; -307.000; -312.000
386.371;  -61.500; -174.000;  -87.000
386.500; -174.575; -825.000; -789.000
386.629; -148.325; -874.000; -817.000
386.759;  -50.075;  -43.000;   68.000
386.888;  -38.975; -170.000; -250.000
387.017; -133.725; -648.000; -620.000
387.147; -143.300; -771.000; -798.000
387.276; -125.125; -410.000; -397.000
387.405;  -79.350; -398.000; -342.000
387.535; -106.900; -452.000; -361.000
387.664; -130.625; -692.000; -620.000
387.793;  -70.725; -198.000; -113.000
387.922;   -9.100;  255.000;  200.000
388.052; -126.450; -576.000; -423.000
388.181;  -99.775; -342.000; -472.000
388.310; -157.750; -889.000; -710.000
388.439; -165.825; -749.000; -742.000
388.568;  -33.325;  365.000;  244.000
388.697; -128.200; -756.000; -653.000
388.826; -146.600; -768.000; -666.000
388.956;  -88.425; -285.000; -307.000
389.085;  -88.275; -347.000; -287.000
389.214; -149.150; -842.000; -872.000
389.343; -128.325; -645.000; -413.000
389.472;  -17.475;  126.000;  149.000
389.601;  -47.900;   91.000;    0.000
389.730; -117.100; -568.000; -687.000
389.859;   -6.775;  226.000;   46.000
389.988;  -89.475; -423.000; -408.000
390.117;  -91.725; -168.000; -146.000
390.246;  -72.175; -331.000; -320.000
390.375; -141.625; -673.000; -626.000
390.504; -128.650; -703.000; -621.000
390.633; -156.300; -672.000; -726.000
390.761; -121.900; -732.000; -645.000
390.890;  -68.000;   -4.000; -130.000
391.019; -115.400; -421.000; -441.000
391.148; -165.175; -826.000; -855.000
391.277; -112.775; -576.000; -493.000
391.406; -165.275; -821.000; -805.000
391.534;  -25.900;  574.000; -301.000
391.663; -130.900; -583.000; -645.000
391.792; -136.650; -673.000; -701.000
391.921;  -56.600;   -3.000;   15.000
392.050;  -69.150; -287.000; -228.000
392.178; -207.225;-1206.000;-1061.000
392.307; -140.000; -758.000; -712.000
392.436; -147.275; -427.000; -641.000
392.564;  -31.625;  166.000;   -6.000
392.693; -153.675; -860.000; -682.000
392.822; -122.075; -529.000; -534.000
392.950; -158.100; -880.000; -714.000
393.079;  -90.650; -188.000; -328.000
393.208; -127.275; -488.000; -511.000
393.336;  -62.525; -170.000; -145.000
393.465;  -75.450; -317.000; -199.000
393.593;  -39.425;   62.000;   79.000
393.722; -184.225;-1121.000; -916.000
393.850;  -72.350; -188.000;  -61.000
393.979; -182.900; -926.000; -805.000
394.107; -113.825; -517.000; -537.000
394.236; -124.000; -570.000; -507.000
394.364;   -5.875;  383.000;  206.000
394.493; -170.550; -911.000; -767.000
394.621; -163.725; -955.000; -916.000
394.750; -181.975; -873.000; -923.000
394.878;  -66.900; -247.000; -149.000
395.007; -163.250; -721.000; -807.000
395.135; -140.650; -790.000; -721.000
395.263; -188.350;-1038.000;-1040.000
395.392;  -53.600;  -25.000; -107.000
395.520; -176.800; -818.000; -679.000
395.648; -171.600; -865.000; -915.000
395.777; -119.300; -366.000; -405.000
395.905; -113.125; -449.000; -564.000
396.033;  -35.175;  217.000;  172.000
396.162;  -84.525; -399.000; -453.000
396.290;  -69.125;  -17.000;   -2.000
396.418; -111.100; -555.000; -514.000
396.546; -166.525; -571.000; -466.000
396.674; -155.600; -850.000; -878.000
396.803;  -43.550;  -72.000;  -23.000
396.931;  -74.100; -179.000; -199.000
397.059; -197.175;-1026.000; -989.000
397.187; -162.625;-1026.000; -975.000
397.315; -159.250; -884.000; -649.000
397.443; -114.575; -592.000; -443.000
397.572; -132.025; -578.000; -424.000
397.700; -127.250; -607.000; -614.000
397.828;  -64.400;  120.000;  -90.000
397.956; -100.475; -508.000; -478.000
398.084; -147.025; -767.000; -626.000
398.212;  -16.300;  137.000;  124.000
398.340;  -45.275;  -56.000;  159.000
398.468;  -87.550; -390.000; -169.000
398.596; -180.325; -993.000; -953.000
398.724; -146.775; -762.000; -767.000
398.852; -189.850;-1024.000; -976.000
398.980; -121.375; -560.000; -560.000
399.108; -144.525; -982.000; -735.000
399.236;  -41.525;   13.000;    8.000
399.363;  -29.525;  222.000;  196.000
399.491;  -99.825; -404.000; -398.000
399.619; -156.775; -829.000; -800.000
399.747; -163.825; -859.000; -771.000
399.875;  -12.450;  220.000;  234.000
400.003;  -93.225; -359.000; -284.000
400.130; -101.325; -421.000; -341.000
400.258;  -37.750;  -83.000;   38.000
400.386;  -91.925; -352.000; -168.000
400.514; -120.900; -526.000; -587.000
400.641; -182.150; -928.000; -802.000
400.769; -182.950; -979.000; -888.000
400.897; -151.250; -838.000; -793.000
401.025;  -56.300; -166.000; -152.000
401.152;  -17.925;  220.000;   38.000
401.280;  -96.825; -430.000; -429.000
401.408; -141.100; -712.000; -576.000
401.535; -135.500; -735.000; -758.000
401.663; -219.125;-1134.000;-1054.000
401.790; -108.200; -514.000; -525.000
401.918;    3.925;  436.000;  405.000
402.046;  -27.725;  134.000;  122.000
402.173;  -79.825;  -18.000;    7.000
402.301;  -92.550; -519.000; -397.000
402.428;   -4.725;  528.000;  383.000
402.556; -178.300;-1188.000; -913.000
402.683;  -57.400;  -20.000;   -1.000
402.811;  -53.750;  -37.000; -206.000
402.938;  -56.325;   20.000;   27.000
403.066; -131.600; -574.000; -558.000
403.193;  -40.475;  299.000;  239.000
403.321; -115.825; -396.000; -574.000
403.448;  -40.325;   83.000;   27.000
403.575;  -42.025;  -90.000;  -46.000
403.703; -152.525; -732.000; -557.000
403.830; -106.850; -531.000; -496.000
403.957; -195.050;-1117.000;-1023.000
404.085;  -69.075;  -61.000; -172.000
404.212;  -46.175;  -50.000;   63.000
404.339;  -89.375; -566.000; -306.000
404.467; -128.475; -612.000; -524.000
404.594;  -67.650; -287.000; -227.000
404.721; -159.750; -869.000; -764.000
404.848;  -60.850; -113.000; -202.000
404.976; -175.750; -856.000; -783.000
405.103;  -39.075;  -14.000;  -82.000
405.230;  -39.425;  190.000;  226.000
405.357;  -47.825;  117.000;   44.000
405.484;  -63.925;  -49.000;    5.000
405.612; -119.775; -548.000; -563.000
405.739; -109.500; -488.000; -243.000
405.866;   38.950;  669.000;  385.000
405.993;  -90.950; -398.000; -102.000
406.120; -162.400; -801.000; -887.000
406.247; -110.800; -323.000; -342.000
406.374;   27.700;  540.000;  629.000
406.501; -139.225; -632.000; -702.000
406.628; -119.725; -621.000; -589.000
406.755; -151.550; -803.000; -620.000
406.882;  -85.000; -228.000; -277.000
407.009; -134.900; -719.000; -628.000
407.136;  -90.025; -480.000; -401.000
407.263; -192.425; -939.000; -829.000
407.390; -126.775; -692.000; -614.000
407.517; -204.800;-1139.000;-1187.000
407.644;  -96.075; -332.000; -256.000
407.771; -119.725; -249.000; -287.000
407.898;  -23.975;  168.000;  328.000
408.025; -116.350; -421.000; -313.000
408.151;  -22.375;   82.000;  153.000
408.278;  -95.225; -267.000; -216.000
408.405; -161.750; -931.000; -899.000
408.532; -120.800; -549.000; -542.000
408.659; -139.075; -677.000; -648.000
408.785; -222.800;-1298.000;-1170.000
408.912;  -89.200; -412.000; -296.000
409.039; -147.725; -610.000; -686.000
409.166; -117.000; -591.000; -555.000
409.292; -138.600; -571.000; -534.000
409.419; -130.325; -665.000; -649.000
409.546; -105.325; -431.000; -192.000
409.672; -135.175; -713.000; -545.000
409.799;  -56.250;  -36.000;   34.000
409.926;  -73.375; -180.000; -179.000
410.052; -211.700;-1127.000;-1091.000
410.179; -112.925; -368.000; -392.000
410.305; -104.400; -375.000; -493.000
410.432;  -74.300; -220.000; -333.000
410.558; -111.475; -305.000; -380.000
410.685; -112.575; -688.000; -431.000
410.812; -120.500; -409.000; -588.000
410.938; -169.900; -964.000; -808.000
411.065; -133.175; -671.000; -645.000
411.191;  -61.350; -189.000; -174.000
411.317; -173.100; -823.000; -742.000
411.444;  -90.850; -317.000; -246.000
411.570; -102.575; -339.000; -294.000
411.697; -138.450; -758.000; -752.000
411.823; -212.475; -989.000; -999.000
411.949;  -72.650;  -56.000;   17.000
412.076; -137.025; -539.000; -519.000
412.202; -144.100; -758.000; -757.000
412.329; -167.900; -798.000; -752.000
412.455; -143.925; -821.000; -657.000
412.581;  -65.700;  -15.000;  172.000
412.707; -112.750; -540.000; -457.000
412.834;  -13.600;  156.000;  219.000
412.960; -151.825; -785.000; -784.000
413.086; -155.950; -743.000; -701.000
413.212;   38.550;  604.000;  578.000
413.339; -157.775; -685.000; -701.000
413.465;  -96.675; -364.000; -310.000
413.591; -151.075; -757.000; -474.000
413.717;  -88.625; -358.000; -366.000
413.843; -172.525; -839.000; -861.000
413.969;  -95.000;  -47.000; -292.000
414.096; -153.525; -679.000; -679.000
414.222;  -38.275;  -33.000;   85.000
414.348; -125.550; -652.000; -385.000
414.474;  -54.150;   38.000;  -52.000
414.600;  -82.800; -126.000; -144.000
414.726;  -61.575;  -96.000;  -55.000
414.852; -107.300; -365.000; -342.000
414.978;  -34.575;  104.000;  -18.000
415.104;  -56.725;   38.000;   80.000
415.230;  -90.300; -329.000; -330.000
415.356; -125.475; -409.000; -514.000
415.482;  -67.900;   13.000;  -35.000
415.608; -101.550; -247.000; -323.000
415.734;  -43.725;   67.000;   38.000
415.860; -179.675; -875.000; -767.000
415.986; -150.900; -685.000; -607.000
416.111; -166.775; -798.000; -652.000
416.237; -122.875; -424.000; -571.000
416.363; -165.500; -765.000; -733.000
416.489; -102.650; -324.000; -251.000
416.615; -162.975; -707.000; -742.000
416.741; -148.825; -677.000; -784.000
416.866; -144.625; -673.000; -736.000
416.992; -161.400; -801.000; -818.000
417.118;  -82.075;  -41.000;  -80.000
417.244; -150.125; -798.000; -531.000
417.369; -178.700; -801.000; -612.000
417.495;  -86.075; -325.000; -254.000
417.621; -192.825;-1015.000; -803.000
417.746; -116.825; -579.000; -572.000
417.872;  -76.675; -254.000; -144.000
417.998; -116.600; -515.000; -530.000
418.123; -196.375;-1073.000; -845.000
418.249; -108.525; -512.000; -601.000
418.374; -187.275; -916.000; -824.000
418.500; -115.450; -383.000; -482.000
418.626;  -58.000;   70.000;  -59.000
418.751; -120.300; -549.000; -448.000
418.877; -159.775; -637.000; -643.000
419.002; -128.250; -688.000; -560.000
419.128; -191.825; -930.000; -721.000
419.253; -160.825; -967.000; -837.000
419.379; -127.825; -391.000; -338.000
419.504;    2.975;  325.000;  415.000
419.629;  -99.700; -393.000; -212.000
419.755;  -75.975; -317.000; -254.000
419.880;  -74.225;  -98.000;   67.000
420.006;  -89.700; -280.000; -221.000
420.131; -151.875; -662.000; -775.000
420.256;  -94.800; -315.000; -316.000
420.382; -147.525; -665.000; -687.000
420.507; -161.525; -649.000; -778.000
420.632; -113.525; -337.000; -339.000
420.758;  -85.625; -251.000; -425.000
420.883; -160.625; -876.000; -672.000
421.008; -156.150; -775.000; -619.000
421.133; -133.750; -509.000; -467.000
421.259;  -89.275; -325.000; -259.000
421.384; -169.650; -834.000; -693.000
421.509; -170.125;-1052.000; -862.000
421.634; -204.050; -936.000; -820.000
421.759;  -97.700; -359.000; -327.000
421.885; -147.050; -717.000; -656.000
422.010; -117.600; -673.000; -542.000
422.135; -190.850; -695.000; -727.000
422.260;   -4.200;  340.000;  280.000
422.385;  -78.850;   12.000;  -98.000
422.510;  -31.800;  151.000;  -26.000
422.635;  -58.925;  -87.000;  -43.000
422.760; -146.600; -766.000; -791.000
422.885;  -67.525;  -57.000;  -80.000
423.010;  -74.725; -112.000; -169.000
423.135; -145.350; -481.000; -561.000
423.260;  -67.450; -150.000; -245.000
423.385;  -40.650;  476.000;  222.000
423.510;  -28.200;   71.000;  -22.000
423.635;  -44.775;  133.000;   45.000
423.760;   -8.775;  383.000;  328.000
423.885;  -21.250;  336.000;  391.000
424.010;  -52.700;  -68.000;  -13.000
424.135;  -77.175;    5.000;  -33.000
424.259; -114.275; -654.000; -457.000
424.384; -120.800; -279.000; -272.000
424.509;  -71.900; -260.000; -186.000
424.634; -166.500; -761.000; -623.000
424.759; -127.450; -688.000; -544.000
424.883; -123.325; -506.000; -527.000
425.008; -124.000; -502.000; -410.000
425.133; -156.425; -679.000; -653.000
425.258; -134.800; -517.000; -381.000
425.382; -157.050; -867.000; -774.000
425.507; -126.050; -487.000; -543.000
425.632; -170.950; -802.000; -663.000
425.756;  -86.750; -256.000; -146.000
425.881; -164.775; -831.000; -857.000
426.006; -122.825; -604.000; -355.000
426.130; -165.850; -696.000; -508.000
426.255; -112.400; -611.000; -491.000
426.379;  -80.250; -189.000; -577.000
426.504;   36.925;  660.000;  544.000
426.629; -149.825; -519.000; -466.000
426.753;  -61.875;   64.000;  -46.000
426.878; -100.925; -252.000; -288.000
427.002; -176.425; -651.000; -668.000
427.127;  -91.675;  -35.000; -158.000
427.251;   -4.775;  372.000;  401.000
427.375; -113.350; -191.000; -173.000
427.500; -134.800; -616.000; -610.000
427.624;  -84.400; -234.000; -400.000
427.749;  -87.550; -216.000; -225.000
427.873; -126.800; -499.000; -412.000
427.997;  -95.925; -222.000; -230.000
428.122;   18.925;  795.000;  703.000
428.246;   10.975;  433.000;  434.000
428.371; -183.625; -869.000; -773.000
428.495; -145.600; -624.000; -646.000
428.619;  -82.400; -186.000; -117.000
428.743;  -35.425;   65.000;  132.000
428.868; -160.225; -732.000; -643.000
428.992; -107.575; -219.000; -326.000
429.116; -132.150; -329.000; -357.000
429.240;   -2.075;  419.000;  426.000
429.365; -124.200; -454.000; -574.000
429.489; -147.925; -638.000; -647.000
429.613;  -90.475; -236.000; -177.000
429.737; -130.500; -563.000; -432.000
429.861;  -99.775; -247.000; -133.000
429.985; -114.900; -425.000; -305.000
430.109; -186.650; -770.000; -908.000
430.234;  -40.625;   76.000;  -50.000
430.358; -109.750; -250.000; -160.000
430.482; -160.850; -672.000; -564.000
430.606; -142.475; -655.000; -375.000
430.730; -119.525; -437.000; -388.000
430.854; -180.750; -909.000; -835.000
430.978; -164.525; -795.000; -764.000
431.102; -125.225; -499.000; -422.000
431.226; -167.475; -874.000; -815.000
431.350;  -19.400;  345.000;  422.000
431.474; -126.200; -661.000; -373.000
431.597; -213.500;-1060.000; -848.000
431.721; -104.475; -276.000; -267.000
431.845; -157.500; -704.000; -472.000
431.969; -104.150; -304.000; -349.000
432.093; -130.850; -395.000; -317.000
432.217;  -49.675;   32.000;   82.000
432.341; -134.725; -523.000; -518.000
432.464;  -41.800;   96.000;   40.000
432.588; -126.575; -401.000; -329.000
432.712;  -75.825;  -52.000;  -52.000
432.836;  -42.775;  213.000;  263.000
432.959; -104.900; -372.000; -311.000
433.083;  -71.225;   11.000;    2.000
433.207;    1.650;  285.000;  930.000
433.330; -102.775; -391.000; -200.000
433.454; -133.375; -654.000; -638.000
433.578;   14.175;  583.000;  278.000
433.701; -154.800; -623.000; -675.000
433.825; -142.225; -292.000; -299.000
433.949;  -62.875;   28.000;  -72.000
434.072; -113.850; -410.000; -323.000
434.196;  -84.425; -309.000; -117.000
434.319; 3685.350;25482.000;25124.000
434.443; -136.275; -656.000; -603.000
434.566;  -35.825;  281.000;   62.000
434.690; -131.600; -637.000; -383.000
434.813;  -97.750; -251.000; -173.000
434.937; -137.675; -569.000; -696.000
435.060; -120.900; -423.000; -332.000
435.184; -105.600; -492.000; -217.000
435.307;  -56.775;  159.000;  102.000
435.431;  -32.950;  -40.000;   24.000
435.554;  -89.500; -399.000; -240.000
435.677; -110.175; -350.000; -258.000
435.801;  -64.225;  -25.000;   49.000
435.924;  -51.275;    1.000;  -67.000
436.048; -195.700;-1019.000; -732.000
436.171;  -96.000; -240.000;  -66.000
436.294; -105.200; -248.000; -229.000
436.417; -196.825; -963.000; -849.000
436.541; -178.275; -814.000; -840.000
436.664;  -87.100; -242.000; -316.000
436.787;  -55.425;   13.000;  113.000
436.910; -135.950; -792.000; -422.000
437.034;  -38.850;  142.000;  143.000
437.157;  -53.025;  -11.000;    0.000
437.280; -116.025; -392.000; -292.000
437.403; -181.550; -982.000; -869.000
437.526; -189.300; -903.000; -865.000
437.649; -122.200; -505.000; -332.000
437.772; -151.525; -692.000; -540.000
437.896;   19.200;  700.000;  544.000
438.019; -166.375; -758.000; -503.000
438.142; -119.700; -596.000; -506.000
438.265; -166.525; -639.000; -670.000
438.388; -111.550; -520.000; -410.000
438.511; -137.850; -597.000; -394.000
438.634; -111.625; -247.000; -125.000
438.757; -162.950; -693.000; -619.000
438.880;  -64.325;  -34.000;  -57.000
439.003; -128.850; -417.000; -437.000
439.126; -103.675; -287.000; -167.000
439.248;  -87.100;  -98.000; -139.000
439.371;  -62.250;    9.000;  -53.000
439.494;   23.925;  510.000;  439.000
439.617;  -63.575;   65.000;  -88.000
439.740; -211.375; -968.000; -816.000
439.863; -155.400; -755.000; -595.000
439.986; -142.750; -476.000; -431.000
440.108;  -87.150; -161.000; -112.000
440.231; -202.750; -950.000; -836.000
440.354;  -64.775;  -64.000; -150.000
440.477; -157.900; -566.000; -542.000
440.599; -125.650; -200.000; -225.000
440.722; -143.200; -709.000; -586.000
440.845;   52.525;  751.000;  928.000
440.968; -122.950; -415.000; -311.000
441.090;  -81.725; -199.000;  -33.000
441.213; -193.675;-1021.000; -825.000
441.336;  -74.200; -159.000;   -5.000
441.458; -110.275; -549.000; -396.000
441.581; -146.275; -628.000; -629.000
441.703;  -91.900; -152.000;   13.000
441.826; -122.675; -557.000; -400.000
441.948;  -69.750;   56.000;   51.000
442.071;   12.600;  555.000;  424.000
442.193; -147.975; -531.000; -485.000
442.316;  -47.725;  152.000;   97.000
442.438; -106.650; -233.000;  -10.000
442.561;  -27.325;  272.000;  262.000
442.683; -172.500; -809.000; -522.000
442.806;  -65.475;   -8.000;   74.000
442.928; -195.225; -859.000; -604.000
443.051; -139.025; -577.000; -373.000
443.173; -136.425; -341.000; -339.000
443.295; -108.900; -263.000; -371.000
443.418; -136.300; -321.000;  -29.000
443.540;  -65.575; -106.000;   -4.000
443.662; -157.175; -563.000; -465.000
443.785;  -31.175;  335.000;  199.000
443.907; -128.225; -362.000; -208.000
444.029; -153.200; -767.000; -494.000
444.152; -174.525; -644.000; -554.000
444.274;  -63.500;  -18.000;  -24.000
444.396; -136.725; -461.000; -221.000
444.518; -142.450; -691.000; -454.000
444.640; -134.700; -268.000; -111.000
444.763;  -35.150;  388.000;  249.000
444.885; -151.025; -432.000; -392.000
445.007;  -43.325;   35.000;   86.000
445.129; -148.125; -610.000; -515.000
445.251; -130.300; -372.000; -439.000
445.373; -170.450; -537.000; -386.000
445.495;  -29.025;  242.000;  350.000
445.617;   22.525;  853.000;  753.000
445.739;  -85.175; -215.000;  -97.000
445.861;  -95.625; -245.000; -112.000
445.984;  -97.525; -267.000; -101.000
446.105; -120.050; -418.000; -251.000
446.227;  -81.750; -176.000;  -19.000
446.349; -138.550; -358.000; -249.000
446.471; -142.075; -615.000; -448.000
446.593; -118.075; -316.000;   19.000
446.715;  -75.925;  -67.000;   41.000
446.837;   23.325;  697.000;  832.000
446.959; -120.125; -457.000; -478.000
447.081; -164.050; -628.000; -518.000
447.203;   35.125;  862.000;  834.000
447.325; -104.025; -270.000;   42.000
447.446;  -22.125;  286.000;  530.000
447.568; -202.450; -921.000; -803.000
447.690; -113.325; -236.000; -245.000
447.812; -180.300; -798.000; -519.000
447.933;  -43.425;  155.000;  127.000
448.055; -115.450; -306.000; -261.000
448.177;  -54.850;   31.000;   79.000
448.299; -213.950; -935.000; -727.000
448.420;  -29.925;  -25.000;  159.000
448.542;  -78.625;   -3.000;   33.000
448.664;  -28.100;  109.000;  322.000
448.785;  -72.900;  265.000;   83.000
448.907; -139.975; -614.000; -353.000
449.028; -177.050; -771.000; -471.000
449.150;   12.875;  492.000;  589.000
449.272; -217.650;-1044.000; -913.000
449.393;   17.075;  612.000;  694.000
449.515; -166.475; -634.000; -581.000
449.636;  -93.350; -264.000; -155.000
449.758;   12.650;  763.000;  622.000
449.879; -123.900; -498.000; -396.000
450.001; -114.425; -149.000;  -49.000
450.122;  -56.025;  -95.000;  162.000
450.244;  -51.900;   37.000;  364.000
450.365; -137.550; -495.000; -301.000
450.486;  -87.200;   80.000;  268.000
450.608;  -23.225;  393.000;  326.000
450.729;  -12.650;  578.000;  645.000
450.850; -143.950; -574.000; -466.000
450.972; -166.950; -552.000; -389.000
451.093;  -18.825;  190.000;  588.000
451.214; -134.850; -516.000; -337.000
451.336;   50.900;  773.000;  579.000
451.457;  -30.450;  264.000;  393.000
451.578;  -83.350; -118.000;  -74.000
451.699; -150.375; -546.000; -540.000
451.821;  -89.775; -284.000;  -50.000
451.942;  -35.000;  278.000;  285.000
452.063;  -21.975;  228.000;  419.000
452.184; -100.175;  -54.000;  -49.000
452.305;  -40.200;  103.000;  170.000
452.427; -139.900; -549.000; -301.000
452.548;  -77.325;   23.000;   79.000
452.669;  -91.450; -257.000;  -89.000
452.790;  -90.375;    3.000;  -18.000
452.911;  -69.725;  195.000;  259.000
453.032;  -96.875; -289.000;  -60.000
453.153;  -88.800;  -29.000;   81.000
453.274;   30.575;  737.000;  868.000
453.395;  -91.975;  -51.000;  175.000
453.516;   98.300; 1317.000; 1388.000
453.637; -120.950; -205.000; -150.000
453.758;  -80.425;   15.000;   69.000
453.879; -126.775; -462.000; -250.000
454.000;   50.100; 1086.000;  948.000
454.121; -154.450; -554.000; -326.000
454.242; -148.400; -599.000; -383.000
454.362;  -71.450;  -99.000;  114.000
454.483; -105.375; -309.000; -229.000
454.604;  -23.025;  512.000;  580.000
454.725; -160.100; -627.000; -555.000
454.846; -153.575; -474.000; -406.000
454.967;  -36.400;  230.000;  539.000
455.087;  -55.350;  179.000;  153.000
455.208;    0.700;  554.000;  856.000
455.329;  -81.725;  -22.000;   82.000
455.450;   -8.225;  473.000;  633.000
455.570; -131.925; -234.000; -211.000
455.691;  -47.675;  201.000;  407.000
455.812; -122.800; -270.000;  -92.000
455.932;  -62.700;  107.000;  -97.000
456.053;  -90.475;   36.000;   24.000
456.173; -129.800; -433.000; -355.000
456.294; -145.600; -476.000; -303.000
456.415;  -80.250;  -73.000;   70.000
456.535;  -44.000;  297.000;  273.000
456.656;  -65.950;  132.000;  240.000
456.776;  -73.900;    3.000;  298.000
456.897;  -33.875;  308.000;  513.000
457.017;  -97.525; -153.000;   -3.000
457.138; -129.075; -402.000; -249.000
457.258;  -56.750;  263.000;  224.000
457.379;  -26.550;  509.000;  521.000
457.499;  -37.225;  443.000;  432.000
457.620; -138.575; -407.000; -231.000
457.740; -114.275; -132.000;  -11.000
457.860;  -68.025;   87.000;   44.000
457.981;  -81.250;  132.000;  124.000
458.101; -114.875;  -89.000;   40.000
458.221;  -33.900;  336.000;  402.000
458.342;  -75.350;   -4.000;  -37.000
458.462;  -33.300;  617.000;  352.000
458.582; -113.725; -302.000; -294.000
458.703;  -56.975;  303.000;  154.000
458.823;  -82.700;   22.000;  163.000
458.943;  -48.725;  341.000;  467.000
459.063;  -66.725; 1124.000;  192.000
459.183;  -54.925;  328.000;  313.000
459.304;  -24.950;  315.000;  517.000
459.424; -131.875; -246.000;  -89.000
459.544;   -1.475;  388.000;  764.000
459.664;  -10.350;  499.000;  506.000
459.784;   58.775; 1004.000; 1175.000
459.904;   -3.000;  867.000;  744.000
460.024;   33.475;  867.000;  684.000
460.144;  -39.125;  449.000;  554.000
460.264;  -25.775;  515.000;  327.000
460.385; -114.100; -145.000; -119.000
460.505;   34.400;  905.000;  858.000
460.625; -107.050;  -17.000;  -68.000
460.745;  -22.300;  396.000;  541.000
460.864;  -62.300;  153.000;  469.000
460.984;  -19.150;  499.000;  573.000
461.104;  119.500; 1656.000; 1775.000
461.224;    8.175;  657.000;  650.000
461.344;  -47.100;  431.000;  360.000
461.464;  -59.400;  258.000;  513.000
461.584;  -57.525;  283.000;  466.000
461.704;  -82.050;   58.000;  108.000
461.824;  -72.100;  238.000;  259.000
461.943;  -48.925;  191.000;  130.000
462.063;  -91.125;    2.000;  324.000
462.183;    6.950;  639.000;  717.000
462.303;   73.525; 1678.000; 1230.000
462.422;    9.050;  781.000;  840.000
462.542;  -77.650;  271.000;  391.000
462.662;  -35.475;  353.000;  380.000
462.782;  -17.875;  833.000;  572.000
462.901;  -13.575;  545.000;  717.000
463.021;  118.150; 1702.000; 1638.000
463.141;  -39.475;  337.000;  770.000
463.260;  -38.750;  614.000;  474.000
463.380;    0.700;  902.000;  884.000
463.499;  -49.775;  342.000;  332.000
463.619;  -39.850;  581.000;  559.000
463.738;   85.825; 1644.000;  903.000
463.858;    8.925;  657.000;  811.000
463.978;  -54.275;  542.000;  396.000
464.097;   29.850;  921.000; 1114.000
464.217;   38.775; 1196.000; 1143.000
464.336;   52.800; 1068.000; 1130.000
464.455;  -59.975;  328.000;  659.000
464.575;  -30.400;  597.000;  602.000
464.694;   47.550; 1204.000; 1179.000
464.814;   22.100; 1190.000; 1138.000
464.933;   18.575; 1095.000; 1027.000
465.052;   65.375; 1412.000; 1054.000
465.172;    2.625;  922.000;  799.000
465.291;   84.400; 1376.000; 1320.000
465.410;  -22.200;  462.000;  735.000
465.530;   70.025; 1355.000; 1310.000
465.649;   39.350; 1209.000; 1273.000
465.768;  116.200; 1673.000; 1508.000
465.888;   25.100;  941.000; 1174.000
466.007;   78.050; 1335.000; 1440.000
466.126;  -11.775;  721.000;  641.000
466.245;   30.750; 1176.000; 1187.000
466.364;   11.050;  950.000; 1060.000
466.484;   46.100; 1024.000; 1213.000
466.603;   24.750; 1101.000; 1222.000
466.722;  101.075; 1490.000; 1769.000
466.841;   46.975; 1151.000; 1401.000
466.960;   23.525; 1069.000;  972.000
467.079;  125.100; 1971.000; 1786.000
467.198;   49.275; 1238.000; 1181.000
467.317;   70.625; 1768.000; 1162.000
467.436;   39.875; 1709.000; 1261.000
467.555;  115.800; 1796.000; 1746.000
467.674;   62.125; 1227.000; 1329.000
467.793;   27.700; 1376.000; 1374.000
467.912;   65.225; 1658.000; 1539.000
468.031;  121.200; 2038.000; 1930.000
468.150;  116.700; 1842.000; 1837.000
468.269;  175.725; 2313.000; 2090.000
468.388;  166.050; 2168.000; 2339.000
468.507;  238.550; 2884.000; 2903.000
468.626;  223.900; 2555.000; 2541.000
468.744;  139.400; 2018.000; 2174.000
468.863;  199.600; 2312.000; 2523.000
468.982;   81.075; 1503.000; 1555.000
469.101;  210.975; 2788.000; 2692.000
469.220;  119.775; 2333.000; 2176.000
469.338;  242.275; 2935.000; 3051.000
469.457;  172.550; 2719.000; 2545.000
469.576;  337.125; 3953.000; 3784.000
469.695;  225.500; 2877.000; 3066.000
469.813;  420.700; 4148.000; 4192.000
469.932;  358.875; 4255.000; 4485.000
470.051;  354.525; 4075.000; 4161.000
470.169;  409.900; 4470.000; 4338.000
470.288;  434.400; 4700.000; 4809.000
470.406;  470.350; 5059.000; 5194.000
470.525;  559.275; 6101.000; 5787.000
470.644;  636.650; 6847.000; 6794.000
470.762;  804.950; 8397.000; 7873.000
470.881;  836.375; 8651.000; 8464.000
470.999;  965.800; 9685.000; 9151.000
471.118; 1089.175;11174.000;10711.000

