
Integration time [ms]: 200.000
Averaging Nr. [scans]: 10
Smoothing Nr. [pixels]: 0
Data measured with spectrometer [name]: 2101012U2
Wave   ;Sample   ;Dark     ;Reference
[nm]   ;[counts] ;[counts] ;[counts] 

197.733;  137.900;  516.000;  404.000
197.879; -177.400; -610.000; -634.000
198.025;  -81.000; -475.000; -420.000
198.171; -143.700; -602.000; -612.000
198.317;  -65.800; -401.000; -316.000
198.463; -126.800; -655.000; -404.000
198.609;   90.100;  181.000; -137.000
198.755; -180.200; -644.000; -410.000
198.901; -115.600; -505.000; -424.000
199.047; -161.300; -615.000; -488.000
199.193;  -90.200; -230.000; -468.000
199.339; -100.600; -222.000; -369.000
199.485;  105.400;  330.000;  271.000
199.631;   14.800;  227.000;  310.000
199.777; -115.800; -466.000; -398.000
199.923; -130.200; -610.000; -424.000
200.069;   27.800; -141.000;  -58.000
200.215;  119.100;  128.000;  453.000
200.361;   98.000;  243.000;  477.000
200.507; -134.000; -600.000; -373.000
200.653;  -41.600; -371.000; -194.000
200.798;  -83.800; -215.000; -125.000
200.944;   12.300; -146.000;  -41.000
201.090;   93.100;   61.000;  222.000
201.236;    7.400; -116.000; -158.000
201.382;  304.700;  874.000;  903.000
201.528;   37.300;  -58.000;  -48.000
201.674;  -68.300; -386.000; -293.000
201.819; -107.500; -540.000; -439.000
201.965; -178.100; -699.000; -447.000
202.111;  -17.100; -273.000; -226.000
202.257;  -69.700; -250.000; -238.000
202.402;   34.100;   13.000;  -36.000
202.548;  -75.300; -169.000; -116.000
202.694;  215.400;  410.000; -183.000
202.840; -142.300; -603.000; -531.000
202.985; -136.700; -681.000; -639.000
203.131; -224.100; -832.000; -666.000
203.277;  -67.100; -199.000; -262.000
203.423; -129.000; -434.000; -520.000
203.568;  -77.500; -462.000; -237.000
203.714; -109.700; -535.000; -542.000
203.860; -164.000; -682.000; -641.000
204.005;   44.300;  112.000;  167.000
204.151;  185.600;  561.000;  556.000
204.296;  -84.600; -354.000; -221.000
204.442; -110.100; -600.000; -547.000
204.588; -141.100; -592.000; -579.000
204.733;   32.900;  178.000;  168.000
204.879; -276.000;-1018.000; -822.000
205.025;   26.500;  -99.000;  126.000
205.170;    3.900;  -17.000;   94.000
205.316;  180.700;  438.000;  661.000
205.461; -175.900; -698.000; -554.000
205.607;  176.700;  609.000;  665.000
205.752; -153.100; -626.000; -551.000
205.898;  -87.600; -501.000; -391.000
206.043; -146.900; -578.000; -506.000
206.189;  -55.700; -243.000; -285.000
206.334;  171.800;  554.000;  606.000
206.480;  185.700;  409.000;  239.000
206.625; -153.600; -529.000; -552.000
206.771;  -66.300; -451.000; -373.000
206.916;  -68.700; -210.000; -537.000
207.062; -154.500; -545.000; -591.000
207.207; -134.300; -546.000; -443.000
207.353;  155.200;  185.000;  460.000
207.498;    8.500;  196.000;   85.000
207.643;  -86.700; -501.000; -370.000
207.789; -276.200;-1069.000; -910.000
207.934; -185.000; -665.000; -713.000
208.080;  -70.600; -154.000;   66.000
208.225;   14.100;  -22.000;  -57.000
208.370; -169.500; -727.000; -619.000
208.516; -124.200; -741.000; -487.000
208.661;  -59.300; -127.000;  -69.000
208.806;   -0.300; -165.000; -171.000
208.952; -262.500;-1044.000; -731.000
209.097;  170.200;  378.000;  349.000
209.242; -107.700; -307.000; -382.000
209.387;  136.100;  392.000;  350.000
209.533; -104.700; -321.000; -350.000
209.678;  178.300;  472.000;  543.000
209.823; -122.000; -408.000; -310.000
209.969; -188.800; -860.000; -757.000
210.114; -238.700; -907.000; -719.000
210.259; -210.800; -939.000; -889.000
210.404;   -3.100; -171.000;  103.000
210.549;   28.400;  108.000;    3.000
210.695;  -33.100;   -3.000;  -95.000
210.840;   91.700;   94.000;   67.000
210.985; -129.700; -484.000; -303.000
211.130;  178.600;  268.000;  406.000
211.275;   58.200;  207.000;  199.000
211.420;  -98.600; -300.000; -289.000
211.566; -122.000; -536.000; -489.000
211.711;   55.300;  218.000;  157.000
211.856; -150.100; -545.000; -519.000
212.001;   33.900;  151.000;   44.000
212.146;    7.400;  153.000;   49.000
212.291;  -14.000; -210.000; -186.000
212.436;  -32.300; -280.000;   -6.000
212.581; -140.100; -685.000; -653.000
212.726; -151.000; -487.000; -538.000
212.871;  -85.100; -552.000; -217.000
213.016; -289.800;-1172.000;-1029.000
213.161;  153.200;  406.000;  291.000
213.306; -136.500; -435.000; -577.000
213.451; -187.100; -778.000; -689.000
213.596; -100.000; -455.000; -347.000
213.741;  -90.200; -448.000; -538.000
213.886; -149.200; -498.000; -517.000
214.031;  -27.300; -294.000; -124.000
214.176;  -97.600; -408.000; -341.000
214.321;  -17.800; -296.000; -157.000
214.466;  -23.600; -163.000;  -43.000
214.611;   19.800;  -61.000;  -10.000
214.756; -244.700; -948.000; -858.000
214.901;    5.200; -388.000; -226.000
215.046; -242.600; -797.000; -825.000
215.191;   93.200;  128.000;   35.000
215.336;  -20.000; -157.000;  -19.000
215.480; -117.200; -684.000; -505.000
215.625;  -17.300; -175.000;  -19.000
215.770; -117.400; -757.000; -662.000
215.915;  -24.100;   -5.000;  -97.000
216.060;   15.500; -113.000;  -21.000
216.205; -240.800; -731.000; -779.000
216.349; -130.900; -470.000; -533.000
216.494; -271.100; -939.000; -867.000
216.639; -213.400; -823.000; -888.000
216.784; -189.900; -577.000; -525.000
216.929;   96.600;  392.000;  281.000
217.073;  -24.600; -244.000;  -31.000
217.218;   34.000;   78.000;  -47.000
217.363; -174.700; -656.000; -618.000
217.507; -142.100; -623.000; -588.000
217.652; -248.400; -845.000; -874.000
217.797; -163.100; -708.000; -659.000
217.942; -227.200; -856.000; -720.000
218.086;  182.500;  608.000;  539.000
218.231;  -16.500; -174.000;  -26.000
218.376;  -39.600; -337.000; -229.000
218.520;   11.300;  -41.000;   96.000
218.665;  -38.300; -338.000; -204.000
218.810;  -89.800; -275.000; -233.000
218.954;   61.900;  201.000;   35.000
219.099; -254.800; -713.000; -963.000
219.243; -127.300; -589.000; -554.000
219.388;  -71.700; -264.000; -136.000
219.532;  -23.300; -116.000; -116.000
219.677; -156.900; -564.000; -521.000
219.822;   29.100;   33.000;   89.000
219.966;   -1.900;   17.000;  -99.000
220.111;  -26.800; -328.000;  -40.000
220.255; -231.500; -797.000; -750.000
220.400;  -28.400; -180.000; -146.000
220.544; -147.200; -516.000; -450.000
220.689;  -91.600; -422.000; -451.000
220.833;  -43.700; -123.000;  -58.000
220.978;  -66.300; -393.000; -563.000
221.122;   62.400;  319.000;  307.000
221.267; -208.800; -906.000; -837.000
221.411; -132.300; -478.000; -394.000
221.555;   13.900; -104.000;  -23.000
221.700; -104.300; -329.000; -222.000
221.844;   81.500;  255.000;  272.000
221.989;  -89.900; -328.000; -311.000
222.133;  -37.100; -289.000; -307.000
222.277;   24.400;    5.000;   78.000
222.422;   43.000;  227.000;  113.000
222.566;  -69.900; -381.000; -214.000
222.711;  -93.800; -414.000; -479.000
222.855; -165.300; -643.000; -586.000
222.999; -128.100; -642.000; -717.000
223.144;  -56.700; -195.000; -194.000
223.288;  141.600;  423.000;  251.000
223.432;   86.300;  184.000;  230.000
223.576;   22.000;  152.000;  -21.000
223.721;   87.300;  364.000;  273.000
223.865; -112.000; -472.000; -475.000
224.009;  549.400; 1673.000; 1631.000
224.153; -163.400; -660.000; -671.000
224.298; -130.100; -531.000; -489.000
224.442;   -9.400;  -74.000;  -33.000
224.586;   -6.500; -169.000; -106.000
224.730; -186.000; -858.000; -670.000
224.875; -233.200; -739.000; -688.000
225.019;   83.300;  102.000;  188.000
225.163;   98.700;  208.000;  341.000
225.307;   67.300;   97.000;  -91.000
225.451;  110.200;  360.000;  481.000
225.595;   78.600;  264.000;  176.000
225.739;  -45.900; -170.000;  -94.000
225.884;   46.100;   86.000;    5.000
226.028; -220.400; -760.000; -626.000
226.172;  -53.300; -260.000; -273.000
226.316; -235.800; -941.000; -902.000
226.460; -153.800; -645.000; -493.000
226.604;  -92.900; -406.000; -400.000
226.748; -195.400; -836.000; -733.000
226.892;  -52.200; -227.000; -181.000
227.036;  -97.200; -537.000; -447.000
227.180; -116.900; -551.000; -375.000
227.324; -105.600; -561.000; -580.000
227.468; -240.400; -819.000; -717.000
227.612;   33.900;  242.000;  -28.000
227.756; -202.600; -845.000; -698.000
227.900;  139.400;  342.000;  441.000
228.044; -107.700; -509.000; -290.000
228.188;  152.500;  448.000;  568.000
228.332; -167.800; -546.000; -472.000
228.476;  -12.800; -223.000; -149.000
228.620;  -38.000; -210.000; -150.000
228.764;  136.000;  431.000;  349.000
228.908;  -46.100; -155.000;   30.000
229.052; -104.000; -615.000; -528.000
229.195;  -37.700; -172.000;   13.000
229.339;  -50.300; -235.000; -305.000
229.483;  -69.200;    5.000; -162.000
229.627;   26.500; -156.000;  139.000
229.771;  -94.700; -218.000; -294.000
229.915;   36.500;  230.000;   79.000
230.059; -174.500; -648.000; -663.000
230.202;  -56.600; -370.000; -317.000
230.346;  -22.400; -107.000;  107.000
230.490; -140.900; -489.000; -521.000
230.634; -207.300; -736.000; -553.000
230.777;  193.500;  478.000;  509.000
230.921;  -93.900; -450.000; -359.000
231.065; -108.900; -246.000; -286.000
231.209;   42.100;  261.000;  265.000
231.352;   57.400;   54.000;   40.000
231.496;   61.700;  568.000;  188.000
231.640; -157.400; -693.000; -621.000
231.783;  139.800;  546.000;  525.000
231.927;  -61.500; -294.000; -365.000
232.071; -234.400; -962.000; -736.000
232.214; -191.700; -980.000; -764.000
232.358; -215.200; -683.000; -599.000
232.502;   13.700;  -19.000;    7.000
232.645; -282.900;-1090.000; -927.000
232.789;  -19.500; -257.000; -218.000
232.933; -110.900; -407.000; -224.000
233.076; -233.200;-1038.000; -897.000
233.220; -212.100; -752.000; -777.000
233.363; -155.400; -669.000; -477.000
233.507;  142.800;  371.000;  129.000
233.650; -177.900; -764.000; -834.000
233.794;  105.200;  438.000;  461.000
233.938; -100.200; -530.000; -362.000
234.081;  -55.100;  -93.000;   31.000
234.225; -129.700; -631.000; -539.000
234.368; -214.300; -773.000; -723.000
234.512;  -59.800; -385.000; -299.000
234.655; -183.100; -582.000; -555.000
234.798; -109.000; -493.000; -466.000
234.942; -263.100; -884.000;-1002.000
235.085; -131.500; -651.000; -443.000
235.229; -135.700; -405.000; -410.000
235.372;  -88.400; -247.000; -191.000
235.516; -127.600; -397.000; -321.000
235.659;   69.800;   92.000;  121.000
235.802;  -31.500;  -38.000;  -22.000
235.946;   75.400;  335.000;  215.000
236.089;   67.300;  126.000;  250.000
236.233;  126.000;  275.000;  298.000
236.376; -113.100; -235.000; -378.000
236.519;  -86.200; -297.000; -319.000
236.663;  -10.100; -215.000; -117.000
236.806; -274.900;-1029.000; -999.000
236.949;  146.700;  543.000;  431.000
237.092;  148.100;  412.000;  391.000
237.236; -158.700; -589.000; -502.000
237.379;  174.000;  352.000;  428.000
237.522; -258.200; -879.000; -768.000
237.666;    5.600; -271.000;   18.000
237.809; -259.100; -851.000; -823.000
237.952;   88.200;  469.000;  271.000
238.095; -147.200; -447.000; -442.000
238.238;  223.500;  688.000;  700.000
238.382;    4.200;  166.000;  103.000
238.525; -136.000; -598.000; -511.000
238.668; -314.600;-1060.000; -985.000
238.811; -152.600; -638.000; -643.000
238.954; -127.800; -483.000; -334.000
239.097;  257.500;  617.000;  664.000
239.241;   44.800;  394.000;  326.000
239.384;  -56.400; -254.000; -214.000
239.527; -118.200; -424.000; -224.000
239.670; -270.000; -994.000;-1091.000
239.813; -233.200; -696.000; -658.000
239.956;  178.700;  579.000;  473.000
240.099; -198.000; -778.000; -725.000
240.242;  168.100;  428.000;  432.000
240.385;  125.100;  466.000;  450.000
240.528; -109.400; -706.000; -473.000
240.671;   17.000;  189.000;  134.000
240.814;  -70.200; -441.000; -158.000
240.957; -191.200; -767.000; -578.000
241.100; -148.100; -779.000; -755.000
241.243; -275.300;-1234.000; -893.000
241.386;  -97.300; -508.000; -379.000
241.529; -221.900; -735.000; -547.000
241.672; -124.700; -566.000; -495.000
241.815; -237.800; -832.000; -808.000
241.958;  -30.300; -125.000; -182.000
242.101; -111.500; -545.000; -390.000
242.244;  -64.600; -270.000; -325.000
242.387;  -56.300; -304.000; -246.000
242.530;  163.900;  470.000;  134.000
242.673;  -73.800; -381.000; -309.000
242.815; -222.700; -925.000; -899.000
242.958; -125.900; -482.000; -381.000
243.101;   55.600;  132.000;  187.000
243.244; -160.700; -564.000; -521.000
243.387;  -72.600; -313.000; -316.000
243.530; -188.300; -657.000; -674.000
243.672;   28.900;   43.000;  -92.000
243.815;  -85.800; -355.000; -283.000
243.958;   35.000;   98.000;  -26.000
244.101;   27.500;   59.000;  -16.000
244.243;   13.400;  -47.000;  101.000
244.386; -219.800; -761.000; -630.000
244.529;   12.200; -132.000; -139.000
244.672; -310.500;-1154.000; -951.000
244.814; -204.900; -621.000; -794.000
244.957; -102.200; -380.000; -304.000
245.100; -120.100; -489.000; -489.000
245.242; -140.100; -387.000; -374.000
245.385;    3.100;  -59.000;  -39.000
245.528; -221.900; -871.000; -705.000
245.670;  196.700;  612.000;  634.000
245.813; -157.300; -599.000; -547.000
245.956;  -10.900; -324.000; -275.000
246.098; -133.100; -508.000; -650.000
246.241;   24.700;  194.000;   48.000
246.383;  -48.100; -119.000;  -73.000
246.526; -154.600; -454.000; -525.000
246.669; -257.200; -889.000; -780.000
246.811;   53.700;  172.000;   -1.000
246.954; -112.100; -512.000; -426.000
247.096;  -15.600;  -84.000;   -6.000
247.239; -134.100; -482.000; -445.000
247.381; -108.700; -647.000; -488.000
247.524;  175.700;  645.000;  679.000
247.666;   -1.800;   58.000;   11.000
247.809; -238.800; -887.000; -691.000
247.951;    3.800;  -75.000;  138.000
248.094;   63.300;  432.000;  308.000
248.236; -285.700;-1262.000;-1238.000
248.378;  -20.900; -356.000;  -81.000
248.521;   -4.400; -334.000; -337.000
248.663;  -55.100; -236.000; -267.000
248.806;  -14.500; -300.000; -266.000
248.948; -186.100; -886.000; -763.000
249.090;  -85.700; -428.000; -398.000
249.233; -113.900; -344.000; -381.000
249.375; -112.700; -474.000; -451.000
249.518;  -20.100;  -83.000; -133.000
249.660;    5.400; -103.000;    3.000
249.802; -350.200;-1303.000;-1189.000
249.945; -130.700; -612.000; -540.000
250.087; -234.600; -834.000; -768.000
250.229; -109.300; -362.000; -480.000
250.371; -136.100; -494.000; -439.000
250.514;  -79.100; -310.000; -244.000
250.656;    4.400;   69.000;  102.000
250.798; -221.000; -849.000; -800.000
250.940;  -95.200; -322.000; -322.000
251.083;  -11.600; -335.000; -111.000
251.225;  185.200;  338.000;  310.000
251.367;  -43.200; -274.000; -373.000
251.509;  -88.400; -265.000; -210.000
251.651; -170.600; -731.000; -671.000
251.794;  126.700;  538.000;  632.000
251.936; -193.300; -821.000; -747.000
252.078; -161.400; -540.000; -461.000
252.220; -127.100; -645.000; -477.000
252.362;  166.300;  344.000;  462.000
252.504; -129.700; -677.000; -584.000
252.646; -216.100; -875.000; -722.000
252.788;   19.000;   14.000; -128.000
252.931;  -78.200; -257.000; -253.000
253.073;  -49.100; -376.000; -317.000
253.215;    4.300;  141.000;  122.000
253.357;   13.800;   82.000; -153.000
253.499;  -87.900; -374.000; -234.000
253.641; -139.000; -749.000; -594.000
253.783; -172.400; -609.000; -527.000
253.925; -154.600; -586.000; -591.000
254.067; -231.000; -744.000; -667.000
254.209;  -28.700; -391.000; -259.000
254.351; -276.500; -865.000; -883.000
254.493;  -79.900; -441.000; -417.000
254.635; -222.900; -936.000; -818.000
254.777; -169.500; -752.000; -687.000
254.918; -142.200; -512.000; -430.000
255.060;  -85.200; -551.000; -395.000
255.202; -118.700; -473.000; -261.000
255.344; -136.300; -658.000; -455.000
255.486; -105.100; -471.000; -406.000
255.628; -199.800; -780.000; -781.000
255.770; -152.900; -676.000; -536.000
255.912;  -97.400; -559.000; -468.000
256.053; -159.400; -730.000; -508.000
256.195;  383.100; 1008.000;  903.000
256.337; -178.400; -861.000; -595.000
256.479;  166.900;  532.000;  416.000
256.621; -111.100; -394.000; -212.000
256.762; -155.000; -789.000; -742.000
256.904;  146.500;  485.000;  487.000
257.046;  -53.400; -381.000; -271.000
257.188;  -87.300; -351.000; -264.000
257.329; -129.200; -525.000; -464.000
257.471; -226.600; -939.000; -807.000
257.613; -104.200; -584.000; -498.000
257.755; -301.700;-1073.000; -982.000
257.896;  111.900;  286.000;  392.000
258.038; -119.000; -403.000; -352.000
258.180;  -62.600; -354.000; -279.000
258.321; -153.700; -581.000; -457.000
258.463;   41.400;  -71.000;  133.000
258.605; -170.600; -562.000; -570.000
258.746; -202.000; -886.000; -772.000
258.888; -281.900;-1026.000;-1020.000
259.029;   58.800;  121.000;   -8.000
259.171; -153.300; -614.000; -550.000
259.313;   34.100;  -49.000;  -47.000
259.454; -146.100; -536.000; -414.000
259.596;  -88.400; -483.000; -390.000
259.737; -133.900; -590.000; -474.000
259.879;  129.300;  217.000;  311.000
260.020;  192.300;  901.000;  636.000
260.162;  -38.200; -146.000; -253.000
260.303; -201.000; -768.000; -687.000
260.445; -147.600; -609.000; -613.000
260.586;   87.300;  392.000;  157.000
260.728;  -45.600; -360.000; -248.000
260.869; -129.800; -350.000; -343.000
261.011;  191.000;  706.000;  537.000
261.152; -113.900; -479.000; -319.000
261.293; -131.000; -576.000; -595.000
261.435;   -9.300; -219.000; -184.000
261.576;  -66.100; -455.000; -325.000
261.718;  139.900;  420.000;  470.000
261.859; -244.800; -940.000; -949.000
262.000; -263.200; -951.000;-1016.000
262.142;    9.900;  -52.000;  -60.000
262.283; -232.400; -808.000; -691.000
262.424; -156.500; -666.000; -625.000
262.566; -296.000;-1161.000; -983.000
262.707; -198.600; -840.000; -830.000
262.848; -237.700; -769.000; -726.000
262.990;  -57.300; -362.000; -345.000
263.131;  165.800;  650.000;  681.000
263.272;   27.200;  -61.000;  -41.000
263.413; -158.600; -589.000; -561.000
263.555; -104.000; -669.000; -143.000
263.696; -182.000; -550.000; -641.000
263.837; -102.900; -449.000; -551.000
263.978;   11.900;   -5.000;  -77.000
264.119;  -61.800; -283.000; -264.000
264.261; -196.800; -847.000; -630.000
264.402;   24.100;   33.000;   40.000
264.543; -142.200; -509.000; -524.000
264.684;   39.500;   61.000;  -50.000
264.825; -111.200; -816.000; -538.000
264.966;   10.400;  -84.000;  -67.000
265.107; -220.400; -646.000; -670.000
265.248; -207.100; -825.000; -812.000
265.390;   -2.500;  152.000;   -9.000
265.531;  -18.200; -238.000; -107.000
265.672; -156.200; -557.000; -630.000
265.813;  165.700;  563.000;  439.000
265.954; -264.700; -959.000; -940.000
266.095;  -17.200; -372.000; -322.000
266.236; -182.500; -686.000; -548.000
266.377;  -60.000; -243.000; -297.000
266.518; -134.600; -619.000; -547.000
266.659;   95.300;  170.000;  268.000
266.800;   63.700;   83.000;   85.000
266.941; -146.800; -487.000; -478.000
267.082;   34.000;  354.000;   99.000
267.223;  -63.500; -344.000; -273.000
267.364; -215.800; -892.000; -686.000
267.504;   51.300;    3.000;  135.000
267.645;   24.500;  160.000;   67.000
267.786;  -35.600; -147.000;  -86.000
267.927; -145.600; -473.000; -379.000
268.068;    9.300; -186.000;  -61.000
268.209;  -77.600; -175.000; -413.000
268.350; -112.000; -388.000; -532.000
268.490; -158.200; -648.000; -521.000
268.631;   92.100;  127.000;  225.000
268.772; -223.200; -874.000; -647.000
268.913; -103.100; -328.000; -476.000
269.054;  -15.600; -117.000;   12.000
269.194;  -59.900; -418.000; -402.000
269.335; -320.100;-1137.000;-1074.000
269.476;   23.200;   33.000;  -35.000
269.617;  -89.700; -347.000; -392.000
269.757; -137.100; -713.000; -646.000
269.898; -178.800; -856.000; -613.000
270.039;  -82.500; -415.000; -405.000
270.180; -268.000; -952.000; -816.000
270.320;  -19.700; -190.000; -250.000
270.461;  -66.900; -277.000; -249.000
270.602;   13.000; -186.000; -156.000
270.742; -244.100; -868.000; -943.000
270.883;  -70.700; -442.000; -390.000
271.023;  -69.000; -358.000; -357.000
271.164; -104.900; -607.000; -528.000
271.305; -176.900; -666.000; -654.000
271.445; -168.300; -722.000; -683.000
271.586; -136.600; -462.000; -283.000
271.726;  -66.200; -397.000; -322.000
271.867; -127.100; -594.000; -534.000
272.008;  311.600; -473.000; -285.000
272.148;  225.600;  462.000;  468.000
272.289;   41.200; -113.000; -181.000
272.429;   36.700;   19.000;  185.000
272.570; -165.500; -633.000; -737.000
272.710; -188.100; -825.000; -775.000
272.851;  -21.700;  113.000; -130.000
272.991; -323.700;-1173.000;-1077.000
273.131; -127.300; -419.000; -459.000
273.272; -171.000; -683.000; -723.000
273.412;   60.800; -143.000;  -31.000
273.553;  -93.900; -488.000; -507.000
273.693;  312.300;  913.000;  858.000
273.834; -195.900; -894.000; -692.000
273.974; -121.700; -664.000; -615.000
274.114; -193.500; -772.000; -560.000
274.255;  185.300;  414.000;  373.000
274.395;    9.500; -180.000; -125.000
274.535;  137.800;  199.000;  350.000
274.676;   71.600;  225.000;   94.000
274.816;   39.600;  110.000;   34.000
274.956; -130.900; -624.000; -690.000
275.097; -140.500;-1014.000; -922.000
275.237; -214.300; -913.000; -803.000
275.377; -173.600; -778.000; -689.000
275.517; -262.000; -878.000; -937.000
275.658; -109.000; -590.000; -555.000
275.798; -110.600; -606.000; -413.000
275.938;  108.100;  215.000;  323.000
276.078; -118.300; -626.000; -395.000
276.218;   50.900;   99.000;  104.000
276.359; -236.400;-1026.000;-1024.000
276.499; -107.000; -605.000; -446.000
276.639;  -43.900; -305.000; -151.000
276.779;  -59.400; -475.000; -357.000
276.919; -226.000; -783.000; -624.000
277.059;   14.700; -261.000; -212.000
277.199;  -50.300; -357.000; -259.000
277.340;  141.500;  287.000;  175.000
277.480; -228.900; -840.000; -693.000
277.620;   99.600;  192.000;   16.000
277.760; -401.000;-1533.000;-1294.000
277.900;   48.400;  113.000;   33.000
278.040;   63.200;  137.000;  159.000
278.180;  129.000;  270.000;  170.000
278.320;   29.800;   21.000;   56.000
278.460; -120.200; -443.000; -469.000
278.600; -156.400; -708.000; -598.000
278.740;  158.400;  448.000;  224.000
278.880; -126.900; -768.000; -791.000
279.020;   75.000; -194.000; -144.000
279.160; -167.400; -672.000; -595.000
279.300; -206.800; -926.000; -873.000
279.440; -147.800; -709.000; -622.000
279.579;  -70.400;-1014.000; -929.000
279.719; -104.700; -410.000; -394.000
279.859;  169.300;   -4.000;   41.000
279.999;   78.300; -208.000;  101.000
280.139;  -38.300; -435.000; -387.000
280.279; -150.400; -708.000; -745.000
280.419;   16.000; -229.000; -147.000
280.559;  -54.900; -259.000; -180.000
280.698; -112.600; -790.000; -639.000
280.838; -194.200; -778.000; -800.000
280.978; -162.600; -846.000; -790.000
281.118; -205.100; -811.000; -704.000
281.257;   52.100;   24.000;    6.000
281.397; -210.300;-1094.000; -960.000
281.537; -146.900; -599.000; -712.000
281.677;   -1.300; -150.000; -101.000
281.816; -138.500; -700.000; -630.000
281.956;  -27.600; -193.000; -257.000
282.096;  -67.900; -539.000; -396.000
282.235; -172.300; -672.000; -638.000
282.375;    2.400; -243.000;  -98.000
282.515; -191.900; -715.000; -707.000
282.654;   94.300;   29.000;  106.000
282.794;   60.800;  388.000;  244.000
282.934;  -71.800; -530.000; -491.000
283.073; -252.000;-1030.000; -857.000
283.213;  -83.900; -460.000; -467.000
283.353;  -32.400; -408.000; -349.000
283.492;   -2.400; -264.000; -296.000
283.632;  -55.700; -254.000; -168.000
283.771; -148.900; -859.000; -730.000
283.911;  -93.700; -369.000; -260.000
284.050; -197.400; -794.000; -748.000
284.190; -314.800;-1229.000;-1096.000
284.329; -251.200;-1055.000; -964.000
284.469; -109.000; -516.000; -591.000
284.608;  -76.700; -559.000; -598.000
284.748; -164.300; -614.000; -570.000
284.887;   37.500;  -87.000;  -20.000
285.027; -232.000; -844.000; -892.000
285.166;   10.900; -192.000; -249.000
285.306;   47.700; -116.000;  -33.000
285.445;  -34.900; -229.000; -343.000
285.584; -174.500; -630.000; -494.000
285.724;  -71.500; -282.000; -322.000
285.863; -220.100; -857.000; -507.000
286.002;  -59.000; -366.000; -276.000
286.142; -169.200; -715.000; -622.000
286.281; -110.200; -525.000; -493.000
286.420; -127.900; -554.000; -417.000
286.560;  249.700;  653.000;  623.000
286.699; -263.900; -958.000; -912.000
286.838; -124.800; -590.000; -591.000
286.978; -153.400; -533.000; -537.000
287.117; -250.800;-1085.000; -950.000
287.256;  -35.000; -228.000; -211.000
287.395;  -90.000; -197.000; -378.000
287.535;  -81.100; -370.000; -298.000
287.674; -149.600; -509.000; -484.000
287.813;  175.000;  661.000;  533.000
287.952; -208.400;-1010.000; -871.000
288.091; -296.200;-1049.000; -915.000
288.231;   96.500;   13.000;   15.000
288.370; -312.300;-1217.000;-1200.000
288.509; -152.400; -728.000; -645.000
288.648; -164.700; -770.000; -548.000
288.787;  -29.700; -243.000;  -87.000
288.926; -101.100; -454.000; -475.000
289.065;  295.000;  859.000;  672.000
289.204;  -98.200; -377.000; -217.000
289.344; -148.400; -791.000; -690.000
289.483;   71.400;  416.000;  304.000
289.622;   27.600; -291.000; -149.000
289.761;  -13.200; -309.000; -166.000
289.900; -182.000; -785.000; -626.000
290.039;    3.000;  -12.000;  -95.000
290.178;  -27.000; -274.000; -180.000
290.317; -146.700; -618.000; -479.000
290.456; -126.500; -463.000; -451.000
290.595; -270.200; -961.000; -833.000
290.734; -228.500; -904.000; -891.000
290.873; -120.100; -456.000; -420.000
291.011; -197.400; -833.000; -843.000
291.150; -199.300; -770.000; -682.000
291.289;   -8.800; -343.000; -110.000
291.428; -145.200; -599.000; -480.000
291.567;  -74.500; -370.000; -442.000
291.706;   18.700;  109.000;  154.000
291.845; -147.100; -597.000; -505.000
291.984; -325.400;-1234.000;-1061.000
292.122;  221.400;  602.000;  582.000
292.261;  151.000;  620.000;  463.000
292.400;   69.000; -144.000;  211.000
292.539; -214.700; -959.000; -813.000
292.678;   -9.700; -325.000; -300.000
292.816; -308.700;-1136.000; -965.000
292.955; -135.300; -844.000; -684.000
293.094;    1.300; -173.000; -337.000
293.233;  -91.300; -556.000; -400.000
293.371;  -45.600; -225.000;  -84.000
293.510; -158.200; -866.000; -780.000
293.649; -230.500; -959.000; -924.000
293.787; -113.500;-1083.000;-1012.000
293.926;   44.700; -113.000;  -32.000
294.065;  -48.300; -379.000; -290.000
294.203;  125.500;  298.000;  406.000
294.342;   95.200;   74.000;  156.000
294.481;11181.500;51180.000; -836.000
294.619;   -2.900; -425.000; -582.000
294.758; -273.200;-1230.000;-1137.000
294.896;  193.600; -125.000;    5.000
295.035; -233.400;-1040.000;-1006.000
295.174; -212.200;-1082.000; -954.000
295.312;  -34.600; -323.000; -203.000
295.451;   10.500; -307.000; -428.000
295.589;  -84.000; -389.000; -518.000
295.728;   88.000; -292.000; -165.000
295.866;   46.000;  -36.000;  -51.000
296.005; -123.500; -584.000; -341.000
296.143; -113.500; -558.000; -596.000
296.282; -175.700; -957.000; -881.000
296.420; -132.000; -657.000; -557.000
296.559; -136.000; -892.000; -633.000
296.697;    5.900; -847.000; -665.000
296.835;  115.800;-1141.000;-1002.000
296.974;  143.800;  -23.000;   39.000
297.112;   61.500; -443.000; -504.000
297.251; -120.300; -815.000; -755.000
297.389;  202.800; -576.000; -438.000
297.527;   98.700; -145.000;  -83.000
297.666;  -65.500; -486.000; -438.000
297.804;  -75.500; -404.000; -264.000
297.942;   37.200; -136.000; -161.000
298.081;   34.800; -183.000;   63.000
298.219;  169.700;  -17.000;  -19.000
298.357;  111.900; -144.000;  -71.000
298.495;   49.200; -810.000; -812.000
298.634;  170.100;  245.000;  219.000
298.772;  110.700; -220.000; -338.000
298.910;  -42.600; -309.000; -182.000
299.048;   29.200; -130.000; -153.000
299.187;  -34.400; -350.000; -250.000
299.325;   78.000;   52.000;  122.000
299.463;  125.400; -389.000; -299.000
299.601;  218.400; -327.000; -271.000
299.739; -205.900; -908.000; -883.000
299.877; -124.300; -791.000; -703.000
300.016; -132.500;-1095.000; -935.000
300.154;  296.300;  -19.000; -161.000
300.292;   92.800; -428.000; -348.000
300.430;   87.900; -408.000; -291.000
300.568; -208.900; -940.000; -874.000
300.706;  -62.500; -366.000; -469.000
300.844; -148.800;-1108.000; -979.000
300.982;  251.800;  246.000;  282.000
301.120; -200.400; -965.000; -866.000
301.258; -128.100; -812.000; -705.000
301.396;   87.800;  104.000;  -41.000
301.534;  153.300; -218.000; -293.000
301.672;    4.900; -664.000; -521.000
301.810;   53.500; -613.000; -545.000
301.948;  280.300;   53.000;  149.000
302.086; 1015.600; -250.000;  -32.000
302.224; 1604.600; -610.000; -585.000
302.362;  100.900; -558.000; -622.000
302.500;  -45.500; -923.000; -893.000
302.638;  264.300;  128.000;  245.000
302.776;   25.000; -352.000; -408.000
302.913;  115.200;  447.000;  236.000
303.051;    6.600;  -86.000;  -23.000
303.189;  142.500;   90.000;  118.000
303.327;  -57.000; -341.000; -256.000
303.465; -130.900; -832.000; -588.000
303.603; -165.900; -805.000; -604.000
303.740;  210.200;  417.000;  241.000
303.878;    9.600; -800.000; -759.000
304.016; -163.800; -915.000; -790.000
304.154; -242.400;-1123.000;-1152.000
304.291;  -20.400; -505.000; -554.000
304.429;   50.900;  102.000;   74.000
304.567; -205.000; -908.000; -893.000
304.705;  -80.900; -408.000; -515.000
304.842;  174.800; -616.000; -540.000
304.980;  130.500;  215.000;   35.000
305.118;  102.400; -367.000; -365.000
305.255; -108.200; -945.000; -927.000
305.393;  190.100;  178.000;  239.000
305.531; -201.000;-1173.000; -956.000
305.668; -106.800; -663.000; -582.000
305.806;  171.600; -358.000; -439.000
305.943;  218.400; -629.000; -637.000
306.081;   94.200; -378.000; -267.000
306.219; -142.800; -863.000; -748.000
306.356;   32.900;  158.000;   27.000
306.494;  245.400;  981.000;  761.000
306.631;   34.900;  -11.000;  -55.000
306.769;   59.500; -613.000; -485.000
306.906;   -6.800; -284.000; -258.000
307.044;  -59.400; -473.000; -488.000
307.181;  -93.500; -410.000; -332.000
307.319;   96.500;  112.000;   87.000
307.456; -307.800;-1191.000;-1153.000
307.594; -165.900; -980.000; -727.000
307.731;   11.600; -371.000; -164.000
307.868;   55.000;  -15.000;   20.000
308.006; -250.600; -961.000; -847.000
308.143;  -48.600; -618.000; -330.000
308.281;  379.900;  -37.000; -254.000
308.418;   57.900; -748.000; -640.000
308.555; -103.100; -400.000; -250.000
308.693;  -94.300; -577.000; -573.000
308.830; -174.600; -712.000; -657.000
308.967;   21.300; -215.000;  -95.000
309.105;  -30.900; -507.000; -396.000
309.242;  121.900; -468.000; -367.000
309.379;  710.400; -577.000; -655.000
309.517;  -28.500; -936.000; -948.000
309.654; -140.400; -910.000; -734.000
309.791;  -90.300; -662.000; -580.000
309.928; -170.500; -977.000; -914.000
310.065;  377.800;  819.000;  697.000
310.203;  -55.100; -825.000; -850.000
310.340;   56.000; -465.000; -321.000
310.477; -112.500; -412.000; -516.000
310.614;  -65.900; -383.000; -473.000
310.751; -119.400; -427.000; -518.000
310.889;   16.300;    1.000;   11.000
311.026; -255.800;-1161.000; -939.000
311.163;  -29.100; -386.000; -380.000
311.300;  -78.600; -512.000; -479.000
311.437;  -51.800; -658.000; -619.000
311.574; -290.400;-1226.000; -985.000
311.711;  -92.700; -595.000; -433.000
311.848;  -22.000; -380.000; -388.000
311.985;   92.900;  270.000;   93.000
312.122; -193.300; -932.000; -762.000
312.259; -198.000; -941.000; -994.000
312.396; -127.000; -508.000; -551.000
312.533; -109.700; -812.000; -790.000
312.670; -242.600;-1070.000; -898.000
312.807;    6.400; -352.000; -367.000
312.944; -109.500; -513.000; -611.000
313.081;   -5.900; -150.000; -415.000
313.218; -171.100;-1111.000; -867.000
313.355;   48.000; -531.000; -449.000
313.492;   21.800; -455.000; -292.000
313.629;  316.300;  815.000;  735.000
313.766; -291.900;-1176.000;-1008.000
313.902;   39.700; -186.000;   21.000
314.039;  -88.800; -372.000; -289.000
314.176;  134.200;  286.000;  192.000
314.313; -105.800; -569.000; -473.000
314.450; -106.300; -788.000; -684.000
314.587;  -79.800; -468.000; -480.000
314.723;   66.400;  -78.000;  130.000
314.860;  101.500;  318.000;  332.000
314.997;  112.200;  223.000;  142.000
315.134;  -43.900; -385.000; -368.000
315.270;  -22.500; -480.000; -496.000
315.407; -209.000;-1094.000; -967.000
315.544;  -41.900; -657.000; -538.000
315.681;  -85.700; -681.000; -565.000
315.817;   60.900; -133.000; -176.000
315.954;   26.300; -613.000; -392.000
316.091; -193.200;-1045.000;-1023.000
316.227;   -1.600;  -71.000; -179.000
316.364;   55.400;   23.000;    6.000
316.500;  -31.800; -113.000; -300.000
316.637;  -61.700; -181.000; -302.000
316.774; -128.800; -625.000; -358.000
316.910;  -97.400; -598.000; -629.000
317.047;  -77.800; -487.000; -351.000
317.183;  -15.000; -435.000; -566.000
317.320;  -24.600; -367.000; -321.000
317.456;  -74.600; -733.000; -805.000
317.593; -136.500; -598.000; -641.000
317.729;   56.500;  168.000;  -67.000
317.866; -359.700;-1434.000;-1285.000
318.002; -148.500; -708.000; -948.000
318.139; -159.400; -883.000; -867.000
318.275; -165.700;-1003.000; -738.000
318.412;  -91.100; -517.000; -336.000
318.548;  -23.500; -751.000; -720.000
318.685; -176.900; -985.000; -888.000
318.821; -168.800; -762.000; -735.000
318.957;   11.700;   34.000;  -23.000
319.094;  127.600;  297.000;  154.000
319.230; -149.600; -756.000; -742.000
319.367;  221.800; -471.000; -520.000
319.503;  137.500; -538.000; -436.000
319.639; -153.400; -877.000; -793.000
319.775; -112.900; -750.000; -685.000
319.912;  -28.100; -424.000; -519.000
320.048; -144.200;-1184.000;-1184.000
320.184;  200.500;   59.000;   70.000
320.321;  -93.100; -497.000; -467.000
320.457;  188.700;  475.000;  662.000
320.593;  -84.200; -375.000; -382.000
320.729; -164.600; -732.000; -734.000
320.866; -104.600; -577.000; -635.000
321.002; -112.900; -759.000; -809.000
321.138;  -17.400; -135.000; -211.000
321.274;  185.500; -148.000; -115.000
321.410;  -26.100; -585.000; -353.000
321.546;  -47.600;-1011.000; -911.000
321.683;  119.300;  400.000;  185.000
321.819;   78.000;  -48.000; -117.000
321.955; -203.100; -743.000; -722.000
322.091;  -72.400; -585.000; -540.000
322.227;  -11.700; -382.000; -202.000
322.363;   30.000; -320.000; -215.000
322.499;  -59.000; -343.000; -331.000
322.635;  365.100;  636.000;  443.000
322.771;   43.800; -139.000;   12.000
322.907;  214.900;  129.000;  327.000
323.043;    2.700; -115.000; -206.000
323.179;   14.300; -394.000; -363.000
323.315;   25.100; -401.000; -371.000
323.451;  256.000; -328.000; -236.000
323.587;  140.800;  -60.000;  -77.000
323.723;   54.000; -682.000; -601.000
323.859;    7.400; -258.000;  -76.000
323.995;  -18.600; -467.000; -409.000
324.131; -230.100; -967.000; -892.000
324.267;  -13.600; -254.000; -276.000
324.402; -226.100; -960.000; -983.000
324.538;    0.900; -279.000; -104.000
324.674;   91.500;  164.000;   77.000
324.810;  368.600;  226.000;  308.000
324.946;   55.200; -810.000; -658.000
325.082; -110.600; -568.000; -475.000
325.217;    0.800;  -62.000;   16.000
325.353; -170.400; -764.000; -659.000
325.489; -130.900; -540.000; -506.000
325.625; -109.900; -579.000; -525.000
325.760;  170.700;  517.000;  376.000
325.896;  -17.200; -515.000; -702.000
326.032;  -66.900; -403.000; -352.000
326.168;  -86.400; -462.000; -369.000
326.303;  -73.700; -352.000; -461.000
326.439;   33.400; -336.000; -276.000
326.575;   31.600; -190.000;  -29.000
326.710;   42.000; -156.000;  -30.000
326.846;    7.900;  146.000;  103.000
326.982; -151.700; -530.000; -548.000
327.117;  -85.600; -481.000; -442.000
327.253; -131.900; -745.000; -742.000
327.388; -268.600;-1137.000;-1153.000
327.524;  -13.700; -811.000; -578.000
327.659;   11.400;  -58.000;  -22.000
327.795;   16.000;   69.000;   45.000
327.931; -139.800; -723.000; -499.000
328.066;   12.200; -417.000; -276.000
328.202;   -9.700;   12.000; -129.000
328.337;  292.900;  957.000;  713.000
328.473;    0.600;  -12.000;  -74.000
328.608;   17.400; -256.000; -267.000
328.743; -155.600; -799.000; -664.000
328.879;  101.000;  214.000;  114.000
329.014; -106.300; -102.000; -122.000
329.150; -115.600; -358.000; -483.000
329.285; -133.600; -465.000; -466.000
329.421;  -53.600; -548.000; -246.000
329.556;    4.900;  -36.000;   85.000
329.691; -142.600; -633.000; -615.000
329.827; -147.200; -626.000; -480.000
329.962;    6.200;  131.000; -301.000
330.097; -163.300; -673.000; -585.000
330.233;  -44.700; -410.000; -223.000
330.368; -208.000; -839.000; -628.000
330.503;   26.800;    3.000;   98.000
330.638;   34.400;  -93.000; -125.000
330.774;  -68.300; -609.000; -530.000
330.909;  -27.000; -434.000; -244.000
331.044; -141.700; -714.000; -708.000
331.179; -316.600;-1217.000;-1109.000
331.315;   80.000;   77.000;   20.000
331.450;   90.900;  157.000;  285.000
331.585; -127.800; -805.000; -706.000
331.720; -182.800; -510.000; -460.000
331.855;   35.300;  -35.000; -102.000
331.990;  441.800;   62.000;  138.000
332.126;  283.900; -110.000;   71.000
332.261;  -25.300; -379.000; -265.000
332.396;   53.600; -135.000; -242.000
332.531; -172.800;-1074.000;-1031.000
332.666;  148.700; -519.000; -363.000
332.801; -173.500; -726.000; -807.000
332.936;    9.800; -192.000; -122.000
333.071; -221.200; -870.000; -817.000
333.206;  117.600;  307.000;  379.000
333.341;  103.500;  344.000;  418.000
333.476; -136.400; -627.000; -623.000
333.611;  -23.200; -251.000; -173.000
333.746;  -60.200; -381.000; -464.000
333.881; -227.700; -973.000; -935.000
334.016; -217.200; -936.000; -917.000
334.151; -210.800; -746.000; -702.000
334.286;  110.100;  152.000;  186.000
334.421;   17.100; -125.000; -178.000
334.556; -135.300; -611.000; -567.000
334.690; -136.300; -631.000; -577.000
334.825;  149.300;  381.000;   83.000
334.960;  -84.900; -285.000; -413.000
335.095;   54.200;  135.000;  -91.000
335.230; -164.700; -722.000; -738.000
335.365; -215.500;-1084.000; -990.000
335.499; -237.200;-1108.000;-1037.000
335.634;   98.100;    9.000;  534.000
335.769; -173.800; -755.000; -720.000
335.904;  -89.300; -603.000; -561.000
336.038;  -64.800; -735.000; -657.000
336.173; -193.800;-1206.000;-1194.000
336.308;   68.800; -116.000; -189.000
336.443;   67.300; -544.000; -634.000
336.577; -136.700; -936.000; -787.000
336.712;  186.400;   -4.000;  -12.000
336.847;  -47.000; -724.000; -607.000
336.981;  114.100; -272.000; -208.000
337.116;  554.700;  615.000;  501.000
337.250;  269.700; -434.000; -421.000
337.385;  452.600; -297.000; -208.000
337.520;  206.400; -632.000; -603.000
337.654;  -13.900; -215.000; -126.000
337.789; -224.500; -989.000; -933.000
337.923;  -26.100; -104.000; -205.000
338.058; -140.800; -673.000; -738.000
338.192;  -55.900; -611.000; -488.000
338.327;   44.500;  -18.000; -155.000
338.461;  -63.900; -299.000; -469.000
338.596; -127.700; -780.000; -638.000
338.730; -163.400; -767.000; -803.000
338.865;  209.400;  -46.000; -140.000
338.999;  -66.400; -846.000; -702.000
339.134;  -20.900; -634.000; -536.000
339.268;   57.600; -741.000; -603.000
339.403;  676.200; -740.000; -775.000
339.537;  237.200; -894.000; -820.000
339.671; -169.100; -829.000; -813.000
339.806; -111.800; -556.000; -512.000
339.940;   83.900; -261.000; -235.000
340.074; -177.800; -685.000; -510.000
340.209;  -44.800; -351.000; -230.000
340.343; -141.400; -517.000; -573.000
340.477;  387.600;  998.000; 1036.000
340.612;  -75.100;-1033.000; -900.000
340.746;  278.200; -199.000; -243.000
340.880; -149.200; -924.000; -785.000
341.014;   43.600;  -45.000; -154.000
341.149; -182.500; -756.000; -718.000
341.283; -181.300; -839.000; -754.000
341.417; -172.200;-1124.000; -938.000
341.551;  218.300; -768.000; -708.000
341.685;  -45.800; -633.000; -611.000
341.820;  -22.800; -562.000; -493.000
341.954;  -65.600; -218.000; -349.000
342.088; -244.600;-1102.000;-1019.000
342.222;  134.700;  565.000;  618.000
342.356;  -51.700; -395.000; -335.000
342.490; -166.000; -880.000; -841.000
342.624;  -42.200; -339.000; -242.000
342.758;   41.500; -364.000; -312.000
342.892;  -80.800; -710.000; -585.000
343.026;  -26.000;  -58.000; -116.000
343.160;  -50.700; -426.000; -376.000
343.294; -119.400; -474.000; -337.000
343.428;   11.300; -488.000; -448.000
343.562;   24.800; -172.000;  -23.000
343.696;  -10.100; -385.000; -314.000
343.830;  -40.300; -362.000; -356.000
343.964;   64.400; -231.000; -168.000
344.098; 1583.400;  199.000;   70.000
344.232; 1332.400; -266.000; -127.000
344.366;  157.900; -567.000; -453.000
344.500;  131.500; -665.000; -744.000
344.634;   79.400; -324.000; -164.000
344.768;   14.500; -531.000; -341.000
344.902;   85.200;  278.000;  256.000
345.035; -106.500; -556.000; -496.000
345.169; -256.600; -933.000; -656.000
345.303;   24.400; -308.000; -482.000
345.437;  -84.300; -826.000; -717.000
345.571;  -99.800; -675.000; -594.000
345.704; -110.300; -309.000; -532.000
345.838;   15.100; -331.000; -284.000
345.972;  -59.900; -543.000; -495.000
346.106;  350.500; -179.000; -190.000
346.239;  786.100; -312.000; -243.000
346.373;   68.400; -343.000; -302.000
346.507; -233.200; -950.000; -962.000
346.640;  318.800;  -30.000;   13.000
346.774;  -53.500; -650.000; -797.000
346.908;   30.500; -138.000;  -11.000
347.041; -154.000; -646.000; -593.000
347.175;   85.600;  259.000;   27.000
347.309; -117.200; -698.000; -628.000
347.442; -162.400; -883.000; -732.000
347.576;  511.500;  670.000;  668.000
347.709;  373.900; -123.000;  -52.000
347.843; -142.000; -933.000; -825.000
347.976;  131.600;  235.000;  294.000
348.110; -311.200;-1268.000;-1186.000
348.243; -139.100; -679.000; -772.000
348.377;   19.500;  -26.000;   60.000
348.510;  190.700;  403.000;  540.000
348.644;   -8.200;  -37.000; -159.000
348.777;   77.300;  180.000;  191.000
348.911;  -77.800; -142.000; -112.000
349.044;  370.500;  471.000;  448.000
349.178;  232.700;-1069.000;-1006.000
349.311;  256.600;  141.000;  255.000
349.444;   17.200; -927.000; -813.000
349.578;   21.000; -347.000; -200.000
349.711; -162.800; -959.000; -862.000
349.845;    4.200; -661.000; -591.000
349.978; -267.700;-1224.000;-1137.000
350.111; -119.800; -546.000; -612.000
350.244;  -98.400; -596.000; -700.000
350.378;   91.100; -392.000; -393.000
350.511;  -93.800; -393.000; -426.000
350.644; -144.000; -808.000; -806.000
350.778;   67.900;  168.000;  104.000
350.911;   99.600;  134.000;  140.000
351.044; -141.000; -685.000; -615.000
351.177;   18.200; -321.000; -281.000
351.310;   -8.600;    3.000; -131.000
351.444; -130.200; -888.000; -788.000
351.577;  257.000;  140.000;   90.000
351.710;  272.500;  593.000;  417.000
351.843;   11.000; -165.000;  -77.000
351.976;   60.000;  149.000;  -79.000
352.109; -151.100; -621.000; -612.000
352.242;   21.300; -464.000; -419.000
352.376;  -95.200; -580.000; -636.000
352.509;  331.400; -437.000; -356.000
352.642;    8.900; -654.000; -604.000
352.775;  115.900; -141.000;  -98.000
352.908; -165.400; -933.000; -904.000
353.041; -144.700; -814.000; -824.000
353.174;  -59.300; -551.000; -424.000
353.307; -116.300; -753.000; -764.000
353.440;  163.700;  541.000;  453.000
353.573; -192.300; -957.000;-1008.000
353.706;  -26.700; -384.000; -558.000
353.839;    3.300; -264.000; -220.000
353.971; -151.700; -657.000; -512.000
354.104; -123.000; -896.000; -835.000
354.237;  -43.100; -627.000; -662.000
354.370; -107.100; -846.000; -879.000
354.503; -329.100;-1231.000;-1308.000
354.636;  -11.600; -529.000; -348.000
354.769; -233.900; -937.000; -860.000
354.902;   42.900; -230.000; -139.000
355.034;   -4.500; -164.000; -220.000
355.167;   12.200; -262.000; -162.000
355.300; -200.100;-1061.000; -880.000
355.433; 1897.400;  -71.000;  -14.000
355.565; 2765.100; -402.000; -384.000
355.698;  741.400; -356.000; -296.000
355.831;   -2.700; -882.000; -801.000
355.964;  188.500; -285.000; -170.000
356.096; -120.300; -856.000; -843.000
356.229;   75.400; -523.000; -530.000
356.362;  608.700; -373.000; -266.000
356.494; 1131.500; -229.000; -162.000
356.627;  907.300;  269.000;  377.000
356.760; 1278.300;  120.000;   53.000
356.892; 1737.700; -286.000; -601.000
357.025; 1197.800;  403.000;  389.000
357.157; 1077.700; -167.000; -179.000
357.290; 1217.300; -856.000; -713.000
357.423;  332.600; -667.000; -556.000
357.555;  252.600; -217.000; -228.000
357.688;  202.900; -483.000; -364.000
357.820;  755.900; -870.000; -877.000
357.953; 5977.800; -563.000; -589.000
358.085; 1326.400; -632.000; -612.000
358.218; 1935.900;-1131.000; -932.000
358.350;  415.800;  -58.000;  312.000
358.483; -205.600;-1300.000;-1187.000
358.615;  -11.400;-1182.000;-1078.000
358.747; -137.400;-1187.000;-1058.000
358.880;   42.700; -810.000; -744.000
359.012;   26.400; -376.000; -202.000
359.145;  -22.200; -480.000; -511.000
359.277;   86.100; -962.000; -913.000
359.409; 5086.300;  536.000;  231.000
359.542; 1258.400; -738.000; -688.000
359.674;  149.900;   46.000;   13.000
359.806;  -92.100; -565.000; -438.000
359.939;  -28.400; -617.000; -516.000
360.071;   10.100; -583.000; -579.000
360.203;   13.500; -411.000; -364.000
360.335;  147.900;  164.000;  -16.000
360.468;  361.800; -249.000; -307.000
360.600; 4049.300; -547.000; -454.000
360.732; 5073.200; -546.000; -423.000
360.864;  671.700;-1216.000;-1044.000
360.996;  535.400; -516.000; -554.000
361.129;   94.500; -389.000; -598.000
361.261;   92.100;  110.000; -113.000
361.393;   -8.900; -252.000; -214.000
361.525;   89.200;   94.000;  244.000
361.657;  -62.100; -821.000; -703.000
361.789;   97.000; -139.000; -155.000
361.921;  443.100; -642.000; -593.000
362.053;  494.500;  524.000;  541.000
362.185;  168.100;  288.000;   72.000
362.318;  -99.000; -709.000; -705.000
362.450;  272.100;  294.000;  444.000
362.582;  207.500; -913.000; -870.000
362.714;  -55.500; -353.000; -332.000
362.846;  -94.500; -606.000; -490.000
362.978; -241.100; -941.000; -811.000
363.109;  110.500; -161.000; -260.000
363.241;  759.800; -739.000; -749.000
363.373;  788.000; -649.000; -564.000
363.505; 1207.700; -186.000;  -91.000
363.637;  315.000; -787.000; -601.000
363.769; -228.600;-1067.000;-1080.000
363.901;  -82.000; -596.000; -654.000
364.033; -203.800;-1103.000;-1062.000
364.165;   50.700; -283.000; -283.000
364.296;  156.000; -316.000; -177.000
364.428;  142.800;-1344.000;-1220.000
364.560;  -93.100; -679.000; -661.000
364.692; -106.000; -738.000; -835.000
364.824;  519.000; -588.000; -456.000
364.955;  861.300; -402.000; -564.000
365.087; 1621.800;-1097.000; -852.000
365.219;   86.400; -686.000; -816.000
365.351;  -93.300; -526.000; -572.000
365.482;  174.700;  300.000;  240.000
365.614;  -36.800; -402.000; -314.000
365.746; -141.500; -729.000; -752.000
365.877; -164.900; -706.000; -672.000
366.009;  546.300;  -35.000;  -62.000
366.141; -168.200;-1249.000;-1134.000
366.272; -150.600; -803.000; -719.000
366.404; -180.500;-1005.000; -874.000
366.535;   73.500; -139.000;  -12.000
366.667; -173.900; -644.000; -649.000
366.799;  152.800;  353.000;  203.000
366.930; -231.500; -862.000; -996.000
367.062;  269.800; -639.000; -613.000
367.193;  301.500; -872.000; -842.000
367.325;  -50.300; -580.000; -684.000
367.456;  138.300; -246.000;   31.000
367.588;  374.100; -371.000; -318.000
367.719;   56.500;  -44.000;  -45.000
367.851;   34.700; -222.000; -241.000
367.982;  -84.300; -875.000; -732.000
368.113;  216.300; -475.000; -358.000
368.245; -190.300; -960.000; -841.000
368.376;   34.600; -254.000; -302.000
368.508;  -18.300; -188.000; -263.000
368.639; -227.100;-1166.000;-1034.000
368.770;   -0.300; -670.000; -589.000
368.902;  -73.000; -836.000; -926.000
369.033; -164.800; -906.000; -855.000
369.164;  -42.600; -720.000; -653.000
369.296; -176.500; -452.000; -601.000
369.427;   42.200; -209.000; -144.000
369.558;  -40.200; -593.000; -377.000
369.689; -108.400; -721.000; -569.000
369.821; -191.500; -951.000; -845.000
369.952;   60.800;   42.000; -108.000
370.083;  -34.200; -229.000; -108.000
370.214; -110.100; -735.000; -650.000
370.345;   34.200;   65.000;   81.000
370.477; -114.100; -810.000; -790.000
370.608;  373.700; -328.000; -264.000
370.739;  -96.500;-1233.000;-1292.000
370.870;  -61.900;-1102.000; -923.000
371.001;  201.300; -378.000; -467.000
371.132; -127.100; -754.000; -735.000
371.263;   25.200;  -42.000; -148.000
371.394; -215.900; -841.000; -748.000
371.525;  115.900;  345.000;  225.000
371.657; -163.400; -808.000; -670.000
371.788;  194.800;  103.000;  199.000
371.919;  326.600; -384.000; -304.000
372.050; 5947.600;  -91.000; -156.000
372.181; 1745.200; -188.000; -294.000
372.311;  668.100;   42.000; -127.000
372.442;   75.900; -457.000; -451.000
372.573;   19.000; -444.000; -340.000
372.704; -194.600;-1008.000; -980.000
372.835;  189.100; -228.000; -289.000
372.966;  -68.100; -646.000; -554.000
373.097;  -94.300; -575.000; -711.000
373.228;  -64.300; -717.000; -542.000
373.359;  248.600; -824.000; -536.000
373.490; 1528.100; -881.000; -727.000
373.620; 1891.000;-1001.000; -803.000
373.751; 2983.300; -332.000; -396.000
373.882; 1321.100; -663.000; -733.000
374.013;  135.700; -449.000; -262.000
374.143;  -38.000; -581.000; -659.000
374.274; -185.700; -987.000; -908.000
374.405;  387.300; -388.000; -276.000
374.536;  779.300; -526.000; -387.000
374.666; 1882.800; -759.000; -807.000
374.797;  369.200; -817.000; -868.000
374.928; 1470.100; -710.000; -560.000
375.058; 1536.100; -535.000; -500.000
375.189;  191.400;  -59.000;  -93.000
375.320; -168.000; -928.000;-1034.000
375.450;   -1.700; -625.000; -616.000
375.581;  -68.400; -526.000; -436.000
375.712;   -3.500; -574.000; -250.000
375.842;  591.800; -438.000; -415.000
375.973;  406.800; -554.000; -513.000
376.103;  -19.500; -665.000; -648.000
376.234;  -92.200; -531.000; -552.000
376.364;  -52.100; -944.000; -867.000
376.495;  618.400;  925.000;  529.000
376.625;   28.800; -472.000; -485.000
376.756;  164.300; -709.000; -678.000
376.886; -123.800;-1178.000;-1026.000
377.017;  126.000;-1048.000;-1061.000
377.147;  680.300; -786.000; -782.000
377.278;  189.100;  174.000;  228.000
377.408; -216.800; -801.000; -815.000
377.538; -137.000; -707.000; -693.000
377.669; -135.800; -537.000; -613.000
377.799; -112.900; -645.000; -635.000
377.929;  -85.400; -610.000; -428.000
378.060; -175.700; -781.000; -847.000
378.190;  -39.800; -726.000; -531.000
378.320;  -17.100; -401.000; -406.000
378.451;   18.300; -131.000;  -22.000
378.581;   79.800;  -67.000; -110.000
378.711;  326.400; 1035.000;  866.000
378.841;    7.100; -533.000; -675.000
378.972; -104.700; -871.000; -751.000
379.102;   47.100; -652.000; -579.000
379.232;  -23.800; -126.000;  -73.000
379.362; -152.000;-1001.000; -885.000
379.492;   17.300; -373.000; -424.000
379.623;  257.300;    0.000;  111.000
379.753; -113.300;-1107.000; -974.000
379.883;  469.100;   59.000;  156.000
380.013;   14.500;-1081.000;-1017.000
380.143; -127.800;-1097.000;-1056.000
380.273; -179.300; -985.000; -861.000
380.403;   51.400; -344.000; -257.000
380.533;  -44.400; -651.000; -664.000
380.663;  177.000;  173.000;  128.000
380.793; -177.900;-1027.000;-1074.000
380.923;   21.600; -103.000;  -34.000
381.053; -157.800; -613.000; -623.000
381.183;   10.000; -106.000; -248.000
381.313;  123.500; -656.000; -470.000
381.443;  124.500; -692.000; -473.000
381.573;  407.000; -402.000; -409.000
381.703;  517.500;-1249.000;-1095.000
381.833; -198.600;-1454.000;-1336.000
381.963;  276.600; -134.000;  -87.000
382.093; 2334.000; -925.000; -909.000
382.223;  691.600; -713.000; -602.000
382.353;  -23.500; -801.000; -608.000
382.482;  625.600;-1091.000; -964.000
382.612; 1340.400; -872.000; -644.000
382.742;  725.500; -695.000; -622.000
382.872;  483.100; -565.000; -551.000
383.002;  175.800;  347.000; -132.000
383.131;   18.500; -226.000; -160.000
383.261;  -29.400; -706.000; -768.000
383.391;  525.300; -552.000; -377.000
383.521; 5871.600;  451.000;  263.000
383.650; 1302.000; -947.000; -904.000
383.780;   19.700; -783.000; -656.000
383.910;  264.700;  880.000;  802.000
384.039;   92.800; -794.000; -656.000
384.169;  359.000;-1205.000;-1017.000
384.299;   -6.000; -650.000; -662.000
384.428; -124.100; -764.000; -680.000
384.558;  -12.100; -308.000; -275.000
384.687;    1.400; -414.000; -334.000
384.817;  105.700;   75.000;   -2.000
384.947;   83.000; -234.000; -141.000
385.076;  604.300;  982.000;  912.000
385.206;  255.400;  369.000;  480.000
385.335;   16.500; -549.000; -417.000
385.465; -126.900; -655.000; -663.000
385.594;  303.900;  -53.000;  -44.000
385.724;  641.000; -868.000; -838.000
385.853;  303.100; -296.000; -270.000
385.982; 2384.500; -743.000; -787.000
386.112; 3425.000;-1052.000; -871.000
386.241;  256.000; -307.000; -312.000
386.371;  115.400; -174.000;  -87.000
386.500;   46.300; -825.000; -789.000
386.629;   88.500; -874.000; -817.000
386.759;  206.800;  -43.000;   68.000
386.888;  106.700; -170.000; -250.000
387.017;  -99.000; -648.000; -620.000
387.147; -110.600; -771.000; -798.000
387.276;   81.400; -410.000; -397.000
387.405;   94.200; -398.000; -342.000
387.535;  -46.100; -452.000; -361.000
387.664;  -72.700; -692.000; -620.000
387.793;  194.200; -198.000; -113.000
387.922;  983.600;  255.000;  200.000
388.052;   52.800; -576.000; -423.000
388.181;   97.200; -342.000; -472.000
388.310;   66.300; -889.000; -710.000
388.439;  -15.000; -749.000; -742.000
388.568;  373.800;  365.000;  244.000
388.697; 1774.700; -756.000; -653.000
388.826;  347.300; -768.000; -666.000
388.956;  164.300; -285.000; -307.000
389.085;  -44.800; -347.000; -287.000
389.214; -152.600; -842.000; -872.000
389.343; -109.400; -645.000; -413.000
389.472;  842.800;  126.000;  149.000
389.601;  993.700;   91.000;    0.000
389.730;   67.300; -568.000; -687.000
389.859;  174.600;  226.000;   46.000
389.988;  372.900; -423.000; -408.000
390.117;  271.600; -168.000; -146.000
390.246;   56.900; -331.000; -320.000
390.375;  236.400; -673.000; -626.000
390.504;  -64.200; -703.000; -621.000
390.633; -143.700; -672.000; -726.000
390.761;  -90.400; -732.000; -645.000
390.890;   61.800;   -4.000; -130.000
391.019;   12.500; -421.000; -441.000
391.148; -203.600; -826.000; -855.000
391.277;  -83.100; -576.000; -493.000
391.406;  -94.300; -821.000; -805.000
391.534;  162.700;  574.000; -301.000
391.663;  -84.600; -583.000; -645.000
391.792;  -90.000; -673.000; -701.000
391.921;  233.400;   -3.000;   15.000
392.050;  347.400; -287.000; -228.000
392.178;  -72.400;-1206.000;-1061.000
392.307;  282.500; -758.000; -712.000
392.436;  105.200; -427.000; -641.000
392.564;  145.800;  166.000;   -6.000
392.693; -117.900; -860.000; -682.000
392.822;  400.700; -529.000; -534.000
392.950;  183.000; -880.000; -714.000
393.079;  608.200; -188.000; -328.000
393.208;   56.600; -488.000; -511.000
393.336;   74.900; -170.000; -145.000
393.465;  -47.700; -317.000; -199.000
393.593;   94.300;   62.000;   79.000
393.722; -239.900;-1121.000; -916.000
393.850;   -9.700; -188.000;  -61.000
393.979; -255.500; -926.000; -805.000
394.107;  -76.000; -517.000; -537.000
394.236;    3.900; -570.000; -507.000
394.364;  542.400;  383.000;  206.000
394.493;  751.800; -911.000; -767.000
394.621;   17.800; -955.000; -916.000
394.750; 1393.200; -873.000; -923.000
394.878; 5663.100; -247.000; -149.000
395.007; 7278.100; -721.000; -807.000
395.135;  592.000; -790.000; -721.000
395.263; -131.100;-1038.000;-1040.000
395.392;  109.100;  -25.000; -107.000
395.520; -136.900; -818.000; -679.000
395.648; -135.400; -865.000; -915.000
395.777;    1.300; -366.000; -405.000
395.905;   -7.800; -449.000; -564.000
396.033;  106.200;  217.000;  172.000
396.162; 1268.800; -399.000; -453.000
396.290; 1091.600;  -17.000;   -2.000
396.418;  242.600; -555.000; -514.000
396.546; -123.100; -571.000; -466.000
396.674; -137.100; -850.000; -878.000
396.803;   97.700;  -72.000;  -23.000
396.931;  208.400; -179.000; -199.000
397.059;   59.700;-1026.000; -989.000
397.187; -173.400;-1026.000; -975.000
397.315; -211.700; -884.000; -649.000
397.443; -122.000; -592.000; -443.000
397.572; -144.500; -578.000; -424.000
397.700;    1.000; -607.000; -614.000
397.828;   77.400;  120.000;  -90.000
397.956;   -8.500; -508.000; -478.000
398.084;  -73.100; -767.000; -626.000
398.212;  123.700;  137.000;  124.000
398.340;   65.600;  -56.000;  159.000
398.468;   75.400; -390.000; -169.000
398.596; -225.100; -993.000; -953.000
398.724; -158.400; -762.000; -767.000
398.852; -270.300;-1024.000; -976.000
398.980;  -37.200; -560.000; -560.000
399.108;  -62.300; -982.000; -735.000
399.236;  113.900;   13.000;    8.000
399.363;   55.600;  222.000;  196.000
399.491;  -39.600; -404.000; -398.000
399.619; -193.600; -829.000; -800.000
399.747; -145.200; -859.000; -771.000
399.875;  186.300;  220.000;  234.000
400.003;  -18.200; -359.000; -284.000
400.130; -129.000; -421.000; -341.000
400.258;   12.200;  -83.000;   38.000
400.386;  -57.800; -352.000; -168.000
400.514;  -23.000; -526.000; -587.000
400.641; -140.700; -928.000; -802.000
400.769; -197.500; -979.000; -888.000
400.897; -162.400; -838.000; -793.000
401.025;   50.200; -166.000; -152.000
401.152;   45.000;  220.000;   38.000
401.280; -104.400; -430.000; -429.000
401.408; -185.100; -712.000; -576.000
401.535; -139.300; -735.000; -758.000
401.663; -351.800;-1134.000;-1054.000
401.790;  -92.600; -514.000; -525.000
401.918;  130.600;  436.000;  405.000
402.046;   47.900;  134.000;  122.000
402.173;   25.100;  -18.000;    7.000
402.301;  -75.400; -519.000; -397.000
402.428;  124.200;  528.000;  383.000
402.556; -211.300;-1188.000; -913.000
402.683;   20.000;  -20.000;   -1.000
402.811;   49.900;  -37.000; -206.000
402.938;   14.300;   20.000;   27.000
403.066;  363.400; -574.000; -558.000
403.193;  555.300;  299.000;  239.000
403.321;  450.500; -396.000; -574.000
403.448;  589.400;   83.000;   27.000
403.575;  290.200;  -90.000;  -46.000
403.703; -160.700; -732.000; -557.000
403.830;  -47.200; -531.000; -496.000
403.957; -234.000;-1117.000;-1023.000
404.085;  105.900;  -61.000; -172.000
404.212;  269.200;  -50.000;   63.000
404.339;  565.200; -566.000; -306.000
404.467;11146.700; -612.000; -524.000
404.594; 6824.200; -287.000; -227.000
404.721; 1521.000; -869.000; -764.000
404.848;  212.400; -113.000; -202.000
404.976; -180.800; -856.000; -783.000
405.103;   65.100;  -14.000;  -82.000
405.230;   70.400;  190.000;  226.000
405.357;  135.900;  117.000;   44.000
405.484;  547.700;  -49.000;    5.000
405.612;  140.800; -548.000; -563.000
405.739;  -61.300; -488.000; -243.000
405.866;  266.100;  669.000;  385.000
405.993;  -45.300; -398.000; -102.000
406.120; -210.100; -801.000; -887.000
406.247;  -70.900; -323.000; -342.000
406.374;  892.200;  540.000;  629.000
406.501;  173.100; -632.000; -702.000
406.628;  -85.100; -621.000; -589.000
406.755; -123.500; -803.000; -620.000
406.882;  -33.900; -228.000; -277.000
407.009; -134.500; -719.000; -628.000
407.136;  129.300; -480.000; -401.000
407.263;  251.500; -939.000; -829.000
407.390; -103.900; -692.000; -614.000
407.517; -269.300;-1139.000;-1187.000
407.644;  -52.200; -332.000; -256.000
407.771;  -94.700; -249.000; -287.000
407.898;   90.600;  168.000;  328.000
408.025;  -76.500; -421.000; -313.000
408.151;   47.000;   82.000;  153.000
408.278;  -65.700; -267.000; -216.000
408.405; -136.900; -931.000; -899.000
408.532;  -88.100; -549.000; -542.000
408.659; -162.700; -677.000; -648.000
408.785; -361.600;-1298.000;-1170.000
408.912;  -13.700; -412.000; -296.000
409.039; -154.900; -610.000; -686.000
409.166; -131.200; -591.000; -555.000
409.292; -157.900; -571.000; -534.000
409.419; -171.500; -665.000; -649.000
409.546; -130.200; -431.000; -192.000
409.672; -147.900; -713.000; -545.000
409.799;    5.700;  -36.000;   34.000
409.926;  -22.300; -180.000; -179.000
410.052; -337.300;-1127.000;-1091.000
410.179;  -75.100; -368.000; -392.000
410.305; -105.900; -375.000; -493.000
410.432;  -37.000; -220.000; -333.000
410.558; -123.700; -305.000; -380.000
410.685; -124.800; -688.000; -431.000
410.812; -124.200; -409.000; -588.000
410.938; -198.200; -964.000; -808.000
411.065; -165.600; -671.000; -645.000
411.191;   16.900; -189.000; -174.000
411.317; -153.800; -823.000; -742.000
411.444;  -60.700; -317.000; -246.000
411.570;  -67.000; -339.000; -294.000
411.697; -187.500; -758.000; -752.000
411.823; -293.700; -989.000; -999.000
411.949;   39.300;  -56.000;   17.000
412.076; -157.100; -539.000; -519.000
412.202; -131.900; -758.000; -757.000
412.329; -210.700; -798.000; -752.000
412.455; -136.900; -821.000; -657.000
412.581;  -13.900;  -15.000;  172.000
412.707;  -61.600; -540.000; -457.000
412.834;  105.900;  156.000;  219.000
412.960;  -99.100; -785.000; -784.000
413.086; -154.100; -743.000; -701.000
413.212;  363.600;  604.000;  578.000
413.339;  -93.500; -685.000; -701.000
413.465;   18.400; -364.000; -310.000
413.591; -139.900; -757.000; -474.000
413.717;  -40.400; -358.000; -366.000
413.843; -226.300; -839.000; -861.000
413.969;  -25.000;  -47.000; -292.000
414.096; -151.100; -679.000; -679.000
414.222;   53.000;  -33.000;   85.000
414.348;    7.600; -652.000; -385.000
414.474;  215.800;   38.000;  -52.000
414.600;    6.700; -126.000; -144.000
414.726;   53.800;  -96.000;  -55.000
414.852;  -34.900; -365.000; -342.000
414.978;  139.500;  104.000;  -18.000
415.104;  120.100;   38.000;   80.000
415.230;  128.500; -329.000; -330.000
415.356;  125.100; -409.000; -514.000
415.482;  444.600;   13.000;  -35.000
415.608;  601.900; -247.000; -323.000
415.734; 1996.700;   67.000;   38.000
415.860;38733.200; -875.000; -767.000
415.986;25639.000; -685.000; -607.000
416.111; 2126.100; -798.000; -652.000
416.237;  546.400; -424.000; -571.000
416.363; 2269.800; -765.000; -733.000
416.489; 7684.000; -324.000; -251.000
416.615;  780.400; -707.000; -742.000
416.741;   15.800; -677.000; -784.000
416.866; -141.200; -673.000; -736.000
416.992; -173.800; -801.000; -818.000
417.118;    0.100;  -41.000;  -80.000
417.244;  -64.600; -798.000; -531.000
417.369; -104.400; -801.000; -612.000
417.495;   56.300; -325.000; -254.000
417.621; -137.200;-1015.000; -803.000
417.746;   74.100; -579.000; -572.000
417.872;  189.000; -254.000; -144.000
417.998;  176.700; -515.000; -530.000
418.123; 2214.900;-1073.000; -845.000
418.249;10011.000; -512.000; -601.000
418.374; 1260.900; -916.000; -824.000
418.500;  264.900; -383.000; -482.000
418.626;  271.900;   70.000;  -59.000
418.751;  286.800; -549.000; -448.000
418.877;  391.500; -637.000; -643.000
419.002; 3825.900; -688.000; -560.000
419.128;23561.300; -930.000; -721.000
419.253; 5274.400; -967.000; -837.000
419.379;  756.300; -391.000; -338.000
419.504;  808.300;  325.000;  415.000
419.629; 1015.100; -393.000; -212.000
419.755; 7280.700; -317.000; -254.000
419.880;38749.000;  -98.000;   67.000
420.006;21789.500; -280.000; -221.000
420.131;53168.900; -662.000; -775.000
420.256; 6906.100; -315.000; -316.000
420.382; 1002.700; -665.000; -687.000
420.507;  158.000; -649.000; -778.000
420.632;  260.800; -337.000; -339.000
420.758;  456.400; -251.000; -425.000
420.883; -117.500; -876.000; -672.000
421.008; -127.500; -775.000; -619.000
421.133;  -76.700; -509.000; -467.000
421.259;   25.700; -325.000; -259.000
421.384; -202.400; -834.000; -693.000
421.509;  -29.600;-1052.000; -862.000
421.634; 1990.900; -936.000; -820.000
421.759;  805.300; -359.000; -327.000
421.885;  -49.800; -717.000; -656.000
422.010;  -79.600; -673.000; -542.000
422.135; -242.900; -695.000; -727.000
422.260;  151.300;  340.000;  280.000
422.385;    6.000;   12.000;  -98.000
422.510;   79.500;  151.000;  -26.000
422.635;   88.400;  -87.000;  -43.000
422.760;  195.500; -766.000; -791.000
422.885;  152.300;  -57.000;  -80.000
423.010;   41.600; -112.000; -169.000
423.135; -140.700; -481.000; -561.000
423.260;   58.000; -150.000; -245.000
423.385;  171.000;  476.000;  222.000
423.510;  125.600;   71.000;  -22.000
423.635;  216.400;  133.000;   45.000
423.760;  202.600;  383.000;  328.000
423.885;  182.000;  336.000;  391.000
424.010;   97.100;  -68.000;  -13.000
424.135;   22.400;    5.000;  -33.000
424.259;  -71.600; -654.000; -457.000
424.384;  -55.500; -279.000; -272.000
424.509;   17.000; -260.000; -186.000
424.634; -135.700; -761.000; -623.000
424.759;   -5.400; -688.000; -544.000
424.883;   19.300; -506.000; -527.000
425.008;  366.400; -502.000; -410.000
425.133; 3855.900; -679.000; -653.000
425.258; 1638.300; -517.000; -381.000
425.382; 1819.000; -867.000; -774.000
425.507; 4254.400; -487.000; -543.000
425.632;  682.700; -802.000; -663.000
425.756;  899.700; -256.000; -146.000
425.881;13022.700; -831.000; -857.000
426.006;31655.400; -604.000; -355.000
426.130; 4546.100; -696.000; -508.000
426.255;  681.400; -611.000; -491.000
426.379;  336.500; -189.000; -577.000
426.504;  840.500;  660.000;  544.000
426.629; 8023.500; -519.000; -466.000
426.753; 4859.200;   64.000;  -46.000
426.878;  647.700; -252.000; -288.000
427.002;  430.900; -651.000; -668.000
427.127; 3185.900;  -35.000; -158.000
427.251;21629.300;  372.000;  401.000
427.375; 5446.200; -191.000; -173.000
427.500; 3891.800; -616.000; -610.000
427.624; 1260.000; -234.000; -400.000
427.749;  178.600; -216.000; -225.000
427.873;  -45.800; -499.000; -412.000
427.997;   12.500; -222.000; -230.000
428.122;  257.900;  795.000;  703.000
428.246;  251.400;  433.000;  434.000
428.371; -195.700; -869.000; -773.000
428.495; -103.200; -624.000; -646.000
428.619;   43.600; -186.000; -117.000
428.743;  149.600;   65.000;  132.000
428.868;   28.500; -732.000; -643.000
428.992; 2448.800; -219.000; -326.000
429.116;  949.200; -329.000; -357.000
429.240;  589.100;  419.000;  426.000
429.365;   36.200; -454.000; -574.000
429.489;  -26.800; -638.000; -647.000
429.613;   84.500; -236.000; -177.000
429.737;  147.500; -563.000; -432.000
429.861;  577.200; -247.000; -133.000
429.985;11155.900; -425.000; -305.000
430.109;10938.000; -770.000; -908.000
430.234; 1289.000;   76.000;  -50.000
430.358;  186.600; -250.000; -160.000
430.482;  -43.300; -672.000; -564.000
430.606;  -55.500; -655.000; -375.000
430.730;  104.800; -437.000; -388.000
430.854;  240.800; -909.000; -835.000
430.978;  -64.100; -795.000; -764.000
431.102;  -80.900; -499.000; -422.000
431.226; -130.400; -874.000; -815.000
431.350;  147.900;  345.000;  422.000
431.474;  -59.000; -661.000; -373.000
431.597; -243.200;-1060.000; -848.000
431.721;  -78.900; -276.000; -267.000
431.845; -204.100; -704.000; -472.000
431.969;  -90.700; -304.000; -349.000
432.093; -123.100; -395.000; -317.000
432.217;   54.100;   32.000;   82.000
432.341; -121.100; -523.000; -518.000
432.464;   74.600;   96.000;   40.000
432.588;  395.500; -401.000; -329.000
432.712;  234.500;  -52.000;  -52.000
432.836;  151.800;  213.000;  263.000
432.959;   37.700; -372.000; -311.000
433.083;  214.200;   11.000;    2.000
433.207;  822.600;  285.000;  930.000
433.330;10042.600; -391.000; -200.000
433.454;11296.500; -654.000; -638.000
433.578; 6689.400;  583.000;  278.000
433.701; 1151.300; -623.000; -675.000
433.825;  300.200; -292.000; -299.000
433.949;  424.700;   28.000;  -72.000
434.072;  152.900; -410.000; -323.000
434.196;   25.600; -309.000; -117.000
434.319; 7786.300;25482.000;25124.000
434.443; 1498.100; -656.000; -603.000
434.566; 5045.600;  281.000;   62.000
434.690;  759.800; -637.000; -383.000
434.813;  150.500; -251.000; -173.000
434.937;  -75.500; -569.000; -696.000
435.060;    0.700; -423.000; -332.000
435.184;  610.200; -492.000; -217.000
435.307;  321.300;  159.000;  102.000
435.431;   33.700;  -40.000;   24.000
435.554;  -66.500; -399.000; -240.000
435.677;  -80.700; -350.000; -258.000
435.801;    3.000;  -25.000;   49.000
435.924;   45.700;    1.000;  -67.000
436.048; -173.600;-1019.000; -732.000
436.171;  -35.000; -240.000;  -66.000
436.294;    4.500; -248.000; -229.000
436.417;  267.400; -963.000; -849.000
436.541; -149.400; -814.000; -840.000
436.664;  -18.600; -242.000; -316.000
436.787;   24.300;   13.000;  113.000
436.910;  -99.900; -792.000; -422.000
437.034;   72.100;  142.000;  143.000
437.157;  180.900;  -11.000;    0.000
437.280;  -42.100; -392.000; -292.000
437.403; -111.800; -982.000; -869.000
437.526; 1176.500; -903.000; -865.000
437.649; 3739.600; -505.000; -332.000
437.772;  506.000; -692.000; -540.000
437.896;  308.600;  700.000;  544.000
438.019; -163.500; -758.000; -503.000
438.142; -103.500; -596.000; -506.000
438.265;   16.400; -639.000; -670.000
438.388; 1022.300; -520.000; -410.000
438.511;  181.600; -597.000; -394.000
438.634;  -28.300; -247.000; -125.000
438.757; -189.200; -693.000; -619.000
438.880;   66.500;  -34.000;  -57.000
439.003;  -98.900; -417.000; -437.000
439.126;  -54.700; -287.000; -167.000
439.248;  -67.700;  -98.000; -139.000
439.371;   19.800;    9.000;  -53.000
439.494;  145.200;  510.000;  439.000
439.617;  -15.000;   65.000;  -88.000
439.740; -289.400; -968.000; -816.000
439.863; -191.300; -755.000; -595.000
439.986; -181.900; -476.000; -431.000
440.108;  -24.000; -161.000; -112.000
440.231; -259.500; -950.000; -836.000
440.354;    5.600;  -64.000; -150.000
440.477;  104.500; -566.000; -542.000
440.599;   70.000; -200.000; -225.000
440.722; -209.000; -709.000; -586.000
440.845;  228.800;  751.000;  928.000
440.968; -144.300; -415.000; -311.000
441.090;  -29.500; -199.000;  -33.000
441.213; -276.800;-1021.000; -825.000
441.336;   -3.200; -159.000;   -5.000
441.458;  -79.600; -549.000; -396.000
441.581; -120.000; -628.000; -629.000
441.703;  -76.300; -152.000;   13.000
441.826; -143.200; -557.000; -400.000
441.948;  -63.100;   56.000;   51.000
442.071;  146.400;  555.000;  424.000
442.193; -159.000; -531.000; -485.000
442.316;  126.000;  152.000;   97.000
442.438;  148.100; -233.000;  -10.000
442.561;  206.400;  272.000;  262.000
442.683;  976.400; -809.000; -522.000
442.806; 1950.900;   -8.000;   74.000
442.928;    6.700; -859.000; -604.000
443.051;  -67.000; -577.000; -373.000
443.173; -111.200; -341.000; -339.000
443.295;  -91.800; -263.000; -371.000
443.418;  -85.300; -321.000;  -29.000
443.540;   56.800; -106.000;   -4.000
443.662; -173.400; -563.000; -465.000
443.785;   58.000;  335.000;  199.000
443.907; -163.500; -362.000; -208.000
444.029; -201.200; -767.000; -494.000
444.152; -214.400; -644.000; -554.000
444.274;   23.100;  -18.000;  -24.000
444.396; -169.600; -461.000; -221.000
444.518; -207.300; -691.000; -454.000
444.640; -119.800; -268.000; -111.000
444.763;   57.800;  388.000;  249.000
444.885; -174.900; -432.000; -392.000
445.007;    8.000;   35.000;   86.000
445.129; -167.000; -610.000; -515.000
445.251; -117.100; -372.000; -439.000
445.373; -204.100; -537.000; -386.000
445.495;   81.700;  242.000;  350.000
445.617;  179.000;  853.000;  753.000
445.739;  -46.100; -215.000;  -97.000
445.861;  -12.200; -245.000; -112.000
445.984;  -11.000; -267.000; -101.000
446.105;  397.600; -418.000; -251.000
446.227; 1047.900; -176.000;  -19.000
446.349;   11.100; -358.000; -249.000
446.471; -159.800; -615.000; -448.000
446.593;  -42.600; -316.000;   19.000
446.715;   45.900;  -67.000;   41.000
446.837;  199.700;  697.000;  832.000
446.959; -131.500; -457.000; -478.000
447.081; -230.900; -628.000; -518.000
447.203;  218.200;  862.000;  834.000
447.325; -139.800; -270.000;   42.000
447.446;   99.700;  286.000;  530.000
447.568; -260.900; -921.000; -803.000
447.690;  -73.100; -236.000; -245.000
447.812; -228.100; -798.000; -519.000
447.933;   64.300;  155.000;  127.000
448.055;  -57.400; -306.000; -261.000
448.177;  378.000;   31.000;   79.000
448.299;  118.200; -935.000; -727.000
448.420;   79.500;  -25.000;  159.000
448.542;  -44.000;   -3.000;   33.000
448.664;   35.900;  109.000;  322.000
448.785;   43.400;  265.000;   83.000
448.907;  -81.600; -614.000; -353.000
449.028;  -16.000; -771.000; -471.000
449.150;  208.500;  492.000;  589.000
449.272; -298.000;-1044.000; -913.000
449.393;  166.300;  612.000;  694.000
449.515; -220.600; -634.000; -581.000
449.636;  -23.400; -264.000; -155.000
449.758;  206.700;  763.000;  622.000
449.879;  -90.200; -498.000; -396.000
450.001; -100.000; -149.000;  -49.000
450.122;   17.300;  -95.000;  162.000
450.244;   22.000;   37.000;  364.000
450.365; -115.000; -495.000; -301.000
450.486;  -34.900;   80.000;  268.000
450.608;  127.300;  393.000;  326.000
450.729;  250.200;  578.000;  645.000
450.850;   86.600; -574.000; -466.000
450.972; 1560.400; -552.000; -389.000
451.093; 9564.800;  190.000;  588.000
451.214; 3625.100; -516.000; -337.000
451.336;  776.200;  773.000;  579.000
451.457;  155.000;  264.000;  393.000
451.578;   22.500; -118.000;  -74.000
451.699; -164.400; -546.000; -540.000
451.821;  -60.200; -284.000;  -50.000
451.942;  104.900;  278.000;  285.000
452.063;  169.400;  228.000;  419.000
452.184; 1170.600;  -54.000;  -49.000
452.305; 2138.500;  103.000;  170.000
452.427;  234.300; -549.000; -301.000
452.548;   46.500;   23.000;   79.000
452.669;  -27.700; -257.000;  -89.000
452.790;  -20.700;    3.000;  -18.000
452.911;   56.300;  195.000;  259.000
453.032;  -42.500; -289.000;  -60.000
453.153;   -6.100;  -29.000;   81.000
453.274;  212.000;  737.000;  868.000
453.395;  -38.500;  -51.000;  175.000
453.516;  394.200; 1317.000; 1388.000
453.637;  -77.200; -205.000; -150.000
453.758;  -11.500;   15.000;   69.000
453.879; -202.800; -462.000; -250.000
454.000;  256.500; 1086.000;  948.000
454.121; -167.300; -554.000; -326.000
454.242; -153.700; -599.000; -383.000
454.362;  -69.300;  -99.000;  114.000
454.483;   14.900; -309.000; -229.000
454.604;  169.700;  512.000;  580.000
454.725; -196.500; -627.000; -555.000
454.846; -188.500; -474.000; -406.000
454.967;   54.300;  230.000;  539.000
455.087;  -13.200;  179.000;  153.000
455.208;  139.200;  554.000;  856.000
455.329;  -56.500;  -22.000;   82.000
455.450;  125.700;  473.000;  633.000
455.570; -109.700; -234.000; -211.000
455.691;   12.100;  201.000;  407.000
455.812; -148.300; -270.000;  -92.000
455.932;  -50.000;  107.000;  -97.000
456.053;  -87.900;   36.000;   24.000
456.173; -121.400; -433.000; -355.000
456.294; -210.900; -476.000; -303.000
456.415;  -36.500;  -73.000;   70.000
456.535;    6.900;  297.000;  273.000
456.656;  -19.800;  132.000;  240.000
456.776;  -76.500;    3.000;  298.000
456.897;   82.800;  308.000;  513.000
457.017;  -91.900; -153.000;   -3.000
457.138; -113.500; -402.000; -249.000
457.258;   21.700;  263.000;  224.000
457.379;  100.900;  509.000;  521.000
457.499;   19.700;  443.000;  432.000
457.620; -150.500; -407.000; -231.000
457.740; -147.200; -132.000;  -11.000
457.860;  -13.400;   87.000;   44.000
457.981;  -22.700;  132.000;  124.000
458.101;  -41.600;  -89.000;   40.000
458.221;   22.000;  336.000;  402.000
458.342;  -31.500;   -4.000;  -37.000
458.462;  126.700;  617.000;  352.000
458.582;   -6.400; -302.000; -294.000
458.703;  101.100;  303.000;  154.000
458.823;   32.400;   22.000;  163.000
458.943;  117.600;  341.000;  467.000
459.063;   62.300; 1124.000;  192.000
459.183;   12.800;  328.000;  313.000
459.304;  119.400;  315.000;  517.000
459.424;  -52.500; -246.000;  -89.000
459.544;  757.000;  388.000;  764.000
459.664; 1607.800;  499.000;  506.000
459.784;  634.500; 1004.000; 1175.000
459.904;  199.400;  867.000;  744.000
460.024;  235.900;  867.000;  684.000
460.144;   75.500;  449.000;  554.000
460.264;   67.900;  515.000;  327.000
460.385; -147.800; -145.000; -119.000
460.505;  181.000;  905.000;  858.000
460.625; -102.100;  -17.000;  -68.000
460.745;   82.300;  396.000;  541.000
460.864;  -24.900;  153.000;  469.000
460.984;   83.100;  499.000;  573.000
461.104;  363.400; 1656.000; 1775.000
461.224;  118.900;  657.000;  650.000
461.344;   27.300;  431.000;  360.000
461.464;   11.000;  258.000;  513.000
461.584;   57.700;  283.000;  466.000
461.704;  -27.900;   58.000;  108.000
461.824;  -50.500;  238.000;  259.000
461.943;   -4.100;  191.000;  130.000
462.063;  -78.700;    2.000;  324.000
462.183;  122.500;  639.000;  717.000
462.303;  277.300; 1678.000; 1230.000
462.422;  153.100;  781.000;  840.000
462.542;  -11.700;  271.000;  391.000
462.662;  185.800;  353.000;  380.000
462.782;  577.700;  833.000;  572.000
462.901;  977.800;  545.000;  717.000
463.021;  574.600; 1702.000; 1638.000
463.141;   65.600;  337.000;  770.000
463.260;    6.700;  614.000;  474.000
463.380;  131.000;  902.000;  884.000
463.499;  -26.000;  342.000;  332.000
463.619;   27.900;  581.000;  559.000
463.738;  290.000; 1644.000;  903.000
463.858;  111.700;  657.000;  811.000
463.978;   42.900;  542.000;  396.000
464.097;  207.700;  921.000; 1114.000
464.217;  332.700; 1196.000; 1143.000
464.336;  295.900; 1068.000; 1130.000
464.455;    3.600;  328.000;  659.000
464.575;  180.700;  597.000;  602.000
464.694;  369.900; 1204.000; 1179.000
464.814;  307.700; 1190.000; 1138.000
464.933;  222.700; 1095.000; 1027.000
465.052;  251.300; 1412.000; 1054.000
465.172;  209.900;  922.000;  799.000
465.291;  373.800; 1376.000; 1320.000
465.410;   92.700;  462.000;  735.000
465.530;  265.600; 1355.000; 1310.000
465.649;  210.900; 1209.000; 1273.000
465.768;  385.400; 1673.000; 1508.000
465.888;  165.800;  941.000; 1174.000
466.007;  285.700; 1335.000; 1440.000
466.126;   88.700;  721.000;  641.000
466.245;  167.900; 1176.000; 1187.000
466.364;   67.500;  950.000; 1060.000
466.484;  211.600; 1024.000; 1213.000
466.603;  184.300; 1101.000; 1222.000
466.722;  341.600; 1490.000; 1769.000
466.841;  178.100; 1151.000; 1401.000
466.960;  196.700; 1069.000;  972.000
467.079;  373.600; 1971.000; 1786.000
467.198;  211.700; 1238.000; 1181.000
467.317;  296.700; 1768.000; 1162.000
467.436;  256.000; 1709.000; 1261.000
467.555;  330.100; 1796.000; 1746.000
467.674;  253.900; 1227.000; 1329.000
467.793;  183.100; 1376.000; 1374.000
467.912;  261.000; 1658.000; 1539.000
468.031;  395.300; 2038.000; 1930.000
468.150;  341.000; 1842.000; 1837.000
468.269;  497.400; 2313.000; 2090.000
468.388;  474.600; 2168.000; 2339.000
468.507;  614.300; 2884.000; 2903.000
468.626;  657.900; 2555.000; 2541.000
468.744;  381.000; 2018.000; 2174.000
468.863;  510.800; 2312.000; 2523.000
468.982;  271.900; 1503.000; 1555.000
469.101;  515.400; 2788.000; 2692.000
469.220;  386.900; 2333.000; 2176.000
469.338;  613.000; 2935.000; 3051.000
469.457;  508.400; 2719.000; 2545.000
469.576;  817.100; 3953.000; 3784.000
469.695;  572.700; 2877.000; 3066.000
469.813;  954.100; 4148.000; 4192.000
469.932;  918.100; 4255.000; 4485.000
470.051;  925.500; 4075.000; 4161.000
470.169; 1754.500; 4470.000; 4338.000
470.288; 2883.700; 4700.000; 4809.000
470.406; 1704.800; 5059.000; 5194.000
470.525; 1362.600; 6101.000; 5787.000
470.644; 1386.900; 6847.000; 6794.000
470.762; 1745.400; 8397.000; 7873.000
470.881; 1922.900; 8651.000; 8464.000
470.999; 2200.800; 9685.000; 9151.000
471.118; 2282.600;11174.000;10711.000

