
Integration time [ms]: 100.000
Averaging Nr. [scans]: 40
Smoothing Nr. [pixels]: 0
Data measured with spectrometer [name]: 2101012U2
Wave   ;Sample   ;Dark     ;Reference
[nm]   ;[counts] ;[counts] ;[counts] 

197.733;   57.150;  516.000;  404.000
197.879;  -76.250; -610.000; -634.000
198.025;  -49.475; -475.000; -420.000
198.171;  -74.775; -602.000; -612.000
198.317;  -29.175; -401.000; -316.000
198.463;  -48.175; -655.000; -404.000
198.609;   26.900;  181.000; -137.000
198.755;  -82.050; -644.000; -410.000
198.901;  -64.725; -505.000; -424.000
199.047;  -61.125; -615.000; -488.000
199.193;  -53.800; -230.000; -468.000
199.339;  -34.100; -222.000; -369.000
199.485;   29.100;  330.000;  271.000
199.631;   21.125;  227.000;  310.000
199.777;  -58.650; -466.000; -398.000
199.923;  -58.125; -610.000; -424.000
200.069;   -6.975; -141.000;  -58.000
200.215;   52.600;  128.000;  453.000
200.361;   43.200;  243.000;  477.000
200.507;  -68.250; -600.000; -373.000
200.653;  -23.450; -371.000; -194.000
200.798;  -25.250; -215.000; -125.000
200.944;   -1.925; -146.000;  -41.000
201.090;   34.250;   61.000;  222.000
201.236;   -4.950; -116.000; -158.000
201.382;  128.375;  874.000;  903.000
201.528;   11.100;  -58.000;  -48.000
201.674;  -53.600; -386.000; -293.000
201.819;  -65.400; -540.000; -439.000
201.965;  -89.025; -699.000; -447.000
202.111;  -28.025; -273.000; -226.000
202.257;  -40.925; -250.000; -238.000
202.402;    0.225;   13.000;  -36.000
202.548;  -11.725; -169.000; -116.000
202.694;   84.500;  410.000; -183.000
202.840;  -70.675; -603.000; -531.000
202.985;  -76.875; -681.000; -639.000
203.131; -122.825; -832.000; -666.000
203.277;  -35.775; -199.000; -262.000
203.423;  -60.750; -434.000; -520.000
203.568;  -56.050; -462.000; -237.000
203.714;  -45.025; -535.000; -542.000
203.860;  -87.175; -682.000; -641.000
204.005;   16.700;  112.000;  167.000
204.151;   68.650;  561.000;  556.000
204.296;  -44.200; -354.000; -221.000
204.442;  -81.375; -600.000; -547.000
204.588;  -69.250; -592.000; -579.000
204.733;   18.825;  178.000;  168.000
204.879; -134.800;-1018.000; -822.000
205.025;   -4.200;  -99.000;  126.000
205.170;    2.625;  -17.000;   94.000
205.316;   75.350;  438.000;  661.000
205.461;  -81.025; -698.000; -554.000
205.607;   80.875;  609.000;  665.000
205.752;  -75.050; -626.000; -551.000
205.898;  -68.400; -501.000; -391.000
206.043;  -68.400; -578.000; -506.000
206.189;  -51.375; -243.000; -285.000
206.334;   89.375;  554.000;  606.000
206.480;   78.825;  409.000;  239.000
206.625;  -80.625; -529.000; -552.000
206.771;  -51.200; -451.000; -373.000
206.916;  -49.350; -210.000; -537.000
207.062;  -73.150; -545.000; -591.000
207.207;  -53.000; -546.000; -443.000
207.353;   48.800;  185.000;  460.000
207.498;   21.825;  196.000;   85.000
207.643;  -52.350; -501.000; -370.000
207.789; -125.800;-1069.000; -910.000
207.934;  -95.750; -665.000; -713.000
208.080;  -27.825; -154.000;   66.000
208.225;  -14.875;  -22.000;  -57.000
208.370;  -75.650; -727.000; -619.000
208.516;  -79.775; -741.000; -487.000
208.661;  -17.725; -127.000;  -69.000
208.806;  -33.025; -165.000; -171.000
208.952; -115.050;-1044.000; -731.000
209.097;   66.750;  378.000;  349.000
209.242;  -50.975; -307.000; -382.000
209.387;   59.100;  392.000;  350.000
209.533;  -50.175; -321.000; -350.000
209.678;   72.200;  472.000;  543.000
209.823;  -39.200; -408.000; -310.000
209.969; -109.600; -860.000; -757.000
210.114; -111.875; -907.000; -719.000
210.259; -127.400; -939.000; -889.000
210.404;   -1.050; -171.000;  103.000
210.549;    2.675;  108.000;    3.000
210.695;  -17.175;   -3.000;  -95.000
210.840;    8.325;   94.000;   67.000
210.985;  -63.600; -484.000; -303.000
211.130;   47.650;  268.000;  406.000
211.275;   18.225;  207.000;  199.000
211.420;  -54.850; -300.000; -289.000
211.566;  -67.750; -536.000; -489.000
211.711;   21.175;  218.000;  157.000
211.856;  -53.850; -545.000; -519.000
212.001;  -11.550;  151.000;   44.000
212.146;   38.225;  153.000;   49.000
212.291;  -33.050; -210.000; -186.000
212.436;  -11.900; -280.000;   -6.000
212.581;  -83.375; -685.000; -653.000
212.726;  -58.025; -487.000; -538.000
212.871;  -59.550; -552.000; -217.000
213.016; -146.850;-1172.000;-1029.000
213.161;   51.700;  406.000;  291.000
213.306;  -61.925; -435.000; -577.000
213.451;  -98.175; -778.000; -689.000
213.596;  -41.650; -455.000; -347.000
213.741;  -63.775; -448.000; -538.000
213.886;  -91.175; -498.000; -517.000
214.031;  -22.900; -294.000; -124.000
214.176;  -44.325; -408.000; -341.000
214.321;  -29.350; -296.000; -157.000
214.466;  -24.300; -163.000;  -43.000
214.611;   -2.225;  -61.000;  -10.000
214.756; -132.450; -948.000; -858.000
214.901;  -14.825; -388.000; -226.000
215.046; -128.500; -797.000; -825.000
215.191;    1.925;  128.000;   35.000
215.336;  -11.300; -157.000;  -19.000
215.480;  -72.475; -684.000; -505.000
215.625;   -5.650; -175.000;  -19.000
215.770;  -89.225; -757.000; -662.000
215.915;  -15.175;   -5.000;  -97.000
216.060;  -13.675; -113.000;  -21.000
216.205; -101.775; -731.000; -779.000
216.349;  -85.500; -470.000; -533.000
216.494; -129.625; -939.000; -867.000
216.639; -127.650; -823.000; -888.000
216.784;  -78.550; -577.000; -525.000
216.929;   48.675;  392.000;  281.000
217.073;   -4.100; -244.000;  -31.000
217.218;    4.725;   78.000;  -47.000
217.363;  -78.250; -656.000; -618.000
217.507;  -92.300; -623.000; -588.000
217.652; -111.100; -845.000; -874.000
217.797;  -85.275; -708.000; -659.000
217.942; -111.450; -856.000; -720.000
218.086;   70.400;  608.000;  539.000
218.231;  -16.825; -174.000;  -26.000
218.376;  -46.600; -337.000; -229.000
218.520;    6.875;  -41.000;   96.000
218.665;  -40.200; -338.000; -204.000
218.810;  -43.275; -275.000; -233.000
218.954;    7.500;  201.000;   35.000
219.099;  -97.000; -713.000; -963.000
219.243;  -83.850; -589.000; -554.000
219.388;  -21.950; -264.000; -136.000
219.532;  -20.950; -116.000; -116.000
219.677;  -65.800; -564.000; -521.000
219.822;    3.900;   33.000;   89.000
219.966;   25.000;   17.000;  -99.000
220.111;  -53.475; -328.000;  -40.000
220.255;  -90.250; -797.000; -750.000
220.400;  -25.450; -180.000; -146.000
220.544;  -77.675; -516.000; -450.000
220.689;  -52.125; -422.000; -451.000
220.833;  -10.475; -123.000;  -58.000
220.978;  -34.650; -393.000; -563.000
221.122;   29.900;  319.000;  307.000
221.267; -131.725; -906.000; -837.000
221.411;  -57.750; -478.000; -394.000
221.555;  -12.075; -104.000;  -23.000
221.700;  -39.125; -329.000; -222.000
221.844;   31.000;  255.000;  272.000
221.989;  -39.225; -328.000; -311.000
222.133;  -47.050; -289.000; -307.000
222.277;   -0.750;    5.000;   78.000
222.422;    2.200;  227.000;  113.000
222.566;  -30.550; -381.000; -214.000
222.711;  -52.975; -414.000; -479.000
222.855;  -72.900; -643.000; -586.000
222.999;  -89.125; -642.000; -717.000
223.144;  -39.800; -195.000; -194.000
223.288;   46.450;  423.000;  251.000
223.432;   45.800;  184.000;  230.000
223.576;   18.275;  152.000;  -21.000
223.721;   41.600;  364.000;  273.000
223.865;  -66.500; -472.000; -475.000
224.009;  251.525; 1673.000; 1631.000
224.153;  -88.650; -660.000; -671.000
224.298;  -68.125; -531.000; -489.000
224.442;  -23.725;  -74.000;  -33.000
224.586;   -3.500; -169.000; -106.000
224.730; -100.650; -858.000; -670.000
224.875; -104.850; -739.000; -688.000
225.019;   -1.525;  102.000;  188.000
225.163;   66.000;  208.000;  341.000
225.307;   11.700;   97.000;  -91.000
225.451;   47.400;  360.000;  481.000
225.595;   30.250;  264.000;  176.000
225.739;  -10.550; -170.000;  -94.000
225.884;   -7.000;   86.000;    5.000
226.028;  -94.250; -760.000; -626.000
226.172;  -57.450; -260.000; -273.000
226.316; -123.675; -941.000; -902.000
226.460;  -70.025; -645.000; -493.000
226.604;  -50.275; -406.000; -400.000
226.748; -122.200; -836.000; -733.000
226.892;  -13.800; -227.000; -181.000
227.036;  -56.975; -537.000; -447.000
227.180;  -48.800; -551.000; -375.000
227.324;  -83.275; -561.000; -580.000
227.468; -112.225; -819.000; -717.000
227.612;   17.225;  242.000;  -28.000
227.756;  -98.500; -845.000; -698.000
227.900;   51.450;  342.000;  441.000
228.044;  -59.525; -509.000; -290.000
228.188;   54.200;  448.000;  568.000
228.332;  -83.250; -546.000; -472.000
228.476;  -40.275; -223.000; -149.000
228.620;  -37.375; -210.000; -150.000
228.764;   70.175;  431.000;  349.000
228.908;  -10.800; -155.000;   30.000
229.052;  -71.875; -615.000; -528.000
229.195;   -7.600; -172.000;   13.000
229.339;  -24.475; -235.000; -305.000
229.483;  -30.975;    5.000; -162.000
229.627;  -29.550; -156.000;  139.000
229.771;  -27.975; -218.000; -294.000
229.915;    4.500;  230.000;   79.000
230.059;  -91.975; -648.000; -663.000
230.202;  -32.525; -370.000; -317.000
230.346;   -8.600; -107.000;  107.000
230.490;  -69.700; -489.000; -521.000
230.634;  -97.150; -736.000; -553.000
230.777;   56.550;  478.000;  509.000
230.921;  -40.025; -450.000; -359.000
231.065;  -52.350; -246.000; -286.000
231.209;   39.850;  261.000;  265.000
231.352;   12.375;   54.000;   40.000
231.496;   27.400;  568.000;  188.000
231.640;  -91.075; -693.000; -621.000
231.783;   75.075;  546.000;  525.000
231.927;  -54.800; -294.000; -365.000
232.071; -111.475; -962.000; -736.000
232.214; -124.775; -980.000; -764.000
232.358;  -98.925; -683.000; -599.000
232.502;   -5.050;  -19.000;    7.000
232.645; -141.700;-1090.000; -927.000
232.789;  -28.725; -257.000; -218.000
232.933;  -35.600; -407.000; -224.000
233.076; -127.600;-1038.000; -897.000
233.220; -102.125; -752.000; -777.000
233.363;  -74.025; -669.000; -477.000
233.507;   67.150;  371.000;  129.000
233.650;  -96.350; -764.000; -834.000
233.794;   47.875;  438.000;  461.000
233.938;  -64.925; -530.000; -362.000
234.081;  -22.575;  -93.000;   31.000
234.225;  -69.675; -631.000; -539.000
234.368; -110.050; -773.000; -723.000
234.512;  -42.225; -385.000; -299.000
234.655;  -95.650; -582.000; -555.000
234.798;  -89.800; -493.000; -466.000
234.942; -131.000; -884.000;-1002.000
235.085;  -88.125; -651.000; -443.000
235.229;  -77.350; -405.000; -410.000
235.372;  -48.125; -247.000; -191.000
235.516;  -66.375; -397.000; -321.000
235.659;    4.850;   92.000;  121.000
235.802;   -8.675;  -38.000;  -22.000
235.946;   14.975;  335.000;  215.000
236.089;   36.750;  126.000;  250.000
236.233;   39.175;  275.000;  298.000
236.376;  -47.900; -235.000; -378.000
236.519;  -52.400; -297.000; -319.000
236.663;   -4.500; -215.000; -117.000
236.806; -142.400;-1029.000; -999.000
236.949;   62.900;  543.000;  431.000
237.092;   58.000;  412.000;  391.000
237.236;  -76.825; -589.000; -502.000
237.379;   55.425;  352.000;  428.000
237.522; -113.425; -879.000; -768.000
237.666;  -15.675; -271.000;   18.000
237.809; -118.625; -851.000; -823.000
237.952;   28.175;  469.000;  271.000
238.095;  -61.425; -447.000; -442.000
238.238;   76.450;  688.000;  700.000
238.382;    4.750;  166.000;  103.000
238.525;  -74.350; -598.000; -511.000
238.668; -141.050;-1060.000; -985.000
238.811;  -86.225; -638.000; -643.000
238.954;  -65.200; -483.000; -334.000
239.097;   83.075;  617.000;  664.000
239.241;   28.200;  394.000;  326.000
239.384;  -38.175; -254.000; -214.000
239.527;  -59.275; -424.000; -224.000
239.670; -161.075; -994.000;-1091.000
239.813; -100.525; -696.000; -658.000
239.956;   73.275;  579.000;  473.000
240.099; -117.300; -778.000; -725.000
240.242;   58.175;  428.000;  432.000
240.385;   49.325;  466.000;  450.000
240.528;  -88.050; -706.000; -473.000
240.671;   18.375;  189.000;  134.000
240.814;  -46.075; -441.000; -158.000
240.957;  -98.300; -767.000; -578.000
241.100;  -99.825; -779.000; -755.000
241.243; -139.650;-1234.000; -893.000
241.386;  -78.050; -508.000; -379.000
241.529;  -76.625; -735.000; -547.000
241.672;  -75.400; -566.000; -495.000
241.815; -105.600; -832.000; -808.000
241.958;  -46.000; -125.000; -182.000
242.101;  -76.150; -545.000; -390.000
242.244;  -46.000; -270.000; -325.000
242.387;  -35.425; -304.000; -246.000
242.530;   43.750;  470.000;  134.000
242.673;  -42.000; -381.000; -309.000
242.815; -134.600; -925.000; -899.000
242.958;  -73.750; -482.000; -381.000
243.101;    3.175;  132.000;  187.000
243.244;  -81.675; -564.000; -521.000
243.387;  -47.925; -313.000; -316.000
243.530;  -90.250; -657.000; -674.000
243.672;   -1.225;   43.000;  -92.000
243.815;  -45.000; -355.000; -283.000
243.958;  -11.825;   98.000;  -26.000
244.101;    6.450;   59.000;  -16.000
244.243;  -26.375;  -47.000;  101.000
244.386; -112.675; -761.000; -630.000
244.529;  -36.225; -132.000; -139.000
244.672; -152.650;-1154.000; -951.000
244.814; -106.725; -621.000; -794.000
244.957;  -19.750; -380.000; -304.000
245.100;  -85.600; -489.000; -489.000
245.242;  -46.000; -387.000; -374.000
245.385;  -11.925;  -59.000;  -39.000
245.528; -115.325; -871.000; -705.000
245.670;   90.625;  612.000;  634.000
245.813;  -80.000; -599.000; -547.000
245.956;  -46.700; -324.000; -275.000
246.098;  -67.200; -508.000; -650.000
246.241;   -5.100;  194.000;   48.000
246.383;  -21.775; -119.000;  -73.000
246.526;  -77.550; -454.000; -525.000
246.669; -115.525; -889.000; -780.000
246.811;   13.775;  172.000;   -1.000
246.954;  -58.825; -512.000; -426.000
247.096;  -23.500;  -84.000;   -6.000
247.239;  -67.225; -482.000; -445.000
247.381;  -84.150; -647.000; -488.000
247.524;   77.400;  645.000;  679.000
247.666;  -25.250;   58.000;   11.000
247.809; -113.425; -887.000; -691.000
247.951;  -14.825;  -75.000;  138.000
248.094;   33.525;  432.000;  308.000
248.236; -177.475;-1262.000;-1238.000
248.378;   10.125; -356.000;  -81.000
248.521;  -29.200; -334.000; -337.000
248.663;  -43.775; -236.000; -267.000
248.806;  -35.150; -300.000; -266.000
248.948;  -85.625; -886.000; -763.000
249.090;  -57.200; -428.000; -398.000
249.233;  -60.525; -344.000; -381.000
249.375;  -78.275; -474.000; -451.000
249.518;  -24.875;  -83.000; -133.000
249.660;  -32.875; -103.000;    3.000
249.802; -164.825;-1303.000;-1189.000
249.945;  -89.275; -612.000; -540.000
250.087; -115.625; -834.000; -768.000
250.229;  -73.250; -362.000; -480.000
250.371;  -69.400; -494.000; -439.000
250.514;  -70.450; -310.000; -244.000
250.656;  -50.150;   69.000;  102.000
250.798; -131.650; -849.000; -800.000
250.940;  -59.875; -322.000; -322.000
251.083;  -34.450; -335.000; -111.000
251.225;   57.525;  338.000;  310.000
251.367;  -55.775; -274.000; -373.000
251.509;  -32.350; -265.000; -210.000
251.651; -108.600; -731.000; -671.000
251.794;   67.100;  538.000;  632.000
251.936; -123.300; -821.000; -747.000
252.078;  -73.075; -540.000; -461.000
252.220;  -75.600; -645.000; -477.000
252.362;   88.975;  344.000;  462.000
252.504;  -85.225; -677.000; -584.000
252.646; -114.525; -875.000; -722.000
252.788;  -10.925;   14.000; -128.000
252.931;  -43.550; -257.000; -253.000
253.073;  -53.225; -376.000; -317.000
253.215;   -8.800;  141.000;  122.000
253.357;  -24.050;   82.000; -153.000
253.499;  -62.225; -374.000; -234.000
253.641; -103.500; -749.000; -594.000
253.783;  -93.200; -609.000; -527.000
253.925; -104.125; -586.000; -591.000
254.067; -105.675; -744.000; -667.000
254.209;  -47.825; -391.000; -259.000
254.351; -157.775; -865.000; -883.000
254.493;  -81.475; -441.000; -417.000
254.635; -124.150; -936.000; -818.000
254.777;  -94.300; -752.000; -687.000
254.918;  -62.925; -512.000; -430.000
255.060;  -64.075; -551.000; -395.000
255.202;  -62.325; -473.000; -261.000
255.344;  -84.925; -658.000; -455.000
255.486;  -70.625; -471.000; -406.000
255.628; -114.025; -780.000; -781.000
255.770;  -89.525; -676.000; -536.000
255.912;  -65.225; -559.000; -468.000
256.053;  -96.775; -730.000; -508.000
256.195;  151.375; 1008.000;  903.000
256.337;  -99.575; -861.000; -595.000
256.479;   55.775;  532.000;  416.000
256.621;  -38.700; -394.000; -212.000
256.762; -105.425; -789.000; -742.000
256.904;   56.800;  485.000;  487.000
257.046;  -63.525; -381.000; -271.000
257.188;  -35.825; -351.000; -264.000
257.329;  -93.550; -525.000; -464.000
257.471; -120.250; -939.000; -807.000
257.613;  -74.925; -584.000; -498.000
257.755; -138.325;-1073.000; -982.000
257.896;   33.250;  286.000;  392.000
258.038;  -71.350; -403.000; -352.000
258.180;  -53.000; -354.000; -279.000
258.321;  -72.425; -581.000; -457.000
258.463;  -18.425;  -71.000;  133.000
258.605;  -90.950; -562.000; -570.000
258.746; -114.075; -886.000; -772.000
258.888; -160.900;-1026.000;-1020.000
259.029;   -0.175;  121.000;   -8.000
259.171;  -69.500; -614.000; -550.000
259.313;  -21.625;  -49.000;  -47.000
259.454;  -79.900; -536.000; -414.000
259.596;  -74.525; -483.000; -390.000
259.737;  -79.825; -590.000; -474.000
259.879;   37.175;  217.000;  311.000
260.020;   87.175;  901.000;  636.000
260.162;  -44.850; -146.000; -253.000
260.303; -106.950; -768.000; -687.000
260.445;  -92.175; -609.000; -613.000
260.586;   30.375;  392.000;  157.000
260.728;  -59.625; -360.000; -248.000
260.869; -118.675; -350.000; -343.000
261.011;   71.475;  706.000;  537.000
261.152;  -67.925; -479.000; -319.000
261.293;  -92.850; -576.000; -595.000
261.435;  -46.975; -219.000; -184.000
261.576;  -69.750; -455.000; -325.000
261.718;   54.950;  420.000;  470.000
261.859; -142.475; -940.000; -949.000
262.000; -127.525; -951.000;-1016.000
262.142;  -32.450;  -52.000;  -60.000
262.283; -107.175; -808.000; -691.000
262.424; -104.550; -666.000; -625.000
262.566; -150.725;-1161.000; -983.000
262.707; -127.450; -840.000; -830.000
262.848; -122.900; -769.000; -726.000
262.990;  -54.400; -362.000; -345.000
263.131;   85.750;  650.000;  681.000
263.272;  -19.850;  -61.000;  -41.000
263.413;  -99.225; -589.000; -561.000
263.555;  -84.875; -669.000; -143.000
263.696;  -85.925; -550.000; -641.000
263.837;  -73.650; -449.000; -551.000
263.978;   -0.850;   -5.000;  -77.000
264.119;  -58.525; -283.000; -264.000
264.261; -109.500; -847.000; -630.000
264.402;  -11.400;   33.000;   40.000
264.543;  -74.100; -509.000; -524.000
264.684;  -27.900;   61.000;  -50.000
264.825;  -63.800; -816.000; -538.000
264.966;   -7.475;  -84.000;  -67.000
265.107; -114.425; -646.000; -670.000
265.248; -132.125; -825.000; -812.000
265.390;   10.200;  152.000;   -9.000
265.531;  -32.450; -238.000; -107.000
265.672;  -89.075; -557.000; -630.000
265.813;   44.000;  563.000;  439.000
265.954; -134.550; -959.000; -940.000
266.095;  -34.200; -372.000; -322.000
266.236; -100.200; -686.000; -548.000
266.377;  -58.875; -243.000; -297.000
266.518;  -75.875; -619.000; -547.000
266.659;    6.350;  170.000;  268.000
266.800;    4.375;   83.000;   85.000
266.941;  -89.150; -487.000; -478.000
267.082;   26.425;  354.000;   99.000
267.223;  -53.675; -344.000; -273.000
267.364; -118.450; -892.000; -686.000
267.504;   -7.825;    3.000;  135.000
267.645;   -8.825;  160.000;   67.000
267.786;  -49.825; -147.000;  -86.000
267.927;  -79.500; -473.000; -379.000
268.068;  -23.250; -186.000;  -61.000
268.209;  -44.275; -175.000; -413.000
268.350;  -56.950; -388.000; -532.000
268.490;  -96.675; -648.000; -521.000
268.631;   22.650;  127.000;  225.000
268.772; -114.600; -874.000; -647.000
268.913;  -52.675; -328.000; -476.000
269.054;  -17.250; -117.000;   12.000
269.194;  -57.100; -418.000; -402.000
269.335; -148.150;-1137.000;-1074.000
269.476;  -31.700;   33.000;  -35.000
269.617;  -44.575; -347.000; -392.000
269.757;  -99.975; -713.000; -646.000
269.898; -108.750; -856.000; -613.000
270.039;  -72.650; -415.000; -405.000
270.180; -140.675; -952.000; -816.000
270.320;  -27.425; -190.000; -250.000
270.461;  -35.900; -277.000; -249.000
270.602;  -22.625; -186.000; -156.000
270.742; -117.350; -868.000; -943.000
270.883;  -72.800; -442.000; -390.000
271.023;  -59.775; -358.000; -357.000
271.164;  -94.650; -607.000; -528.000
271.305;  -95.000; -666.000; -654.000
271.445; -101.225; -722.000; -683.000
271.586;  -56.875; -462.000; -283.000
271.726;  -51.450; -397.000; -322.000
271.867;  -56.200; -594.000; -534.000
272.008;  153.075; -473.000; -285.000
272.148;  134.650;  462.000;  468.000
272.289;   -7.025; -113.000; -181.000
272.429;   20.475;   19.000;  185.000
272.570; -103.775; -633.000; -737.000
272.710;  -98.025; -825.000; -775.000
272.851;  -29.600;  113.000; -130.000
272.991; -157.100;-1173.000;-1077.000
273.131;  -76.600; -419.000; -459.000
273.272;  -95.200; -683.000; -723.000
273.412;  -11.650; -143.000;  -31.000
273.553;  -61.800; -488.000; -507.000
273.693;  139.725;  913.000;  858.000
273.834;  -97.175; -894.000; -692.000
273.974;  -89.675; -664.000; -615.000
274.114;  -93.900; -772.000; -560.000
274.255;   69.925;  414.000;  373.000
274.395;   -4.400; -180.000; -125.000
274.535;   22.675;  199.000;  350.000
274.676;   28.625;  225.000;   94.000
274.816;   -0.275;  110.000;   34.000
274.956;  -86.875; -624.000; -690.000
275.097;  -77.625;-1014.000; -922.000
275.237; -110.550; -913.000; -803.000
275.377; -111.850; -778.000; -689.000
275.517; -149.550; -878.000; -937.000
275.658;  -73.100; -590.000; -555.000
275.798;  -61.700; -606.000; -413.000
275.938;   15.900;  215.000;  323.000
276.078; -106.675; -626.000; -395.000
276.218;    0.600;   99.000;  104.000
276.359; -123.600;-1026.000;-1024.000
276.499;  -79.875; -605.000; -446.000
276.639;  -30.500; -305.000; -151.000
276.779;  -64.300; -475.000; -357.000
276.919;  -90.875; -783.000; -624.000
277.059;  -39.850; -261.000; -212.000
277.199;  -55.275; -357.000; -259.000
277.340;   32.375;  287.000;  175.000
277.480; -119.575; -840.000; -693.000
277.620;   14.700;  192.000;   16.000
277.760; -180.650;-1533.000;-1294.000
277.900;   11.650;  113.000;   33.000
278.040;   16.950;  137.000;  159.000
278.180;   26.425;  270.000;  170.000
278.320;   -9.475;   21.000;   56.000
278.460;  -85.400; -443.000; -469.000
278.600;  -86.525; -708.000; -598.000
278.740;   47.775;  448.000;  224.000
278.880;  -90.650; -768.000; -791.000
279.020;  -19.475; -194.000; -144.000
279.160;  -82.425; -672.000; -595.000
279.300; -125.375; -926.000; -873.000
279.440;  -98.850; -709.000; -622.000
279.579;  -50.525;-1014.000; -929.000
279.719;  -47.550; -410.000; -394.000
279.859;   53.875;   -4.000;   41.000
279.999;   18.750; -208.000;  101.000
280.139;  -18.175; -435.000; -387.000
280.279;  -79.175; -708.000; -745.000
280.419;  -24.775; -229.000; -147.000
280.559;  -19.275; -259.000; -180.000
280.698;  -97.200; -790.000; -639.000
280.838;  -87.275; -778.000; -800.000
280.978; -115.950; -846.000; -790.000
281.118; -116.350; -811.000; -704.000
281.257;  -10.000;   24.000;    6.000
281.397; -129.425;-1094.000; -960.000
281.537; -100.475; -599.000; -712.000
281.677;  -17.900; -150.000; -101.000
281.816; -102.325; -700.000; -630.000
281.956;  -41.000; -193.000; -257.000
282.096;  -69.225; -539.000; -396.000
282.235; -109.350; -672.000; -638.000
282.375;  -36.400; -243.000;  -98.000
282.515; -104.925; -715.000; -707.000
282.654;    3.075;   29.000;  106.000
282.794;   27.425;  388.000;  244.000
282.934;  -71.300; -530.000; -491.000
283.073; -129.025;-1030.000; -857.000
283.213;  -74.350; -460.000; -467.000
283.353;  -42.350; -408.000; -349.000
283.492;  -47.200; -264.000; -296.000
283.632;  -51.400; -254.000; -168.000
283.771; -113.350; -859.000; -730.000
283.911;  -46.500; -369.000; -260.000
284.050; -111.450; -794.000; -748.000
284.190; -164.150;-1229.000;-1096.000
284.329; -156.000;-1055.000; -964.000
284.469;  -74.825; -516.000; -591.000
284.608;  -79.550; -559.000; -598.000
284.748;  -78.900; -614.000; -570.000
284.887;  -15.475;  -87.000;  -20.000
285.027; -121.425; -844.000; -892.000
285.166;  -52.100; -192.000; -249.000
285.306;   16.175; -116.000;  -33.000
285.445;  -64.825; -229.000; -343.000
285.584; -101.450; -630.000; -494.000
285.724;  -63.400; -282.000; -322.000
285.863; -115.825; -857.000; -507.000
286.002;  -63.500; -366.000; -276.000
286.142; -100.600; -715.000; -622.000
286.281;  -85.250; -525.000; -493.000
286.420;  -75.750; -554.000; -417.000
286.560;   76.800;  653.000;  623.000
286.699; -135.250; -958.000; -912.000
286.838;  -89.675; -590.000; -591.000
286.978;  -82.650; -533.000; -537.000
287.117; -153.475;-1085.000; -950.000
287.256;  -26.000; -228.000; -211.000
287.395;  -68.025; -197.000; -378.000
287.535;  -54.925; -370.000; -298.000
287.674;  -87.775; -509.000; -484.000
287.813;   60.650;  661.000;  533.000
287.952; -144.125;-1010.000; -871.000
288.091; -155.525;-1049.000; -915.000
288.231;   -5.175;   13.000;   15.000
288.370; -182.250;-1217.000;-1200.000
288.509; -103.875; -728.000; -645.000
288.648;  -87.950; -770.000; -548.000
288.787;  -51.200; -243.000;  -87.000
288.926;  -57.600; -454.000; -475.000
289.065;   96.675;  859.000;  672.000
289.204;  -50.900; -377.000; -217.000
289.344; -113.900; -791.000; -690.000
289.483;   31.550;  416.000;  304.000
289.622;  -43.025; -291.000; -149.000
289.761;  -20.450; -309.000; -166.000
289.900; -126.750; -785.000; -626.000
290.039;   -2.550;  -12.000;  -95.000
290.178;  -48.050; -274.000; -180.000
290.317;  -76.925; -618.000; -479.000
290.456;  -70.400; -463.000; -451.000
290.595; -141.650; -961.000; -833.000
290.734; -149.750; -904.000; -891.000
290.873;  -77.875; -456.000; -420.000
291.011; -136.825; -833.000; -843.000
291.150;  -98.300; -770.000; -682.000
291.289;  -49.950; -343.000; -110.000
291.428;  -90.975; -599.000; -480.000
291.567;  -59.075; -370.000; -442.000
291.706;   -6.925;  109.000;  154.000
291.845; -102.375; -597.000; -505.000
291.984; -173.975;-1234.000;-1061.000
292.122;   74.950;  602.000;  582.000
292.261;   52.050;  620.000;  463.000
292.400;   -4.775; -144.000;  211.000
292.539; -129.625; -959.000; -813.000
292.678;  -46.500; -325.000; -300.000
292.816; -150.400;-1136.000; -965.000
292.955;  -91.925; -844.000; -684.000
293.094;  -28.025; -173.000; -337.000
293.233;  -63.725; -556.000; -400.000
293.371;  -29.425; -225.000;  -84.000
293.510; -120.575; -866.000; -780.000
293.649; -122.950; -959.000; -924.000
293.787;  -90.700;-1083.000;-1012.000
293.926;   -6.575; -113.000;  -32.000
294.065;  -56.500; -379.000; -290.000
294.203;   49.450;  298.000;  406.000
294.342;    4.400;   74.000;  156.000
294.481; 7056.350;51180.000; -836.000
294.619;  -46.900; -425.000; -582.000
294.758; -146.325;-1230.000;-1137.000
294.896;   37.375; -125.000;    5.000
295.035; -131.650;-1040.000;-1006.000
295.174; -132.900;-1082.000; -954.000
295.312;  -62.325; -323.000; -203.000
295.451;  -31.725; -307.000; -428.000
295.589;  -65.675; -389.000; -518.000
295.728;    3.075; -292.000; -165.000
295.866;   -1.875;  -36.000;  -51.000
296.005;  -89.675; -584.000; -341.000
296.143;  -73.275; -558.000; -596.000
296.282; -127.200; -957.000; -881.000
296.420;  -93.700; -657.000; -557.000
296.559;  -94.425; -892.000; -633.000
296.697;   -1.175; -847.000; -665.000
296.835;    7.500;-1141.000;-1002.000
296.974;   44.000;  -23.000;   39.000
297.112;  -23.025; -443.000; -504.000
297.251;  -89.800; -815.000; -755.000
297.389;   52.100; -576.000; -438.000
297.527;   25.800; -145.000;  -83.000
297.666;  -67.425; -486.000; -438.000
297.804;  -69.075; -404.000; -264.000
297.942;  -17.750; -136.000; -161.000
298.081;   -4.050; -183.000;   63.000
298.219;   37.650;  -17.000;  -19.000
298.357;   31.200; -144.000;  -71.000
298.495;    1.100; -810.000; -812.000
298.634;   62.725;  245.000;  219.000
298.772;   37.325; -220.000; -338.000
298.910;  -42.450; -309.000; -182.000
299.048;  -13.175; -130.000; -153.000
299.187;  -37.950; -350.000; -250.000
299.325;    7.750;   52.000;  122.000
299.463;   35.475; -389.000; -299.000
299.601;   76.325; -327.000; -271.000
299.739; -107.125; -908.000; -883.000
299.877;  -91.775; -791.000; -703.000
300.016;  -66.475;-1095.000; -935.000
300.154;  132.825;  -19.000; -161.000
300.292;   45.000; -428.000; -348.000
300.430;   15.475; -408.000; -291.000
300.568; -113.375; -940.000; -874.000
300.706;  -67.350; -366.000; -469.000
300.844;  -89.375;-1108.000; -979.000
300.982;   93.925;  246.000;  282.000
301.120; -119.075; -965.000; -866.000
301.258;  -84.450; -812.000; -705.000
301.396;   32.400;  104.000;  -41.000
301.534;   37.075; -218.000; -293.000
301.672;  -32.275; -664.000; -521.000
301.810;  -26.050; -613.000; -545.000
301.948;   93.300;   53.000;  149.000
302.086;  543.475; -250.000;  -32.000
302.224;  814.025; -610.000; -585.000
302.362;   11.075; -558.000; -622.000
302.500;  -41.550; -923.000; -893.000
302.638;   85.100;  128.000;  245.000
302.776;    4.725; -352.000; -408.000
302.913;   28.425;  447.000;  236.000
303.051;   -0.300;  -86.000;  -23.000
303.189;   42.875;   90.000;  118.000
303.327;  -50.725; -341.000; -256.000
303.465; -103.325; -832.000; -588.000
303.603; -100.250; -805.000; -604.000
303.740;   67.625;  417.000;  241.000
303.878;  -11.350; -800.000; -759.000
304.016; -108.125; -915.000; -790.000
304.154; -146.275;-1123.000;-1152.000
304.291;  -56.300; -505.000; -554.000
304.429;    6.525;  102.000;   74.000
304.567; -147.775; -908.000; -893.000
304.705;  -57.775; -408.000; -515.000
304.842;   54.025; -616.000; -540.000
304.980;   49.125;  215.000;   35.000
305.118;    1.725; -367.000; -365.000
305.255;  -92.175; -945.000; -927.000
305.393;   44.400;  178.000;  239.000
305.531; -114.075;-1173.000; -956.000
305.668;  -81.650; -663.000; -582.000
305.806;   90.850; -358.000; -439.000
305.943;   71.800; -629.000; -637.000
306.081;   38.800; -378.000; -267.000
306.219;  -96.325; -863.000; -748.000
306.356;   -1.400;  158.000;   27.000
306.494;   98.400;  981.000;  761.000
306.631;   -3.575;  -11.000;  -55.000
306.769;  -22.425; -613.000; -485.000
306.906;  -16.825; -284.000; -258.000
307.044;  -86.100; -473.000; -488.000
307.181;  -65.450; -410.000; -332.000
307.319;    6.425;  112.000;   87.000
307.456; -177.150;-1191.000;-1153.000
307.594; -122.975; -980.000; -727.000
307.731;   -5.825; -371.000; -164.000
307.868;  -19.075;  -15.000;   20.000
308.006; -133.800; -961.000; -847.000
308.143;  -79.875; -618.000; -330.000
308.281;  108.650;  -37.000; -254.000
308.418;  -48.100; -748.000; -640.000
308.555;  -73.350; -400.000; -250.000
308.693;  -91.150; -577.000; -573.000
308.830; -106.950; -712.000; -657.000
308.967;  -33.400; -215.000;  -95.000
309.105;  -70.650; -507.000; -396.000
309.242;   -9.050; -468.000; -367.000
309.379;  197.500; -577.000; -655.000
309.517; -104.775; -936.000; -948.000
309.654; -108.750; -910.000; -734.000
309.791;  -87.900; -662.000; -580.000
309.928; -123.525; -977.000; -914.000
310.065;  155.300;  819.000;  697.000
310.203;  -27.975; -825.000; -850.000
310.340;  -40.275; -465.000; -321.000
310.477;  -81.800; -412.000; -516.000
310.614;  -95.500; -383.000; -473.000
310.751;  -78.350; -427.000; -518.000
310.889;  -35.800;    1.000;   11.000
311.026; -156.675;-1161.000; -939.000
311.163;  -73.675; -386.000; -380.000
311.300;  -93.425; -512.000; -479.000
311.437;  -95.425; -658.000; -619.000
311.574; -148.675;-1226.000; -985.000
311.711;  -82.475; -595.000; -433.000
311.848;  -45.600; -380.000; -388.000
311.985;    8.975;  270.000;   93.000
312.122; -124.300; -932.000; -762.000
312.259; -145.175; -941.000; -994.000
312.396;  -83.000; -508.000; -551.000
312.533; -102.100; -812.000; -790.000
312.670; -134.950;-1070.000; -898.000
312.807;  -64.225; -352.000; -367.000
312.944; -100.450; -513.000; -611.000
313.081;  -54.875; -150.000; -415.000
313.218; -107.225;-1111.000; -867.000
313.355;  -16.875; -531.000; -449.000
313.492;   -2.900; -455.000; -292.000
313.629;  108.350;  815.000;  735.000
313.766; -160.025;-1176.000;-1008.000
313.902;  -31.975; -186.000;   21.000
314.039;  -52.575; -372.000; -289.000
314.176;   14.950;  286.000;  192.000
314.313;  -74.175; -569.000; -473.000
314.450;  -99.075; -788.000; -684.000
314.587;  -51.800; -468.000; -480.000
314.723;  -20.225;  -78.000;  130.000
314.860;   21.925;  318.000;  332.000
314.997;    0.675;  223.000;  142.000
315.134;  -51.125; -385.000; -368.000
315.270;  -43.600; -480.000; -496.000
315.407; -136.725;-1094.000; -967.000
315.544;  -64.825; -657.000; -538.000
315.681;  -68.625; -681.000; -565.000
315.817;    6.350; -133.000; -176.000
315.954;   -0.350; -613.000; -392.000
316.091; -137.350;-1045.000;-1023.000
316.227;  -27.700;  -71.000; -179.000
316.364;  -27.850;   23.000;    6.000
316.500;  -48.775; -113.000; -300.000
316.637;  -58.750; -181.000; -302.000
316.774;  -78.750; -625.000; -358.000
316.910; -111.800; -598.000; -629.000
317.047;  -70.825; -487.000; -351.000
317.183;  -56.450; -435.000; -566.000
317.320;  -10.950; -367.000; -321.000
317.456;  -75.175; -733.000; -805.000
317.593;  -95.900; -598.000; -641.000
317.729;   -9.375;  168.000;  -67.000
317.866; -203.100;-1434.000;-1285.000
318.002;  -96.200; -708.000; -948.000
318.139; -119.250; -883.000; -867.000
318.275; -127.500;-1003.000; -738.000
318.412;  -62.100; -517.000; -336.000
318.548;  -54.475; -751.000; -720.000
318.685; -111.675; -985.000; -888.000
318.821; -103.150; -762.000; -735.000
318.957;  -17.325;   34.000;  -23.000
319.094;   26.950;  297.000;  154.000
319.230;  -80.450; -756.000; -742.000
319.367;   88.625; -471.000; -520.000
319.503;   25.425; -538.000; -436.000
319.639;  -98.625; -877.000; -793.000
319.775;  -70.550; -750.000; -685.000
319.912;  -63.250; -424.000; -519.000
320.048;  -92.875;-1184.000;-1184.000
320.184;   66.675;   59.000;   70.000
320.321;  -76.300; -497.000; -467.000
320.457;   57.725;  475.000;  662.000
320.593;  -59.900; -375.000; -382.000
320.729; -126.100; -732.000; -734.000
320.866;  -80.675; -577.000; -635.000
321.002;  -89.425; -759.000; -809.000
321.138;  -26.225; -135.000; -211.000
321.274;   46.875; -148.000; -115.000
321.410;  -30.800; -585.000; -353.000
321.546;  -61.200;-1011.000; -911.000
321.683;   53.775;  400.000;  185.000
321.819;  -14.875;  -48.000; -117.000
321.955; -100.200; -743.000; -722.000
322.091;  -73.000; -585.000; -540.000
322.227;  -21.800; -382.000; -202.000
322.363;  -27.275; -320.000; -215.000
322.499;  -61.275; -343.000; -331.000
322.635;  125.600;  636.000;  443.000
322.771;   31.025; -139.000;   12.000
322.907;   73.450;  129.000;  327.000
323.043;  -28.250; -115.000; -206.000
323.179;  -46.700; -394.000; -363.000
323.315;   -4.400; -401.000; -371.000
323.451;   66.725; -328.000; -236.000
323.587;   61.875;  -60.000;  -77.000
323.723;   -7.875; -682.000; -601.000
323.859;  -20.600; -258.000;  -76.000
323.995;  -47.300; -467.000; -409.000
324.131; -141.725; -967.000; -892.000
324.267;  -56.975; -254.000; -276.000
324.402; -135.775; -960.000; -983.000
324.538;  -22.600; -279.000; -104.000
324.674;   15.000;  164.000;   77.000
324.810;   76.500;  226.000;  308.000
324.946;  -21.100; -810.000; -658.000
325.082;  -86.950; -568.000; -475.000
325.217;  -25.875;  -62.000;   16.000
325.353; -117.650; -764.000; -659.000
325.489;  -85.325; -540.000; -506.000
325.625;  -76.075; -579.000; -525.000
325.760;   69.700;  517.000;  376.000
325.896;  -38.100; -515.000; -702.000
326.032;  -44.800; -403.000; -352.000
326.168;  -65.650; -462.000; -369.000
326.303;  -66.200; -352.000; -461.000
326.439;  -41.200; -336.000; -276.000
326.575;   -3.425; -190.000;  -29.000
326.710;  -26.000; -156.000;  -30.000
326.846;  -23.775;  146.000;  103.000
326.982; -106.150; -530.000; -548.000
327.117;  -74.500; -481.000; -442.000
327.253;  -93.900; -745.000; -742.000
327.388; -154.225;-1137.000;-1153.000
327.524;  -81.150; -811.000; -578.000
327.659;  -35.225;  -58.000;  -22.000
327.795;  -24.650;   69.000;   45.000
327.931;  -94.900; -723.000; -499.000
328.066;  -45.175; -417.000; -276.000
328.202;  -13.525;   12.000; -129.000
328.337;   91.625;  957.000;  713.000
328.473;   34.375;  -12.000;  -74.000
328.608;  -22.625; -256.000; -267.000
328.743;  -95.450; -799.000; -664.000
328.879;    8.550;  214.000;  114.000
329.014;  -31.725; -102.000; -122.000
329.150;  -96.375; -358.000; -483.000
329.285;  -93.950; -465.000; -466.000
329.421;  -78.125; -548.000; -246.000
329.556;  -30.275;  -36.000;   85.000
329.691; -105.575; -633.000; -615.000
329.827;  -89.075; -626.000; -480.000
329.962;  -49.500;  131.000; -301.000
330.097;  -83.950; -673.000; -585.000
330.233;  -62.950; -410.000; -223.000
330.368; -126.925; -839.000; -628.000
330.503;  -27.025;    3.000;   98.000
330.638;  -10.675;  -93.000; -125.000
330.774;  -84.150; -609.000; -530.000
330.909;  -43.650; -434.000; -244.000
331.044; -101.425; -714.000; -708.000
331.179; -181.325;-1217.000;-1109.000
331.315;   -4.100;   77.000;   20.000
331.450;   25.600;  157.000;  285.000
331.585;  -99.925; -805.000; -706.000
331.720;  -91.225; -510.000; -460.000
331.855;  -15.450;  -35.000; -102.000
331.990;  253.750;   62.000;  138.000
332.126;  126.700; -110.000;   71.000
332.261;  -16.000; -379.000; -265.000
332.396;  -20.675; -135.000; -242.000
332.531;  -93.350;-1074.000;-1031.000
332.666;   27.350; -519.000; -363.000
332.801; -100.500; -726.000; -807.000
332.936;  -28.150; -192.000; -122.000
333.071; -136.025; -870.000; -817.000
333.206;    2.700;  307.000;  379.000
333.341;   31.725;  344.000;  418.000
333.476;  -92.700; -627.000; -623.000
333.611;  -52.025; -251.000; -173.000
333.746;  -60.150; -381.000; -464.000
333.881; -123.125; -973.000; -935.000
334.016; -154.075; -936.000; -917.000
334.151; -124.675; -746.000; -702.000
334.286;   11.525;  152.000;  186.000
334.421;  -22.025; -125.000; -178.000
334.556;  -90.925; -611.000; -567.000
334.690;  -93.775; -631.000; -577.000
334.825;   38.975;  381.000;   83.000
334.960;  -69.625; -285.000; -413.000
335.095;    0.250;  135.000;  -91.000
335.230;  -93.950; -722.000; -738.000
335.365; -153.600;-1084.000; -990.000
335.499; -143.800;-1108.000;-1037.000
335.634;    9.275;    9.000;  534.000
335.769; -115.125; -755.000; -720.000
335.904;  -85.175; -603.000; -561.000
336.038;  -65.175; -735.000; -657.000
336.173; -140.375;-1206.000;-1194.000
336.308;    0.925; -116.000; -189.000
336.443;  -28.100; -544.000; -634.000
336.577;  -75.475; -936.000; -787.000
336.712;   28.300;   -4.000;  -12.000
336.847;  -52.925; -724.000; -607.000
336.981;   27.675; -272.000; -208.000
337.116;  256.175;  615.000;  501.000
337.250;  102.625; -434.000; -421.000
337.385;  280.300; -297.000; -208.000
337.520;   86.475; -632.000; -603.000
337.654;  -31.750; -215.000; -126.000
337.789; -138.325; -989.000; -933.000
337.923;  -38.000; -104.000; -205.000
338.058; -111.100; -673.000; -738.000
338.192;  -37.675; -611.000; -488.000
338.327;  -20.750;  -18.000; -155.000
338.461;  -70.100; -299.000; -469.000
338.596;  -99.400; -780.000; -638.000
338.730;  -95.725; -767.000; -803.000
338.865;   84.000;  -46.000; -140.000
338.999;  -49.050; -846.000; -702.000
339.134;  -41.925; -634.000; -536.000
339.268;   21.900; -741.000; -603.000
339.403;  353.200; -740.000; -775.000
339.537;  122.900; -894.000; -820.000
339.671; -142.650; -829.000; -813.000
339.806;  -50.225; -556.000; -512.000
339.940;    4.825; -261.000; -235.000
340.074; -109.425; -685.000; -510.000
340.209;  -58.325; -351.000; -230.000
340.343; -102.475; -517.000; -573.000
340.477;  135.525;  998.000; 1036.000
340.612;  -45.625;-1033.000; -900.000
340.746;  148.850; -199.000; -243.000
340.880;  -76.025; -924.000; -785.000
341.014;  -35.225;  -45.000; -154.000
341.149; -117.100; -756.000; -718.000
341.283; -121.975; -839.000; -754.000
341.417; -109.050;-1124.000; -938.000
341.551;   61.850; -768.000; -708.000
341.685;  -46.625; -633.000; -611.000
341.820;  -81.975; -562.000; -493.000
341.954;  -50.550; -218.000; -349.000
342.088; -159.025;-1102.000;-1019.000
342.222;   57.250;  565.000;  618.000
342.356;  -79.375; -395.000; -335.000
342.490;  -97.025; -880.000; -841.000
342.624;  -54.475; -339.000; -242.000
342.758;    0.525; -364.000; -312.000
342.892;  -92.300; -710.000; -585.000
343.026;  -42.175;  -58.000; -116.000
343.160;  -80.775; -426.000; -376.000
343.294;  -79.050; -474.000; -337.000
343.428;  -46.375; -488.000; -448.000
343.562;  -26.150; -172.000;  -23.000
343.696;  -43.800; -385.000; -314.000
343.830;  -41.250; -362.000; -356.000
343.964;  -16.675; -231.000; -168.000
344.098;  773.050;  199.000;   70.000
344.232;  643.625; -266.000; -127.000
344.366;   69.975; -567.000; -453.000
344.500;   13.475; -665.000; -744.000
344.634;   19.250; -324.000; -164.000
344.768;  -48.300; -531.000; -341.000
344.902;   11.450;  278.000;  256.000
345.035;  -76.725; -556.000; -496.000
345.169; -140.475; -933.000; -656.000
345.303;  -73.750; -308.000; -482.000
345.437;  -78.750; -826.000; -717.000
345.571;  -94.250; -675.000; -594.000
345.704;  -57.200; -309.000; -532.000
345.838;  -39.500; -331.000; -284.000
345.972;  -56.600; -543.000; -495.000
346.106;  162.125; -179.000; -190.000
346.239;  402.700; -312.000; -243.000
346.373;  -22.875; -343.000; -302.000
346.507; -143.825; -950.000; -962.000
346.640;  105.875;  -30.000;   13.000
346.774;  -59.375; -650.000; -797.000
346.908;  -30.850; -138.000;  -11.000
347.041;  -95.900; -646.000; -593.000
347.175;  -18.100;  259.000;   27.000
347.309;  -81.100; -698.000; -628.000
347.442; -117.850; -883.000; -732.000
347.576;  243.325;  670.000;  668.000
347.709;  160.300; -123.000;  -52.000
347.843;  -98.825; -933.000; -825.000
347.976;   33.200;  235.000;  294.000
348.110; -181.975;-1268.000;-1186.000
348.243; -120.425; -679.000; -772.000
348.377;    1.775;  -26.000;   60.000
348.510;   39.750;  403.000;  540.000
348.644;  -31.400;  -37.000; -159.000
348.777;  -13.425;  180.000;  191.000
348.911;  -57.950; -142.000; -112.000
349.044;  144.300;  471.000;  448.000
349.178;  112.100;-1069.000;-1006.000
349.311;   77.600;  141.000;  255.000
349.444;   -3.350; -927.000; -813.000
349.578;  -48.250; -347.000; -200.000
349.711; -109.050; -959.000; -862.000
349.845;  -26.850; -661.000; -591.000
349.978; -142.075;-1224.000;-1137.000
350.111;  -93.700; -546.000; -612.000
350.244;  -90.600; -596.000; -700.000
350.378;  -20.725; -392.000; -393.000
350.511;  -70.025; -393.000; -426.000
350.644; -120.825; -808.000; -806.000
350.778;   24.175;  168.000;  104.000
350.911;  -25.150;  134.000;  140.000
351.044; -105.775; -685.000; -615.000
351.177;  -39.525; -321.000; -281.000
351.310;  -25.775;    3.000; -131.000
351.444; -110.100; -888.000; -788.000
351.577;  102.725;  140.000;   90.000
351.710;   85.525;  593.000;  417.000
351.843;  -34.650; -165.000;  -77.000
351.976;   -7.175;  149.000;  -79.000
352.109;  -95.625; -621.000; -612.000
352.242;  -54.875; -464.000; -419.000
352.376;  -64.800; -580.000; -636.000
352.509;  107.375; -437.000; -356.000
352.642;  -22.800; -654.000; -604.000
352.775;   30.925; -141.000;  -98.000
352.908; -132.425; -933.000; -904.000
353.041; -114.075; -814.000; -824.000
353.174;  -71.100; -551.000; -424.000
353.307;  -98.275; -753.000; -764.000
353.440;   76.175;  541.000;  453.000
353.573; -122.150; -957.000;-1008.000
353.706;  -36.900; -384.000; -558.000
353.839;  -37.450; -264.000; -220.000
353.971;  -94.400; -657.000; -512.000
354.104;  -97.675; -896.000; -835.000
354.237;  -40.075; -627.000; -662.000
354.370;  -93.550; -846.000; -879.000
354.503; -194.000;-1231.000;-1308.000
354.636;  -51.975; -529.000; -348.000
354.769; -146.750; -937.000; -860.000
354.902;  -28.025; -230.000; -139.000
355.034;  -20.300; -164.000; -220.000
355.167;  -23.700; -262.000; -162.000
355.300;  -96.775;-1061.000; -880.000
355.433;  991.875;  -71.000;  -14.000
355.565; 1550.975; -402.000; -384.000
355.698;  382.450; -356.000; -296.000
355.831;  -16.150; -882.000; -801.000
355.964;   49.650; -285.000; -170.000
356.096; -102.525; -856.000; -843.000
356.229;  -25.325; -523.000; -530.000
356.362;  336.100; -373.000; -266.000
356.494;  597.075; -229.000; -162.000
356.627;  420.075;  269.000;  377.000
356.760;  650.050;  120.000;   53.000
356.892;  987.950; -286.000; -601.000
357.025;  538.350;  403.000;  389.000
357.157;  516.375; -167.000; -179.000
357.290;  704.625; -856.000; -713.000
357.423;  200.525; -667.000; -556.000
357.555;   75.575; -217.000; -228.000
357.688;  101.600; -483.000; -364.000
357.820;  381.850; -870.000; -877.000
357.953; 3385.025; -563.000; -589.000
358.085;  690.125; -632.000; -612.000
358.218;  878.500;-1131.000; -932.000
358.350;  154.650;  -58.000;  312.000
358.483; -138.375;-1300.000;-1187.000
358.615;  -53.500;-1182.000;-1078.000
358.747;  -82.325;-1187.000;-1058.000
358.880;   -8.750; -810.000; -744.000
359.012;  -16.275; -376.000; -202.000
359.145;  -56.650; -480.000; -511.000
359.277;   27.250; -962.000; -913.000
359.409; 2751.575;  536.000;  231.000
359.542;  724.350; -738.000; -688.000
359.674;   47.575;   46.000;   13.000
359.806;  -76.125; -565.000; -438.000
359.939;  -65.800; -617.000; -516.000
360.071;   -5.925; -583.000; -579.000
360.203;  -32.550; -411.000; -364.000
360.335;   40.925;  164.000;  -16.000
360.468;  158.725; -249.000; -307.000
360.600; 2260.425; -547.000; -454.000
360.732; 2956.850; -546.000; -423.000
360.864;  397.100;-1216.000;-1044.000
360.996;  200.400; -516.000; -554.000
361.129;   29.650; -389.000; -598.000
361.261;   19.550;  110.000; -113.000
361.393;  -41.800; -252.000; -214.000
361.525;    1.825;   94.000;  244.000
361.657;  -41.025; -821.000; -703.000
361.789;   -6.650; -139.000; -155.000
361.921;  140.475; -642.000; -593.000
362.053;  204.250;  524.000;  541.000
362.185;   32.750;  288.000;   72.000
362.318;  -95.525; -709.000; -705.000
362.450;   90.350;  294.000;  444.000
362.582;   12.000; -913.000; -870.000
362.714;  -49.850; -353.000; -332.000
362.846;  -96.175; -606.000; -490.000
362.978; -133.300; -941.000; -811.000
363.109;   18.950; -161.000; -260.000
363.241;  328.075; -739.000; -749.000
363.373;  419.325; -649.000; -564.000
363.505;  693.375; -186.000;  -91.000
363.637;  152.500; -787.000; -601.000
363.769; -121.825;-1067.000;-1080.000
363.901;  -87.100; -596.000; -654.000
364.033; -139.350;-1103.000;-1062.000
364.165;  -22.425; -283.000; -283.000
364.296;   64.650; -316.000; -177.000
364.428;   50.400;-1344.000;-1220.000
364.560;  -63.525; -679.000; -661.000
364.692;  -97.225; -738.000; -835.000
364.824;  181.500; -588.000; -456.000
364.955;  437.650; -402.000; -564.000
365.087; 1016.300;-1097.000; -852.000
365.219;   20.025; -686.000; -816.000
365.351;  -58.250; -526.000; -572.000
365.482;   22.175;  300.000;  240.000
365.614;  -41.325; -402.000; -314.000
365.746; -110.650; -729.000; -752.000
365.877;  -96.500; -706.000; -672.000
366.009;  266.425;  -35.000;  -62.000
366.141;  -94.900;-1249.000;-1134.000
366.272; -128.700; -803.000; -719.000
366.404; -114.375;-1005.000; -874.000
366.535;  -29.350; -139.000;  -12.000
366.667; -109.100; -644.000; -649.000
366.799;   24.450;  353.000;  203.000
366.930; -130.150; -862.000; -996.000
367.062;  111.575; -639.000; -613.000
367.193;  160.100; -872.000; -842.000
367.325;  -76.675; -580.000; -684.000
367.456;   29.050; -246.000;   31.000
367.588;  151.150; -371.000; -318.000
367.719;    9.850;  -44.000;  -45.000
367.851;  -42.950; -222.000; -241.000
367.982;  -57.925; -875.000; -732.000
368.113;   51.900; -475.000; -358.000
368.245; -137.300; -960.000; -841.000
368.376;  -38.400; -254.000; -302.000
368.508;  -35.650; -188.000; -263.000
368.639; -167.075;-1166.000;-1034.000
368.770;  -44.725; -670.000; -589.000
368.902;  -96.725; -836.000; -926.000
369.033; -114.650; -906.000; -855.000
369.164;  -69.525; -720.000; -653.000
369.296; -108.200; -452.000; -601.000
369.427;  -17.125; -209.000; -144.000
369.558;  -60.350; -593.000; -377.000
369.689; -112.350; -721.000; -569.000
369.821; -138.850; -951.000; -845.000
369.952;  -31.300;   42.000; -108.000
370.083;  -55.400; -229.000; -108.000
370.214;  -97.050; -735.000; -650.000
370.345;   -7.675;   65.000;   81.000
370.477; -105.875; -810.000; -790.000
370.608;  202.425; -328.000; -264.000
370.739;  -92.275;-1233.000;-1292.000
370.870;  -66.275;-1102.000; -923.000
371.001;   48.925; -378.000; -467.000
371.132;  -92.400; -754.000; -735.000
371.263;  -34.550;  -42.000; -148.000
371.394; -146.200; -841.000; -748.000
371.525;   17.900;  345.000;  225.000
371.657; -100.625; -808.000; -670.000
371.788;   56.050;  103.000;  199.000
371.919;  142.975; -384.000; -304.000
372.050; 3197.875;  -91.000; -156.000
372.181;  934.025; -188.000; -294.000
372.311;  291.900;   42.000; -127.000
372.442;   12.125; -457.000; -451.000
372.573;  -41.475; -444.000; -340.000
372.704; -121.025;-1008.000; -980.000
372.835;   47.975; -228.000; -289.000
372.966;  -68.750; -646.000; -554.000
373.097;  -90.975; -575.000; -711.000
373.228;  -64.925; -717.000; -542.000
373.359;   71.400; -824.000; -536.000
373.490;  770.575; -881.000; -727.000
373.620;  944.175;-1001.000; -803.000
373.751; 1539.700; -332.000; -396.000
373.882;  643.675; -663.000; -733.000
374.013;   27.175; -449.000; -262.000
374.143;  -66.400; -581.000; -659.000
374.274; -115.875; -987.000; -908.000
374.405;  129.975; -388.000; -276.000
374.536;  369.475; -526.000; -387.000
374.666;  917.275; -759.000; -807.000
374.797;  156.575; -817.000; -868.000
374.928;  674.325; -710.000; -560.000
375.058;  727.775; -535.000; -500.000
375.189;   45.150;  -59.000;  -93.000
375.320; -115.000; -928.000;-1034.000
375.450;  -60.075; -625.000; -616.000
375.581;  -51.375; -526.000; -436.000
375.712;  -46.575; -574.000; -250.000
375.842;  245.925; -438.000; -415.000
375.973;  139.775; -554.000; -513.000
376.103;  -60.250; -665.000; -648.000
376.234; -106.575; -531.000; -552.000
376.364;  -58.750; -944.000; -867.000
376.495;  288.925;  925.000;  529.000
376.625;  -25.000; -472.000; -485.000
376.756;   20.075; -709.000; -678.000
376.886;  -89.700;-1178.000;-1026.000
377.017;   46.725;-1048.000;-1061.000
377.147;  373.250; -786.000; -782.000
377.278;   33.575;  174.000;  228.000
377.408; -140.875; -801.000; -815.000
377.538; -122.675; -707.000; -693.000
377.669;  -77.050; -537.000; -613.000
377.799; -109.375; -645.000; -635.000
377.929;  -70.800; -610.000; -428.000
378.060; -148.850; -781.000; -847.000
378.190;  -61.575; -726.000; -531.000
378.320;  -58.825; -401.000; -406.000
378.451;  -19.925; -131.000;  -22.000
378.581;  -20.300;  -67.000; -110.000
378.711;  133.900; 1035.000;  866.000
378.841;  -54.525; -533.000; -675.000
378.972;  -90.675; -871.000; -751.000
379.102;  -36.825; -652.000; -579.000
379.232;  -37.625; -126.000;  -73.000
379.362; -122.150;-1001.000; -885.000
379.492;   -9.725; -373.000; -424.000
379.623;   53.150;    0.000;  111.000
379.753; -112.775;-1107.000; -974.000
379.883;  150.950;   59.000;  156.000
380.013;  -14.925;-1081.000;-1017.000
380.143; -130.050;-1097.000;-1056.000
380.273; -112.050; -985.000; -861.000
380.403;  -23.100; -344.000; -257.000
380.533;  -46.375; -651.000; -664.000
380.663;   43.275;  173.000;  128.000
380.793; -125.875;-1027.000;-1074.000
380.923;  -40.275; -103.000;  -34.000
381.053;  -97.900; -613.000; -623.000
381.183;  -42.150; -106.000; -248.000
381.313;   17.625; -656.000; -470.000
381.443;   11.250; -692.000; -473.000
381.573;  132.325; -402.000; -409.000
381.703;  170.525;-1249.000;-1095.000
381.833; -143.025;-1454.000;-1336.000
381.963;   88.450; -134.000;  -87.000
382.093; 1233.750; -925.000; -909.000
382.223;  343.800; -713.000; -602.000
382.353;  -26.450; -801.000; -608.000
382.482;  259.800;-1091.000; -964.000
382.612;  641.075; -872.000; -644.000
382.742;  326.750; -695.000; -622.000
382.872;  200.425; -565.000; -551.000
383.002;   38.400;  347.000; -132.000
383.131;  -37.900; -226.000; -160.000
383.261;  -73.450; -706.000; -768.000
383.391;  276.025; -552.000; -377.000
383.521; 3393.900;  451.000;  263.000
383.650;  790.525; -947.000; -904.000
383.780;  -25.275; -783.000; -656.000
383.910;  109.125;  880.000;  802.000
384.039;   -5.850; -794.000; -656.000
384.169;  136.150;-1205.000;-1017.000
384.299;  -57.275; -650.000; -662.000
384.428;  -97.225; -764.000; -680.000
384.558;  -56.275; -308.000; -275.000
384.687;  -53.275; -414.000; -334.000
384.817;  -10.550;   75.000;   -2.000
384.947;   -0.475; -234.000; -141.000
385.076;  231.250;  982.000;  912.000
385.206;   91.450;  369.000;  480.000
385.335;  -61.675; -549.000; -417.000
385.465;  -97.825; -655.000; -663.000
385.594;   98.875;  -53.000;  -44.000
385.724;  314.725; -868.000; -838.000
385.853;   74.900; -296.000; -270.000
385.982; 1162.250; -743.000; -787.000
386.112; 1808.100;-1052.000; -871.000
386.241;   98.625; -307.000; -312.000
386.371;    0.425; -174.000;  -87.000
386.500;  -25.625; -825.000; -789.000
386.629;   12.925; -874.000; -817.000
386.759;   51.125;  -43.000;   68.000
386.888;  -31.850; -170.000; -250.000
387.017;  -95.825; -648.000; -620.000
387.147; -113.925; -771.000; -798.000
387.276;  -20.075; -410.000; -397.000
387.405;  -17.850; -398.000; -342.000
387.535;  -40.950; -452.000; -361.000
387.664;  -69.800; -692.000; -620.000
387.793;   36.050; -198.000; -113.000
387.922;  412.350;  255.000;  200.000
388.052;   -4.800; -576.000; -423.000
388.181;  -26.775; -342.000; -472.000
388.310;  -42.575; -889.000; -710.000
388.439;  -77.550; -749.000; -742.000
388.568;  136.400;  365.000;  244.000
388.697;  852.150; -756.000; -653.000
388.826;  173.375; -768.000; -666.000
388.956;   22.800; -285.000; -307.000
389.085;  -45.775; -347.000; -287.000
389.214; -135.550; -842.000; -872.000
389.343;  -77.775; -645.000; -413.000
389.472;  402.525;  126.000;  149.000
389.601;  506.900;   91.000;    0.000
389.730;  -19.950; -568.000; -687.000
389.859;   45.600;  226.000;   46.000
389.988;  127.375; -423.000; -408.000
390.117;  119.775; -168.000; -146.000
390.246;  -27.100; -331.000; -320.000
390.375;   56.675; -673.000; -626.000
390.504;  -81.300; -703.000; -621.000
390.633; -114.000; -672.000; -726.000
390.761; -101.375; -732.000; -645.000
390.890;   -4.050;   -4.000; -130.000
391.019;  -60.700; -421.000; -441.000
391.148; -131.175; -826.000; -855.000
391.277;  -91.475; -576.000; -493.000
391.406;  -97.675; -821.000; -805.000
391.534;   12.800;  574.000; -301.000
391.663;  -81.125; -583.000; -645.000
391.792; -107.475; -673.000; -701.000
391.921;   66.075;   -3.000;   15.000
392.050;  130.850; -287.000; -228.000
392.178;  -74.025;-1206.000;-1061.000
392.307;   97.175; -758.000; -712.000
392.436;   53.350; -427.000; -641.000
392.564;    1.250;  166.000;   -6.000
392.693; -105.875; -860.000; -682.000
392.822;  138.400; -529.000; -534.000
392.950;   43.025; -880.000; -714.000
393.079;  254.025; -188.000; -328.000
393.208;   -3.450; -488.000; -511.000
393.336;  -38.850; -170.000; -145.000
393.465;  -38.250; -317.000; -199.000
393.593;   -4.075;   62.000;   79.000
393.722; -159.350;-1121.000; -916.000
393.850;  -38.525; -188.000;  -61.000
393.979; -162.750; -926.000; -805.000
394.107;  -76.250; -517.000; -537.000
394.236;  -31.025; -570.000; -507.000
394.364;  157.750;  383.000;  206.000
394.493;  203.500; -911.000; -767.000
394.621;  -44.125; -955.000; -916.000
394.750;  764.925; -873.000; -923.000
394.878; 3063.400; -247.000; -149.000
395.007; 4089.300; -721.000; -807.000
395.135;  303.025; -790.000; -721.000
395.263;  -85.000;-1038.000;-1040.000
395.392;  -16.900;  -25.000; -107.000
395.520; -147.200; -818.000; -679.000
395.648; -115.225; -865.000; -915.000
395.777;  -46.125; -366.000; -405.000
395.905;  -67.725; -449.000; -564.000
396.033;   -0.500;  217.000;  172.000
396.162;  360.300; -399.000; -453.000
396.290;  332.125;  -17.000;   -2.000
396.418;   44.450; -555.000; -514.000
396.546;  -95.000; -571.000; -466.000
396.674; -126.500; -850.000; -878.000
396.803;   -2.925;  -72.000;  -23.000
396.931;   51.775; -179.000; -199.000
397.059;   -6.750;-1026.000; -989.000
397.187; -129.275;-1026.000; -975.000
397.315; -143.950; -884.000; -649.000
397.443; -122.875; -592.000; -443.000
397.572;  -94.075; -578.000; -424.000
397.700;  -48.525; -607.000; -614.000
397.828;  -25.525;  120.000;  -90.000
397.956;  -64.775; -508.000; -478.000
398.084;  -71.650; -767.000; -626.000
398.212;   14.975;  137.000;  124.000
398.340;  -17.375;  -56.000;  159.000
398.468;   -8.600; -390.000; -169.000
398.596; -138.325; -993.000; -953.000
398.724; -142.750; -762.000; -767.000
398.852; -166.375;-1024.000; -976.000
398.980;  -85.700; -560.000; -560.000
399.108;  -72.950; -982.000; -735.000
399.236;    8.975;   13.000;    8.000
399.363;    9.200;  222.000;  196.000
399.491;  -76.050; -404.000; -398.000
399.619; -128.075; -829.000; -800.000
399.747; -120.600; -859.000; -771.000
399.875;   62.150;  220.000;  234.000
400.003;  -69.175; -359.000; -284.000
400.130;  -92.675; -421.000; -341.000
400.258;  -49.800;  -83.000;   38.000
400.386;  -76.250; -352.000; -168.000
400.514;  -74.100; -526.000; -587.000
400.641; -107.650; -928.000; -802.000
400.769; -155.525; -979.000; -888.000
400.897; -132.125; -838.000; -793.000
401.025;  -37.775; -166.000; -152.000
401.152;   -5.700;  220.000;   38.000
401.280; -100.975; -430.000; -429.000
401.408; -124.450; -712.000; -576.000
401.535; -110.950; -735.000; -758.000
401.663; -197.375;-1134.000;-1054.000
401.790; -104.600; -514.000; -525.000
401.918;   35.900;  436.000;  405.000
402.046;  -35.825;  134.000;  122.000
402.173;  -44.700;  -18.000;    7.000
402.301;  -94.125; -519.000; -397.000
402.428;   36.000;  528.000;  383.000
402.556; -158.175;-1188.000; -913.000
402.683;  -36.350;  -20.000;   -1.000
402.811;  -27.525;  -37.000; -206.000
402.938;   -5.175;   20.000;   27.000
403.066;  144.625; -574.000; -558.000
403.193;  287.275;  299.000;  239.000
403.321;  200.400; -396.000; -574.000
403.448;  261.450;   83.000;   27.000
403.575;  104.550;  -90.000;  -46.000
403.703;  -98.175; -732.000; -557.000
403.830;  -71.600; -531.000; -496.000
403.957; -150.325;-1117.000;-1023.000
404.085;   -9.525;  -61.000; -172.000
404.212;   86.375;  -50.000;   63.000
404.339;  270.025; -566.000; -306.000
404.467; 6057.300; -612.000; -524.000
404.594; 3759.275; -287.000; -227.000
404.721;  817.250; -869.000; -764.000
404.848;   57.675; -113.000; -202.000
404.976; -115.850; -856.000; -783.000
405.103;  -34.800;  -14.000;  -82.000
405.230;    3.475;  190.000;  226.000
405.357;   -1.250;  117.000;   44.000
405.484;  266.375;  -49.000;    5.000
405.612;   39.550; -548.000; -563.000
405.739;  -67.750; -488.000; -243.000
405.866;   70.050;  669.000;  385.000
405.993;  -33.250; -398.000; -102.000
406.120; -159.600; -801.000; -887.000
406.247;  -53.925; -323.000; -342.000
406.374;  344.600;  540.000;  629.000
406.501;   60.625; -632.000; -702.000
406.628; -111.775; -621.000; -589.000
406.755; -103.325; -803.000; -620.000
406.882;  -67.925; -228.000; -277.000
407.009; -108.375; -719.000; -628.000
407.136;    9.025; -480.000; -401.000
407.263;   72.775; -939.000; -829.000
407.390;  -90.725; -692.000; -614.000
407.517; -186.075;-1139.000;-1187.000
407.644;  -86.600; -332.000; -256.000
407.771;  -76.725; -249.000; -287.000
407.898;  -13.175;  168.000;  328.000
408.025;  -68.550; -421.000; -313.000
408.151;  -29.975;   82.000;  153.000
408.278;  -63.675; -267.000; -216.000
408.405; -132.750; -931.000; -899.000
408.532;  -70.150; -549.000; -542.000
408.659; -136.350; -677.000; -648.000
408.785; -210.250;-1298.000;-1170.000
408.912;  -78.825; -412.000; -296.000
409.039; -109.225; -610.000; -686.000
409.166; -117.725; -591.000; -555.000
409.292; -108.925; -571.000; -534.000
409.419; -140.125; -665.000; -649.000
409.546;  -90.975; -431.000; -192.000
409.672; -128.175; -713.000; -545.000
409.799;  -24.150;  -36.000;   34.000
409.926;  -55.925; -180.000; -179.000
410.052; -177.400;-1127.000;-1091.000
410.179;  -88.025; -368.000; -392.000
410.305;  -93.200; -375.000; -493.000
410.432;  -65.500; -220.000; -333.000
410.558;  -99.150; -305.000; -380.000
410.685; -117.575; -688.000; -431.000
410.812; -103.000; -409.000; -588.000
410.938; -148.325; -964.000; -808.000
411.065; -110.200; -671.000; -645.000
411.191;  -39.175; -189.000; -174.000
411.317; -127.225; -823.000; -742.000
411.444;  -87.800; -317.000; -246.000
411.570;  -78.400; -339.000; -294.000
411.697; -134.750; -758.000; -752.000
411.823; -170.175; -989.000; -999.000
411.949;  -52.250;  -56.000;   17.000
412.076; -116.900; -539.000; -519.000
412.202; -122.125; -758.000; -757.000
412.329; -122.100; -798.000; -752.000
412.455; -131.425; -821.000; -657.000
412.581;  -26.625;  -15.000;  172.000
412.707;  -95.375; -540.000; -457.000
412.834;   20.425;  156.000;  219.000
412.960; -104.550; -785.000; -784.000
413.086; -108.225; -743.000; -701.000
413.212;  126.725;  604.000;  578.000
413.339;  -89.025; -685.000; -701.000
413.465;  -33.100; -364.000; -310.000
413.591; -108.100; -757.000; -474.000
413.717;  -67.300; -358.000; -366.000
413.843; -138.225; -839.000; -861.000
413.969;  -64.450;  -47.000; -292.000
414.096; -103.650; -679.000; -679.000
414.222;  -18.025;  -33.000;   85.000
414.348;  -54.325; -652.000; -385.000
414.474;   46.150;   38.000;  -52.000
414.600;  -18.125; -126.000; -144.000
414.726;  -19.225;  -96.000;  -55.000
414.852;  -60.950; -365.000; -342.000
414.978;   16.725;  104.000;  -18.000
415.104;   39.200;   38.000;   80.000
415.230;   11.200; -329.000; -330.000
415.356;   36.600; -409.000; -514.000
415.482;  181.300;   13.000;  -35.000
415.608;  277.500; -247.000; -323.000
415.734;  960.650;   67.000;   38.000
415.860;20611.400; -875.000; -767.000
415.986;14557.975; -685.000; -607.000
416.111; 1230.175; -798.000; -652.000
416.237;  247.800; -424.000; -571.000
416.363; 1193.325; -765.000; -733.000
416.489; 4351.650; -324.000; -251.000
416.615;  454.625; -707.000; -742.000
416.741;  -41.425; -677.000; -784.000
416.866;  -99.000; -673.000; -736.000
416.992; -130.825; -801.000; -818.000
417.118;  -20.875;  -41.000;  -80.000
417.244;  -88.925; -798.000; -531.000
417.369;  -95.200; -801.000; -612.000
417.495;  -31.725; -325.000; -254.000
417.621; -110.400;-1015.000; -803.000
417.746;  -27.825; -579.000; -572.000
417.872;   47.325; -254.000; -144.000
417.998;   33.625; -515.000; -530.000
418.123; 1133.875;-1073.000; -845.000
418.249; 5592.025; -512.000; -601.000
418.374;  767.700; -916.000; -824.000
418.500;   98.975; -383.000; -482.000
418.626;  118.500;   70.000;  -59.000
418.751;   97.900; -549.000; -448.000
418.877;  208.875; -637.000; -643.000
419.002; 1925.925; -688.000; -560.000
419.128;13155.950; -930.000; -721.000
419.253; 3119.000; -967.000; -837.000
419.379;  432.475; -391.000; -338.000
419.504;  390.825;  325.000;  415.000
419.629;  539.400; -393.000; -212.000
419.755; 3875.325; -317.000; -254.000
419.880;22474.800;  -98.000;   67.000
420.006;11982.900; -280.000; -221.000
420.131;30457.725; -662.000; -775.000
420.256; 4256.025; -315.000; -316.000
420.382;  565.825; -665.000; -687.000
420.507;   61.650; -649.000; -778.000
420.632;   87.100; -337.000; -339.000
420.758;  153.600; -251.000; -425.000
420.883;  -87.850; -876.000; -672.000
421.008; -107.475; -775.000; -619.000
421.133;  -88.825; -509.000; -467.000
421.259;  -59.175; -325.000; -259.000
421.384; -128.425; -834.000; -693.000
421.509;  -67.425;-1052.000; -862.000
421.634;  900.650; -936.000; -820.000
421.759;  375.000; -359.000; -327.000
421.885;  -68.600; -717.000; -656.000
422.010;  -91.350; -673.000; -542.000
422.135; -149.300; -695.000; -727.000
422.260;   33.950;  340.000;  280.000
422.385;  -37.800;   12.000;  -98.000
422.510;    5.525;  151.000;  -26.000
422.635;    9.175;  -87.000;  -43.000
422.760;   54.575; -766.000; -791.000
422.885;   51.400;  -57.000;  -80.000
423.010;  -35.550; -112.000; -169.000
423.135; -101.925; -481.000; -561.000
423.260;  -40.700; -150.000; -245.000
423.385;   52.325;  476.000;  222.000
423.510;   20.400;   71.000;  -22.000
423.635;   67.500;  133.000;   45.000
423.760;   28.750;  383.000;  328.000
423.885;   46.125;  336.000;  391.000
424.010;   -0.150;  -68.000;  -13.000
424.135;  -29.650;    5.000;  -33.000
424.259; -100.775; -654.000; -457.000
424.384;  -62.775; -279.000; -272.000
424.509;  -45.300; -260.000; -186.000
424.634; -108.925; -761.000; -623.000
424.759;  -44.775; -688.000; -544.000
424.883;  -23.350; -506.000; -527.000
425.008;  160.125; -502.000; -410.000
425.133; 2089.650; -679.000; -653.000
425.258;  917.400; -517.000; -381.000
425.382;  901.925; -867.000; -774.000
425.507; 2303.550; -487.000; -543.000
425.632;  382.725; -802.000; -663.000
425.756;  473.000; -256.000; -146.000
425.881; 7222.300; -831.000; -857.000
426.006;18919.325; -604.000; -355.000
426.130; 2850.925; -696.000; -508.000
426.255;  349.850; -611.000; -491.000
426.379;  160.900; -189.000; -577.000
426.504;  370.750;  660.000;  544.000
426.629; 4145.775; -519.000; -466.000
426.753; 2763.225;   64.000;  -46.000
426.878;  318.300; -252.000; -288.000
427.002;  158.825; -651.000; -668.000
427.127; 1675.625;  -35.000; -158.000
427.251;11902.025;  372.000;  401.000
427.375; 3305.450; -191.000; -173.000
427.500; 2046.825; -616.000; -610.000
427.624;  678.000; -234.000; -400.000
427.749;   60.825; -216.000; -225.000
427.873;  -49.425; -499.000; -412.000
427.997;  -67.225; -222.000; -230.000
428.122;   68.350;  795.000;  703.000
428.246;   40.675;  433.000;  434.000
428.371; -143.025; -869.000; -773.000
428.495; -120.300; -624.000; -646.000
428.619;  -49.850; -186.000; -117.000
428.743;    7.225;   65.000;  132.000
428.868;   -2.825; -732.000; -643.000
428.992; 1203.675; -219.000; -326.000
429.116;  467.075; -329.000; -357.000
429.240;  209.600;  419.000;  426.000
429.365;  -46.775; -454.000; -574.000
429.489;  -71.950; -638.000; -647.000
429.613;   25.600; -236.000; -177.000
429.737;   13.725; -563.000; -432.000
429.861;  263.400; -247.000; -133.000
429.985; 5797.600; -425.000; -305.000
430.109; 6242.525; -770.000; -908.000
430.234;  701.075;   76.000;  -50.000
430.358;   61.775; -250.000; -160.000
430.482;  -89.950; -672.000; -564.000
430.606;  -83.200; -655.000; -375.000
430.730;  -14.900; -437.000; -388.000
430.854;   47.675; -909.000; -835.000
430.978;  -96.075; -795.000; -764.000
431.102; -106.550; -499.000; -422.000
431.226; -149.225; -874.000; -815.000
431.350;    1.175;  345.000;  422.000
431.474; -101.675; -661.000; -373.000
431.597; -168.275;-1060.000; -848.000
431.721;  -82.700; -276.000; -267.000
431.845; -132.300; -704.000; -472.000
431.969; -101.950; -304.000; -349.000
432.093;  -91.700; -395.000; -317.000
432.217;  -22.450;   32.000;   82.000
432.341; -104.600; -523.000; -518.000
432.464;  -16.275;   96.000;   40.000
432.588;  144.300; -401.000; -329.000
432.712;   70.525;  -52.000;  -52.000
432.836;   42.950;  213.000;  263.000
432.959;  -28.600; -372.000; -311.000
433.083;   99.325;   11.000;    2.000
433.207;  391.650;  285.000;  930.000
433.330; 5378.225; -391.000; -200.000
433.454; 6481.450; -654.000; -638.000
433.578; 3757.625;  583.000;  278.000
433.701;  629.050; -623.000; -675.000
433.825;  104.100; -292.000; -299.000
433.949;  107.475;   28.000;  -72.000
434.072;   13.250; -410.000; -323.000
434.196;  -37.350; -309.000; -117.000
434.319; 3801.950;25482.000;25124.000
434.443;  717.300; -656.000; -603.000
434.566; 2750.675;  281.000;   62.000
434.690;  425.050; -637.000; -383.000
434.813;   33.350; -251.000; -173.000
434.937;  -91.325; -569.000; -696.000
435.060;  -57.500; -423.000; -332.000
435.184;  198.800; -492.000; -217.000
435.307;   92.650;  159.000;  102.000
435.431;  -28.200;  -40.000;   24.000
435.554;  -79.975; -399.000; -240.000
435.677; -108.925; -350.000; -258.000
435.801;  -38.650;  -25.000;   49.000
435.924;  -39.225;    1.000;  -67.000
436.048; -127.775;-1019.000; -732.000
436.171;  -75.800; -240.000;  -66.000
436.294;  -44.025; -248.000; -229.000
436.417;   81.000; -963.000; -849.000
436.541;  -92.650; -814.000; -840.000
436.664;  -64.725; -242.000; -316.000
436.787;  -20.100;   13.000;  113.000
436.910; -143.175; -792.000; -422.000
437.034;  -26.025;  142.000;  143.000
437.157;   13.825;  -11.000;    0.000
437.280;  -61.025; -392.000; -292.000
437.403; -119.825; -982.000; -869.000
437.526;  435.500; -903.000; -865.000
437.649; 1639.675; -505.000; -332.000
437.772;  199.600; -692.000; -540.000
437.896;   88.725;  700.000;  544.000
438.019; -105.025; -758.000; -503.000
438.142; -102.825; -596.000; -506.000
438.265;  -47.875; -639.000; -670.000
438.388;  400.500; -520.000; -410.000
438.511;   34.600; -597.000; -394.000
438.634;  -71.925; -247.000; -125.000
438.757; -140.350; -693.000; -619.000
438.880;  -44.075;  -34.000;  -57.000
439.003;  -86.600; -417.000; -437.000
439.126;  -81.250; -287.000; -167.000
439.248;  -72.300;  -98.000; -139.000
439.371;  -52.275;    9.000;  -53.000
439.494;   34.400;  510.000;  439.000
439.617;  -56.850;   65.000;  -88.000
439.740; -188.100; -968.000; -816.000
439.863; -163.000; -755.000; -595.000
439.986; -123.450; -476.000; -431.000
440.108;  -58.875; -161.000; -112.000
440.231; -176.775; -950.000; -836.000
440.354;  -64.525;  -64.000; -150.000
440.477;   -9.175; -566.000; -542.000
440.599;  -43.350; -200.000; -225.000
440.722; -121.350; -709.000; -586.000
440.845;   60.600;  751.000;  928.000
440.968; -117.100; -415.000; -311.000
441.090;  -81.200; -199.000;  -33.000
441.213; -177.575;-1021.000; -825.000
441.336;  -68.275; -159.000;   -5.000
441.458;  -79.200; -549.000; -396.000
441.581; -111.450; -628.000; -629.000
441.703;  -81.475; -152.000;   13.000
441.826; -118.175; -557.000; -400.000
441.948;  -46.425;   56.000;   51.000
442.071;   13.850;  555.000;  424.000
442.193; -111.100; -531.000; -485.000
442.316;   -6.425;  152.000;   97.000
442.438;   43.675; -233.000;  -10.000
442.561;   48.925;  272.000;  262.000
442.683;  388.200; -809.000; -522.000
442.806;  868.050;   -8.000;   74.000
442.928;  -18.275; -859.000; -604.000
443.051;  -92.700; -577.000; -373.000
443.173;  -93.900; -341.000; -339.000
443.295; -102.550; -263.000; -371.000
443.418;  -78.425; -321.000;  -29.000
443.540;  -30.250; -106.000;   -4.000
443.662; -115.100; -563.000; -465.000
443.785;  -31.475;  335.000;  199.000
443.907;  -96.125; -362.000; -208.000
444.029; -147.100; -767.000; -494.000
444.152; -147.800; -644.000; -554.000
444.274;  -40.750;  -18.000;  -24.000
444.396; -115.700; -461.000; -221.000
444.518; -150.400; -691.000; -454.000
444.640; -113.875; -268.000; -111.000
444.763;  -23.800;  388.000;  249.000
444.885; -114.775; -432.000; -392.000
445.007;  -42.925;   35.000;   86.000
445.129; -124.775; -610.000; -515.000
445.251; -123.150; -372.000; -439.000
445.373; -128.975; -537.000; -386.000
445.495;  -18.750;  242.000;  350.000
445.617;   64.800;  853.000;  753.000
445.739;  -78.925; -215.000;  -97.000
445.861;  -40.650; -245.000; -112.000
445.984;  -57.800; -267.000; -101.000
446.105;  138.375; -418.000; -251.000
446.227;  451.875; -176.000;  -19.000
446.349;  -30.450; -358.000; -249.000
446.471; -118.925; -615.000; -448.000
446.593;  -80.075; -316.000;   19.000
446.715;  -29.475;  -67.000;   41.000
446.837;   51.025;  697.000;  832.000
446.959; -114.300; -457.000; -478.000
447.081; -126.250; -628.000; -518.000
447.203;   55.125;  862.000;  834.000
447.325;  -87.125; -270.000;   42.000
447.446;  -20.575;  286.000;  530.000
447.568; -155.725; -921.000; -803.000
447.690; -104.125; -236.000; -245.000
447.812; -159.725; -798.000; -519.000
447.933;  -29.650;  155.000;  127.000
448.055;  -60.400; -306.000; -261.000
448.177;  118.250;   31.000;   79.000
448.299;   35.100; -935.000; -727.000
448.420;   16.225;  -25.000;  159.000
448.542;  -39.950;   -3.000;   33.000
448.664;  -28.225;  109.000;  322.000
448.785;  -53.150;  265.000;   83.000
448.907; -101.750; -614.000; -353.000
449.028;  -49.800; -771.000; -471.000
449.150;   39.025;  492.000;  589.000
449.272; -171.200;-1044.000; -913.000
449.393;   18.400;  612.000;  694.000
449.515; -134.600; -634.000; -581.000
449.636;  -76.800; -264.000; -155.000
449.758;   83.025;  763.000;  622.000
449.879; -113.325; -498.000; -396.000
450.001;  -74.725; -149.000;  -49.000
450.122;  -44.100;  -95.000;  162.000
450.244;  -18.400;   37.000;  364.000
450.365; -106.775; -495.000; -301.000
450.486;  -38.200;   80.000;  268.000
450.608;   -8.450;  393.000;  326.000
450.729;   80.725;  578.000;  645.000
450.850;   -1.350; -574.000; -466.000
450.972;  811.150; -552.000; -389.000
451.093; 5244.650;  190.000;  588.000
451.214; 2210.550; -516.000; -337.000
451.336;  364.050;  773.000;  579.000
451.457;   63.675;  264.000;  393.000
451.578;  -52.525; -118.000;  -74.000
451.699; -127.675; -546.000; -540.000
451.821;  -79.100; -284.000;  -50.000
451.942;   12.450;  278.000;  285.000
452.063;   26.325;  228.000;  419.000
452.184;  602.125;  -54.000;  -49.000
452.305; 1127.825;  103.000;  170.000
452.427;  138.375; -549.000; -301.000
452.548;  -26.950;   23.000;   79.000
452.669;  -51.475; -257.000;  -89.000
452.790;  -71.550;    3.000;  -18.000
452.911;    3.375;  195.000;  259.000
453.032;  -87.875; -289.000;  -60.000
453.153;  -51.400;  -29.000;   81.000
453.274;   51.775;  737.000;  868.000
453.395;  -51.150;  -51.000;  175.000
453.516;  115.225; 1317.000; 1388.000
453.637;  -75.800; -205.000; -150.000
453.758;  -79.150;   15.000;   69.000
453.879; -126.250; -462.000; -250.000
454.000;   71.025; 1086.000;  948.000
454.121; -130.225; -554.000; -326.000
454.242; -135.950; -599.000; -383.000
454.362;  -67.125;  -99.000;  114.000
454.483;  -54.250; -309.000; -229.000
454.604;   36.225;  512.000;  580.000
454.725; -144.275; -627.000; -555.000
454.846; -120.175; -474.000; -406.000
454.967;  -37.150;  230.000;  539.000
455.087;  -45.100;  179.000;  153.000
455.208;    1.000;  554.000;  856.000
455.329;  -55.550;  -22.000;   82.000
455.450;   22.650;  473.000;  633.000
455.570;  -76.275; -234.000; -211.000
455.691;  -48.275;  201.000;  407.000
455.812; -106.350; -270.000;  -92.000
455.932;  -77.625;  107.000;  -97.000
456.053;  -83.075;   36.000;   24.000
456.173; -121.950; -433.000; -355.000
456.294; -133.925; -476.000; -303.000
456.415;  -73.225;  -73.000;   70.000
456.535;  -41.875;  297.000;  273.000
456.656;  -50.500;  132.000;  240.000
456.776;  -73.575;    3.000;  298.000
456.897;  -11.475;  308.000;  513.000
457.017;  -79.050; -153.000;   -3.000
457.138; -124.450; -402.000; -249.000
457.258;  -36.925;  263.000;  224.000
457.379;  -28.425;  509.000;  521.000
457.499;  -21.575;  443.000;  432.000
457.620; -136.700; -407.000; -231.000
457.740; -105.175; -132.000;  -11.000
457.860;  -80.200;   87.000;   44.000
457.981;  -54.800;  132.000;  124.000
458.101;  -82.075;  -89.000;   40.000
458.221;  -30.425;  336.000;  402.000
458.342;  -66.000;   -4.000;  -37.000
458.462;   44.450;  617.000;  352.000
458.582;  -46.675; -302.000; -294.000
458.703;   12.400;  303.000;  154.000
458.823;  -36.925;   22.000;  163.000
458.943;   25.100;  341.000;  467.000
459.063;  -36.075; 1124.000;  192.000
459.183;  -23.575;  328.000;  313.000
459.304;  -13.050;  315.000;  517.000
459.424;  -66.450; -246.000;  -89.000
459.544;  351.775;  388.000;  764.000
459.664;  867.750;  499.000;  506.000
459.784;  304.000; 1004.000; 1175.000
459.904;   74.350;  867.000;  744.000
460.024;   54.750;  867.000;  684.000
460.144;    7.625;  449.000;  554.000
460.264;  -16.650;  515.000;  327.000
460.385; -101.750; -145.000; -119.000
460.505;   16.250;  905.000;  858.000
460.625;  -95.150;  -17.000;  -68.000
460.745;  -42.375;  396.000;  541.000
460.864;  -54.325;  153.000;  469.000
460.984;  -15.925;  499.000;  573.000
461.104;  122.875; 1656.000; 1775.000
461.224;   10.925;  657.000;  650.000
461.344;  -30.650;  431.000;  360.000
461.464;  -41.300;  258.000;  513.000
461.584;  -29.525;  283.000;  466.000
461.704;  -85.150;   58.000;  108.000
461.824;  -54.300;  238.000;  259.000
461.943;  -50.675;  191.000;  130.000
462.063;  -71.475;    2.000;  324.000
462.183;   15.725;  639.000;  717.000
462.303;   96.700; 1678.000; 1230.000
462.422;   15.825;  781.000;  840.000
462.542;  -49.325;  271.000;  391.000
462.662;   20.625;  353.000;  380.000
462.782;  249.325;  833.000;  572.000
462.901;  482.025;  545.000;  717.000
463.021;  282.350; 1702.000; 1638.000
463.141;  -22.900;  337.000;  770.000
463.260;  -30.600;  614.000;  474.000
463.380;   -1.000;  902.000;  884.000
463.499;  -35.625;  342.000;  332.000
463.619;  -49.550;  581.000;  559.000
463.738;  113.200; 1644.000;  903.000
463.858;    0.275;  657.000;  811.000
463.978;  -21.725;  542.000;  396.000
464.097;   33.100;  921.000; 1114.000
464.217;  122.150; 1196.000; 1143.000
464.336;   93.575; 1068.000; 1130.000
464.455;  -35.250;  328.000;  659.000
464.575;   12.975;  597.000;  602.000
464.694;  153.625; 1204.000; 1179.000
464.814;  114.750; 1190.000; 1138.000
464.933;   72.475; 1095.000; 1027.000
465.052;   81.825; 1412.000; 1054.000
465.172;   91.850;  922.000;  799.000
465.291;  110.850; 1376.000; 1320.000
465.410;    8.750;  462.000;  735.000
465.530;   79.925; 1355.000; 1310.000
465.649;   56.375; 1209.000; 1273.000
465.768;  132.950; 1673.000; 1508.000
465.888;   46.125;  941.000; 1174.000
466.007;   80.475; 1335.000; 1440.000
466.126;    3.825;  721.000;  641.000
466.245;   37.475; 1176.000; 1187.000
466.364;   25.000;  950.000; 1060.000
466.484;   36.475; 1024.000; 1213.000
466.603;   37.525; 1101.000; 1222.000
466.722;   97.125; 1490.000; 1769.000
466.841;   86.925; 1151.000; 1401.000
466.960;   21.575; 1069.000;  972.000
467.079;  146.600; 1971.000; 1786.000
467.198;   40.450; 1238.000; 1181.000
467.317;   87.850; 1768.000; 1162.000
467.436;   62.875; 1709.000; 1261.000
467.555;  126.400; 1796.000; 1746.000
467.674;   67.675; 1227.000; 1329.000
467.793;   51.450; 1376.000; 1374.000
467.912;   94.800; 1658.000; 1539.000
468.031;  147.925; 2038.000; 1930.000
468.150;  117.100; 1842.000; 1837.000
468.269;  182.975; 2313.000; 2090.000
468.388;  186.675; 2168.000; 2339.000
468.507;  257.850; 2884.000; 2903.000
468.626;  231.525; 2555.000; 2541.000
468.744;  149.175; 2018.000; 2174.000
468.863;  175.325; 2312.000; 2523.000
468.982;   86.575; 1503.000; 1555.000
469.101;  208.975; 2788.000; 2692.000
469.220;  163.850; 2333.000; 2176.000
469.338;  234.000; 2935.000; 3051.000
469.457;  205.150; 2719.000; 2545.000
469.576;  329.725; 3953.000; 3784.000
469.695;  247.425; 2877.000; 3066.000
469.813;  433.550; 4148.000; 4192.000
469.932;  437.875; 4255.000; 4485.000
470.051;  407.250; 4075.000; 4161.000
470.169;  872.950; 4470.000; 4338.000
470.288; 1518.900; 4700.000; 4809.000
470.406;  873.375; 5059.000; 5194.000
470.525;  624.575; 6101.000; 5787.000
470.644;  652.850; 6847.000; 6794.000
470.762;  793.975; 8397.000; 7873.000
470.881;  920.225; 8651.000; 8464.000
470.999; 1049.125; 9685.000; 9151.000
471.118; 1105.650;11174.000;10711.000

