
Integration time [ms]: 200.000
Averaging Nr. [scans]: 10
Smoothing Nr. [pixels]: 0
Data measured with spectrometer [name]: 2101012U2
Wave   ;Sample   ;Dark     ;Reference
[nm]   ;[counts] ;[counts] ;[counts] 

197.733;  147.400;  516.000;  404.000
197.879; -168.500; -610.000; -634.000
198.025;  -81.800; -475.000; -420.000
198.171; -163.600; -602.000; -612.000
198.317;  -62.700; -401.000; -316.000
198.463; -121.100; -655.000; -404.000
198.609;   84.600;  181.000; -137.000
198.755; -155.000; -644.000; -410.000
198.901; -149.200; -505.000; -424.000
199.047; -136.700; -615.000; -488.000
199.193;  -60.900; -230.000; -468.000
199.339;  -83.300; -222.000; -369.000
199.485;   98.000;  330.000;  271.000
199.631;   52.400;  227.000;  310.000
199.777; -123.700; -466.000; -398.000
199.923; -137.200; -610.000; -424.000
200.069;  -18.600; -141.000;  -58.000
200.215;  113.500;  128.000;  453.000
200.361;  106.400;  243.000;  477.000
200.507; -155.800; -600.000; -373.000
200.653;  -41.400; -371.000; -194.000
200.798;  -67.400; -215.000; -125.000
200.944;   27.600; -146.000;  -41.000
201.090;   85.800;   61.000;  222.000
201.236;   12.300; -116.000; -158.000
201.382;  277.600;  874.000;  903.000
201.528;   33.600;  -58.000;  -48.000
201.674; -107.500; -386.000; -293.000
201.819; -112.800; -540.000; -439.000
201.965; -178.700; -699.000; -447.000
202.111;  -33.500; -273.000; -226.000
202.257;  -52.700; -250.000; -238.000
202.402;   29.100;   13.000;  -36.000
202.548;  -89.900; -169.000; -116.000
202.694;  209.100;  410.000; -183.000
202.840; -129.100; -603.000; -531.000
202.985; -165.600; -681.000; -639.000
203.131; -233.200; -832.000; -666.000
203.277;  -30.200; -199.000; -262.000
203.423; -108.600; -434.000; -520.000
203.568;  -65.600; -462.000; -237.000
203.714; -123.600; -535.000; -542.000
203.860; -172.700; -682.000; -641.000
204.005;   29.000;  112.000;  167.000
204.151;  184.800;  561.000;  556.000
204.296; -101.000; -354.000; -221.000
204.442; -124.900; -600.000; -547.000
204.588; -180.400; -592.000; -579.000
204.733;   36.000;  178.000;  168.000
204.879; -261.600;-1018.000; -822.000
205.025;   16.600;  -99.000;  126.000
205.170;   14.100;  -17.000;   94.000
205.316;  167.400;  438.000;  661.000
205.461; -162.300; -698.000; -554.000
205.607;  195.400;  609.000;  665.000
205.752; -161.000; -626.000; -551.000
205.898; -133.200; -501.000; -391.000
206.043; -133.400; -578.000; -506.000
206.189;  -80.700; -243.000; -285.000
206.334;  172.700;  554.000;  606.000
206.480;  182.100;  409.000;  239.000
206.625; -171.000; -529.000; -552.000
206.771;  -78.000; -451.000; -373.000
206.916;  -63.600; -210.000; -537.000
207.062; -134.300; -545.000; -591.000
207.207; -125.200; -546.000; -443.000
207.353;  106.200;  185.000;  460.000
207.498;   41.900;  196.000;   85.000
207.643;  -96.300; -501.000; -370.000
207.789; -280.000;-1069.000; -910.000
207.934; -204.000; -665.000; -713.000
208.080;  -51.900; -154.000;   66.000
208.225;   -5.800;  -22.000;  -57.000
208.370; -187.100; -727.000; -619.000
208.516; -141.600; -741.000; -487.000
208.661;  -75.500; -127.000;  -69.000
208.806;  -54.700; -165.000; -171.000
208.952; -265.400;-1044.000; -731.000
209.097;  172.700;  378.000;  349.000
209.242;  -59.000; -307.000; -382.000
209.387;  117.700;  392.000;  350.000
209.533; -113.500; -321.000; -350.000
209.678;  169.500;  472.000;  543.000
209.823; -100.300; -408.000; -310.000
209.969; -200.900; -860.000; -757.000
210.114; -216.300; -907.000; -719.000
210.259; -243.100; -939.000; -889.000
210.404;   -6.800; -171.000;  103.000
210.549;   20.200;  108.000;    3.000
210.695;  -21.200;   -3.000;  -95.000
210.840;   70.900;   94.000;   67.000
210.985; -156.400; -484.000; -303.000
211.130;  152.500;  268.000;  406.000
211.275;   42.600;  207.000;  199.000
211.420;  -84.200; -300.000; -289.000
211.566; -145.700; -536.000; -489.000
211.711;   73.300;  218.000;  157.000
211.856;  -71.100; -545.000; -519.000
212.001;    9.200;  151.000;   44.000
212.146;    5.000;  153.000;   49.000
212.291;  -25.600; -210.000; -186.000
212.436;  -45.700; -280.000;   -6.000
212.581; -159.900; -685.000; -653.000
212.726; -139.200; -487.000; -538.000
212.871; -119.900; -552.000; -217.000
213.016; -317.800;-1172.000;-1029.000
213.161;  129.600;  406.000;  291.000
213.306; -161.800; -435.000; -577.000
213.451; -207.800; -778.000; -689.000
213.596;  -85.100; -455.000; -347.000
213.741; -104.900; -448.000; -538.000
213.886; -147.900; -498.000; -517.000
214.031;  -27.300; -294.000; -124.000
214.176; -119.400; -408.000; -341.000
214.321;   -5.700; -296.000; -157.000
214.466;  -46.900; -163.000;  -43.000
214.611;   16.800;  -61.000;  -10.000
214.756; -250.200; -948.000; -858.000
214.901;  -33.100; -388.000; -226.000
215.046; -246.500; -797.000; -825.000
215.191;   29.500;  128.000;   35.000
215.336;  -16.500; -157.000;  -19.000
215.480; -131.900; -684.000; -505.000
215.625;  -32.300; -175.000;  -19.000
215.770; -178.500; -757.000; -662.000
215.915;    6.200;   -5.000;  -97.000
216.060;   20.000; -113.000;  -21.000
216.205; -210.100; -731.000; -779.000
216.349; -155.000; -470.000; -533.000
216.494; -276.100; -939.000; -867.000
216.639; -219.800; -823.000; -888.000
216.784; -162.500; -577.000; -525.000
216.929;  141.300;  392.000;  281.000
217.073;   -5.300; -244.000;  -31.000
217.218;   33.600;   78.000;  -47.000
217.363; -180.300; -656.000; -618.000
217.507; -176.400; -623.000; -588.000
217.652; -255.600; -845.000; -874.000
217.797; -154.800; -708.000; -659.000
217.942; -217.500; -856.000; -720.000
218.086;  166.000;  608.000;  539.000
218.231;   -6.900; -174.000;  -26.000
218.376;  -57.300; -337.000; -229.000
218.520;    2.800;  -41.000;   96.000
218.665;  -51.400; -338.000; -204.000
218.810;  -57.200; -275.000; -233.000
218.954;   67.800;  201.000;   35.000
219.099; -196.100; -713.000; -963.000
219.243; -123.100; -589.000; -554.000
219.388;  -58.000; -264.000; -136.000
219.532;   -4.000; -116.000; -116.000
219.677; -166.300; -564.000; -521.000
219.822;   -9.300;   33.000;   89.000
219.966;   17.100;   17.000;  -99.000
220.111;  -39.800; -328.000;  -40.000
220.255; -197.500; -797.000; -750.000
220.400;   -3.300; -180.000; -146.000
220.544; -135.400; -516.000; -450.000
220.689;  -96.900; -422.000; -451.000
220.833;  -31.400; -123.000;  -58.000
220.978;  -82.700; -393.000; -563.000
221.122;   34.500;  319.000;  307.000
221.267; -221.000; -906.000; -837.000
221.411; -118.300; -478.000; -394.000
221.555;    3.000; -104.000;  -23.000
221.700;  -97.200; -329.000; -222.000
221.844;  101.700;  255.000;  272.000
221.989;  -89.500; -328.000; -311.000
222.133;  -34.000; -289.000; -307.000
222.277;   -4.900;    5.000;   78.000
222.422;   32.100;  227.000;  113.000
222.566;  -46.600; -381.000; -214.000
222.711; -115.100; -414.000; -479.000
222.855; -171.200; -643.000; -586.000
222.999; -147.500; -642.000; -717.000
223.144;  -44.900; -195.000; -194.000
223.288;  143.900;  423.000;  251.000
223.432;   23.800;  184.000;  230.000
223.576;   58.800;  152.000;  -21.000
223.721;  143.600;  364.000;  273.000
223.865;  -96.600; -472.000; -475.000
224.009;  601.300; 1673.000; 1631.000
224.153; -134.500; -660.000; -671.000
224.298; -138.600; -531.000; -489.000
224.442;  -11.600;  -74.000;  -33.000
224.586;  -20.400; -169.000; -106.000
224.730; -180.300; -858.000; -670.000
224.875; -216.800; -739.000; -688.000
225.019;   49.000;  102.000;  188.000
225.163;  136.300;  208.000;  341.000
225.307;   63.600;   97.000;  -91.000
225.451;  112.200;  360.000;  481.000
225.595;   78.200;  264.000;  176.000
225.739;  -12.200; -170.000;  -94.000
225.884;   44.200;   86.000;    5.000
226.028; -213.500; -760.000; -626.000
226.172;  -28.900; -260.000; -273.000
226.316; -242.200; -941.000; -902.000
226.460;  -92.100; -645.000; -493.000
226.604;  -59.100; -406.000; -400.000
226.748; -197.700; -836.000; -733.000
226.892;  -49.700; -227.000; -181.000
227.036;  -88.000; -537.000; -447.000
227.180;  -91.700; -551.000; -375.000
227.324; -139.900; -561.000; -580.000
227.468; -249.200; -819.000; -717.000
227.612;   64.700;  242.000;  -28.000
227.756; -213.700; -845.000; -698.000
227.900;  117.500;  342.000;  441.000
228.044; -119.600; -509.000; -290.000
228.188;  113.600;  448.000;  568.000
228.332; -136.000; -546.000; -472.000
228.476;  -44.000; -223.000; -149.000
228.620;  -44.600; -210.000; -150.000
228.764;  167.900;  431.000;  349.000
228.908;  -38.200; -155.000;   30.000
229.052; -138.800; -615.000; -528.000
229.195;  -26.700; -172.000;   13.000
229.339;  -34.900; -235.000; -305.000
229.483;  -32.200;    5.000; -162.000
229.627;   21.200; -156.000;  139.000
229.771; -101.200; -218.000; -294.000
229.915;   39.100;  230.000;   79.000
230.059; -201.200; -648.000; -663.000
230.202;  -19.900; -370.000; -317.000
230.346;  -27.600; -107.000;  107.000
230.490; -106.600; -489.000; -521.000
230.634; -207.600; -736.000; -553.000
230.777;  191.200;  478.000;  509.000
230.921;  -97.000; -450.000; -359.000
231.065;  -85.100; -246.000; -286.000
231.209;   86.100;  261.000;  265.000
231.352;   51.100;   54.000;   40.000
231.496;   46.700;  568.000;  188.000
231.640; -156.600; -693.000; -621.000
231.783;  167.800;  546.000;  525.000
231.927;  -54.300; -294.000; -365.000
232.071; -215.000; -962.000; -736.000
232.214; -220.000; -980.000; -764.000
232.358; -212.800; -683.000; -599.000
232.502;   22.900;  -19.000;    7.000
232.645; -283.400;-1090.000; -927.000
232.789;  -51.300; -257.000; -218.000
232.933; -100.700; -407.000; -224.000
233.076; -244.500;-1038.000; -897.000
233.220; -217.600; -752.000; -777.000
233.363; -163.300; -669.000; -477.000
233.507;  103.100;  371.000;  129.000
233.650; -181.200; -764.000; -834.000
233.794;  103.100;  438.000;  461.000
233.938; -100.400; -530.000; -362.000
234.081;  -28.400;  -93.000;   31.000
234.225; -130.500; -631.000; -539.000
234.368; -239.100; -773.000; -723.000
234.512;  -81.300; -385.000; -299.000
234.655; -185.600; -582.000; -555.000
234.798; -151.500; -493.000; -466.000
234.942; -223.100; -884.000;-1002.000
235.085; -155.200; -651.000; -443.000
235.229; -141.400; -405.000; -410.000
235.372;  -68.400; -247.000; -191.000
235.516; -112.300; -397.000; -321.000
235.659;   90.300;   92.000;  121.000
235.802;   -4.400;  -38.000;  -22.000
235.946;   58.300;  335.000;  215.000
236.089;   55.200;  126.000;  250.000
236.233;  148.100;  275.000;  298.000
236.376;  -55.700; -235.000; -378.000
236.519;  -90.000; -297.000; -319.000
236.663;  -50.000; -215.000; -117.000
236.806; -236.400;-1029.000; -999.000
236.949;  143.600;  543.000;  431.000
237.092;  159.300;  412.000;  391.000
237.236; -170.200; -589.000; -502.000
237.379;  176.200;  352.000;  428.000
237.522; -264.900; -879.000; -768.000
237.666;  -10.900; -271.000;   18.000
237.809; -249.100; -851.000; -823.000
237.952;   96.200;  469.000;  271.000
238.095; -133.600; -447.000; -442.000
238.238;  210.400;  688.000;  700.000
238.382;   20.100;  166.000;  103.000
238.525; -137.500; -598.000; -511.000
238.668; -277.500;-1060.000; -985.000
238.811; -128.100; -638.000; -643.000
238.954;  -98.600; -483.000; -334.000
239.097;  180.400;  617.000;  664.000
239.241;   61.700;  394.000;  326.000
239.384;  -39.900; -254.000; -214.000
239.527; -106.800; -424.000; -224.000
239.670; -284.400; -994.000;-1091.000
239.813; -205.300; -696.000; -658.000
239.956;  192.300;  579.000;  473.000
240.099; -219.000; -778.000; -725.000
240.242;  184.500;  428.000;  432.000
240.385;  134.000;  466.000;  450.000
240.528; -123.200; -706.000; -473.000
240.671;   48.000;  189.000;  134.000
240.814;  -73.500; -441.000; -158.000
240.957; -170.300; -767.000; -578.000
241.100; -156.300; -779.000; -755.000
241.243; -296.100;-1234.000; -893.000
241.386; -126.500; -508.000; -379.000
241.529; -194.100; -735.000; -547.000
241.672; -113.100; -566.000; -495.000
241.815; -236.300; -832.000; -808.000
241.958;  -35.800; -125.000; -182.000
242.101; -146.700; -545.000; -390.000
242.244;  -70.100; -270.000; -325.000
242.387;  -71.200; -304.000; -246.000
242.530;  138.500;  470.000;  134.000
242.673; -122.000; -381.000; -309.000
242.815; -227.300; -925.000; -899.000
242.958; -136.400; -482.000; -381.000
243.101;   63.900;  132.000;  187.000
243.244; -168.600; -564.000; -521.000
243.387;  -57.400; -313.000; -316.000
243.530; -176.100; -657.000; -674.000
243.672;    9.400;   43.000;  -92.000
243.815; -112.700; -355.000; -283.000
243.958;   54.300;   98.000;  -26.000
244.101;   39.500;   59.000;  -16.000
244.243;  -19.700;  -47.000;  101.000
244.386; -210.200; -761.000; -630.000
244.529;  -22.000; -132.000; -139.000
244.672; -319.600;-1154.000; -951.000
244.814; -198.400; -621.000; -794.000
244.957;  -75.400; -380.000; -304.000
245.100; -152.500; -489.000; -489.000
245.242; -107.200; -387.000; -374.000
245.385;   17.400;  -59.000;  -39.000
245.528; -228.400; -871.000; -705.000
245.670;  217.400;  612.000;  634.000
245.813; -146.300; -599.000; -547.000
245.956;  -21.900; -324.000; -275.000
246.098; -142.900; -508.000; -650.000
246.241;   38.300;  194.000;   48.000
246.383;  -25.500; -119.000;  -73.000
246.526; -158.400; -454.000; -525.000
246.669; -242.000; -889.000; -780.000
246.811;   54.800;  172.000;   -1.000
246.954; -126.300; -512.000; -426.000
247.096;  -16.000;  -84.000;   -6.000
247.239; -130.300; -482.000; -445.000
247.381; -101.800; -647.000; -488.000
247.524;  206.900;  645.000;  679.000
247.666;   -7.700;   58.000;   11.000
247.809; -219.100; -887.000; -691.000
247.951;  -11.600;  -75.000;  138.000
248.094;   61.400;  432.000;  308.000
248.236; -305.100;-1262.000;-1238.000
248.378;    3.800; -356.000;  -81.000
248.521;  -24.600; -334.000; -337.000
248.663;  -70.900; -236.000; -267.000
248.806;  -32.000; -300.000; -266.000
248.948; -194.300; -886.000; -763.000
249.090;  -42.700; -428.000; -398.000
249.233;  -98.700; -344.000; -381.000
249.375; -117.200; -474.000; -451.000
249.518;  -46.400;  -83.000; -133.000
249.660;   29.300; -103.000;    3.000
249.802; -363.900;-1303.000;-1189.000
249.945; -104.500; -612.000; -540.000
250.087; -227.300; -834.000; -768.000
250.229;  -66.600; -362.000; -480.000
250.371; -153.700; -494.000; -439.000
250.514;  -85.300; -310.000; -244.000
250.656; -131.500;   69.000;  102.000
250.798; -227.600; -849.000; -800.000
250.940;  -96.300; -322.000; -322.000
251.083;  -28.900; -335.000; -111.000
251.225;  112.300;  338.000;  310.000
251.367;  -66.000; -274.000; -373.000
251.509;  -46.000; -265.000; -210.000
251.651; -178.000; -731.000; -671.000
251.794;  164.400;  538.000;  632.000
251.936; -188.200; -821.000; -747.000
252.078; -163.300; -540.000; -461.000
252.220; -100.400; -645.000; -477.000
252.362;  150.500;  344.000;  462.000
252.504; -108.500; -677.000; -584.000
252.646; -203.900; -875.000; -722.000
252.788;   13.400;   14.000; -128.000
252.931;  -57.100; -257.000; -253.000
253.073;  -66.300; -376.000; -317.000
253.215;    3.400;  141.000;  122.000
253.357;   -2.900;   82.000; -153.000
253.499;  -57.200; -374.000; -234.000
253.641; -153.200; -749.000; -594.000
253.783; -174.500; -609.000; -527.000
253.925; -173.500; -586.000; -591.000
254.067; -200.600; -744.000; -667.000
254.209;  -56.800; -391.000; -259.000
254.351; -265.900; -865.000; -883.000
254.493;  -88.500; -441.000; -417.000
254.635; -216.300; -936.000; -818.000
254.777; -165.300; -752.000; -687.000
254.918; -143.000; -512.000; -430.000
255.060;  -85.200; -551.000; -395.000
255.202;  -82.500; -473.000; -261.000
255.344; -150.600; -658.000; -455.000
255.486; -118.300; -471.000; -406.000
255.628; -185.800; -780.000; -781.000
255.770; -177.700; -676.000; -536.000
255.912;  -92.500; -559.000; -468.000
256.053; -185.800; -730.000; -508.000
256.195;  327.800; 1008.000;  903.000
256.337; -211.000; -861.000; -595.000
256.479;  142.400;  532.000;  416.000
256.621; -104.100; -394.000; -212.000
256.762; -186.400; -789.000; -742.000
256.904;  125.800;  485.000;  487.000
257.046;  -66.300; -381.000; -271.000
257.188;  -64.000; -351.000; -264.000
257.329; -109.700; -525.000; -464.000
257.471; -217.600; -939.000; -807.000
257.613; -111.900; -584.000; -498.000
257.755; -309.100;-1073.000; -982.000
257.896;   94.400;  286.000;  392.000
258.038; -106.300; -403.000; -352.000
258.180;  -25.900; -354.000; -279.000
258.321; -138.600; -581.000; -457.000
258.463;   30.200;  -71.000;  133.000
258.605; -155.100; -562.000; -570.000
258.746; -169.900; -886.000; -772.000
258.888; -273.100;-1026.000;-1020.000
259.029;   60.200;  121.000;   -8.000
259.171; -174.400; -614.000; -550.000
259.313;   20.300;  -49.000;  -47.000
259.454; -102.500; -536.000; -414.000
259.596;  -89.800; -483.000; -390.000
259.737; -156.300; -590.000; -474.000
259.879;  145.400;  217.000;  311.000
260.020;  190.200;  901.000;  636.000
260.162;  -33.200; -146.000; -253.000
260.303; -224.200; -768.000; -687.000
260.445; -120.900; -609.000; -613.000
260.586;   75.100;  392.000;  157.000
260.728;  -76.100; -360.000; -248.000
260.869;  -85.400; -350.000; -343.000
261.011;  178.000;  706.000;  537.000
261.152; -103.400; -479.000; -319.000
261.293; -139.000; -576.000; -595.000
261.435;  -55.000; -219.000; -184.000
261.576;  -75.900; -455.000; -325.000
261.718;  157.600;  420.000;  470.000
261.859; -251.900; -940.000; -949.000
262.000; -236.900; -951.000;-1016.000
262.142;  -22.900;  -52.000;  -60.000
262.283; -219.500; -808.000; -691.000
262.424; -169.200; -666.000; -625.000
262.566; -306.900;-1161.000; -983.000
262.707; -177.400; -840.000; -830.000
262.848; -250.800; -769.000; -726.000
262.990;  -78.100; -362.000; -345.000
263.131;  202.000;  650.000;  681.000
263.272;   33.300;  -61.000;  -41.000
263.413; -173.400; -589.000; -561.000
263.555; -116.900; -669.000; -143.000
263.696; -169.300; -550.000; -641.000
263.837; -102.100; -449.000; -551.000
263.978;   15.300;   -5.000;  -77.000
264.119;  -75.500; -283.000; -264.000
264.261; -267.900; -847.000; -630.000
264.402;   65.800;   33.000;   40.000
264.543; -130.000; -509.000; -524.000
264.684;    8.500;   61.000;  -50.000
264.825; -118.200; -816.000; -538.000
264.966;   -9.300;  -84.000;  -67.000
265.107; -228.800; -646.000; -670.000
265.248; -198.100; -825.000; -812.000
265.390;   25.200;  152.000;   -9.000
265.531;   -0.100; -238.000; -107.000
265.672; -148.200; -557.000; -630.000
265.813;  146.500;  563.000;  439.000
265.954; -270.800; -959.000; -940.000
266.095;  -11.600; -372.000; -322.000
266.236; -169.800; -686.000; -548.000
266.377;  -36.900; -243.000; -297.000
266.518; -122.700; -619.000; -547.000
266.659;   95.900;  170.000;  268.000
266.800;   30.600;   83.000;   85.000
266.941; -130.300; -487.000; -478.000
267.082;   59.400;  354.000;   99.000
267.223;  -96.200; -344.000; -273.000
267.364; -220.800; -892.000; -686.000
267.504;  -16.300;    3.000;  135.000
267.645;   43.100;  160.000;   67.000
267.786;  -19.800; -147.000;  -86.000
267.927;  -89.000; -473.000; -379.000
268.068;   -3.700; -186.000;  -61.000
268.209;  -94.700; -175.000; -413.000
268.350; -101.500; -388.000; -532.000
268.490; -144.300; -648.000; -521.000
268.631;  104.700;  127.000;  225.000
268.772; -202.500; -874.000; -647.000
268.913;  -73.500; -328.000; -476.000
269.054;  -33.100; -117.000;   12.000
269.194;  -64.800; -418.000; -402.000
269.335; -294.500;-1137.000;-1074.000
269.476;   10.100;   33.000;  -35.000
269.617;  -86.500; -347.000; -392.000
269.757; -163.700; -713.000; -646.000
269.898; -205.900; -856.000; -613.000
270.039;  -78.400; -415.000; -405.000
270.180; -261.300; -952.000; -816.000
270.320;  -18.800; -190.000; -250.000
270.461;  -63.100; -277.000; -249.000
270.602;   23.700; -186.000; -156.000
270.742; -236.900; -868.000; -943.000
270.883;  -83.800; -442.000; -390.000
271.023; -104.100; -358.000; -357.000
271.164; -144.600; -607.000; -528.000
271.305; -186.900; -666.000; -654.000
271.445; -182.100; -722.000; -683.000
271.586; -133.800; -462.000; -283.000
271.726;  -72.200; -397.000; -322.000
271.867;  -99.400; -594.000; -534.000
272.008;  328.000; -473.000; -285.000
272.148;  274.000;  462.000;  468.000
272.289;   56.500; -113.000; -181.000
272.429;   29.800;   19.000;  185.000
272.570; -108.400; -633.000; -737.000
272.710; -181.500; -825.000; -775.000
272.851;  -17.600;  113.000; -130.000
272.991; -311.200;-1173.000;-1077.000
273.131; -110.700; -419.000; -459.000
273.272; -181.200; -683.000; -723.000
273.412;   43.500; -143.000;  -31.000
273.553;  -87.300; -488.000; -507.000
273.693;  298.000;  913.000;  858.000
273.834; -161.500; -894.000; -692.000
273.974; -125.900; -664.000; -615.000
274.114; -188.400; -772.000; -560.000
274.255;  204.300;  414.000;  373.000
274.395;    5.300; -180.000; -125.000
274.535;  103.200;  199.000;  350.000
274.676;   63.000;  225.000;   94.000
274.816;   55.100;  110.000;   34.000
274.956; -138.100; -624.000; -690.000
275.097; -108.800;-1014.000; -922.000
275.237; -187.800; -913.000; -803.000
275.377; -169.700; -778.000; -689.000
275.517; -270.200; -878.000; -937.000
275.658; -106.600; -590.000; -555.000
275.798; -108.800; -606.000; -413.000
275.938;   69.200;  215.000;  323.000
276.078; -128.400; -626.000; -395.000
276.218;   15.800;   99.000;  104.000
276.359; -250.800;-1026.000;-1024.000
276.499; -107.900; -605.000; -446.000
276.639;  -46.600; -305.000; -151.000
276.779;  -72.800; -475.000; -357.000
276.919; -198.200; -783.000; -624.000
277.059;    0.000; -261.000; -212.000
277.199;  -80.000; -357.000; -259.000
277.340;  109.400;  287.000;  175.000
277.480; -213.400; -840.000; -693.000
277.620;   93.200;  192.000;   16.000
277.760; -364.900;-1533.000;-1294.000
277.900;   44.400;  113.000;   33.000
278.040;   56.900;  137.000;  159.000
278.180;   75.200;  270.000;  170.000
278.320;   21.700;   21.000;   56.000
278.460;  -99.400; -443.000; -469.000
278.600; -195.000; -708.000; -598.000
278.740;  175.000;  448.000;  224.000
278.880;  -77.900; -768.000; -791.000
279.020;   57.800; -194.000; -144.000
279.160; -143.400; -672.000; -595.000
279.300; -222.800; -926.000; -873.000
279.440; -161.000; -709.000; -622.000
279.579;  -53.500;-1014.000; -929.000
279.719;  -85.800; -410.000; -394.000
279.859;  160.600;   -4.000;   41.000
279.999;   51.300; -208.000;  101.000
280.139;  -34.800; -435.000; -387.000
280.279; -122.600; -708.000; -745.000
280.419;  -18.800; -229.000; -147.000
280.559;  -33.600; -259.000; -180.000
280.698; -122.400; -790.000; -639.000
280.838; -148.700; -778.000; -800.000
280.978; -182.600; -846.000; -790.000
281.118; -220.700; -811.000; -704.000
281.257;   30.900;   24.000;    6.000
281.397; -245.300;-1094.000; -960.000
281.537; -128.700; -599.000; -712.000
281.677;  -12.800; -150.000; -101.000
281.816; -159.700; -700.000; -630.000
281.956;  -28.900; -193.000; -257.000
282.096;  -85.600; -539.000; -396.000
282.235; -179.600; -672.000; -638.000
282.375;   22.300; -243.000;  -98.000
282.515; -156.000; -715.000; -707.000
282.654;   93.900;   29.000;  106.000
282.794;  112.800;  388.000;  244.000
282.934;  -75.000; -530.000; -491.000
283.073; -257.600;-1030.000; -857.000
283.213;  -97.400; -460.000; -467.000
283.353;  -26.800; -408.000; -349.000
283.492;  -40.100; -264.000; -296.000
283.632;  -50.800; -254.000; -168.000
283.771; -176.800; -859.000; -730.000
283.911; -101.100; -369.000; -260.000
284.050; -185.000; -794.000; -748.000
284.190; -320.500;-1229.000;-1096.000
284.329; -269.800;-1055.000; -964.000
284.469; -118.300; -516.000; -591.000
284.608;  -73.400; -559.000; -598.000
284.748; -127.900; -614.000; -570.000
284.887;   46.600;  -87.000;  -20.000
285.027; -223.400; -844.000; -892.000
285.166;  -26.200; -192.000; -249.000
285.306;   32.700; -116.000;  -33.000
285.445;  -50.000; -229.000; -343.000
285.584; -173.800; -630.000; -494.000
285.724;  -37.700; -282.000; -322.000
285.863; -172.500; -857.000; -507.000
286.002;  -87.200; -366.000; -276.000
286.142; -187.100; -715.000; -622.000
286.281; -105.200; -525.000; -493.000
286.420; -145.000; -554.000; -417.000
286.560;  254.500;  653.000;  623.000
286.699; -278.600; -958.000; -912.000
286.838; -129.000; -590.000; -591.000
286.978; -137.000; -533.000; -537.000
287.117; -232.200;-1085.000; -950.000
287.256;  -22.700; -228.000; -211.000
287.395;  -68.100; -197.000; -378.000
287.535;  -79.900; -370.000; -298.000
287.674; -131.100; -509.000; -484.000
287.813;  148.300;  661.000;  533.000
287.952; -189.900;-1010.000; -871.000
288.091; -295.600;-1049.000; -915.000
288.231;   71.300;   13.000;   15.000
288.370; -327.900;-1217.000;-1200.000
288.509; -134.400; -728.000; -645.000
288.648; -143.600; -770.000; -548.000
288.787;   -9.600; -243.000;  -87.000
288.926;  -81.700; -454.000; -475.000
289.065;  287.000;  859.000;  672.000
289.204;  -75.400; -377.000; -217.000
289.344; -151.100; -791.000; -690.000
289.483;   69.400;  416.000;  304.000
289.622;  -22.400; -291.000; -149.000
289.761;   10.800; -309.000; -166.000
289.900; -191.200; -785.000; -626.000
290.039;    3.100;  -12.000;  -95.000
290.178;  -36.600; -274.000; -180.000
290.317; -155.900; -618.000; -479.000
290.456; -105.500; -463.000; -451.000
290.595; -262.100; -961.000; -833.000
290.734; -258.400; -904.000; -891.000
290.873;  -94.000; -456.000; -420.000
291.011; -221.000; -833.000; -843.000
291.150; -144.700; -770.000; -682.000
291.289;  -13.600; -343.000; -110.000
291.428; -181.000; -599.000; -480.000
291.567;  -72.400; -370.000; -442.000
291.706;   23.500;  109.000;  154.000
291.845; -154.300; -597.000; -505.000
291.984; -319.700;-1234.000;-1061.000
292.122;  190.000;  602.000;  582.000
292.261;  127.600;  620.000;  463.000
292.400;   28.600; -144.000;  211.000
292.539; -220.800; -959.000; -813.000
292.678;  -54.800; -325.000; -300.000
292.816; -287.700;-1136.000; -965.000
292.955; -140.800; -844.000; -684.000
293.094;  -10.500; -173.000; -337.000
293.233;  -78.200; -556.000; -400.000
293.371;  -36.700; -225.000;  -84.000
293.510; -197.400; -866.000; -780.000
293.649; -232.500; -959.000; -924.000
293.787; -133.900;-1083.000;-1012.000
293.926;    8.300; -113.000;  -32.000
294.065;  -43.100; -379.000; -290.000
294.203;  137.500;  298.000;  406.000
294.342;   89.200;   74.000;  156.000
294.481;11620.600;51180.000; -836.000
294.619;  -44.300; -425.000; -582.000
294.758; -249.100;-1230.000;-1137.000
294.896;  167.300; -125.000;    5.000
295.035; -220.300;-1040.000;-1006.000
295.174; -230.500;-1082.000; -954.000
295.312;  -44.900; -323.000; -203.000
295.451;   24.300; -307.000; -428.000
295.589;  -92.600; -389.000; -518.000
295.728;   80.600; -292.000; -165.000
295.866;   26.900;  -36.000;  -51.000
296.005;  -95.000; -584.000; -341.000
296.143; -145.300; -558.000; -596.000
296.282; -176.300; -957.000; -881.000
296.420; -134.900; -657.000; -557.000
296.559; -156.700; -892.000; -633.000
296.697;   50.500; -847.000; -665.000
296.835;  128.800;-1141.000;-1002.000
296.974;  122.100;  -23.000;   39.000
297.112;   53.400; -443.000; -504.000
297.251; -146.400; -815.000; -755.000
297.389;  143.500; -576.000; -438.000
297.527;   70.900; -145.000;  -83.000
297.666;  -76.800; -486.000; -438.000
297.804;  -75.300; -404.000; -264.000
297.942;   72.700; -136.000; -161.000
298.081;   21.400; -183.000;   63.000
298.219;  170.000;  -17.000;  -19.000
298.357;   94.000; -144.000;  -71.000
298.495;   40.400; -810.000; -812.000
298.634;  167.900;  245.000;  219.000
298.772;  121.900; -220.000; -338.000
298.910;  -45.000; -309.000; -182.000
299.048;    5.800; -130.000; -153.000
299.187;  -42.300; -350.000; -250.000
299.325;   95.800;   52.000;  122.000
299.463;   71.300; -389.000; -299.000
299.601;  221.400; -327.000; -271.000
299.739; -185.200; -908.000; -883.000
299.877; -140.300; -791.000; -703.000
300.016; -106.800;-1095.000; -935.000
300.154;  307.700;  -19.000; -161.000
300.292;   79.000; -428.000; -348.000
300.430;   93.000; -408.000; -291.000
300.568; -185.900; -940.000; -874.000
300.706;  -68.000; -366.000; -469.000
300.844; -166.800;-1108.000; -979.000
300.982;  283.800;  246.000;  282.000
301.120; -201.200; -965.000; -866.000
301.258; -105.500; -812.000; -705.000
301.396;   70.900;  104.000;  -41.000
301.534;  188.200; -218.000; -293.000
301.672;    1.300; -664.000; -521.000
301.810;   66.300; -613.000; -545.000
301.948;  274.400;   53.000;  149.000
302.086; 1059.300; -250.000;  -32.000
302.224; 1682.600; -610.000; -585.000
302.362;  116.200; -558.000; -622.000
302.500;  -47.900; -923.000; -893.000
302.638;  255.300;  128.000;  245.000
302.776;   24.600; -352.000; -408.000
302.913;  139.600;  447.000;  236.000
303.051;   15.600;  -86.000;  -23.000
303.189;  156.100;   90.000;  118.000
303.327;  -44.100; -341.000; -256.000
303.465; -137.800; -832.000; -588.000
303.603; -160.800; -805.000; -604.000
303.740;  211.000;  417.000;  241.000
303.878;   40.200; -800.000; -759.000
304.016; -169.900; -915.000; -790.000
304.154; -255.200;-1123.000;-1152.000
304.291;  -58.900; -505.000; -554.000
304.429;   54.700;  102.000;   74.000
304.567; -223.000; -908.000; -893.000
304.705;  -96.800; -408.000; -515.000
304.842;  193.600; -616.000; -540.000
304.980;  119.000;  215.000;   35.000
305.118;  116.200; -367.000; -365.000
305.255; -139.100; -945.000; -927.000
305.393;  143.400;  178.000;  239.000
305.531; -190.400;-1173.000; -956.000
305.668;  -94.100; -663.000; -582.000
305.806;  196.200; -358.000; -439.000
305.943;  193.300; -629.000; -637.000
306.081;  110.100; -378.000; -267.000
306.219; -183.300; -863.000; -748.000
306.356;   40.100;  158.000;   27.000
306.494;  258.400;  981.000;  761.000
306.631;   43.700;  -11.000;  -55.000
306.769;   49.500; -613.000; -485.000
306.906;   30.800; -284.000; -258.000
307.044;  -59.100; -473.000; -488.000
307.181; -110.600; -410.000; -332.000
307.319;  121.300;  112.000;   87.000
307.456; -300.600;-1191.000;-1153.000
307.594; -146.800; -980.000; -727.000
307.731;   11.700; -371.000; -164.000
307.868;   52.700;  -15.000;   20.000
308.006; -247.800; -961.000; -847.000
308.143;  -81.000; -618.000; -330.000
308.281;  373.900;  -37.000; -254.000
308.418;   17.400; -748.000; -640.000
308.555;  -93.800; -400.000; -250.000
308.693;  -88.200; -577.000; -573.000
308.830; -163.400; -712.000; -657.000
308.967;   25.700; -215.000;  -95.000
309.105;   -6.200; -507.000; -396.000
309.242;  108.900; -468.000; -367.000
309.379;  726.800; -577.000; -655.000
309.517;  -83.900; -936.000; -948.000
309.654; -195.200; -910.000; -734.000
309.791; -100.800; -662.000; -580.000
309.928; -197.600; -977.000; -914.000
310.065;  361.400;  819.000;  697.000
310.203;   -7.300; -825.000; -850.000
310.340;   56.500; -465.000; -321.000
310.477; -110.500; -412.000; -516.000
310.614;  -63.000; -383.000; -473.000
310.751;  -85.400; -427.000; -518.000
310.889;   22.700;    1.000;   11.000
311.026; -252.600;-1161.000; -939.000
311.163;  -29.900; -386.000; -380.000
311.300; -101.800; -512.000; -479.000
311.437;  -83.200; -658.000; -619.000
311.574; -258.600;-1226.000; -985.000
311.711;  -78.900; -595.000; -433.000
311.848;  -48.400; -380.000; -388.000
311.985;   49.700;  270.000;   93.000
312.122; -180.600; -932.000; -762.000
312.259; -189.100; -941.000; -994.000
312.396;  -79.300; -508.000; -551.000
312.533; -120.300; -812.000; -790.000
312.670; -236.900;-1070.000; -898.000
312.807;    1.400; -352.000; -367.000
312.944;  -86.900; -513.000; -611.000
313.081;  -10.200; -150.000; -415.000
313.218; -162.100;-1111.000; -867.000
313.355;   71.500; -531.000; -449.000
313.492;   29.700; -455.000; -292.000
313.629;  319.300;  815.000;  735.000
313.766; -268.100;-1176.000;-1008.000
313.902;   30.000; -186.000;   21.000
314.039;  -51.800; -372.000; -289.000
314.176;  103.500;  286.000;  192.000
314.313; -104.700; -569.000; -473.000
314.450; -103.400; -788.000; -684.000
314.587;  -64.100; -468.000; -480.000
314.723;   45.100;  -78.000;  130.000
314.860;  133.400;  318.000;  332.000
314.997;  120.700;  223.000;  142.000
315.134;  -43.300; -385.000; -368.000
315.270;  -15.300; -480.000; -496.000
315.407; -244.000;-1094.000; -967.000
315.544;  -29.700; -657.000; -538.000
315.681;  -92.400; -681.000; -565.000
315.817;   97.100; -133.000; -176.000
315.954;   73.400; -613.000; -392.000
316.091; -209.900;-1045.000;-1023.000
316.227;   -0.500;  -71.000; -179.000
316.364;   48.800;   23.000;    6.000
316.500;  -15.700; -113.000; -300.000
316.637;  -37.200; -181.000; -302.000
316.774; -124.000; -625.000; -358.000
316.910; -139.100; -598.000; -629.000
317.047; -106.300; -487.000; -351.000
317.183;  -71.600; -435.000; -566.000
317.320;    3.300; -367.000; -321.000
317.456; -107.200; -733.000; -805.000
317.593; -134.400; -598.000; -641.000
317.729;   50.200;  168.000;  -67.000
317.866; -346.400;-1434.000;-1285.000
318.002; -134.200; -708.000; -948.000
318.139; -186.200; -883.000; -867.000
318.275; -171.100;-1003.000; -738.000
318.412;  -83.700; -517.000; -336.000
318.548;  -17.000; -751.000; -720.000
318.685; -190.500; -985.000; -888.000
318.821; -129.500; -762.000; -735.000
318.957;  -14.500;   34.000;  -23.000
319.094;  123.700;  297.000;  154.000
319.230; -111.000; -756.000; -742.000
319.367;  243.400; -471.000; -520.000
319.503;  138.200; -538.000; -436.000
319.639; -146.100; -877.000; -793.000
319.775;  -64.200; -750.000; -685.000
319.912;  -27.200; -424.000; -519.000
320.048; -177.900;-1184.000;-1184.000
320.184;  191.400;   59.000;   70.000
320.321;  -96.800; -497.000; -467.000
320.457;  194.300;  475.000;  662.000
320.593;  -94.600; -375.000; -382.000
320.729; -149.900; -732.000; -734.000
320.866; -124.000; -577.000; -635.000
321.002; -144.400; -759.000; -809.000
321.138;  -17.000; -135.000; -211.000
321.274;  191.300; -148.000; -115.000
321.410;  -45.300; -585.000; -353.000
321.546;  -65.000;-1011.000; -911.000
321.683;  146.200;  400.000;  185.000
321.819;   36.800;  -48.000; -117.000
321.955; -207.500; -743.000; -722.000
322.091;  -46.000; -585.000; -540.000
322.227;   -2.900; -382.000; -202.000
322.363;   21.700; -320.000; -215.000
322.499;  -73.500; -343.000; -331.000
322.635;  322.700;  636.000;  443.000
322.771;  102.200; -139.000;   12.000
322.907;  246.600;  129.000;  327.000
323.043;    0.600; -115.000; -206.000
323.179;  -31.600; -394.000; -363.000
323.315;   56.600; -401.000; -371.000
323.451;  235.800; -328.000; -236.000
323.587;  121.400;  -60.000;  -77.000
323.723;   26.700; -682.000; -601.000
323.859;   -7.100; -258.000;  -76.000
323.995;  -51.200; -467.000; -409.000
324.131; -214.300; -967.000; -892.000
324.267;  -23.900; -254.000; -276.000
324.402; -217.900; -960.000; -983.000
324.538;   18.800; -279.000; -104.000
324.674;   81.500;  164.000;   77.000
324.810;  342.700;  226.000;  308.000
324.946;   96.300; -810.000; -658.000
325.082;  -65.400; -568.000; -475.000
325.217;   45.900;  -62.000;   16.000
325.353; -152.000; -764.000; -659.000
325.489; -141.700; -540.000; -506.000
325.625; -124.000; -579.000; -525.000
325.760;  125.500;  517.000;  376.000
325.896;   15.100; -515.000; -702.000
326.032;  -43.900; -403.000; -352.000
326.168;  -71.800; -462.000; -369.000
326.303; -110.400; -352.000; -461.000
326.439;    8.800; -336.000; -276.000
326.575;   62.800; -190.000;  -29.000
326.710;   38.100; -156.000;  -30.000
326.846;   42.300;  146.000;  103.000
326.982; -158.200; -530.000; -548.000
327.117; -135.000; -481.000; -442.000
327.253; -128.400; -745.000; -742.000
327.388; -296.300;-1137.000;-1153.000
327.524;  -63.500; -811.000; -578.000
327.659;    7.800;  -58.000;  -22.000
327.795;   33.800;   69.000;   45.000
327.931; -138.500; -723.000; -499.000
328.066;   -6.500; -417.000; -276.000
328.202;   22.000;   12.000; -129.000
328.337;  278.300;  957.000;  713.000
328.473;    7.500;  -12.000;  -74.000
328.608;    9.300; -256.000; -267.000
328.743; -116.700; -799.000; -664.000
328.879;   86.400;  214.000;  114.000
329.014;  -82.300; -102.000; -122.000
329.150; -103.100; -358.000; -483.000
329.285; -111.900; -465.000; -466.000
329.421;  -42.700; -548.000; -246.000
329.556;   35.800;  -36.000;   85.000
329.691; -118.900; -633.000; -615.000
329.827; -150.100; -626.000; -480.000
329.962;   -3.600;  131.000; -301.000
330.097; -163.500; -673.000; -585.000
330.233;  -75.100; -410.000; -223.000
330.368; -214.100; -839.000; -628.000
330.503;   18.100;    3.000;   98.000
330.638;   40.200;  -93.000; -125.000
330.774;  -59.700; -609.000; -530.000
330.909;  -20.200; -434.000; -244.000
331.044; -147.500; -714.000; -708.000
331.179; -302.400;-1217.000;-1109.000
331.315;   71.600;   77.000;   20.000
331.450;   72.200;  157.000;  285.000
331.585; -114.700; -805.000; -706.000
331.720; -125.000; -510.000; -460.000
331.855;   42.900;  -35.000; -102.000
331.990;  520.000;   62.000;  138.000
332.126;  279.000; -110.000;   71.000
332.261;  -25.900; -379.000; -265.000
332.396;   54.000; -135.000; -242.000
332.531; -171.700;-1074.000;-1031.000
332.666;  104.600; -519.000; -363.000
332.801; -190.200; -726.000; -807.000
332.936;   14.600; -192.000; -122.000
333.071; -223.400; -870.000; -817.000
333.206;   61.600;  307.000;  379.000
333.341;  114.900;  344.000;  418.000
333.476; -127.000; -627.000; -623.000
333.611;  -60.300; -251.000; -173.000
333.746;  -75.200; -381.000; -464.000
333.881; -234.900; -973.000; -935.000
334.016; -223.700; -936.000; -917.000
334.151; -216.500; -746.000; -702.000
334.286;   78.200;  152.000;  186.000
334.421;   29.900; -125.000; -178.000
334.556; -112.500; -611.000; -567.000
334.690; -124.800; -631.000; -577.000
334.825;  203.300;  381.000;   83.000
334.960;  -75.700; -285.000; -413.000
335.095;   80.800;  135.000;  -91.000
335.230; -162.200; -722.000; -738.000
335.365; -232.600;-1084.000; -990.000
335.499; -234.700;-1108.000;-1037.000
335.634;   85.300;    9.000;  534.000
335.769; -178.800; -755.000; -720.000
335.904;  -99.900; -603.000; -561.000
336.038;  -74.800; -735.000; -657.000
336.173; -200.200;-1206.000;-1194.000
336.308;   59.300; -116.000; -189.000
336.443;   80.600; -544.000; -634.000
336.577; -160.100; -936.000; -787.000
336.712;  135.700;   -4.000;  -12.000
336.847;  -71.300; -724.000; -607.000
336.981;  129.600; -272.000; -208.000
337.116;  528.500;  615.000;  501.000
337.250;  321.100; -434.000; -421.000
337.385;  518.000; -297.000; -208.000
337.520;  206.400; -632.000; -603.000
337.654;  -34.400; -215.000; -126.000
337.789; -227.200; -989.000; -933.000
337.923;  -15.600; -104.000; -205.000
338.058; -132.800; -673.000; -738.000
338.192;  -26.500; -611.000; -488.000
338.327;   24.300;  -18.000; -155.000
338.461;  -80.700; -299.000; -469.000
338.596; -156.100; -780.000; -638.000
338.730; -160.600; -767.000; -803.000
338.865;  238.800;  -46.000; -140.000
338.999; -102.700; -846.000; -702.000
339.134;  -21.000; -634.000; -536.000
339.268;   33.200; -741.000; -603.000
339.403;  728.600; -740.000; -775.000
339.537;  246.300; -894.000; -820.000
339.671; -159.200; -829.000; -813.000
339.806;  -82.300; -556.000; -512.000
339.940;   61.500; -261.000; -235.000
340.074; -183.200; -685.000; -510.000
340.209;  -43.400; -351.000; -230.000
340.343; -136.600; -517.000; -573.000
340.477;  333.700;  998.000; 1036.000
340.612;  -87.700;-1033.000; -900.000
340.746;  278.000; -199.000; -243.000
340.880;  -84.600; -924.000; -785.000
341.014;   14.600;  -45.000; -154.000
341.149; -165.500; -756.000; -718.000
341.283; -177.900; -839.000; -754.000
341.417; -154.500;-1124.000; -938.000
341.551;  259.400; -768.000; -708.000
341.685;  -57.100; -633.000; -611.000
341.820;  -43.700; -562.000; -493.000
341.954;  -51.400; -218.000; -349.000
342.088; -251.800;-1102.000;-1019.000
342.222;  145.000;  565.000;  618.000
342.356;  -73.900; -395.000; -335.000
342.490; -154.700; -880.000; -841.000
342.624;  -42.000; -339.000; -242.000
342.758;   18.900; -364.000; -312.000
342.892;  -71.600; -710.000; -585.000
343.026;  -36.400;  -58.000; -116.000
343.160; -110.300; -426.000; -376.000
343.294; -115.500; -474.000; -337.000
343.428;   20.300; -488.000; -448.000
343.562;   33.900; -172.000;  -23.000
343.696;   12.200; -385.000; -314.000
343.830;   -9.500; -362.000; -356.000
343.964;   60.300; -231.000; -168.000
344.098; 1581.100;  199.000;   70.000
344.232; 1364.300; -266.000; -127.000
344.366;  148.900; -567.000; -453.000
344.500;  146.100; -665.000; -744.000
344.634;   95.200; -324.000; -164.000
344.768;    7.800; -531.000; -341.000
344.902;  118.200;  278.000;  256.000
345.035; -105.500; -556.000; -496.000
345.169; -222.100; -933.000; -656.000
345.303;   -2.900; -308.000; -482.000
345.437; -122.100; -826.000; -717.000
345.571; -111.800; -675.000; -594.000
345.704;  -90.400; -309.000; -532.000
345.838;   26.700; -331.000; -284.000
345.972;  -36.600; -543.000; -495.000
346.106;  381.800; -179.000; -190.000
346.239;  793.500; -312.000; -243.000
346.373;   50.300; -343.000; -302.000
346.507; -255.200; -950.000; -962.000
346.640;  274.900;  -30.000;   13.000
346.774;  -82.200; -650.000; -797.000
346.908;    9.000; -138.000;  -11.000
347.041; -150.700; -646.000; -593.000
347.175;   36.400;  259.000;   27.000
347.309; -140.200; -698.000; -628.000
347.442; -183.600; -883.000; -732.000
347.576;  549.700;  670.000;  668.000
347.709;  355.100; -123.000;  -52.000
347.843; -163.100; -933.000; -825.000
347.976;  176.500;  235.000;  294.000
348.110; -330.900;-1268.000;-1186.000
348.243; -149.700; -679.000; -772.000
348.377;   83.200;  -26.000;   60.000
348.510;  149.700;  403.000;  540.000
348.644;  -25.300;  -37.000; -159.000
348.777;   81.800;  180.000;  191.000
348.911;  -18.800; -142.000; -112.000
349.044;  343.400;  471.000;  448.000
349.178;  223.000;-1069.000;-1006.000
349.311;  290.100;  141.000;  255.000
349.444;    0.000; -927.000; -813.000
349.578;   15.200; -347.000; -200.000
349.711; -150.300; -959.000; -862.000
349.845;   -7.800; -661.000; -591.000
349.978; -269.600;-1224.000;-1137.000
350.111; -135.400; -546.000; -612.000
350.244; -127.400; -596.000; -700.000
350.378;   66.900; -392.000; -393.000
350.511;  -75.700; -393.000; -426.000
350.644; -160.500; -808.000; -806.000
350.778;   82.700;  168.000;  104.000
350.911;   87.400;  134.000;  140.000
351.044; -153.800; -685.000; -615.000
351.177;  -12.600; -321.000; -281.000
351.310;   42.500;    3.000; -131.000
351.444; -123.800; -888.000; -788.000
351.577;  239.000;  140.000;   90.000
351.710;  231.000;  593.000;  417.000
351.843;   -5.700; -165.000;  -77.000
351.976;   69.100;  149.000;  -79.000
352.109; -115.000; -621.000; -612.000
352.242;  -13.700; -464.000; -419.000
352.376; -115.000; -580.000; -636.000
352.509;  354.200; -437.000; -356.000
352.642;   19.200; -654.000; -604.000
352.775;  171.200; -141.000;  -98.000
352.908; -187.800; -933.000; -904.000
353.041; -183.900; -814.000; -824.000
353.174;  -48.600; -551.000; -424.000
353.307; -122.700; -753.000; -764.000
353.440;  203.300;  541.000;  453.000
353.573; -181.300; -957.000;-1008.000
353.706;  -94.800; -384.000; -558.000
353.839;    4.100; -264.000; -220.000
353.971; -129.900; -657.000; -512.000
354.104; -147.900; -896.000; -835.000
354.237;  -69.100; -627.000; -662.000
354.370;  -98.800; -846.000; -879.000
354.503; -329.000;-1231.000;-1308.000
354.636;  -17.100; -529.000; -348.000
354.769; -219.900; -937.000; -860.000
354.902;   17.700; -230.000; -139.000
355.034;   22.200; -164.000; -220.000
355.167;  -13.000; -262.000; -162.000
355.300; -145.900;-1061.000; -880.000
355.433; 1863.800;  -71.000;  -14.000
355.565; 2967.300; -402.000; -384.000
355.698;  735.400; -356.000; -296.000
355.831;    2.200; -882.000; -801.000
355.964;  214.900; -285.000; -170.000
356.096; -153.600; -856.000; -843.000
356.229;   59.900; -523.000; -530.000
356.362;  638.000; -373.000; -266.000
356.494; 1212.700; -229.000; -162.000
356.627;  903.100;  269.000;  377.000
356.760; 1338.400;  120.000;   53.000
356.892; 1861.800; -286.000; -601.000
357.025; 1261.300;  403.000;  389.000
357.157; 1109.400; -167.000; -179.000
357.290; 1280.900; -856.000; -713.000
357.423;  400.900; -667.000; -556.000
357.555;  254.400; -217.000; -228.000
357.688;  221.100; -483.000; -364.000
357.820;  760.500; -870.000; -877.000
357.953; 6171.500; -563.000; -589.000
358.085; 1354.300; -632.000; -612.000
358.218; 1977.200;-1131.000; -932.000
358.350;  405.000;  -58.000;  312.000
358.483; -230.700;-1300.000;-1187.000
358.615;   -8.500;-1182.000;-1078.000
358.747; -126.000;-1187.000;-1058.000
358.880;   45.000; -810.000; -744.000
359.012;    3.400; -376.000; -202.000
359.145;  -40.100; -480.000; -511.000
359.277;   96.300; -962.000; -913.000
359.409; 5214.700;  536.000;  231.000
359.542; 1292.800; -738.000; -688.000
359.674;  160.400;   46.000;   13.000
359.806; -105.100; -565.000; -438.000
359.939;  -22.600; -617.000; -516.000
360.071;   40.200; -583.000; -579.000
360.203;   29.700; -411.000; -364.000
360.335;  134.600;  164.000;  -16.000
360.468;  355.200; -249.000; -307.000
360.600; 4196.400; -547.000; -454.000
360.732; 5382.200; -546.000; -423.000
360.864;  739.900;-1216.000;-1044.000
360.996;  546.200; -516.000; -554.000
361.129;  109.700; -389.000; -598.000
361.261;   88.500;  110.000; -113.000
361.393;  -44.200; -252.000; -214.000
361.525;  116.900;   94.000;  244.000
361.657;  -42.000; -821.000; -703.000
361.789;  103.300; -139.000; -155.000
361.921;  435.100; -642.000; -593.000
362.053;  507.700;  524.000;  541.000
362.185;  169.700;  288.000;   72.000
362.318; -105.300; -709.000; -705.000
362.450;  305.700;  294.000;  444.000
362.582;  181.900; -913.000; -870.000
362.714;  -11.000; -353.000; -332.000
362.846; -112.800; -606.000; -490.000
362.978; -255.000; -941.000; -811.000
363.109;  146.000; -161.000; -260.000
363.241;  809.400; -739.000; -749.000
363.373;  886.800; -649.000; -564.000
363.505; 1326.300; -186.000;  -91.000
363.637;  345.200; -787.000; -601.000
363.769; -220.700;-1067.000;-1080.000
363.901; -114.200; -596.000; -654.000
364.033; -234.900;-1103.000;-1062.000
364.165;   37.200; -283.000; -283.000
364.296;  199.800; -316.000; -177.000
364.428;  154.600;-1344.000;-1220.000
364.560; -132.300; -679.000; -661.000
364.692;  -67.900; -738.000; -835.000
364.824;  505.000; -588.000; -456.000
364.955;  863.500; -402.000; -564.000
365.087; 1803.600;-1097.000; -852.000
365.219;   91.000; -686.000; -816.000
365.351;  -86.400; -526.000; -572.000
365.482;  155.600;  300.000;  240.000
365.614;  -41.100; -402.000; -314.000
365.746; -153.900; -729.000; -752.000
365.877; -149.700; -706.000; -672.000
366.009;  587.600;  -35.000;  -62.000
366.141; -131.600;-1249.000;-1134.000
366.272; -150.600; -803.000; -719.000
366.404; -174.700;-1005.000; -874.000
366.535;   88.600; -139.000;  -12.000
366.667; -141.100; -644.000; -649.000
366.799;  136.700;  353.000;  203.000
366.930; -223.700; -862.000; -996.000
367.062;  306.300; -639.000; -613.000
367.193;  328.400; -872.000; -842.000
367.325;  -83.900; -580.000; -684.000
367.456;  102.500; -246.000;   31.000
367.588;  353.900; -371.000; -318.000
367.719;   89.800;  -44.000;  -45.000
367.851;   20.600; -222.000; -241.000
367.982;  -59.900; -875.000; -732.000
368.113;  193.400; -475.000; -358.000
368.245; -210.500; -960.000; -841.000
368.376;   23.400; -254.000; -302.000
368.508;  -35.700; -188.000; -263.000
368.639; -236.500;-1166.000;-1034.000
368.770;    9.500; -670.000; -589.000
368.902;  -89.300; -836.000; -926.000
369.033; -188.900; -906.000; -855.000
369.164;  -27.300; -720.000; -653.000
369.296; -164.500; -452.000; -601.000
369.427;   49.600; -209.000; -144.000
369.558;  -59.500; -593.000; -377.000
369.689; -117.200; -721.000; -569.000
369.821; -242.700; -951.000; -845.000
369.952;   45.200;   42.000; -108.000
370.083;  -23.100; -229.000; -108.000
370.214; -113.800; -735.000; -650.000
370.345;   57.400;   65.000;   81.000
370.477; -148.300; -810.000; -790.000
370.608;  410.700; -328.000; -264.000
370.739;  -92.100;-1233.000;-1292.000
370.870;  -95.800;-1102.000; -923.000
371.001;  211.600; -378.000; -467.000
371.132; -102.700; -754.000; -735.000
371.263;   35.500;  -42.000; -148.000
371.394; -212.300; -841.000; -748.000
371.525;  120.600;  345.000;  225.000
371.657; -181.900; -808.000; -670.000
371.788;  184.000;  103.000;  199.000
371.919;  362.000; -384.000; -304.000
372.050; 6221.000;  -91.000; -156.000
372.181; 1792.200; -188.000; -294.000
372.311;  697.900;   42.000; -127.000
372.442;   46.200; -457.000; -451.000
372.573;   21.300; -444.000; -340.000
372.704; -203.700;-1008.000; -980.000
372.835;  200.900; -228.000; -289.000
372.966;  -86.300; -646.000; -554.000
373.097;  -73.500; -575.000; -711.000
373.228;  -71.800; -717.000; -542.000
373.359;  224.800; -824.000; -536.000
373.490; 1574.500; -881.000; -727.000
373.620; 1954.300;-1001.000; -803.000
373.751; 3165.300; -332.000; -396.000
373.882; 1344.500; -663.000; -733.000
374.013;  117.600; -449.000; -262.000
374.143;  -69.100; -581.000; -659.000
374.274; -193.700; -987.000; -908.000
374.405;  362.300; -388.000; -276.000
374.536;  751.200; -526.000; -387.000
374.666; 1905.500; -759.000; -807.000
374.797;  348.600; -817.000; -868.000
374.928; 1476.100; -710.000; -560.000
375.058; 1556.800; -535.000; -500.000
375.189;  185.900;  -59.000;  -93.000
375.320; -172.800; -928.000;-1034.000
375.450;  -46.100; -625.000; -616.000
375.581;  -43.000; -526.000; -436.000
375.712;    5.700; -574.000; -250.000
375.842;  576.400; -438.000; -415.000
375.973;  384.800; -554.000; -513.000
376.103;  -74.700; -665.000; -648.000
376.234; -119.500; -531.000; -552.000
376.364;  -41.600; -944.000; -867.000
376.495;  659.300;  925.000;  529.000
376.625;   17.700; -472.000; -485.000
376.756;  185.400; -709.000; -678.000
376.886; -133.700;-1178.000;-1026.000
377.017;  127.200;-1048.000;-1061.000
377.147;  685.000; -786.000; -782.000
377.278;  203.100;  174.000;  228.000
377.408; -167.700; -801.000; -815.000
377.538; -147.600; -707.000; -693.000
377.669;  -98.500; -537.000; -613.000
377.799; -119.300; -645.000; -635.000
377.929;  -77.900; -610.000; -428.000
378.060; -197.900; -781.000; -847.000
378.190;  -23.700; -726.000; -531.000
378.320;  -63.900; -401.000; -406.000
378.451;   50.500; -131.000;  -22.000
378.581;   67.900;  -67.000; -110.000
378.711;  367.300; 1035.000;  866.000
378.841;   -2.400; -533.000; -675.000
378.972; -104.000; -871.000; -751.000
379.102;   13.500; -652.000; -579.000
379.232;   -0.400; -126.000;  -73.000
379.362; -148.400;-1001.000; -885.000
379.492;   55.400; -373.000; -424.000
379.623;  267.200;    0.000;  111.000
379.753; -170.200;-1107.000; -974.000
379.883;  451.500;   59.000;  156.000
380.013;   30.000;-1081.000;-1017.000
380.143; -138.200;-1097.000;-1056.000
380.273; -172.900; -985.000; -861.000
380.403;   51.800; -344.000; -257.000
380.533;  -23.000; -651.000; -664.000
380.663;  189.200;  173.000;  128.000
380.793; -152.100;-1027.000;-1074.000
380.923;   11.200; -103.000;  -34.000
381.053; -132.000; -613.000; -623.000
381.183;   21.800; -106.000; -248.000
381.313;   65.600; -656.000; -470.000
381.443;  101.400; -692.000; -473.000
381.573;  403.400; -402.000; -409.000
381.703;  504.500;-1249.000;-1095.000
381.833; -211.700;-1454.000;-1336.000
381.963;  240.800; -134.000;  -87.000
382.093; 2471.000; -925.000; -909.000
382.223;  711.200; -713.000; -602.000
382.353;  -21.100; -801.000; -608.000
382.482;  645.600;-1091.000; -964.000
382.612; 1400.800; -872.000; -644.000
382.742;  730.700; -695.000; -622.000
382.872;  490.600; -565.000; -551.000
383.002;  213.400;  347.000; -132.000
383.131;   13.800; -226.000; -160.000
383.261;  -43.600; -706.000; -768.000
383.391;  550.200; -552.000; -377.000
383.521; 6301.300;  451.000;  263.000
383.650; 1360.500; -947.000; -904.000
383.780;   39.000; -783.000; -656.000
383.910;  303.600;  880.000;  802.000
384.039;   64.300; -794.000; -656.000
384.169;  397.200;-1205.000;-1017.000
384.299;   11.000; -650.000; -662.000
384.428; -154.000; -764.000; -680.000
384.558;  -55.500; -308.000; -275.000
384.687;  -47.500; -414.000; -334.000
384.817;  115.600;   75.000;   -2.000
384.947;   80.700; -234.000; -141.000
385.076;  648.100;  982.000;  912.000
385.206;  255.300;  369.000;  480.000
385.335;  -25.800; -549.000; -417.000
385.465; -112.200; -655.000; -663.000
385.594;  268.000;  -53.000;  -44.000
385.724;  778.200; -868.000; -838.000
385.853;  230.000; -296.000; -270.000
385.982; 2340.300; -743.000; -787.000
386.112; 3603.800;-1052.000; -871.000
386.241;  243.000; -307.000; -312.000
386.371;   96.900; -174.000;  -87.000
386.500;   32.300; -825.000; -789.000
386.629;  104.000; -874.000; -817.000
386.759;  193.300;  -43.000;   68.000
386.888;   71.600; -170.000; -250.000
387.017;  -79.000; -648.000; -620.000
387.147;  -88.000; -771.000; -798.000
387.276;   62.900; -410.000; -397.000
387.405;   59.700; -398.000; -342.000
387.535;  -30.900; -452.000; -361.000
387.664;  -72.000; -692.000; -620.000
387.793;  144.400; -198.000; -113.000
387.922;  970.800;  255.000;  200.000
388.052;   61.700; -576.000; -423.000
388.181;   64.500; -342.000; -472.000
388.310;   37.100; -889.000; -710.000
388.439;  -32.500; -749.000; -742.000
388.568;  376.000;  365.000;  244.000
388.697; 1809.600; -756.000; -653.000
388.826;  355.300; -768.000; -666.000
388.956;  158.600; -285.000; -307.000
389.085;    6.000; -347.000; -287.000
389.214; -142.200; -842.000; -872.000
389.343;  -96.100; -645.000; -413.000
389.472;  894.200;  126.000;  149.000
389.601; 1037.600;   91.000;    0.000
389.730;   71.300; -568.000; -687.000
389.859;  178.600;  226.000;   46.000
389.988;  369.900; -423.000; -408.000
390.117;  321.500; -168.000; -146.000
390.246;   52.300; -331.000; -320.000
390.375;  219.700; -673.000; -626.000
390.504;  -60.700; -703.000; -621.000
390.633; -137.700; -672.000; -726.000
390.761;  -82.900; -732.000; -645.000
390.890;   99.300;   -4.000; -130.000
391.019;   -1.500; -421.000; -441.000
391.148; -213.900; -826.000; -855.000
391.277;  -64.200; -576.000; -493.000
391.406; -133.700; -821.000; -805.000
391.534;  117.900;  574.000; -301.000
391.663;  -62.000; -583.000; -645.000
391.792; -143.000; -673.000; -701.000
391.921;  247.800;   -3.000;   15.000
392.050;  355.700; -287.000; -228.000
392.178;  -94.700;-1206.000;-1061.000
392.307;  260.400; -758.000; -712.000
392.436;  115.800; -427.000; -641.000
392.564;   97.000;  166.000;   -6.000
392.693; -138.600; -860.000; -682.000
392.822;  409.300; -529.000; -534.000
392.950;  146.800; -880.000; -714.000
393.079;  634.100; -188.000; -328.000
393.208;   65.000; -488.000; -511.000
393.336;   18.400; -170.000; -145.000
393.465;  -44.200; -317.000; -199.000
393.593;   91.600;   62.000;   79.000
393.722; -246.800;-1121.000; -916.000
393.850;   17.400; -188.000;  -61.000
393.979; -233.400; -926.000; -805.000
394.107;  -47.300; -517.000; -537.000
394.236;   -0.600; -570.000; -507.000
394.364;  544.200;  383.000;  206.000
394.493;  848.200; -911.000; -767.000
394.621;   38.100; -955.000; -916.000
394.750; 1451.700; -873.000; -923.000
394.878; 5973.100; -247.000; -149.000
395.007; 7728.100; -721.000; -807.000
395.135;  602.000; -790.000; -721.000
395.263;  -95.500;-1038.000;-1040.000
395.392;   76.500;  -25.000; -107.000
395.520; -133.800; -818.000; -679.000
395.648; -121.300; -865.000; -915.000
395.777;    0.800; -366.000; -405.000
395.905;  -37.500; -449.000; -564.000
396.033;   87.900;  217.000;  172.000
396.162; 1379.400; -399.000; -453.000
396.290; 1143.500;  -17.000;   -2.000
396.418;  229.400; -555.000; -514.000
396.546; -126.000; -571.000; -466.000
396.674; -165.000; -850.000; -878.000
396.803;   53.000;  -72.000;  -23.000
396.931;  225.100; -179.000; -199.000
397.059;  108.200;-1026.000; -989.000
397.187; -152.600;-1026.000; -975.000
397.315; -218.900; -884.000; -649.000
397.443; -123.900; -592.000; -443.000
397.572; -148.700; -578.000; -424.000
397.700;   41.300; -607.000; -614.000
397.828;   19.400;  120.000;  -90.000
397.956;  -34.700; -508.000; -478.000
398.084;  -92.000; -767.000; -626.000
398.212;  125.000;  137.000;  124.000
398.340;  101.000;  -56.000;  159.000
398.468;  111.800; -390.000; -169.000
398.596; -226.100; -993.000; -953.000
398.724; -187.100; -762.000; -767.000
398.852; -287.600;-1024.000; -976.000
398.980;  -79.000; -560.000; -560.000
399.108;  -81.600; -982.000; -735.000
399.236;  131.300;   13.000;    8.000
399.363;   82.600;  222.000;  196.000
399.491;  -42.100; -404.000; -398.000
399.619; -192.200; -829.000; -800.000
399.747; -143.500; -859.000; -771.000
399.875;  205.200;  220.000;  234.000
400.003;  -43.200; -359.000; -284.000
400.130; -159.000; -421.000; -341.000
400.258;    1.300;  -83.000;   38.000
400.386;  -57.100; -352.000; -168.000
400.514;  -31.400; -526.000; -587.000
400.641; -143.100; -928.000; -802.000
400.769; -231.200; -979.000; -888.000
400.897; -160.700; -838.000; -793.000
401.025;   33.800; -166.000; -152.000
401.152;   60.300;  220.000;   38.000
401.280;  -95.800; -430.000; -429.000
401.408; -128.300; -712.000; -576.000
401.535; -140.900; -735.000; -758.000
401.663; -348.600;-1134.000;-1054.000
401.790;  -85.500; -514.000; -525.000
401.918;  136.100;  436.000;  405.000
402.046;   34.700;  134.000;  122.000
402.173;   24.400;  -18.000;    7.000
402.301;  -78.300; -519.000; -397.000
402.428;  159.300;  528.000;  383.000
402.556; -214.900;-1188.000; -913.000
402.683;   13.500;  -20.000;   -1.000
402.811;   22.200;  -37.000; -206.000
402.938;   37.700;   20.000;   27.000
403.066;  349.100; -574.000; -558.000
403.193;  580.900;  299.000;  239.000
403.321;  478.600; -396.000; -574.000
403.448;  567.200;   83.000;   27.000
403.575;  293.900;  -90.000;  -46.000
403.703; -127.100; -732.000; -557.000
403.830;  -57.900; -531.000; -496.000
403.957; -218.900;-1117.000;-1023.000
404.085;   96.300;  -61.000; -172.000
404.212;  248.500;  -50.000;   63.000
404.339;  617.000; -566.000; -306.000
404.467;11628.400; -612.000; -524.000
404.594; 7144.600; -287.000; -227.000
404.721; 1557.400; -869.000; -764.000
404.848;  210.900; -113.000; -202.000
404.976; -165.500; -856.000; -783.000
405.103;   52.800;  -14.000;  -82.000
405.230;   65.200;  190.000;  226.000
405.357;  111.100;  117.000;   44.000
405.484;  599.200;  -49.000;    5.000
405.612;  147.700; -548.000; -563.000
405.739;  -89.200; -488.000; -243.000
405.866;  233.800;  669.000;  385.000
405.993;  -16.100; -398.000; -102.000
406.120; -225.900; -801.000; -887.000
406.247;  -70.300; -323.000; -342.000
406.374;  907.600;  540.000;  629.000
406.501;  238.100; -632.000; -702.000
406.628;  -82.300; -621.000; -589.000
406.755; -155.000; -803.000; -620.000
406.882;   -0.800; -228.000; -277.000
407.009; -165.200; -719.000; -628.000
407.136;  155.500; -480.000; -401.000
407.263;  286.300; -939.000; -829.000
407.390;  -95.100; -692.000; -614.000
407.517; -279.400;-1139.000;-1187.000
407.644;  -26.100; -332.000; -256.000
407.771;  -53.300; -249.000; -287.000
407.898;  109.600;  168.000;  328.000
408.025;  -65.100; -421.000; -313.000
408.151;   47.000;   82.000;  153.000
408.278;  -43.000; -267.000; -216.000
408.405; -168.300; -931.000; -899.000
408.532;  -96.300; -549.000; -542.000
408.659; -167.400; -677.000; -648.000
408.785; -342.400;-1298.000;-1170.000
408.912; -110.100; -412.000; -296.000
409.039; -154.700; -610.000; -686.000
409.166; -145.300; -591.000; -555.000
409.292; -157.400; -571.000; -534.000
409.419; -181.800; -665.000; -649.000
409.546; -114.400; -431.000; -192.000
409.672; -164.300; -713.000; -545.000
409.799;   17.700;  -36.000;   34.000
409.926;  -18.700; -180.000; -179.000
410.052; -305.100;-1127.000;-1091.000
410.179;  -52.300; -368.000; -392.000
410.305; -109.500; -375.000; -493.000
410.432;  -21.800; -220.000; -333.000
410.558;  -88.400; -305.000; -380.000
410.685; -118.800; -688.000; -431.000
410.812; -148.800; -409.000; -588.000
410.938; -226.700; -964.000; -808.000
411.065; -160.600; -671.000; -645.000
411.191;   30.200; -189.000; -174.000
411.317; -174.900; -823.000; -742.000
411.444;  -60.800; -317.000; -246.000
411.570;  -65.500; -339.000; -294.000
411.697; -179.000; -758.000; -752.000
411.823; -301.100; -989.000; -999.000
411.949;   -1.100;  -56.000;   17.000
412.076; -185.700; -539.000; -519.000
412.202; -160.300; -758.000; -757.000
412.329; -211.100; -798.000; -752.000
412.455; -149.100; -821.000; -657.000
412.581;   16.700;  -15.000;  172.000
412.707;  -86.700; -540.000; -457.000
412.834;   96.400;  156.000;  219.000
412.960; -140.800; -785.000; -784.000
413.086; -164.000; -743.000; -701.000
413.212;  362.900;  604.000;  578.000
413.339;  -90.700; -685.000; -701.000
413.465;   41.300; -364.000; -310.000
413.591; -133.200; -757.000; -474.000
413.717;  -29.900; -358.000; -366.000
413.843; -255.000; -839.000; -861.000
413.969;  -12.400;  -47.000; -292.000
414.096; -142.600; -679.000; -679.000
414.222;   61.200;  -33.000;   85.000
414.348;    5.100; -652.000; -385.000
414.474;  225.300;   38.000;  -52.000
414.600;   40.300; -126.000; -144.000
414.726;   55.600;  -96.000;  -55.000
414.852;  -63.700; -365.000; -342.000
414.978;  139.000;  104.000;  -18.000
415.104;  140.400;   38.000;   80.000
415.230;  121.000; -329.000; -330.000
415.356;  146.200; -409.000; -514.000
415.482;  457.800;   13.000;  -35.000
415.608;  618.300; -247.000; -323.000
415.734; 2011.300;   67.000;   38.000
415.860;40838.700; -875.000; -767.000
415.986;26945.500; -685.000; -607.000
416.111; 2302.500; -798.000; -652.000
416.237;  508.700; -424.000; -571.000
416.363; 2509.100; -765.000; -733.000
416.489; 8140.000; -324.000; -251.000
416.615;  835.300; -707.000; -742.000
416.741;   15.400; -677.000; -784.000
416.866; -116.300; -673.000; -736.000
416.992; -200.200; -801.000; -818.000
417.118;   10.700;  -41.000;  -80.000
417.244;  -47.500; -798.000; -531.000
417.369; -107.100; -801.000; -612.000
417.495;   84.300; -325.000; -254.000
417.621; -123.000;-1015.000; -803.000
417.746;   73.700; -579.000; -572.000
417.872;  174.400; -254.000; -144.000
417.998;  191.900; -515.000; -530.000
418.123; 2360.800;-1073.000; -845.000
418.249;10536.800; -512.000; -601.000
418.374; 1376.300; -916.000; -824.000
418.500;  265.700; -383.000; -482.000
418.626;  273.700;   70.000;  -59.000
418.751;  303.600; -549.000; -448.000
418.877;  458.800; -637.000; -643.000
419.002; 3898.200; -688.000; -560.000
419.128;25105.400; -930.000; -721.000
419.253; 5589.100; -967.000; -837.000
419.379;  802.200; -391.000; -338.000
419.504;  830.300;  325.000;  415.000
419.629; 1086.100; -393.000; -212.000
419.755; 7766.300; -317.000; -254.000
419.880;41052.100;  -98.000;   67.000
420.006;23118.400; -280.000; -221.000
420.131;55719.700; -662.000; -775.000
420.256; 7399.200; -315.000; -316.000
420.382; 1061.900; -665.000; -687.000
420.507;  164.600; -649.000; -778.000
420.632;  248.700; -337.000; -339.000
420.758;  432.700; -251.000; -425.000
420.883; -143.900; -876.000; -672.000
421.008; -107.400; -775.000; -619.000
421.133;  -91.600; -509.000; -467.000
421.259;  -11.300; -325.000; -259.000
421.384; -181.900; -834.000; -693.000
421.509;  -66.100;-1052.000; -862.000
421.634; 2001.900; -936.000; -820.000
421.759;  748.900; -359.000; -327.000
421.885;  -52.000; -717.000; -656.000
422.010;  -86.900; -673.000; -542.000
422.135; -245.000; -695.000; -727.000
422.260;  186.100;  340.000;  280.000
422.385;    7.200;   12.000;  -98.000
422.510;   96.900;  151.000;  -26.000
422.635;  109.200;  -87.000;  -43.000
422.760;  211.500; -766.000; -791.000
422.885;  161.200;  -57.000;  -80.000
423.010;   -4.500; -112.000; -169.000
423.135; -114.500; -481.000; -561.000
423.260;   11.700; -150.000; -245.000
423.385;  185.100;  476.000;  222.000
423.510;  107.800;   71.000;  -22.000
423.635;  222.500;  133.000;   45.000
423.760;  179.900;  383.000;  328.000
423.885;  184.300;  336.000;  391.000
424.010;   80.600;  -68.000;  -13.000
424.135;    9.100;    5.000;  -33.000
424.259; -112.700; -654.000; -457.000
424.384;  -43.200; -279.000; -272.000
424.509;   48.400; -260.000; -186.000
424.634; -150.500; -761.000; -623.000
424.759;    4.800; -688.000; -544.000
424.883;   33.500; -506.000; -527.000
425.008;  407.700; -502.000; -410.000
425.133; 4148.300; -679.000; -653.000
425.258; 1717.900; -517.000; -381.000
425.382; 1910.300; -867.000; -774.000
425.507; 4322.100; -487.000; -543.000
425.632;  717.700; -802.000; -663.000
425.756;  964.500; -256.000; -146.000
425.881;13913.600; -831.000; -857.000
426.006;33991.700; -604.000; -355.000
426.130; 4788.800; -696.000; -508.000
426.255;  679.500; -611.000; -491.000
426.379;  373.600; -189.000; -577.000
426.504;  857.200;  660.000;  544.000
426.629; 8331.300; -519.000; -466.000
426.753; 5187.500;   64.000;  -46.000
426.878;  647.600; -252.000; -288.000
427.002;  444.000; -651.000; -668.000
427.127; 3428.200;  -35.000; -158.000
427.251;22906.100;  372.000;  401.000
427.375; 5795.600; -191.000; -173.000
427.500; 3971.600; -616.000; -610.000
427.624; 1208.100; -234.000; -400.000
427.749;  241.000; -216.000; -225.000
427.873;  -51.700; -499.000; -412.000
427.997;  -31.400; -222.000; -230.000
428.122;  231.800;  795.000;  703.000
428.246;  224.600;  433.000;  434.000
428.371; -183.200; -869.000; -773.000
428.495; -133.400; -624.000; -646.000
428.619;   31.500; -186.000; -117.000
428.743;   86.400;   65.000;  132.000
428.868;   69.900; -732.000; -643.000
428.992; 2440.900; -219.000; -326.000
429.116;  893.700; -329.000; -357.000
429.240;  565.200;  419.000;  426.000
429.365;   37.400; -454.000; -574.000
429.489;  -31.300; -638.000; -647.000
429.613;   89.200; -236.000; -177.000
429.737;  155.500; -563.000; -432.000
429.861;  637.100; -247.000; -133.000
429.985;11645.700; -425.000; -305.000
430.109;11542.000; -770.000; -908.000
430.234; 1314.800;   76.000;  -50.000
430.358;  159.200; -250.000; -160.000
430.482;  -60.400; -672.000; -564.000
430.606;  -27.700; -655.000; -375.000
430.730;  100.300; -437.000; -388.000
430.854;  258.800; -909.000; -835.000
430.978;  -68.300; -795.000; -764.000
431.102;  -51.000; -499.000; -422.000
431.226; -148.000; -874.000; -815.000
431.350;  123.900;  345.000;  422.000
431.474;  -91.200; -661.000; -373.000
431.597; -252.500;-1060.000; -848.000
431.721;  -73.200; -276.000; -267.000
431.845; -197.100; -704.000; -472.000
431.969; -107.700; -304.000; -349.000
432.093; -112.500; -395.000; -317.000
432.217;   40.200;   32.000;   82.000
432.341; -100.800; -523.000; -518.000
432.464;   80.500;   96.000;   40.000
432.588;  411.800; -401.000; -329.000
432.712;  236.500;  -52.000;  -52.000
432.836;  188.300;  213.000;  263.000
432.959;   29.100; -372.000; -311.000
433.083;  232.900;   11.000;    2.000
433.207;  840.600;  285.000;  930.000
433.330;10656.700; -391.000; -200.000
433.454;12016.100; -654.000; -638.000
433.578; 7067.800;  583.000;  278.000
433.701; 1177.200; -623.000; -675.000
433.825;  293.700; -292.000; -299.000
433.949;  374.400;   28.000;  -72.000
434.072;   99.800; -410.000; -323.000
434.196;   60.400; -309.000; -117.000
434.319; 7780.900;25482.000;25124.000
434.443; 1610.500; -656.000; -603.000
434.566; 5250.100;  281.000;   62.000
434.690;  803.000; -637.000; -383.000
434.813;  132.500; -251.000; -173.000
434.937;  -82.700; -569.000; -696.000
435.060;  -36.300; -423.000; -332.000
435.184;  589.400; -492.000; -217.000
435.307;  343.600;  159.000;  102.000
435.431;   56.900;  -40.000;   24.000
435.554; -127.600; -399.000; -240.000
435.677;  -60.900; -350.000; -258.000
435.801;    6.400;  -25.000;   49.000
435.924;   61.900;    1.000;  -67.000
436.048; -175.200;-1019.000; -732.000
436.171;  -51.600; -240.000;  -66.000
436.294;   12.000; -248.000; -229.000
436.417;  283.100; -963.000; -849.000
436.541; -135.000; -814.000; -840.000
436.664;  -35.400; -242.000; -316.000
436.787;   44.800;   13.000;  113.000
436.910; -130.300; -792.000; -422.000
437.034;   94.700;  142.000;  143.000
437.157;  141.700;  -11.000;    0.000
437.280;  -65.900; -392.000; -292.000
437.403; -161.300; -982.000; -869.000
437.526; 1071.600; -903.000; -865.000
437.649; 3759.000; -505.000; -332.000
437.772;  474.100; -692.000; -540.000
437.896;  339.300;  700.000;  544.000
438.019; -116.500; -758.000; -503.000
438.142; -118.800; -596.000; -506.000
438.265;   15.600; -639.000; -670.000
438.388; 1028.700; -520.000; -410.000
438.511;  166.100; -597.000; -394.000
438.634;  -31.100; -247.000; -125.000
438.757; -203.700; -693.000; -619.000
438.880;   17.800;  -34.000;  -57.000
439.003;  -94.300; -417.000; -437.000
439.126;  -53.500; -287.000; -167.000
439.248;  -56.000;  -98.000; -139.000
439.371;    6.800;    9.000;  -53.000
439.494;  153.300;  510.000;  439.000
439.617;  -29.500;   65.000;  -88.000
439.740; -293.300; -968.000; -816.000
439.863; -169.300; -755.000; -595.000
439.986; -185.200; -476.000; -431.000
440.108;  -17.000; -161.000; -112.000
440.231; -268.100; -950.000; -836.000
440.354;  -18.300;  -64.000; -150.000
440.477;   92.400; -566.000; -542.000
440.599;   75.700; -200.000; -225.000
440.722; -157.300; -709.000; -586.000
440.845;  225.900;  751.000;  928.000
440.968; -147.300; -415.000; -311.000
441.090;  -53.200; -199.000;  -33.000
441.213; -248.100;-1021.000; -825.000
441.336;  -32.500; -159.000;   -5.000
441.458;  -89.200; -549.000; -396.000
441.581;  -90.700; -628.000; -629.000
441.703;  -77.600; -152.000;   13.000
441.826; -151.800; -557.000; -400.000
441.948;  -29.600;   56.000;   51.000
442.071;  169.100;  555.000;  424.000
442.193; -199.600; -531.000; -485.000
442.316;   80.300;  152.000;   97.000
442.438;  106.900; -233.000;  -10.000
442.561;  197.000;  272.000;  262.000
442.683;  987.900; -809.000; -522.000
442.806; 1871.100;   -8.000;   74.000
442.928;   14.000; -859.000; -604.000
443.051;  -64.500; -577.000; -373.000
443.173; -115.400; -341.000; -339.000
443.295; -109.800; -263.000; -371.000
443.418;  -81.600; -321.000;  -29.000
443.540;   47.300; -106.000;   -4.000
443.662; -186.400; -563.000; -465.000
443.785;   41.100;  335.000;  199.000
443.907; -183.600; -362.000; -208.000
444.029; -200.000; -767.000; -494.000
444.152; -263.600; -644.000; -554.000
444.274;   -9.000;  -18.000;  -24.000
444.396; -178.300; -461.000; -221.000
444.518; -211.200; -691.000; -454.000
444.640; -157.500; -268.000; -111.000
444.763;   45.900;  388.000;  249.000
444.885; -184.400; -432.000; -392.000
445.007;    1.300;   35.000;   86.000
445.129; -184.800; -610.000; -515.000
445.251; -107.200; -372.000; -439.000
445.373; -210.400; -537.000; -386.000
445.495;  109.200;  242.000;  350.000
445.617;  187.000;  853.000;  753.000
445.739;  -78.600; -215.000;  -97.000
445.861;   -1.900; -245.000; -112.000
445.984;  -24.800; -267.000; -101.000
446.105;  371.100; -418.000; -251.000
446.227; 1058.900; -176.000;  -19.000
446.349;  -11.400; -358.000; -249.000
446.471; -159.500; -615.000; -448.000
446.593;  -80.100; -316.000;   19.000
446.715;   31.200;  -67.000;   41.000
446.837;  188.900;  697.000;  832.000
446.959; -144.400; -457.000; -478.000
447.081; -204.300; -628.000; -518.000
447.203;  202.600;  862.000;  834.000
447.325; -116.500; -270.000;   42.000
447.446;   57.600;  286.000;  530.000
447.568; -240.400; -921.000; -803.000
447.690;  -92.000; -236.000; -245.000
447.812; -229.100; -798.000; -519.000
447.933;   40.000;  155.000;  127.000
448.055;  -73.900; -306.000; -261.000
448.177;  339.800;   31.000;   79.000
448.299;  130.400; -935.000; -727.000
448.420;  121.200;  -25.000;  159.000
448.542;  -14.100;   -3.000;   33.000
448.664;   35.200;  109.000;  322.000
448.785;   -1.700;  265.000;   83.000
448.907;  -85.000; -614.000; -353.000
449.028;  -69.200; -771.000; -471.000
449.150;  231.800;  492.000;  589.000
449.272; -279.400;-1044.000; -913.000
449.393;  138.400;  612.000;  694.000
449.515; -232.000; -634.000; -581.000
449.636;  -52.300; -264.000; -155.000
449.758;  198.100;  763.000;  622.000
449.879; -100.700; -498.000; -396.000
450.001;  -80.500; -149.000;  -49.000
450.122;   28.300;  -95.000;  162.000
450.244;   48.200;   37.000;  364.000
450.365;  -88.300; -495.000; -301.000
450.486;  -21.900;   80.000;  268.000
450.608;  137.200;  393.000;  326.000
450.729;  215.700;  578.000;  645.000
450.850;  117.300; -574.000; -466.000
450.972; 1704.800; -552.000; -389.000
451.093; 9946.300;  190.000;  588.000
451.214; 3794.900; -516.000; -337.000
451.336;  791.600;  773.000;  579.000
451.457;  156.900;  264.000;  393.000
451.578;   -0.100; -118.000;  -74.000
451.699; -176.200; -546.000; -540.000
451.821;  -35.700; -284.000;  -50.000
451.942;   65.400;  278.000;  285.000
452.063;  178.600;  228.000;  419.000
452.184; 1298.800;  -54.000;  -49.000
452.305; 2170.100;  103.000;  170.000
452.427;  256.100; -549.000; -301.000
452.548;   32.900;   23.000;   79.000
452.669;  -15.600; -257.000;  -89.000
452.790;  -11.200;    3.000;  -18.000
452.911;   42.300;  195.000;  259.000
453.032;  -24.600; -289.000;  -60.000
453.153;  -10.200;  -29.000;   81.000
453.274;  215.400;  737.000;  868.000
453.395;  -16.400;  -51.000;  175.000
453.516;  228.800; 1317.000; 1388.000
453.637;  -39.200; -205.000; -150.000
453.758;  -31.600;   15.000;   69.000
453.879; -150.200; -462.000; -250.000
454.000;  252.400; 1086.000;  948.000
454.121; -181.800; -554.000; -326.000
454.242; -135.000; -599.000; -383.000
454.362;   -4.600;  -99.000;  114.000
454.483;   21.600; -309.000; -229.000
454.604;  203.900;  512.000;  580.000
454.725; -186.600; -627.000; -555.000
454.846; -203.500; -474.000; -406.000
454.967;   66.300;  230.000;  539.000
455.087;  -15.100;  179.000;  153.000
455.208;   82.900;  554.000;  856.000
455.329;  -34.900;  -22.000;   82.000
455.450;  159.100;  473.000;  633.000
455.570;  -77.600; -234.000; -211.000
455.691;   16.600;  201.000;  407.000
455.812; -125.400; -270.000;  -92.000
455.932;  -53.900;  107.000;  -97.000
456.053; -111.000;   36.000;   24.000
456.173; -138.800; -433.000; -355.000
456.294; -196.200; -476.000; -303.000
456.415;  -56.800;  -73.000;   70.000
456.535;   18.600;  297.000;  273.000
456.656;   17.600;  132.000;  240.000
456.776;  -58.800;    3.000;  298.000
456.897;   71.400;  308.000;  513.000
457.017;  -84.400; -153.000;   -3.000
457.138; -108.400; -402.000; -249.000
457.258;   -0.100;  263.000;  224.000
457.379;   80.800;  509.000;  521.000
457.499;   32.900;  443.000;  432.000
457.620; -167.400; -407.000; -231.000
457.740; -101.500; -132.000;  -11.000
457.860;  -27.200;   87.000;   44.000
457.981;   -6.000;  132.000;  124.000
458.101;  -53.800;  -89.000;   40.000
458.221;   17.300;  336.000;  402.000
458.342;  -31.700;   -4.000;  -37.000
458.462;  116.500;  617.000;  352.000
458.582;    7.100; -302.000; -294.000
458.703;   63.400;  303.000;  154.000
458.823;   23.200;   22.000;  163.000
458.943;  114.900;  341.000;  467.000
459.063;   40.000; 1124.000;  192.000
459.183;   38.000;  328.000;  313.000
459.304;   88.600;  315.000;  517.000
459.424;  -76.400; -246.000;  -89.000
459.544;  781.000;  388.000;  764.000
459.664; 1693.400;  499.000;  506.000
459.784;  609.200; 1004.000; 1175.000
459.904;  186.500;  867.000;  744.000
460.024;  235.200;  867.000;  684.000
460.144;   83.900;  449.000;  554.000
460.264;   85.900;  515.000;  327.000
460.385; -122.700; -145.000; -119.000
460.505;  163.300;  905.000;  858.000
460.625; -144.400;  -17.000;  -68.000
460.745;   61.300;  396.000;  541.000
460.864;   -9.300;  153.000;  469.000
460.984;  122.300;  499.000;  573.000
461.104;  326.500; 1656.000; 1775.000
461.224;  134.400;  657.000;  650.000
461.344;   -9.100;  431.000;  360.000
461.464;   16.100;  258.000;  513.000
461.584;   56.600;  283.000;  466.000
461.704;   -6.200;   58.000;  108.000
461.824;  -58.000;  238.000;  259.000
461.943;  -35.100;  191.000;  130.000
462.063;  -74.600;    2.000;  324.000
462.183;  136.000;  639.000;  717.000
462.303;  307.000; 1678.000; 1230.000
462.422;  137.400;  781.000;  840.000
462.542;   19.300;  271.000;  391.000
462.662;  174.000;  353.000;  380.000
462.782;  611.700;  833.000;  572.000
462.901; 1021.600;  545.000;  717.000
463.021;  617.900; 1702.000; 1638.000
463.141;   53.600;  337.000;  770.000
463.260;    9.900;  614.000;  474.000
463.380;   97.800;  902.000;  884.000
463.499;    0.000;  342.000;  332.000
463.619;   36.100;  581.000;  559.000
463.738;  294.400; 1644.000;  903.000
463.858;  144.900;  657.000;  811.000
463.978;   25.400;  542.000;  396.000
464.097;  187.200;  921.000; 1114.000
464.217;  298.000; 1196.000; 1143.000
464.336;  325.500; 1068.000; 1130.000
464.455;    2.700;  328.000;  659.000
464.575;  166.900;  597.000;  602.000
464.694;  434.200; 1204.000; 1179.000
464.814;  361.000; 1190.000; 1138.000
464.933;  221.500; 1095.000; 1027.000
465.052;  266.400; 1412.000; 1054.000
465.172;  210.900;  922.000;  799.000
465.291;  367.400; 1376.000; 1320.000
465.410;   94.300;  462.000;  735.000
465.530;  290.100; 1355.000; 1310.000
465.649;  224.700; 1209.000; 1273.000
465.768;  361.300; 1673.000; 1508.000
465.888;  163.100;  941.000; 1174.000
466.007;  258.100; 1335.000; 1440.000
466.126;   44.800;  721.000;  641.000
466.245;  202.600; 1176.000; 1187.000
466.364;   88.000;  950.000; 1060.000
466.484;  224.100; 1024.000; 1213.000
466.603;  129.100; 1101.000; 1222.000
466.722;  308.600; 1490.000; 1769.000
466.841;  214.900; 1151.000; 1401.000
466.960;  188.500; 1069.000;  972.000
467.079;  365.100; 1971.000; 1786.000
467.198;  208.300; 1238.000; 1181.000
467.317;  271.700; 1768.000; 1162.000
467.436;  229.100; 1709.000; 1261.000
467.555;  334.200; 1796.000; 1746.000
467.674;  219.800; 1227.000; 1329.000
467.793;  193.100; 1376.000; 1374.000
467.912;  265.900; 1658.000; 1539.000
468.031;  371.500; 2038.000; 1930.000
468.150;  403.400; 1842.000; 1837.000
468.269;  503.100; 2313.000; 2090.000
468.388;  482.200; 2168.000; 2339.000
468.507;  626.200; 2884.000; 2903.000
468.626;  663.400; 2555.000; 2541.000
468.744;  375.900; 2018.000; 2174.000
468.863;  492.700; 2312.000; 2523.000
468.982;  275.900; 1503.000; 1555.000
469.101;  499.500; 2788.000; 2692.000
469.220;  377.300; 2333.000; 2176.000
469.338;  606.200; 2935.000; 3051.000
469.457;  439.200; 2719.000; 2545.000
469.576;  821.800; 3953.000; 3784.000
469.695;  561.700; 2877.000; 3066.000
469.813;  912.600; 4148.000; 4192.000
469.932;  916.800; 4255.000; 4485.000
470.051;  943.400; 4075.000; 4161.000
470.169; 1856.900; 4470.000; 4338.000
470.288; 3073.500; 4700.000; 4809.000
470.406; 1738.000; 5059.000; 5194.000
470.525; 1302.900; 6101.000; 5787.000
470.644; 1383.100; 6847.000; 6794.000
470.762; 1762.700; 8397.000; 7873.000
470.881; 1917.400; 8651.000; 8464.000
470.999; 2176.300; 9685.000; 9151.000
471.118; 2393.200;11174.000;10711.000

