
Integration time [ms]: 100.000
Averaging Nr. [scans]: 40
Smoothing Nr. [pixels]: 0
Data measured with spectrometer [name]: 2101012U2
Wave   ;Sample   ;Dark     ;Reference
[nm]   ;[counts] ;[counts] ;[counts] 

197.733;   58.750;  516.000;  404.000
197.879;  -76.800; -610.000; -634.000
198.025;  -50.475; -475.000; -420.000
198.171;  -80.650; -602.000; -612.000
198.317;  -28.825; -401.000; -316.000
198.463;  -52.200; -655.000; -404.000
198.609;   31.075;  181.000; -137.000
198.755;  -86.700; -644.000; -410.000
198.901;  -63.425; -505.000; -424.000
199.047;  -55.525; -615.000; -488.000
199.193;  -37.450; -230.000; -468.000
199.339;  -37.075; -222.000; -369.000
199.485;   37.650;  330.000;  271.000
199.631;   27.775;  227.000;  310.000
199.777;  -54.375; -466.000; -398.000
199.923;  -51.725; -610.000; -424.000
200.069;    6.775; -141.000;  -58.000
200.215;   59.600;  128.000;  453.000
200.361;   36.400;  243.000;  477.000
200.507;  -68.075; -600.000; -373.000
200.653;  -24.000; -371.000; -194.000
200.798;  -29.400; -215.000; -125.000
200.944;   -0.675; -146.000;  -41.000
201.090;   35.575;   61.000;  222.000
201.236;    9.025; -116.000; -158.000
201.382;  127.150;  874.000;  903.000
201.528;   12.500;  -58.000;  -48.000
201.674;  -44.075; -386.000; -293.000
201.819;  -64.300; -540.000; -439.000
201.965;  -70.925; -699.000; -447.000
202.111;  -19.350; -273.000; -226.000
202.257;  -49.800; -250.000; -238.000
202.402;   -1.775;   13.000;  -36.000
202.548;  -30.300; -169.000; -116.000
202.694;   84.600;  410.000; -183.000
202.840;  -71.825; -603.000; -531.000
202.985;  -76.225; -681.000; -639.000
203.131; -110.675; -832.000; -666.000
203.277;  -18.075; -199.000; -262.000
203.423;  -42.925; -434.000; -520.000
203.568;  -30.450; -462.000; -237.000
203.714;  -53.300; -535.000; -542.000
203.860;  -86.575; -682.000; -641.000
204.005;   17.550;  112.000;  167.000
204.151;   81.175;  561.000;  556.000
204.296;  -35.875; -354.000; -221.000
204.442;  -75.700; -600.000; -547.000
204.588;  -77.325; -592.000; -579.000
204.733;   28.150;  178.000;  168.000
204.879; -123.850;-1018.000; -822.000
205.025;   13.575;  -99.000;  126.000
205.170;    0.175;  -17.000;   94.000
205.316;   76.950;  438.000;  661.000
205.461;  -77.850; -698.000; -554.000
205.607;   83.575;  609.000;  665.000
205.752;  -73.450; -626.000; -551.000
205.898;  -49.725; -501.000; -391.000
206.043;  -61.850; -578.000; -506.000
206.189;  -49.450; -243.000; -285.000
206.334;   87.875;  554.000;  606.000
206.480;   73.725;  409.000;  239.000
206.625;  -88.400; -529.000; -552.000
206.771;  -37.300; -451.000; -373.000
206.916;  -34.475; -210.000; -537.000
207.062;  -64.475; -545.000; -591.000
207.207;  -62.650; -546.000; -443.000
207.353;   55.100;  185.000;  460.000
207.498;   25.250;  196.000;   85.000
207.643;  -60.775; -501.000; -370.000
207.789; -130.000;-1069.000; -910.000
207.934;  -93.650; -665.000; -713.000
208.080;  -18.400; -154.000;   66.000
208.225;    5.075;  -22.000;  -57.000
208.370;  -80.425; -727.000; -619.000
208.516;  -73.525; -741.000; -487.000
208.661;  -48.725; -127.000;  -69.000
208.806;  -16.575; -165.000; -171.000
208.952; -126.200;-1044.000; -731.000
209.097;   77.950;  378.000;  349.000
209.242;  -32.775; -307.000; -382.000
209.387;   67.325;  392.000;  350.000
209.533;  -53.600; -321.000; -350.000
209.678;   66.900;  472.000;  543.000
209.823;  -62.450; -408.000; -310.000
209.969;  -96.450; -860.000; -757.000
210.114; -102.150; -907.000; -719.000
210.259; -116.400; -939.000; -889.000
210.404;   -6.450; -171.000;  103.000
210.549;   -0.150;  108.000;    3.000
210.695;  -13.275;   -3.000;  -95.000
210.840;   29.600;   94.000;   67.000
210.985;  -57.150; -484.000; -303.000
211.130;   78.225;  268.000;  406.000
211.275;   14.075;  207.000;  199.000
211.420;  -54.850; -300.000; -289.000
211.566;  -67.075; -536.000; -489.000
211.711;   13.600;  218.000;  157.000
211.856;  -65.500; -545.000; -519.000
212.001;   14.825;  151.000;   44.000
212.146;   32.625;  153.000;   49.000
212.291;  -13.750; -210.000; -186.000
212.436;  -32.850; -280.000;   -6.000
212.581;  -79.700; -685.000; -653.000
212.726;  -86.650; -487.000; -538.000
212.871;  -50.150; -552.000; -217.000
213.016; -140.875;-1172.000;-1029.000
213.161;   58.075;  406.000;  291.000
213.306;  -67.200; -435.000; -577.000
213.451;  -99.425; -778.000; -689.000
213.596;  -46.000; -455.000; -347.000
213.741;  -43.975; -448.000; -538.000
213.886;  -78.375; -498.000; -517.000
214.031;  -21.425; -294.000; -124.000
214.176;  -46.700; -408.000; -341.000
214.321;  -10.775; -296.000; -157.000
214.466;  -20.225; -163.000;  -43.000
214.611;   -8.625;  -61.000;  -10.000
214.756; -128.500; -948.000; -858.000
214.901;  -29.950; -388.000; -226.000
215.046; -123.300; -797.000; -825.000
215.191;   21.225;  128.000;   35.000
215.336;  -21.325; -157.000;  -19.000
215.480;  -80.925; -684.000; -505.000
215.625;  -18.275; -175.000;  -19.000
215.770;  -84.900; -757.000; -662.000
215.915;  -26.850;   -5.000;  -97.000
216.060;   -0.875; -113.000;  -21.000
216.205; -103.575; -731.000; -779.000
216.349;  -69.950; -470.000; -533.000
216.494; -140.150; -939.000; -867.000
216.639; -113.775; -823.000; -888.000
216.784;  -91.075; -577.000; -525.000
216.929;   52.950;  392.000;  281.000
217.073;   -4.450; -244.000;  -31.000
217.218;    2.150;   78.000;  -47.000
217.363;  -87.225; -656.000; -618.000
217.507;  -76.975; -623.000; -588.000
217.652; -130.200; -845.000; -874.000
217.797;  -99.850; -708.000; -659.000
217.942; -110.625; -856.000; -720.000
218.086;   69.400;  608.000;  539.000
218.231;  -19.025; -174.000;  -26.000
218.376;  -33.150; -337.000; -229.000
218.520;   -2.025;  -41.000;   96.000
218.665;  -31.450; -338.000; -204.000
218.810;  -40.750; -275.000; -233.000
218.954;   11.500;  201.000;   35.000
219.099; -110.725; -713.000; -963.000
219.243;  -74.225; -589.000; -554.000
219.388;  -18.025; -264.000; -136.000
219.532;   -9.775; -116.000; -116.000
219.677;  -85.025; -564.000; -521.000
219.822;    4.225;   33.000;   89.000
219.966;   16.175;   17.000;  -99.000
220.111;  -20.975; -328.000;  -40.000
220.255;  -99.875; -797.000; -750.000
220.400;  -20.200; -180.000; -146.000
220.544;  -63.725; -516.000; -450.000
220.689;  -49.500; -422.000; -451.000
220.833;  -24.900; -123.000;  -58.000
220.978;  -49.100; -393.000; -563.000
221.122;   35.500;  319.000;  307.000
221.267; -122.975; -906.000; -837.000
221.411;  -64.875; -478.000; -394.000
221.555;   -9.000; -104.000;  -23.000
221.700;  -41.775; -329.000; -222.000
221.844;   27.100;  255.000;  272.000
221.989;  -54.050; -328.000; -311.000
222.133;  -27.300; -289.000; -307.000
222.277;  -11.575;    5.000;   78.000
222.422;   22.300;  227.000;  113.000
222.566;  -32.275; -381.000; -214.000
222.711;  -53.375; -414.000; -479.000
222.855;  -75.500; -643.000; -586.000
222.999;  -91.125; -642.000; -717.000
223.144;  -23.050; -195.000; -194.000
223.288;   53.725;  423.000;  251.000
223.432;   23.600;  184.000;  230.000
223.576;   16.950;  152.000;  -21.000
223.721;   49.000;  364.000;  273.000
223.865;  -56.550; -472.000; -475.000
224.009;  253.050; 1673.000; 1631.000
224.153;  -83.600; -660.000; -671.000
224.298;  -68.550; -531.000; -489.000
224.442;   -8.550;  -74.000;  -33.000
224.586;    0.275; -169.000; -106.000
224.730; -102.975; -858.000; -670.000
224.875; -105.450; -739.000; -688.000
225.019;   23.500;  102.000;  188.000
225.163;   52.050;  208.000;  341.000
225.307;   23.200;   97.000;  -91.000
225.451;   41.375;  360.000;  481.000
225.595;   31.475;  264.000;  176.000
225.739;  -20.025; -170.000;  -94.000
225.884;   10.375;   86.000;    5.000
226.028; -103.050; -760.000; -626.000
226.172;  -38.425; -260.000; -273.000
226.316; -114.875; -941.000; -902.000
226.460;  -78.650; -645.000; -493.000
226.604;  -49.225; -406.000; -400.000
226.748; -113.225; -836.000; -733.000
226.892;  -43.975; -227.000; -181.000
227.036;  -49.525; -537.000; -447.000
227.180;  -57.650; -551.000; -375.000
227.324;  -70.125; -561.000; -580.000
227.468; -112.400; -819.000; -717.000
227.612;   18.225;  242.000;  -28.000
227.756;  -97.225; -845.000; -698.000
227.900;   56.750;  342.000;  441.000
228.044;  -59.050; -509.000; -290.000
228.188;   68.850;  448.000;  568.000
228.332;  -75.925; -546.000; -472.000
228.476;  -28.325; -223.000; -149.000
228.620;  -23.425; -210.000; -150.000
228.764;   71.200;  431.000;  349.000
228.908;  -21.025; -155.000;   30.000
229.052;  -57.625; -615.000; -528.000
229.195;  -22.075; -172.000;   13.000
229.339;  -36.675; -235.000; -305.000
229.483;  -25.600;    5.000; -162.000
229.627;   -7.775; -156.000;  139.000
229.771;  -56.550; -218.000; -294.000
229.915;   23.425;  230.000;   79.000
230.059; -104.875; -648.000; -663.000
230.202;  -44.275; -370.000; -317.000
230.346;  -11.625; -107.000;  107.000
230.490;  -61.575; -489.000; -521.000
230.634; -103.225; -736.000; -553.000
230.777;   83.050;  478.000;  509.000
230.921;  -50.850; -450.000; -359.000
231.065;  -44.475; -246.000; -286.000
231.209;   44.725;  261.000;  265.000
231.352;    9.850;   54.000;   40.000
231.496;   15.925;  568.000;  188.000
231.640;  -72.700; -693.000; -621.000
231.783;   57.225;  546.000;  525.000
231.927;  -40.550; -294.000; -365.000
232.071; -109.050; -962.000; -736.000
232.214; -119.825; -980.000; -764.000
232.358;  -91.325; -683.000; -599.000
232.502;  -10.375;  -19.000;    7.000
232.645; -137.175;-1090.000; -927.000
232.789;  -13.525; -257.000; -218.000
232.933;  -29.175; -407.000; -224.000
233.076; -127.650;-1038.000; -897.000
233.220; -112.500; -752.000; -777.000
233.363;  -74.700; -669.000; -477.000
233.507;   68.900;  371.000;  129.000
233.650;  -88.175; -764.000; -834.000
233.794;   49.000;  438.000;  461.000
233.938;  -56.250; -530.000; -362.000
234.081;  -23.875;  -93.000;   31.000
234.225;  -59.425; -631.000; -539.000
234.368; -123.675; -773.000; -723.000
234.512;  -37.475; -385.000; -299.000
234.655;  -89.300; -582.000; -555.000
234.798;  -67.050; -493.000; -466.000
234.942; -122.775; -884.000;-1002.000
235.085;  -83.600; -651.000; -443.000
235.229;  -71.800; -405.000; -410.000
235.372;  -50.275; -247.000; -191.000
235.516;  -63.275; -397.000; -321.000
235.659;   16.900;   92.000;  121.000
235.802;  -18.450;  -38.000;  -22.000
235.946;   33.925;  335.000;  215.000
236.089;   30.850;  126.000;  250.000
236.233;   55.000;  275.000;  298.000
236.376;  -43.875; -235.000; -378.000
236.519;  -34.850; -297.000; -319.000
236.663;  -20.050; -215.000; -117.000
236.806; -130.400;-1029.000; -999.000
236.949;   72.150;  543.000;  431.000
237.092;   73.875;  412.000;  391.000
237.236;  -91.800; -589.000; -502.000
237.379;   57.750;  352.000;  428.000
237.522; -127.925; -879.000; -768.000
237.666;  -24.775; -271.000;   18.000
237.809; -114.825; -851.000; -823.000
237.952;   19.750;  469.000;  271.000
238.095;  -74.050; -447.000; -442.000
238.238;   73.475;  688.000;  700.000
238.382;   13.150;  166.000;  103.000
238.525;  -72.525; -598.000; -511.000
238.668; -143.175;-1060.000; -985.000
238.811;  -87.725; -638.000; -643.000
238.954;  -66.925; -483.000; -334.000
239.097;   82.575;  617.000;  664.000
239.241;   28.450;  394.000;  326.000
239.384;  -48.475; -254.000; -214.000
239.527;  -61.500; -424.000; -224.000
239.670; -149.625; -994.000;-1091.000
239.813; -116.050; -696.000; -658.000
239.956;   88.300;  579.000;  473.000
240.099; -105.850; -778.000; -725.000
240.242;   51.850;  428.000;  432.000
240.385;   45.100;  466.000;  450.000
240.528;  -78.075; -706.000; -473.000
240.671;    3.200;  189.000;  134.000
240.814;  -43.250; -441.000; -158.000
240.957;  -96.975; -767.000; -578.000
241.100;  -98.100; -779.000; -755.000
241.243; -142.875;-1234.000; -893.000
241.386;  -60.125; -508.000; -379.000
241.529;  -99.700; -735.000; -547.000
241.672;  -51.150; -566.000; -495.000
241.815; -114.450; -832.000; -808.000
241.958;  -26.850; -125.000; -182.000
242.101;  -82.550; -545.000; -390.000
242.244;  -33.575; -270.000; -325.000
242.387;  -35.675; -304.000; -246.000
242.530;   49.925;  470.000;  134.000
242.673;  -43.875; -381.000; -309.000
242.815; -110.250; -925.000; -899.000
242.958;  -61.825; -482.000; -381.000
243.101;    0.075;  132.000;  187.000
243.244;  -74.725; -564.000; -521.000
243.387;  -51.025; -313.000; -316.000
243.530; -101.200; -657.000; -674.000
243.672;    5.450;   43.000;  -92.000
243.815;  -65.450; -355.000; -283.000
243.958;    4.275;   98.000;  -26.000
244.101;   11.200;   59.000;  -16.000
244.243;  -10.875;  -47.000;  101.000
244.386; -104.375; -761.000; -630.000
244.529;  -34.525; -132.000; -139.000
244.672; -149.100;-1154.000; -951.000
244.814;  -92.650; -621.000; -794.000
244.957;  -36.925; -380.000; -304.000
245.100;  -70.225; -489.000; -489.000
245.242;  -52.450; -387.000; -374.000
245.385;    2.850;  -59.000;  -39.000
245.528; -115.375; -871.000; -705.000
245.670;   91.700;  612.000;  634.000
245.813;  -84.900; -599.000; -547.000
245.956;  -26.350; -324.000; -275.000
246.098;  -66.850; -508.000; -650.000
246.241;    4.375;  194.000;   48.000
246.383;  -17.275; -119.000;  -73.000
246.526;  -83.725; -454.000; -525.000
246.669; -122.975; -889.000; -780.000
246.811;   13.350;  172.000;   -1.000
246.954;  -67.075; -512.000; -426.000
247.096;  -20.400;  -84.000;   -6.000
247.239;  -76.650; -482.000; -445.000
247.381;  -66.550; -647.000; -488.000
247.524;   87.700;  645.000;  679.000
247.666;   -6.450;   58.000;   11.000
247.809; -107.725; -887.000; -691.000
247.951;  -19.800;  -75.000;  138.000
248.094;   37.750;  432.000;  308.000
248.236; -165.250;-1262.000;-1238.000
248.378;   -1.200; -356.000;  -81.000
248.521;  -14.300; -334.000; -337.000
248.663;  -53.600; -236.000; -267.000
248.806;  -20.525; -300.000; -266.000
248.948;  -87.950; -886.000; -763.000
249.090;  -53.600; -428.000; -398.000
249.233;  -35.650; -344.000; -381.000
249.375;  -58.550; -474.000; -451.000
249.518;  -26.075;  -83.000; -133.000
249.660;   -7.250; -103.000;    3.000
249.802; -166.500;-1303.000;-1189.000
249.945;  -79.150; -612.000; -540.000
250.087; -124.050; -834.000; -768.000
250.229;  -47.900; -362.000; -480.000
250.371;  -79.600; -494.000; -439.000
250.514;  -36.250; -310.000; -244.000
250.656;  -67.500;   69.000;  102.000
250.798; -120.225; -849.000; -800.000
250.940;  -64.575; -322.000; -322.000
251.083;  -31.725; -335.000; -111.000
251.225;   43.700;  338.000;  310.000
251.367;  -39.450; -274.000; -373.000
251.509;  -42.100; -265.000; -210.000
251.651;  -95.525; -731.000; -671.000
251.794;   46.200;  538.000;  632.000
251.936; -104.350; -821.000; -747.000
252.078;  -79.750; -540.000; -461.000
252.220;  -69.875; -645.000; -477.000
252.362;   90.125;  344.000;  462.000
252.504;  -69.275; -677.000; -584.000
252.646; -107.825; -875.000; -722.000
252.788;  -12.875;   14.000; -128.000
252.931;  -41.000; -257.000; -253.000
253.073;  -44.300; -376.000; -317.000
253.215;  -11.200;  141.000;  122.000
253.357;  -12.475;   82.000; -153.000
253.499;  -60.550; -374.000; -234.000
253.641;  -86.125; -749.000; -594.000
253.783;  -84.950; -609.000; -527.000
253.925;  -87.650; -586.000; -591.000
254.067; -103.025; -744.000; -667.000
254.209;  -34.100; -391.000; -259.000
254.351; -135.925; -865.000; -883.000
254.493;  -64.750; -441.000; -417.000
254.635; -120.625; -936.000; -818.000
254.777;  -88.800; -752.000; -687.000
254.918;  -68.350; -512.000; -430.000
255.060;  -57.075; -551.000; -395.000
255.202;  -64.675; -473.000; -261.000
255.344;  -84.150; -658.000; -455.000
255.486;  -70.775; -471.000; -406.000
255.628; -105.950; -780.000; -781.000
255.770;  -88.800; -676.000; -536.000
255.912;  -60.375; -559.000; -468.000
256.053;  -96.975; -730.000; -508.000
256.195;  138.550; 1008.000;  903.000
256.337; -101.525; -861.000; -595.000
256.479;   55.500;  532.000;  416.000
256.621;  -38.550; -394.000; -212.000
256.762;  -95.200; -789.000; -742.000
256.904;   50.675;  485.000;  487.000
257.046;  -42.275; -381.000; -271.000
257.188;  -33.100; -351.000; -264.000
257.329;  -62.125; -525.000; -464.000
257.471; -125.925; -939.000; -807.000
257.613;  -53.350; -584.000; -498.000
257.755; -131.025;-1073.000; -982.000
257.896;   37.950;  286.000;  392.000
258.038;  -63.550; -403.000; -352.000
258.180;  -44.725; -354.000; -279.000
258.321;  -83.325; -581.000; -457.000
258.463;   -1.075;  -71.000;  133.000
258.605;  -93.800; -562.000; -570.000
258.746; -106.650; -886.000; -772.000
258.888; -147.550;-1026.000;-1020.000
259.029;    5.925;  121.000;   -8.000
259.171;  -90.075; -614.000; -550.000
259.313;  -10.525;  -49.000;  -47.000
259.454;  -63.950; -536.000; -414.000
259.596;  -61.650; -483.000; -390.000
259.737;  -78.950; -590.000; -474.000
259.879;   31.700;  217.000;  311.000
260.020;  100.675;  901.000;  636.000
260.162;  -35.450; -146.000; -253.000
260.303; -117.000; -768.000; -687.000
260.445;  -85.625; -609.000; -613.000
260.586;   30.850;  392.000;  157.000
260.728;  -36.125; -360.000; -248.000
260.869; -116.750; -350.000; -343.000
261.011;   79.000;  706.000;  537.000
261.152;  -62.100; -479.000; -319.000
261.293;  -72.775; -576.000; -595.000
261.435;  -33.925; -219.000; -184.000
261.576;  -52.300; -455.000; -325.000
261.718;   53.475;  420.000;  470.000
261.859; -135.150; -940.000; -949.000
262.000; -126.375; -951.000;-1016.000
262.142;  -31.450;  -52.000;  -60.000
262.283; -118.225; -808.000; -691.000
262.424;  -91.950; -666.000; -625.000
262.566; -154.525;-1161.000; -983.000
262.707; -107.300; -840.000; -830.000
262.848; -124.575; -769.000; -726.000
262.990;  -47.575; -362.000; -345.000
263.131;   71.425;  650.000;  681.000
263.272;    2.625;  -61.000;  -41.000
263.413; -102.000; -589.000; -561.000
263.555;  -61.475; -669.000; -143.000
263.696;  -94.050; -550.000; -641.000
263.837;  -72.650; -449.000; -551.000
263.978;   -7.925;   -5.000;  -77.000
264.119;  -46.975; -283.000; -264.000
264.261; -111.925; -847.000; -630.000
264.402;   -5.250;   33.000;   40.000
264.543;  -73.075; -509.000; -524.000
264.684;  -13.775;   61.000;  -50.000
264.825;  -70.000; -816.000; -538.000
264.966;   -3.950;  -84.000;  -67.000
265.107; -112.725; -646.000; -670.000
265.248; -123.300; -825.000; -812.000
265.390;  -14.825;  152.000;   -9.000
265.531;  -31.850; -238.000; -107.000
265.672;  -88.875; -557.000; -630.000
265.813;   55.350;  563.000;  439.000
265.954; -138.725; -959.000; -940.000
266.095;  -17.625; -372.000; -322.000
266.236; -110.175; -686.000; -548.000
266.377;  -36.175; -243.000; -297.000
266.518;  -68.275; -619.000; -547.000
266.659;   39.275;  170.000;  268.000
266.800;    8.475;   83.000;   85.000
266.941;  -74.825; -487.000; -478.000
267.082;    7.150;  354.000;   99.000
267.223;  -47.450; -344.000; -273.000
267.364; -113.525; -892.000; -686.000
267.504;  -10.450;    3.000;  135.000
267.645;  -15.450;  160.000;   67.000
267.786;  -38.575; -147.000;  -86.000
267.927;  -70.200; -473.000; -379.000
268.068;  -25.950; -186.000;  -61.000
268.209;  -53.900; -175.000; -413.000
268.350;  -67.125; -388.000; -532.000
268.490;  -80.225; -648.000; -521.000
268.631;   29.750;  127.000;  225.000
268.772; -130.025; -874.000; -647.000
268.913;  -49.650; -328.000; -476.000
269.054;  -17.975; -117.000;   12.000
269.194;  -61.225; -418.000; -402.000
269.335; -160.025;-1137.000;-1074.000
269.476;  -20.075;   33.000;  -35.000
269.617;  -48.200; -347.000; -392.000
269.757; -100.675; -713.000; -646.000
269.898; -108.700; -856.000; -613.000
270.039;  -61.975; -415.000; -405.000
270.180; -138.775; -952.000; -816.000
270.320;  -34.050; -190.000; -250.000
270.461;  -34.500; -277.000; -249.000
270.602;  -16.725; -186.000; -156.000
270.742; -136.000; -868.000; -943.000
270.883;  -68.325; -442.000; -390.000
271.023;  -52.250; -358.000; -357.000
271.164;  -77.875; -607.000; -528.000
271.305;  -94.575; -666.000; -654.000
271.445;  -96.900; -722.000; -683.000
271.586;  -66.575; -462.000; -283.000
271.726;  -41.175; -397.000; -322.000
271.867;  -56.050; -594.000; -534.000
272.008;  176.700; -473.000; -285.000
272.148;  123.975;  462.000;  468.000
272.289;    2.075; -113.000; -181.000
272.429;   11.775;   19.000;  185.000
272.570;  -99.825; -633.000; -737.000
272.710; -104.475; -825.000; -775.000
272.851;  -33.675;  113.000; -130.000
272.991; -157.775;-1173.000;-1077.000
273.131;  -70.700; -419.000; -459.000
273.272; -109.800; -683.000; -723.000
273.412;    8.325; -143.000;  -31.000
273.553;  -55.075; -488.000; -507.000
273.693;  127.975;  913.000;  858.000
273.834;  -94.250; -894.000; -692.000
273.974;  -74.800; -664.000; -615.000
274.114; -116.275; -772.000; -560.000
274.255;   81.550;  414.000;  373.000
274.395;    2.700; -180.000; -125.000
274.535;   30.225;  199.000;  350.000
274.676;   30.550;  225.000;   94.000
274.816;   -4.325;  110.000;   34.000
274.956;  -93.900; -624.000; -690.000
275.097;  -57.400;-1014.000; -922.000
275.237;  -94.350; -913.000; -803.000
275.377; -102.750; -778.000; -689.000
275.517; -146.425; -878.000; -937.000
275.658;  -58.875; -590.000; -555.000
275.798;  -68.500; -606.000; -413.000
275.938;   16.625;  215.000;  323.000
276.078; -100.200; -626.000; -395.000
276.218;   -1.150;   99.000;  104.000
276.359; -134.675;-1026.000;-1024.000
276.499;  -84.775; -605.000; -446.000
276.639;  -37.875; -305.000; -151.000
276.779;  -34.050; -475.000; -357.000
276.919;  -98.975; -783.000; -624.000
277.059;  -30.600; -261.000; -212.000
277.199;  -56.550; -357.000; -259.000
277.340;   43.475;  287.000;  175.000
277.480; -116.700; -840.000; -693.000
277.620;   34.025;  192.000;   16.000
277.760; -202.000;-1533.000;-1294.000
277.900;   12.700;  113.000;   33.000
278.040;    7.475;  137.000;  159.000
278.180;   19.575;  270.000;  170.000
278.320;   -4.125;   21.000;   56.000
278.460;  -66.175; -443.000; -469.000
278.600;  -84.125; -708.000; -598.000
278.740;   61.400;  448.000;  224.000
278.880;  -71.750; -768.000; -791.000
279.020;  -13.025; -194.000; -144.000
279.160;  -88.675; -672.000; -595.000
279.300; -114.875; -926.000; -873.000
279.440;  -84.850; -709.000; -622.000
279.579;  -29.200;-1014.000; -929.000
279.719;  -51.025; -410.000; -394.000
279.859;   69.500;   -4.000;   41.000
279.999;   37.150; -208.000;  101.000
280.139;  -20.400; -435.000; -387.000
280.279;  -81.200; -708.000; -745.000
280.419;  -15.725; -229.000; -147.000
280.559;  -37.000; -259.000; -180.000
280.698;  -95.100; -790.000; -639.000
280.838;  -94.175; -778.000; -800.000
280.978;  -86.075; -846.000; -790.000
281.118; -115.750; -811.000; -704.000
281.257;   -2.100;   24.000;    6.000
281.397; -135.175;-1094.000; -960.000
281.537;  -88.925; -599.000; -712.000
281.677;  -23.550; -150.000; -101.000
281.816;  -88.200; -700.000; -630.000
281.956;  -38.425; -193.000; -257.000
282.096;  -59.025; -539.000; -396.000
282.235; -109.525; -672.000; -638.000
282.375;  -23.950; -243.000;  -98.000
282.515; -108.325; -715.000; -707.000
282.654;   16.400;   29.000;  106.000
282.794;   23.050;  388.000;  244.000
282.934;  -55.475; -530.000; -491.000
283.073; -143.850;-1030.000; -857.000
283.213;  -53.400; -460.000; -467.000
283.353;  -40.800; -408.000; -349.000
283.492;  -39.750; -264.000; -296.000
283.632;  -50.100; -254.000; -168.000
283.771; -102.625; -859.000; -730.000
283.911;  -56.300; -369.000; -260.000
284.050; -112.150; -794.000; -748.000
284.190; -159.200;-1229.000;-1096.000
284.329; -144.150;-1055.000; -964.000
284.469;  -64.750; -516.000; -591.000
284.608;  -58.750; -559.000; -598.000
284.748;  -89.850; -614.000; -570.000
284.887;   -6.600;  -87.000;  -20.000
285.027; -122.950; -844.000; -892.000
285.166;  -27.600; -192.000; -249.000
285.306;    2.325; -116.000;  -33.000
285.445;  -40.400; -229.000; -343.000
285.584;  -89.400; -630.000; -494.000
285.724;  -46.650; -282.000; -322.000
285.863; -113.200; -857.000; -507.000
286.002;  -53.025; -366.000; -276.000
286.142; -110.000; -715.000; -622.000
286.281;  -74.775; -525.000; -493.000
286.420;  -68.875; -554.000; -417.000
286.560;   80.675;  653.000;  623.000
286.699; -145.850; -958.000; -912.000
286.838;  -80.400; -590.000; -591.000
286.978;  -98.250; -533.000; -537.000
287.117; -140.425;-1085.000; -950.000
287.256;  -37.575; -228.000; -211.000
287.395;  -48.025; -197.000; -378.000
287.535;  -62.600; -370.000; -298.000
287.674;  -84.525; -509.000; -484.000
287.813;   44.750;  661.000;  533.000
287.952; -126.525;-1010.000; -871.000
288.091; -167.800;-1049.000; -915.000
288.231;    8.225;   13.000;   15.000
288.370; -160.525;-1217.000;-1200.000
288.509;  -91.025; -728.000; -645.000
288.648;  -96.550; -770.000; -548.000
288.787;  -28.550; -243.000;  -87.000
288.926;  -64.700; -454.000; -475.000
289.065;  103.200;  859.000;  672.000
289.204;  -60.550; -377.000; -217.000
289.344;  -88.000; -791.000; -690.000
289.483;   19.850;  416.000;  304.000
289.622;  -42.050; -291.000; -149.000
289.761;  -32.975; -309.000; -166.000
289.900; -105.450; -785.000; -626.000
290.039;  -20.175;  -12.000;  -95.000
290.178;  -45.050; -274.000; -180.000
290.317;  -78.525; -618.000; -479.000
290.456;  -70.950; -463.000; -451.000
290.595; -154.725; -961.000; -833.000
290.734; -132.825; -904.000; -891.000
290.873;  -66.425; -456.000; -420.000
291.011; -124.000; -833.000; -843.000
291.150; -103.225; -770.000; -682.000
291.289;  -29.450; -343.000; -110.000
291.428; -104.800; -599.000; -480.000
291.567;  -59.850; -370.000; -442.000
291.706;    2.425;  109.000;  154.000
291.845;  -88.700; -597.000; -505.000
291.984; -168.725;-1234.000;-1061.000
292.122;   81.725;  602.000;  582.000
292.261;   32.450;  620.000;  463.000
292.400;    4.425; -144.000;  211.000
292.539; -126.500; -959.000; -813.000
292.678;  -33.075; -325.000; -300.000
292.816; -161.075;-1136.000; -965.000
292.955;  -94.375; -844.000; -684.000
293.094;  -29.225; -173.000; -337.000
293.233;  -57.750; -556.000; -400.000
293.371;  -44.725; -225.000;  -84.000
293.510; -112.550; -866.000; -780.000
293.649; -130.425; -959.000; -924.000
293.787;  -78.675;-1083.000;-1012.000
293.926;  -13.375; -113.000;  -32.000
294.065;  -47.400; -379.000; -290.000
294.203;   31.850;  298.000;  406.000
294.342;    5.500;   74.000;  156.000
294.481; 5446.850;51180.000; -836.000
294.619;  -39.450; -425.000; -582.000
294.758; -150.375;-1230.000;-1137.000
294.896;   62.875; -125.000;    5.000
295.035; -118.025;-1040.000;-1006.000
295.174; -121.525;-1082.000; -954.000
295.312;  -40.100; -323.000; -203.000
295.451;  -16.225; -307.000; -428.000
295.589;  -66.525; -389.000; -518.000
295.728;   15.250; -292.000; -165.000
295.866;   -5.850;  -36.000;  -51.000
296.005;  -61.750; -584.000; -341.000
296.143;  -66.600; -558.000; -596.000
296.282; -115.650; -957.000; -881.000
296.420;  -95.250; -657.000; -557.000
296.559;  -88.200; -892.000; -633.000
296.697;   11.075; -847.000; -665.000
296.835;   32.475;-1141.000;-1002.000
296.974;   61.025;  -23.000;   39.000
297.112;   -7.000; -443.000; -504.000
297.251;  -81.325; -815.000; -755.000
297.389;   64.500; -576.000; -438.000
297.527;   31.400; -145.000;  -83.000
297.666;  -51.725; -486.000; -438.000
297.804;  -57.425; -404.000; -264.000
297.942;  -15.250; -136.000; -161.000
298.081;  -16.975; -183.000;   63.000
298.219;   52.875;  -17.000;  -19.000
298.357;   43.475; -144.000;  -71.000
298.495;   18.525; -810.000; -812.000
298.634;   61.150;  245.000;  219.000
298.772;   38.475; -220.000; -338.000
298.910;  -45.325; -309.000; -182.000
299.048;  -22.450; -130.000; -153.000
299.187;  -36.650; -350.000; -250.000
299.325;   11.225;   52.000;  122.000
299.463;   39.800; -389.000; -299.000
299.601;   97.175; -327.000; -271.000
299.739; -100.725; -908.000; -883.000
299.877;  -87.800; -791.000; -703.000
300.016;  -58.925;-1095.000; -935.000
300.154;  142.650;  -19.000; -161.000
300.292;   38.450; -428.000; -348.000
300.430;   24.900; -408.000; -291.000
300.568; -112.350; -940.000; -874.000
300.706;  -65.925; -366.000; -469.000
300.844;  -90.475;-1108.000; -979.000
300.982;  100.575;  246.000;  282.000
301.120; -110.550; -965.000; -866.000
301.258;  -81.825; -812.000; -705.000
301.396;   28.425;  104.000;  -41.000
301.534;   61.875; -218.000; -293.000
301.672;  -16.625; -664.000; -521.000
301.810;   17.075; -613.000; -545.000
301.948;  106.150;   53.000;  149.000
302.086;  580.325; -250.000;  -32.000
302.224;  881.525; -610.000; -585.000
302.362;   21.225; -558.000; -622.000
302.500;  -32.700; -923.000; -893.000
302.638;   98.300;  128.000;  245.000
302.776;   -4.850; -352.000; -408.000
302.913;   46.875;  447.000;  236.000
303.051;   -2.950;  -86.000;  -23.000
303.189;   37.300;   90.000;  118.000
303.327;  -40.000; -341.000; -256.000
303.465;  -83.450; -832.000; -588.000
303.603; -104.100; -805.000; -604.000
303.740;   88.400;  417.000;  241.000
303.878;   -6.975; -800.000; -759.000
304.016;  -95.550; -915.000; -790.000
304.154; -124.625;-1123.000;-1152.000
304.291;  -32.325; -505.000; -554.000
304.429;   -2.350;  102.000;   74.000
304.567; -137.550; -908.000; -893.000
304.705;  -57.150; -408.000; -515.000
304.842;   79.275; -616.000; -540.000
304.980;   28.025;  215.000;   35.000
305.118;   29.875; -367.000; -365.000
305.255;  -62.100; -945.000; -927.000
305.393;   56.250;  178.000;  239.000
305.531;  -99.225;-1173.000; -956.000
305.668;  -76.750; -663.000; -582.000
305.806;   92.375; -358.000; -439.000
305.943;   85.700; -629.000; -637.000
306.081;   50.400; -378.000; -267.000
306.219; -104.125; -863.000; -748.000
306.356;    7.225;  158.000;   27.000
306.494;   85.375;  981.000;  761.000
306.631;    0.450;  -11.000;  -55.000
306.769;    1.625; -613.000; -485.000
306.906;  -16.925; -284.000; -258.000
307.044;  -74.075; -473.000; -488.000
307.181;  -65.325; -410.000; -332.000
307.319;    9.375;  112.000;   87.000
307.456; -182.000;-1191.000;-1153.000
307.594; -104.550; -980.000; -727.000
307.731;  -29.875; -371.000; -164.000
307.868;   -5.250;  -15.000;   20.000
308.006; -147.225; -961.000; -847.000
308.143;  -67.950; -618.000; -330.000
308.281;  127.425;  -37.000; -254.000
308.418;  -13.700; -748.000; -640.000
308.555;  -72.200; -400.000; -250.000
308.693;  -75.975; -577.000; -573.000
308.830; -101.825; -712.000; -657.000
308.967;  -13.700; -215.000;  -95.000
309.105;  -57.050; -507.000; -396.000
309.242;   18.325; -468.000; -367.000
309.379;  262.075; -577.000; -655.000
309.517;  -82.000; -936.000; -948.000
309.654; -104.775; -910.000; -734.000
309.791;  -65.375; -662.000; -580.000
309.928; -108.350; -977.000; -914.000
310.065;  178.550;  819.000;  697.000
310.203;  -27.000; -825.000; -850.000
310.340;  -41.375; -465.000; -321.000
310.477;  -76.625; -412.000; -516.000
310.614;  -64.750; -383.000; -473.000
310.751;  -90.900; -427.000; -518.000
310.889;  -23.525;    1.000;   11.000
311.026; -158.125;-1161.000; -939.000
311.163;  -54.250; -386.000; -380.000
311.300;  -91.525; -512.000; -479.000
311.437;  -85.000; -658.000; -619.000
311.574; -169.550;-1226.000; -985.000
311.711;  -69.525; -595.000; -433.000
311.848;  -38.725; -380.000; -388.000
311.985;    0.425;  270.000;   93.000
312.122; -121.275; -932.000; -762.000
312.259; -120.425; -941.000; -994.000
312.396;  -86.425; -508.000; -551.000
312.533; -104.575; -812.000; -790.000
312.670; -135.850;-1070.000; -898.000
312.807;  -47.525; -352.000; -367.000
312.944;  -91.050; -513.000; -611.000
313.081;  -33.250; -150.000; -415.000
313.218; -122.575;-1111.000; -867.000
313.355;   -6.700; -531.000; -449.000
313.492;   -5.525; -455.000; -292.000
313.629;  116.275;  815.000;  735.000
313.766; -154.125;-1176.000;-1008.000
313.902;  -13.225; -186.000;   21.000
314.039;  -57.325; -372.000; -289.000
314.176;   25.825;  286.000;  192.000
314.313;  -80.050; -569.000; -473.000
314.450;  -77.550; -788.000; -684.000
314.587;  -61.250; -468.000; -480.000
314.723;    8.225;  -78.000;  130.000
314.860;   25.275;  318.000;  332.000
314.997;   27.650;  223.000;  142.000
315.134;  -58.650; -385.000; -368.000
315.270;  -49.275; -480.000; -496.000
315.407; -121.800;-1094.000; -967.000
315.544;  -59.175; -657.000; -538.000
315.681;  -84.325; -681.000; -565.000
315.817;   26.975; -133.000; -176.000
315.954;    9.525; -613.000; -392.000
316.091; -128.625;-1045.000;-1023.000
316.227;  -30.300;  -71.000; -179.000
316.364;    2.225;   23.000;    6.000
316.500;  -56.925; -113.000; -300.000
316.637;  -34.525; -181.000; -302.000
316.774;  -93.475; -625.000; -358.000
316.910;  -96.975; -598.000; -629.000
317.047;  -71.100; -487.000; -351.000
317.183;  -60.725; -435.000; -566.000
317.320;   -5.675; -367.000; -321.000
317.456;  -75.300; -733.000; -805.000
317.593;  -89.675; -598.000; -641.000
317.729;    6.050;  168.000;  -67.000
317.866; -206.275;-1434.000;-1285.000
318.002;  -84.175; -708.000; -948.000
318.139; -105.775; -883.000; -867.000
318.275; -103.675;-1003.000; -738.000
318.412;  -56.650; -517.000; -336.000
318.548;  -41.700; -751.000; -720.000
318.685; -116.100; -985.000; -888.000
318.821;  -93.550; -762.000; -735.000
318.957;  -18.900;   34.000;  -23.000
319.094;   40.075;  297.000;  154.000
319.230;  -76.125; -756.000; -742.000
319.367;  108.125; -471.000; -520.000
319.503;   32.750; -538.000; -436.000
319.639; -105.600; -877.000; -793.000
319.775;  -72.900; -750.000; -685.000
319.912;  -45.675; -424.000; -519.000
320.048;  -87.475;-1184.000;-1184.000
320.184;   81.175;   59.000;   70.000
320.321;  -73.400; -497.000; -467.000
320.457;   45.175;  475.000;  662.000
320.593;  -72.000; -375.000; -382.000
320.729; -111.850; -732.000; -734.000
320.866;  -73.075; -577.000; -635.000
321.002;  -76.375; -759.000; -809.000
321.138;  -21.375; -135.000; -211.000
321.274;   70.075; -148.000; -115.000
321.410;  -18.625; -585.000; -353.000
321.546;  -25.650;-1011.000; -911.000
321.683;   41.775;  400.000;  185.000
321.819;    1.225;  -48.000; -117.000
321.955; -117.650; -743.000; -722.000
322.091;  -32.350; -585.000; -540.000
322.227;  -17.525; -382.000; -202.000
322.363;  -29.700; -320.000; -215.000
322.499;  -44.375; -343.000; -331.000
322.635;  151.700;  636.000;  443.000
322.771;   27.175; -139.000;   12.000
322.907;   76.900;  129.000;  327.000
323.043;  -38.825; -115.000; -206.000
323.179;  -38.050; -394.000; -363.000
323.315;    1.425; -401.000; -371.000
323.451;   63.975; -328.000; -236.000
323.587;   45.375;  -60.000;  -77.000
323.723;    5.025; -682.000; -601.000
323.859;  -17.600; -258.000;  -76.000
323.995;  -33.500; -467.000; -409.000
324.131; -126.725; -967.000; -892.000
324.267;  -44.625; -254.000; -276.000
324.402; -131.150; -960.000; -983.000
324.538;  -24.200; -279.000; -104.000
324.674;   25.350;  164.000;   77.000
324.810;  107.825;  226.000;  308.000
324.946;   -3.050; -810.000; -658.000
325.082;  -69.550; -568.000; -475.000
325.217;   -9.400;  -62.000;   16.000
325.353; -111.475; -764.000; -659.000
325.489;  -86.475; -540.000; -506.000
325.625;  -74.350; -579.000; -525.000
325.760;   48.625;  517.000;  376.000
325.896;  -32.050; -515.000; -702.000
326.032;  -47.175; -403.000; -352.000
326.168;  -72.100; -462.000; -369.000
326.303;  -60.375; -352.000; -461.000
326.439;  -26.025; -336.000; -276.000
326.575;   -4.075; -190.000;  -29.000
326.710;  -10.725; -156.000;  -30.000
326.846;  -11.125;  146.000;  103.000
326.982;  -93.700; -530.000; -548.000
327.117;  -70.050; -481.000; -442.000
327.253;  -82.650; -745.000; -742.000
327.388; -155.300;-1137.000;-1153.000
327.524;  -55.700; -811.000; -578.000
327.659;  -27.575;  -58.000;  -22.000
327.795;  -16.550;   69.000;   45.000
327.931;  -80.400; -723.000; -499.000
328.066;  -27.975; -417.000; -276.000
328.202;  -16.125;   12.000; -129.000
328.337;   85.300;  957.000;  713.000
328.473;   28.975;  -12.000;  -74.000
328.608;  -27.675; -256.000; -267.000
328.743;  -79.300; -799.000; -664.000
328.879;   -6.100;  214.000;  114.000
329.014;  -38.575; -102.000; -122.000
329.150;  -82.250; -358.000; -483.000
329.285;  -77.625; -465.000; -466.000
329.421;  -53.075; -548.000; -246.000
329.556;  -33.575;  -36.000;   85.000
329.691; -106.775; -633.000; -615.000
329.827;  -79.300; -626.000; -480.000
329.962;  -66.100;  131.000; -301.000
330.097;  -91.375; -673.000; -585.000
330.233;  -50.000; -410.000; -223.000
330.368; -122.900; -839.000; -628.000
330.503;  -21.875;    3.000;   98.000
330.638;   -7.775;  -93.000; -125.000
330.774;  -77.275; -609.000; -530.000
330.909;  -50.650; -434.000; -244.000
331.044;  -90.125; -714.000; -708.000
331.179; -180.225;-1217.000;-1109.000
331.315;   -2.025;   77.000;   20.000
331.450;    7.950;  157.000;  285.000
331.585;  -87.025; -805.000; -706.000
331.720;  -92.450; -510.000; -460.000
331.855;   -2.600;  -35.000; -102.000
331.990;  244.700;   62.000;  138.000
332.126;  130.575; -110.000;   71.000
332.261;  -26.925; -379.000; -265.000
332.396;   -2.775; -135.000; -242.000
332.531;  -97.275;-1074.000;-1031.000
332.666;   29.275; -519.000; -363.000
332.801;  -92.825; -726.000; -807.000
332.936;  -31.600; -192.000; -122.000
333.071; -134.150; -870.000; -817.000
333.206;    6.075;  307.000;  379.000
333.341;   13.750;  344.000;  418.000
333.476;  -98.475; -627.000; -623.000
333.611;  -34.675; -251.000; -173.000
333.746;  -47.250; -381.000; -464.000
333.881; -122.675; -973.000; -935.000
334.016; -131.275; -936.000; -917.000
334.151; -128.000; -746.000; -702.000
334.286;    6.800;  152.000;  186.000
334.421;  -14.025; -125.000; -178.000
334.556;  -81.975; -611.000; -567.000
334.690;  -95.625; -631.000; -577.000
334.825;   50.225;  381.000;   83.000
334.960;  -63.275; -285.000; -413.000
335.095;   -0.150;  135.000;  -91.000
335.230; -107.925; -722.000; -738.000
335.365; -140.300;-1084.000; -990.000
335.499; -129.450;-1108.000;-1037.000
335.634;   15.025;    9.000;  534.000
335.769; -100.700; -755.000; -720.000
335.904;  -66.950; -603.000; -561.000
336.038;  -55.025; -735.000; -657.000
336.173; -128.325;-1206.000;-1194.000
336.308;    2.050; -116.000; -189.000
336.443;   13.900; -544.000; -634.000
336.577;  -83.500; -936.000; -787.000
336.712;   44.925;   -4.000;  -12.000
336.847;  -50.950; -724.000; -607.000
336.981;   62.475; -272.000; -208.000
337.116;  269.050;  615.000;  501.000
337.250;  128.850; -434.000; -421.000
337.385;  260.300; -297.000; -208.000
337.520;   89.450; -632.000; -603.000
337.654;  -45.375; -215.000; -126.000
337.789; -129.025; -989.000; -933.000
337.923;  -38.300; -104.000; -205.000
338.058;  -90.750; -673.000; -738.000
338.192;  -45.150; -611.000; -488.000
338.327;  -22.400;  -18.000; -155.000
338.461;  -86.600; -299.000; -469.000
338.596; -102.425; -780.000; -638.000
338.730;  -99.650; -767.000; -803.000
338.865;   83.875;  -46.000; -140.000
338.999;  -50.450; -846.000; -702.000
339.134;  -27.000; -634.000; -536.000
339.268;   17.500; -741.000; -603.000
339.403;  357.750; -740.000; -775.000
339.537;  119.275; -894.000; -820.000
339.671; -116.500; -829.000; -813.000
339.806;  -47.100; -556.000; -512.000
339.940;   15.750; -261.000; -235.000
340.074; -104.375; -685.000; -510.000
340.209;  -49.975; -351.000; -230.000
340.343;  -83.275; -517.000; -573.000
340.477;  148.275;  998.000; 1036.000
340.612;  -45.625;-1033.000; -900.000
340.746;  128.800; -199.000; -243.000
340.880;  -75.150; -924.000; -785.000
341.014;  -27.450;  -45.000; -154.000
341.149; -119.725; -756.000; -718.000
341.283; -117.175; -839.000; -754.000
341.417;  -99.050;-1124.000; -938.000
341.551;  103.000; -768.000; -708.000
341.685;  -43.750; -633.000; -611.000
341.820;  -61.150; -562.000; -493.000
341.954;  -54.975; -218.000; -349.000
342.088; -163.125;-1102.000;-1019.000
342.222;   42.225;  565.000;  618.000
342.356;  -72.675; -395.000; -335.000
342.490; -113.175; -880.000; -841.000
342.624;  -48.275; -339.000; -242.000
342.758;  -16.900; -364.000; -312.000
342.892;  -69.500; -710.000; -585.000
343.026;  -51.775;  -58.000; -116.000
343.160;  -64.950; -426.000; -376.000
343.294;  -77.125; -474.000; -337.000
343.428;  -33.625; -488.000; -448.000
343.562;  -19.350; -172.000;  -23.000
343.696;  -33.150; -385.000; -314.000
343.830;  -28.325; -362.000; -356.000
343.964;   10.150; -231.000; -168.000
344.098;  845.725;  199.000;   70.000
344.232;  716.500; -266.000; -127.000
344.366;   64.800; -567.000; -453.000
344.500;   27.200; -665.000; -744.000
344.634;   22.075; -324.000; -164.000
344.768;  -17.475; -531.000; -341.000
344.902;    7.725;  278.000;  256.000
345.035;  -80.150; -556.000; -496.000
345.169; -138.875; -933.000; -656.000
345.303;  -44.175; -308.000; -482.000
345.437;  -93.500; -826.000; -717.000
345.571;  -77.925; -675.000; -594.000
345.704;  -63.225; -309.000; -532.000
345.838;  -13.250; -331.000; -284.000
345.972;  -49.150; -543.000; -495.000
346.106;  165.375; -179.000; -190.000
346.239;  410.175; -312.000; -243.000
346.373;   -1.375; -343.000; -302.000
346.507; -143.600; -950.000; -962.000
346.640;  116.050;  -30.000;   13.000
346.774;  -47.200; -650.000; -797.000
346.908;  -27.225; -138.000;  -11.000
347.041; -103.725; -646.000; -593.000
347.175;    4.700;  259.000;   27.000
347.309;  -80.600; -698.000; -628.000
347.442; -104.350; -883.000; -732.000
347.576;  249.225;  670.000;  668.000
347.709;  166.200; -123.000;  -52.000
347.843; -105.125; -933.000; -825.000
347.976;   33.100;  235.000;  294.000
348.110; -187.550;-1268.000;-1186.000
348.243; -121.425; -679.000; -772.000
348.377;  -12.650;  -26.000;   60.000
348.510;   41.725;  403.000;  540.000
348.644;  -56.100;  -37.000; -159.000
348.777;    4.575;  180.000;  191.000
348.911;  -62.025; -142.000; -112.000
349.044;  158.175;  471.000;  448.000
349.178;  137.975;-1069.000;-1006.000
349.311;  106.600;  141.000;  255.000
349.444;    2.225; -927.000; -813.000
349.578;  -29.450; -347.000; -200.000
349.711; -121.025; -959.000; -862.000
349.845;  -28.150; -661.000; -591.000
349.978; -161.825;-1224.000;-1137.000
350.111;  -90.025; -546.000; -612.000
350.244;  -90.925; -596.000; -700.000
350.378;    2.800; -392.000; -393.000
350.511;  -64.225; -393.000; -426.000
350.644; -111.525; -808.000; -806.000
350.778;    4.925;  168.000;  104.000
350.911;   -7.050;  134.000;  140.000
351.044; -102.300; -685.000; -615.000
351.177;  -22.275; -321.000; -281.000
351.310;  -32.300;    3.000; -131.000
351.444;  -83.050; -888.000; -788.000
351.577;   95.575;  140.000;   90.000
351.710;   84.750;  593.000;  417.000
351.843;  -41.800; -165.000;  -77.000
351.976;   -7.600;  149.000;  -79.000
352.109;  -90.350; -621.000; -612.000
352.242;  -42.800; -464.000; -419.000
352.376;  -68.050; -580.000; -636.000
352.509;  139.800; -437.000; -356.000
352.642;  -12.875; -654.000; -604.000
352.775;   48.350; -141.000;  -98.000
352.908; -125.975; -933.000; -904.000
353.041; -115.575; -814.000; -824.000
353.174;  -57.225; -551.000; -424.000
353.307;  -81.300; -753.000; -764.000
353.440;   48.500;  541.000;  453.000
353.573; -114.975; -957.000;-1008.000
353.706;  -58.375; -384.000; -558.000
353.839;  -17.800; -264.000; -220.000
353.971;  -92.625; -657.000; -512.000
354.104;  -93.175; -896.000; -835.000
354.237;  -32.550; -627.000; -662.000
354.370;  -98.125; -846.000; -879.000
354.503; -180.150;-1231.000;-1308.000
354.636;  -42.575; -529.000; -348.000
354.769; -124.050; -937.000; -860.000
354.902;  -13.150; -230.000; -139.000
355.034;  -26.850; -164.000; -220.000
355.167;  -22.725; -262.000; -162.000
355.300;  -94.950;-1061.000; -880.000
355.433;  971.125;  -71.000;  -14.000
355.565; 1514.575; -402.000; -384.000
355.698;  407.975; -356.000; -296.000
355.831;   -9.075; -882.000; -801.000
355.964;   61.675; -285.000; -170.000
356.096;  -93.725; -856.000; -843.000
356.229;   -1.950; -523.000; -530.000
356.362;  327.325; -373.000; -266.000
356.494;  619.525; -229.000; -162.000
356.627;  451.225;  269.000;  377.000
356.760;  668.275;  120.000;   53.000
356.892;  962.600; -286.000; -601.000
357.025;  603.225;  403.000;  389.000
357.157;  552.050; -167.000; -179.000
357.290;  723.025; -856.000; -713.000
357.423;  199.525; -667.000; -556.000
357.555;   97.700; -217.000; -228.000
357.688;  108.825; -483.000; -364.000
357.820;  442.975; -870.000; -877.000
357.953; 3578.825; -563.000; -589.000
358.085;  750.100; -632.000; -612.000
358.218;  963.100;-1131.000; -932.000
358.350;  169.700;  -58.000;  312.000
358.483; -142.950;-1300.000;-1187.000
358.615;  -38.600;-1182.000;-1078.000
358.747;  -69.900;-1187.000;-1058.000
358.880;   -0.525; -810.000; -744.000
359.012;  -19.150; -376.000; -202.000
359.145;  -53.450; -480.000; -511.000
359.277;   53.250; -962.000; -913.000
359.409; 2944.225;  536.000;  231.000
359.542;  751.125; -738.000; -688.000
359.674;   68.625;   46.000;   13.000
359.806;  -71.425; -565.000; -438.000
359.939;  -49.075; -617.000; -516.000
360.071;  -11.325; -583.000; -579.000
360.203;  -25.900; -411.000; -364.000
360.335;   42.600;  164.000;  -16.000
360.468;  177.325; -249.000; -307.000
360.600; 2383.650; -547.000; -454.000
360.732; 2949.425; -546.000; -423.000
360.864;  404.925;-1216.000;-1044.000
360.996;  225.500; -516.000; -554.000
361.129;   28.925; -389.000; -598.000
361.261;   26.350;  110.000; -113.000
361.393;  -29.200; -252.000; -214.000
361.525;   25.725;   94.000;  244.000
361.657;  -50.250; -821.000; -703.000
361.789;    8.250; -139.000; -155.000
361.921;  187.150; -642.000; -593.000
362.053;  219.625;  524.000;  541.000
362.185;   25.325;  288.000;   72.000
362.318;  -94.050; -709.000; -705.000
362.450;   91.125;  294.000;  444.000
362.582;   64.300; -913.000; -870.000
362.714;  -35.000; -353.000; -332.000
362.846;  -97.775; -606.000; -490.000
362.978; -141.800; -941.000; -811.000
363.109;   27.300; -161.000; -260.000
363.241;  389.725; -739.000; -749.000
363.373;  436.975; -649.000; -564.000
363.505;  694.550; -186.000;  -91.000
363.637;  157.200; -787.000; -601.000
363.769; -131.500;-1067.000;-1080.000
363.901;  -81.575; -596.000; -654.000
364.033; -135.850;-1103.000;-1062.000
364.165;   -0.050; -283.000; -283.000
364.296;   80.900; -316.000; -177.000
364.428;   77.425;-1344.000;-1220.000
364.560;  -67.250; -679.000; -661.000
364.692;  -74.375; -738.000; -835.000
364.824;  225.225; -588.000; -456.000
364.955;  429.100; -402.000; -564.000
365.087;  996.075;-1097.000; -852.000
365.219;   34.525; -686.000; -816.000
365.351;  -79.750; -526.000; -572.000
365.482;   51.550;  300.000;  240.000
365.614;  -52.750; -402.000; -314.000
365.746;  -98.025; -729.000; -752.000
365.877; -101.350; -706.000; -672.000
366.009;  272.025;  -35.000;  -62.000
366.141;  -83.350;-1249.000;-1134.000
366.272; -109.200; -803.000; -719.000
366.404; -113.100;-1005.000; -874.000
366.535;   -7.850; -139.000;  -12.000
366.667; -114.875; -644.000; -649.000
366.799;   33.100;  353.000;  203.000
366.930; -123.350; -862.000; -996.000
367.062;  112.875; -639.000; -613.000
367.193;  165.975; -872.000; -842.000
367.325;  -71.550; -580.000; -684.000
367.456;   26.600; -246.000;   31.000
367.588;  158.900; -371.000; -318.000
367.719;   29.450;  -44.000;  -45.000
367.851;  -19.525; -222.000; -241.000
367.982;  -63.400; -875.000; -732.000
368.113;   81.125; -475.000; -358.000
368.245; -127.950; -960.000; -841.000
368.376;  -24.650; -254.000; -302.000
368.508;  -44.075; -188.000; -263.000
368.639; -141.650;-1166.000;-1034.000
368.770;  -24.450; -670.000; -589.000
368.902;  -75.750; -836.000; -926.000
369.033; -107.175; -906.000; -855.000
369.164;  -42.825; -720.000; -653.000
369.296; -119.925; -452.000; -601.000
369.427;  -12.175; -209.000; -144.000
369.558;  -54.175; -593.000; -377.000
369.689;  -87.625; -721.000; -569.000
369.821; -132.950; -951.000; -845.000
369.952;   -9.975;   42.000; -108.000
370.083;  -63.475; -229.000; -108.000
370.214;  -96.475; -735.000; -650.000
370.345;  -19.575;   65.000;   81.000
370.477;  -93.900; -810.000; -790.000
370.608;  189.500; -328.000; -264.000
370.739;  -67.300;-1233.000;-1292.000
370.870;  -58.800;-1102.000; -923.000
371.001;   83.850; -378.000; -467.000
371.132;  -70.875; -754.000; -735.000
371.263;  -25.375;  -42.000; -148.000
371.394; -146.150; -841.000; -748.000
371.525;   30.425;  345.000;  225.000
371.657; -102.350; -808.000; -670.000
371.788;   65.400;  103.000;  199.000
371.919;  143.275; -384.000; -304.000
372.050; 3405.750;  -91.000; -156.000
372.181; 1005.575; -188.000; -294.000
372.311;  327.375;   42.000; -127.000
372.442;    6.750; -457.000; -451.000
372.573;  -38.275; -444.000; -340.000
372.704; -139.925;-1008.000; -980.000
372.835;   76.475; -228.000; -289.000
372.966;  -63.050; -646.000; -554.000
373.097;  -77.400; -575.000; -711.000
373.228;  -58.650; -717.000; -542.000
373.359;  105.650; -824.000; -536.000
373.490;  828.225; -881.000; -727.000
373.620; 1041.300;-1001.000; -803.000
373.751; 1605.050; -332.000; -396.000
373.882;  703.075; -663.000; -733.000
374.013;   43.325; -449.000; -262.000
374.143;  -43.350; -581.000; -659.000
374.274; -112.500; -987.000; -908.000
374.405;  144.675; -388.000; -276.000
374.536;  397.775; -526.000; -387.000
374.666; 1000.075; -759.000; -807.000
374.797;  200.600; -817.000; -868.000
374.928;  766.575; -710.000; -560.000
375.058;  799.525; -535.000; -500.000
375.189;   60.725;  -59.000;  -93.000
375.320; -105.150; -928.000;-1034.000
375.450;  -45.725; -625.000; -616.000
375.581;  -48.500; -526.000; -436.000
375.712;  -38.550; -574.000; -250.000
375.842;  279.875; -438.000; -415.000
375.973;  187.100; -554.000; -513.000
376.103;  -61.975; -665.000; -648.000
376.234;  -97.025; -531.000; -552.000
376.364;  -53.925; -944.000; -867.000
376.495;  296.675;  925.000;  529.000
376.625;  -20.400; -472.000; -485.000
376.756;   39.775; -709.000; -678.000
376.886;  -87.525;-1178.000;-1026.000
377.017;   46.425;-1048.000;-1061.000
377.147;  367.575; -786.000; -782.000
377.278;   44.875;  174.000;  228.000
377.408; -128.125; -801.000; -815.000
377.538; -102.900; -707.000; -693.000
377.669;  -91.825; -537.000; -613.000
377.799;  -97.175; -645.000; -635.000
377.929;  -76.600; -610.000; -428.000
378.060; -139.750; -781.000; -847.000
378.190;  -41.325; -726.000; -531.000
378.320;  -49.325; -401.000; -406.000
378.451;  -28.325; -131.000;  -22.000
378.581;  -18.275;  -67.000; -110.000
378.711;  141.250; 1035.000;  866.000
378.841;  -24.925; -533.000; -675.000
378.972; -101.875; -871.000; -751.000
379.102;  -37.825; -652.000; -579.000
379.232;  -36.225; -126.000;  -73.000
379.362; -116.975;-1001.000; -885.000
379.492;   -5.075; -373.000; -424.000
379.623;   91.775;    0.000;  111.000
379.753; -113.700;-1107.000; -974.000
379.883;  184.350;   59.000;  156.000
380.013;  -21.400;-1081.000;-1017.000
380.143; -120.475;-1097.000;-1056.000
380.273;  -91.350; -985.000; -861.000
380.403;    5.900; -344.000; -257.000
380.533;  -37.700; -651.000; -664.000
380.663;   57.075;  173.000;  128.000
380.793; -120.650;-1027.000;-1074.000
380.923;  -30.650; -103.000;  -34.000
381.053;  -96.750; -613.000; -623.000
381.183;  -38.500; -106.000; -248.000
381.313;   22.725; -656.000; -470.000
381.443;   22.025; -692.000; -473.000
381.573;  153.725; -402.000; -409.000
381.703;  235.875;-1249.000;-1095.000
381.833; -139.450;-1454.000;-1336.000
381.963;  102.500; -134.000;  -87.000
382.093; 1318.050; -925.000; -909.000
382.223;  405.025; -713.000; -602.000
382.353;  -32.850; -801.000; -608.000
382.482;  315.125;-1091.000; -964.000
382.612;  698.925; -872.000; -644.000
382.742;  381.000; -695.000; -622.000
382.872;  217.225; -565.000; -551.000
383.002;   57.750;  347.000; -132.000
383.131;  -30.100; -226.000; -160.000
383.261;  -59.925; -706.000; -768.000
383.391;  278.525; -552.000; -377.000
383.521; 3335.150;  451.000;  263.000
383.650;  824.550; -947.000; -904.000
383.780;  -11.875; -783.000; -656.000
383.910;  102.825;  880.000;  802.000
384.039;   -5.325; -794.000; -656.000
384.169;  163.575;-1205.000;-1017.000
384.299;  -36.300; -650.000; -662.000
384.428; -107.375; -764.000; -680.000
384.558;  -55.425; -308.000; -275.000
384.687;  -61.525; -414.000; -334.000
384.817;   13.850;   75.000;   -2.000
384.947;   13.875; -234.000; -141.000
385.076;  252.050;  982.000;  912.000
385.206;   90.150;  369.000;  480.000
385.335;  -38.250; -549.000; -417.000
385.465;  -85.500; -655.000; -663.000
385.594;  111.825;  -53.000;  -44.000
385.724;  370.500; -868.000; -838.000
385.853;   92.650; -296.000; -270.000
385.982; 1228.450; -743.000; -787.000
386.112; 1993.475;-1052.000; -871.000
386.241;  123.575; -307.000; -312.000
386.371;   -3.325; -174.000;  -87.000
386.500;  -25.025; -825.000; -789.000
386.629;    8.475; -874.000; -817.000
386.759;   62.575;  -43.000;   68.000
386.888;   -1.650; -170.000; -250.000
387.017;  -94.300; -648.000; -620.000
387.147; -103.950; -771.000; -798.000
387.276;  -12.600; -410.000; -397.000
387.405;   -7.125; -398.000; -342.000
387.535;  -54.975; -452.000; -361.000
387.664;  -58.600; -692.000; -620.000
387.793;   35.550; -198.000; -113.000
387.922;  472.700;  255.000;  200.000
388.052;   -5.850; -576.000; -423.000
388.181;  -18.750; -342.000; -472.000
388.310;  -34.450; -889.000; -710.000
388.439;  -66.150; -749.000; -742.000
388.568;  175.100;  365.000;  244.000
388.697;  950.975; -756.000; -653.000
388.826;  183.825; -768.000; -666.000
388.956;   49.050; -285.000; -307.000
389.085;  -47.525; -347.000; -287.000
389.214; -121.550; -842.000; -872.000
389.343;  -85.000; -645.000; -413.000
389.472;  401.025;  126.000;  149.000
389.601;  511.550;   91.000;    0.000
389.730;    5.550; -568.000; -687.000
389.859;   58.325;  226.000;   46.000
389.988;  156.900; -423.000; -408.000
390.117;  138.300; -168.000; -146.000
390.246;  -18.150; -331.000; -320.000
390.375;   71.575; -673.000; -626.000
390.504;  -74.425; -703.000; -621.000
390.633; -109.225; -672.000; -726.000
390.761;  -78.800; -732.000; -645.000
390.890;   11.500;   -4.000; -130.000
391.019;  -43.925; -421.000; -441.000
391.148; -135.300; -826.000; -855.000
391.277;  -75.175; -576.000; -493.000
391.406; -108.700; -821.000; -805.000
391.534;   13.000;  574.000; -301.000
391.663;  -83.975; -583.000; -645.000
391.792;  -90.975; -673.000; -701.000
391.921;   78.400;   -3.000;   15.000
392.050;  124.900; -287.000; -228.000
392.178;  -52.000;-1206.000;-1061.000
392.307;  102.975; -758.000; -712.000
392.436;   61.800; -427.000; -641.000
392.564;   -0.975;  166.000;   -6.000
392.693; -103.750; -860.000; -682.000
392.822;  175.325; -529.000; -534.000
392.950;   81.250; -880.000; -714.000
393.079;  268.250; -188.000; -328.000
393.208;   10.275; -488.000; -511.000
393.336;  -21.000; -170.000; -145.000
393.465;  -52.825; -317.000; -199.000
393.593;   -7.900;   62.000;   79.000
393.722; -163.425;-1121.000; -916.000
393.850;  -25.825; -188.000;  -61.000
393.979; -159.500; -926.000; -805.000
394.107;  -69.900; -517.000; -537.000
394.236;  -36.275; -570.000; -507.000
394.364;  177.225;  383.000;  206.000
394.493;  285.250; -911.000; -767.000
394.621;  -25.400; -955.000; -916.000
394.750;  714.550; -873.000; -923.000
394.878; 3004.700; -247.000; -149.000
395.007; 4129.325; -721.000; -807.000
395.135;  305.550; -790.000; -721.000
395.263;  -82.050;-1038.000;-1040.000
395.392;   -5.250;  -25.000; -107.000
395.520; -151.825; -818.000; -679.000
395.648; -106.100; -865.000; -915.000
395.777;  -35.125; -366.000; -405.000
395.905;  -59.675; -449.000; -564.000
396.033;   12.950;  217.000;  172.000
396.162;  503.925; -399.000; -453.000
396.290;  455.925;  -17.000;   -2.000
396.418;   66.350; -555.000; -514.000
396.546;  -93.775; -571.000; -466.000
396.674; -110.225; -850.000; -878.000
396.803;    6.100;  -72.000;  -23.000
396.931;   58.050; -179.000; -199.000
397.059;   18.850;-1026.000; -989.000
397.187; -120.800;-1026.000; -975.000
397.315; -146.200; -884.000; -649.000
397.443; -101.250; -592.000; -443.000
397.572;  -96.125; -578.000; -424.000
397.700;  -37.125; -607.000; -614.000
397.828;   -2.675;  120.000;  -90.000
397.956;  -58.725; -508.000; -478.000
398.084;  -78.450; -767.000; -626.000
398.212;   27.250;  137.000;  124.000
398.340;    2.775;  -56.000;  159.000
398.468;   10.275; -390.000; -169.000
398.596; -139.975; -993.000; -953.000
398.724; -120.475; -762.000; -767.000
398.852; -172.850;-1024.000; -976.000
398.980;  -67.825; -560.000; -560.000
399.108;  -66.500; -982.000; -735.000
399.236;   12.075;   13.000;    8.000
399.363;    0.050;  222.000;  196.000
399.491;  -70.225; -404.000; -398.000
399.619; -135.200; -829.000; -800.000
399.747; -110.150; -859.000; -771.000
399.875;   65.825;  220.000;  234.000
400.003;  -47.775; -359.000; -284.000
400.130; -101.750; -421.000; -341.000
400.258;  -57.125;  -83.000;   38.000
400.386;  -81.375; -352.000; -168.000
400.514;  -56.650; -526.000; -587.000
400.641; -100.925; -928.000; -802.000
400.769; -149.825; -979.000; -888.000
400.897; -126.275; -838.000; -793.000
401.025;  -10.050; -166.000; -152.000
401.152;  -23.750;  220.000;   38.000
401.280;  -87.400; -430.000; -429.000
401.408; -125.175; -712.000; -576.000
401.535; -107.525; -735.000; -758.000
401.663; -188.775;-1134.000;-1054.000
401.790;  -94.175; -514.000; -525.000
401.918;   34.925;  436.000;  405.000
402.046;  -31.250;  134.000;  122.000
402.173;  -51.725;  -18.000;    7.000
402.301;  -75.050; -519.000; -397.000
402.428;   32.375;  528.000;  383.000
402.556; -145.825;-1188.000; -913.000
402.683;  -34.200;  -20.000;   -1.000
402.811;  -36.350;  -37.000; -206.000
402.938;  -11.200;   20.000;   27.000
403.066;  165.175; -574.000; -558.000
403.193;  299.850;  299.000;  239.000
403.321;  225.225; -396.000; -574.000
403.448;  283.850;   83.000;   27.000
403.575;  129.025;  -90.000;  -46.000
403.703;  -98.475; -732.000; -557.000
403.830;  -82.600; -531.000; -496.000
403.957; -135.175;-1117.000;-1023.000
404.085;   -2.200;  -61.000; -172.000
404.212;   97.175;  -50.000;   63.000
404.339;  268.800; -566.000; -306.000
404.467; 5929.025; -612.000; -524.000
404.594; 3831.975; -287.000; -227.000
404.721;  853.700; -869.000; -764.000
404.848;   75.250; -113.000; -202.000
404.976; -111.950; -856.000; -783.000
405.103;  -23.750;  -14.000;  -82.000
405.230;    7.625;  190.000;  226.000
405.357;   21.925;  117.000;   44.000
405.484;  254.500;  -49.000;    5.000
405.612;   44.350; -548.000; -563.000
405.739;  -72.925; -488.000; -243.000
405.866;   75.750;  669.000;  385.000
405.993;  -56.900; -398.000; -102.000
406.120; -132.350; -801.000; -887.000
406.247;  -68.175; -323.000; -342.000
406.374;  382.000;  540.000;  629.000
406.501;   71.650; -632.000; -702.000
406.628;  -90.525; -621.000; -589.000
406.755; -102.300; -803.000; -620.000
406.882;  -42.050; -228.000; -277.000
407.009; -128.425; -719.000; -628.000
407.136;   34.100; -480.000; -401.000
407.263;   94.425; -939.000; -829.000
407.390;  -87.375; -692.000; -614.000
407.517; -197.400;-1139.000;-1187.000
407.644;  -61.050; -332.000; -256.000
407.771;  -72.775; -249.000; -287.000
407.898;   12.825;  168.000;  328.000
408.025;  -82.075; -421.000; -313.000
408.151;  -19.400;   82.000;  153.000
408.278;  -80.650; -267.000; -216.000
408.405; -129.100; -931.000; -899.000
408.532;  -71.700; -549.000; -542.000
408.659; -114.775; -677.000; -648.000
408.785; -200.750;-1298.000;-1170.000
408.912;  -71.700; -412.000; -296.000
409.039; -117.625; -610.000; -686.000
409.166; -111.675; -591.000; -555.000
409.292; -120.300; -571.000; -534.000
409.419; -122.375; -665.000; -649.000
409.546;  -72.650; -431.000; -192.000
409.672; -107.175; -713.000; -545.000
409.799;  -17.850;  -36.000;   34.000
409.926;  -43.075; -180.000; -179.000
410.052; -173.025;-1127.000;-1091.000
410.179;  -61.325; -368.000; -392.000
410.305; -103.300; -375.000; -493.000
410.432;  -63.200; -220.000; -333.000
410.558;  -88.950; -305.000; -380.000
410.685; -115.800; -688.000; -431.000
410.812; -113.925; -409.000; -588.000
410.938; -136.700; -964.000; -808.000
411.065;  -94.375; -671.000; -645.000
411.191;  -37.250; -189.000; -174.000
411.317; -127.100; -823.000; -742.000
411.444;  -71.500; -317.000; -246.000
411.570;  -83.650; -339.000; -294.000
411.697; -133.175; -758.000; -752.000
411.823; -167.200; -989.000; -999.000
411.949;  -47.600;  -56.000;   17.000
412.076; -118.850; -539.000; -519.000
412.202; -115.225; -758.000; -757.000
412.329; -139.675; -798.000; -752.000
412.455; -127.300; -821.000; -657.000
412.581;  -23.025;  -15.000;  172.000
412.707;  -86.350; -540.000; -457.000
412.834;   -0.100;  156.000;  219.000
412.960;  -98.000; -785.000; -784.000
413.086; -109.375; -743.000; -701.000
413.212;  127.400;  604.000;  578.000
413.339;  -80.075; -685.000; -701.000
413.465;   -3.325; -364.000; -310.000
413.591;  -87.725; -757.000; -474.000
413.717;  -55.375; -358.000; -366.000
413.843; -144.075; -839.000; -861.000
413.969;  -58.050;  -47.000; -292.000
414.096;  -96.900; -679.000; -679.000
414.222;  -18.900;  -33.000;   85.000
414.348;  -39.750; -652.000; -385.000
414.474;   89.450;   38.000;  -52.000
414.600;  -36.000; -126.000; -144.000
414.726;  -12.675;  -96.000;  -55.000
414.852;  -60.425; -365.000; -342.000
414.978;   26.550;  104.000;  -18.000
415.104;   34.725;   38.000;   80.000
415.230;   20.675; -329.000; -330.000
415.356;   39.600; -409.000; -514.000
415.482;  196.200;   13.000;  -35.000
415.608;  268.300; -247.000; -323.000
415.734;  976.250;   67.000;   38.000
415.860;20182.575; -875.000; -767.000
415.986;14858.075; -685.000; -607.000
416.111; 1280.725; -798.000; -652.000
416.237;  263.525; -424.000; -571.000
416.363; 1150.625; -765.000; -733.000
416.489; 4365.675; -324.000; -251.000
416.615;  475.100; -707.000; -742.000
416.741;  -29.250; -677.000; -784.000
416.866;  -91.225; -673.000; -736.000
416.992; -116.500; -801.000; -818.000
417.118;  -34.600;  -41.000;  -80.000
417.244;  -76.675; -798.000; -531.000
417.369;  -87.200; -801.000; -612.000
417.495;  -24.150; -325.000; -254.000
417.621;  -85.875;-1015.000; -803.000
417.746;  -11.675; -579.000; -572.000
417.872;   40.150; -254.000; -144.000
417.998;   57.975; -515.000; -530.000
418.123; 1060.950;-1073.000; -845.000
418.249; 5607.000; -512.000; -601.000
418.374;  786.675; -916.000; -824.000
418.500;  119.525; -383.000; -482.000
418.626;  100.575;   70.000;  -59.000
418.751;  104.250; -549.000; -448.000
418.877;  201.975; -637.000; -643.000
419.002; 1822.575; -688.000; -560.000
419.128;12986.700; -930.000; -721.000
419.253; 3229.125; -967.000; -837.000
419.379;  429.425; -391.000; -338.000
419.504;  386.650;  325.000;  415.000
419.629;  534.100; -393.000; -212.000
419.755; 3675.125; -317.000; -254.000
419.880;22076.450;  -98.000;   67.000
420.006;11841.875; -280.000; -221.000
420.131;30310.550; -662.000; -775.000
420.256; 4447.675; -315.000; -316.000
420.382;  572.100; -665.000; -687.000
420.507;   76.550; -649.000; -778.000
420.632;  116.000; -337.000; -339.000
420.758;  197.125; -251.000; -425.000
420.883;  -97.125; -876.000; -672.000
421.008; -107.275; -775.000; -619.000
421.133;  -86.250; -509.000; -467.000
421.259;  -50.750; -325.000; -259.000
421.384; -120.575; -834.000; -693.000
421.509;  -56.100;-1052.000; -862.000
421.634;  984.200; -936.000; -820.000
421.759;  427.575; -359.000; -327.000
421.885;  -74.100; -717.000; -656.000
422.010;  -89.825; -673.000; -542.000
422.135; -151.350; -695.000; -727.000
422.260;   27.125;  340.000;  280.000
422.385;  -55.075;   12.000;  -98.000
422.510;    5.525;  151.000;  -26.000
422.635;    4.950;  -87.000;  -43.000
422.760;   94.350; -766.000; -791.000
422.885;   66.075;  -57.000;  -80.000
423.010;  -34.350; -112.000; -169.000
423.135; -102.625; -481.000; -561.000
423.260;  -31.575; -150.000; -245.000
423.385;   52.875;  476.000;  222.000
423.510;    6.000;   71.000;  -22.000
423.635;   48.675;  133.000;   45.000
423.760;   37.000;  383.000;  328.000
423.885;   59.825;  336.000;  391.000
424.010;   -5.450;  -68.000;  -13.000
424.135;  -27.150;    5.000;  -33.000
424.259;  -94.125; -654.000; -457.000
424.384;  -80.400; -279.000; -272.000
424.509;  -30.725; -260.000; -186.000
424.634; -109.850; -761.000; -623.000
424.759;  -39.900; -688.000; -544.000
424.883;  -12.675; -506.000; -527.000
425.008;  147.700; -502.000; -410.000
425.133; 2066.100; -679.000; -653.000
425.258;  978.050; -517.000; -381.000
425.382;  945.075; -867.000; -774.000
425.507; 2480.800; -487.000; -543.000
425.632;  433.850; -802.000; -663.000
425.756;  465.875; -256.000; -146.000
425.881; 6832.925; -831.000; -857.000
426.006;18833.575; -604.000; -355.000
426.130; 2951.625; -696.000; -508.000
426.255;  378.750; -611.000; -491.000
426.379;  153.850; -189.000; -577.000
426.504;  376.650;  660.000;  544.000
426.629; 4086.425; -519.000; -466.000
426.753; 2853.850;   64.000;  -46.000
426.878;  314.650; -252.000; -288.000
427.002;  143.425; -651.000; -668.000
427.127; 1586.450;  -35.000; -158.000
427.251;11773.550;  372.000;  401.000
427.375; 3427.725; -191.000; -173.000
427.500; 2188.125; -616.000; -610.000
427.624;  749.800; -234.000; -400.000
427.749;   80.125; -216.000; -225.000
427.873;  -49.400; -499.000; -412.000
427.997;  -48.050; -222.000; -230.000
428.122;   66.225;  795.000;  703.000
428.246;   68.775;  433.000;  434.000
428.371; -135.850; -869.000; -773.000
428.495; -119.325; -624.000; -646.000
428.619;  -33.575; -186.000; -117.000
428.743;   25.100;   65.000;  132.000
428.868;    2.950; -732.000; -643.000
428.992; 1279.600; -219.000; -326.000
429.116;  539.725; -329.000; -357.000
429.240;  249.350;  419.000;  426.000
429.365;  -29.775; -454.000; -574.000
429.489;  -44.725; -638.000; -647.000
429.613;    9.450; -236.000; -177.000
429.737;   20.475; -563.000; -432.000
429.861;  257.700; -247.000; -133.000
429.985; 5626.975; -425.000; -305.000
430.109; 6372.950; -770.000; -908.000
430.234;  730.050;   76.000;  -50.000
430.358;   60.800; -250.000; -160.000
430.482;  -60.825; -672.000; -564.000
430.606;  -71.425; -655.000; -375.000
430.730;  -12.875; -437.000; -388.000
430.854;   75.250; -909.000; -835.000
430.978;  -74.400; -795.000; -764.000
431.102; -100.050; -499.000; -422.000
431.226; -127.075; -874.000; -815.000
431.350;   11.000;  345.000;  422.000
431.474;  -90.475; -661.000; -373.000
431.597; -142.775;-1060.000; -848.000
431.721; -100.300; -276.000; -267.000
431.845; -145.025; -704.000; -472.000
431.969;  -82.625; -304.000; -349.000
432.093;  -89.125; -395.000; -317.000
432.217;  -21.725;   32.000;   82.000
432.341; -100.700; -523.000; -518.000
432.464;   -2.875;   96.000;   40.000
432.588;  152.075; -401.000; -329.000
432.712;   87.450;  -52.000;  -52.000
432.836;   44.075;  213.000;  263.000
432.959;  -29.975; -372.000; -311.000
433.083;   82.325;   11.000;    2.000
433.207;  373.700;  285.000;  930.000
433.330; 5234.025; -391.000; -200.000
433.454; 6506.750; -654.000; -638.000
433.578; 3708.725;  583.000;  278.000
433.701;  668.350; -623.000; -675.000
433.825;  116.175; -292.000; -299.000
433.949;  130.250;   28.000;  -72.000
434.072;   25.750; -410.000; -323.000
434.196;  -18.150; -309.000; -117.000
434.319; 3718.650;25482.000;25124.000
434.443;  706.675; -656.000; -603.000
434.566; 2758.450;  281.000;   62.000
434.690;  465.025; -637.000; -383.000
434.813;   44.025; -251.000; -173.000
434.937;  -84.375; -569.000; -696.000
435.060;  -57.275; -423.000; -332.000
435.184;  221.825; -492.000; -217.000
435.307;  122.700;  159.000;  102.000
435.431;  -25.075;  -40.000;   24.000
435.554;  -89.700; -399.000; -240.000
435.677;  -92.725; -350.000; -258.000
435.801;  -53.925;  -25.000;   49.000
435.924;  -27.700;    1.000;  -67.000
436.048; -132.150;-1019.000; -732.000
436.171;  -73.100; -240.000;  -66.000
436.294;  -31.375; -248.000; -229.000
436.417;   99.500; -963.000; -849.000
436.541;  -89.725; -814.000; -840.000
436.664;  -57.550; -242.000; -316.000
436.787;  -35.350;   13.000;  113.000
436.910; -116.900; -792.000; -422.000
437.034;   -9.650;  142.000;  143.000
437.157;   15.250;  -11.000;    0.000
437.280;  -72.800; -392.000; -292.000
437.403; -108.000; -982.000; -869.000
437.526;  490.350; -903.000; -865.000
437.649; 1934.250; -505.000; -332.000
437.772;  267.600; -692.000; -540.000
437.896;  117.775;  700.000;  544.000
438.019; -100.425; -758.000; -503.000
438.142;  -88.525; -596.000; -506.000
438.265;  -32.475; -639.000; -670.000
438.388;  470.100; -520.000; -410.000
438.511;   57.450; -597.000; -394.000
438.634;  -64.725; -247.000; -125.000
438.757; -145.425; -693.000; -619.000
438.880;  -30.100;  -34.000;  -57.000
439.003;  -91.375; -417.000; -437.000
439.126;  -75.075; -287.000; -167.000
439.248;  -54.575;  -98.000; -139.000
439.371;  -49.300;    9.000;  -53.000
439.494;   25.750;  510.000;  439.000
439.617;  -60.100;   65.000;  -88.000
439.740; -194.100; -968.000; -816.000
439.863; -151.475; -755.000; -595.000
439.986; -123.050; -476.000; -431.000
440.108;  -50.725; -161.000; -112.000
440.231; -178.150; -950.000; -836.000
440.354;  -55.275;  -64.000; -150.000
440.477;   -6.600; -566.000; -542.000
440.599;  -35.350; -200.000; -225.000
440.722; -131.975; -709.000; -586.000
440.845;   50.550;  751.000;  928.000
440.968; -116.450; -415.000; -311.000
441.090;  -65.950; -199.000;  -33.000
441.213; -167.975;-1021.000; -825.000
441.336;  -46.175; -159.000;   -5.000
441.458;  -81.925; -549.000; -396.000
441.581; -104.725; -628.000; -629.000
441.703;  -74.950; -152.000;   13.000
441.826; -116.375; -557.000; -400.000
441.948;  -55.225;   56.000;   51.000
442.071;   24.550;  555.000;  424.000
442.193; -114.075; -531.000; -485.000
442.316;   21.500;  152.000;   97.000
442.438;   27.250; -233.000;  -10.000
442.561;   64.150;  272.000;  262.000
442.683;  429.750; -809.000; -522.000
442.806;  990.500;   -8.000;   74.000
442.928;    4.025; -859.000; -604.000
443.051;  -64.650; -577.000; -373.000
443.173; -101.875; -341.000; -339.000
443.295; -101.125; -263.000; -371.000
443.418;  -72.050; -321.000;  -29.000
443.540;  -13.425; -106.000;   -4.000
443.662; -123.650; -563.000; -465.000
443.785;  -25.650;  335.000;  199.000
443.907;  -91.025; -362.000; -208.000
444.029; -142.500; -767.000; -494.000
444.152; -143.575; -644.000; -554.000
444.274;  -38.525;  -18.000;  -24.000
444.396; -113.925; -461.000; -221.000
444.518; -144.175; -691.000; -454.000
444.640; -107.600; -268.000; -111.000
444.763;  -28.475;  388.000;  249.000
444.885; -127.550; -432.000; -392.000
445.007;  -53.000;   35.000;   86.000
445.129; -134.850; -610.000; -515.000
445.251; -107.550; -372.000; -439.000
445.373; -141.550; -537.000; -386.000
445.495;   -5.875;  242.000;  350.000
445.617;   39.875;  853.000;  753.000
445.739;  -59.075; -215.000;  -97.000
445.861;  -44.475; -245.000; -112.000
445.984;  -43.275; -267.000; -101.000
446.105;  143.750; -418.000; -251.000
446.227;  529.175; -176.000;  -19.000
446.349;  -21.525; -358.000; -249.000
446.471; -105.825; -615.000; -448.000
446.593;  -85.850; -316.000;   19.000
446.715;  -13.525;  -67.000;   41.000
446.837;   54.625;  697.000;  832.000
446.959; -100.875; -457.000; -478.000
447.081; -141.575; -628.000; -518.000
447.203;   44.625;  862.000;  834.000
447.325; -106.225; -270.000;   42.000
447.446;  -18.775;  286.000;  530.000
447.568; -162.375; -921.000; -803.000
447.690;  -89.625; -236.000; -245.000
447.812; -159.375; -798.000; -519.000
447.933;  -42.925;  155.000;  127.000
448.055;  -78.650; -306.000; -261.000
448.177;  121.750;   31.000;   79.000
448.299;   53.125; -935.000; -727.000
448.420;   23.950;  -25.000;  159.000
448.542;  -53.500;   -3.000;   33.000
448.664;  -27.025;  109.000;  322.000
448.785;  -28.975;  265.000;   83.000
448.907;  -93.725; -614.000; -353.000
449.028;  -41.800; -771.000; -471.000
449.150;   66.450;  492.000;  589.000
449.272; -183.725;-1044.000; -913.000
449.393;   25.475;  612.000;  694.000
449.515; -147.550; -634.000; -581.000
449.636;  -71.050; -264.000; -155.000
449.758;   65.800;  763.000;  622.000
449.879;  -93.925; -498.000; -396.000
450.001;  -79.200; -149.000;  -49.000
450.122;  -48.675;  -95.000;  162.000
450.244;  -31.150;   37.000;  364.000
450.365; -101.125; -495.000; -301.000
450.486;  -32.950;   80.000;  268.000
450.608;   15.025;  393.000;  326.000
450.729;   74.475;  578.000;  645.000
450.850;    6.850; -574.000; -466.000
450.972;  780.550; -552.000; -389.000
451.093; 5130.725;  190.000;  588.000
451.214; 2277.550; -516.000; -337.000
451.336;  412.875;  773.000;  579.000
451.457;   54.375;  264.000;  393.000
451.578;  -40.200; -118.000;  -74.000
451.699; -123.225; -546.000; -540.000
451.821;  -68.650; -284.000;  -50.000
451.942;  -18.050;  278.000;  285.000
452.063;   24.250;  228.000;  419.000
452.184;  557.550;  -54.000;  -49.000
452.305; 1113.500;  103.000;  170.000
452.427;  136.475; -549.000; -301.000
452.548;  -23.000;   23.000;   79.000
452.669;  -53.650; -257.000;  -89.000
452.790;  -40.700;    3.000;  -18.000
452.911;   -9.175;  195.000;  259.000
453.032;  -70.900; -289.000;  -60.000
453.153;  -32.475;  -29.000;   81.000
453.274;   45.450;  737.000;  868.000
453.395;  -47.100;  -51.000;  175.000
453.516;  119.325; 1317.000; 1388.000
453.637;  -79.225; -205.000; -150.000
453.758;  -49.375;   15.000;   69.000
453.879; -125.700; -462.000; -250.000
454.000;   91.250; 1086.000;  948.000
454.121; -120.500; -554.000; -326.000
454.242; -122.675; -599.000; -383.000
454.362;  -53.700;  -99.000;  114.000
454.483;  -42.800; -309.000; -229.000
454.604;   40.250;  512.000;  580.000
454.725; -145.400; -627.000; -555.000
454.846; -136.500; -474.000; -406.000
454.967;  -27.775;  230.000;  539.000
455.087;  -50.875;  179.000;  153.000
455.208;   10.625;  554.000;  856.000
455.329;  -56.550;  -22.000;   82.000
455.450;   27.450;  473.000;  633.000
455.570;  -95.475; -234.000; -211.000
455.691;  -46.325;  201.000;  407.000
455.812; -101.825; -270.000;  -92.000
455.932;  -76.850;  107.000;  -97.000
456.053;  -88.800;   36.000;   24.000
456.173; -103.825; -433.000; -355.000
456.294; -130.475; -476.000; -303.000
456.415;  -69.800;  -73.000;   70.000
456.535;  -35.325;  297.000;  273.000
456.656;  -49.150;  132.000;  240.000
456.776;  -73.275;    3.000;  298.000
456.897;  -18.050;  308.000;  513.000
457.017;  -93.050; -153.000;   -3.000
457.138; -113.125; -402.000; -249.000
457.258;  -35.725;  263.000;  224.000
457.379;  -19.325;  509.000;  521.000
457.499;  -24.100;  443.000;  432.000
457.620; -123.650; -407.000; -231.000
457.740; -110.725; -132.000;  -11.000
457.860;  -54.150;   87.000;   44.000
457.981;  -53.125;  132.000;  124.000
458.101;  -74.050;  -89.000;   40.000
458.221;  -20.100;  336.000;  402.000
458.342;  -71.000;   -4.000;  -37.000
458.462;   18.225;  617.000;  352.000
458.582;  -42.050; -302.000; -294.000
458.703;    9.575;  303.000;  154.000
458.823;  -31.925;   22.000;  163.000
458.943;   14.075;  341.000;  467.000
459.063;  -33.825; 1124.000;  192.000
459.183;  -29.450;  328.000;  313.000
459.304;    7.850;  315.000;  517.000
459.424;  -59.875; -246.000;  -89.000
459.544;  327.400;  388.000;  764.000
459.664;  845.900;  499.000;  506.000
459.784;  332.025; 1004.000; 1175.000
459.904;   74.275;  867.000;  744.000
460.024;   73.000;  867.000;  684.000
460.144;    7.475;  449.000;  554.000
460.264;  -15.900;  515.000;  327.000
460.385;  -93.650; -145.000; -119.000
460.505;   13.775;  905.000;  858.000
460.625;  -86.825;  -17.000;  -68.000
460.745;  -22.650;  396.000;  541.000
460.864;  -49.000;  153.000;  469.000
460.984;    3.050;  499.000;  573.000
461.104;  129.575; 1656.000; 1775.000
461.224;   15.175;  657.000;  650.000
461.344;  -35.125;  431.000;  360.000
461.464;  -26.075;  258.000;  513.000
461.584;  -32.825;  283.000;  466.000
461.704;  -47.775;   58.000;  108.000
461.824;  -50.925;  238.000;  259.000
461.943;  -39.300;  191.000;  130.000
462.063;  -81.000;    2.000;  324.000
462.183;   24.325;  639.000;  717.000
462.303;  105.800; 1678.000; 1230.000
462.422;   22.275;  781.000;  840.000
462.542;  -45.375;  271.000;  391.000
462.662;   45.775;  353.000;  380.000
462.782;  254.650;  833.000;  572.000
462.901;  483.800;  545.000;  717.000
463.021;  286.200; 1702.000; 1638.000
463.141;  -11.875;  337.000;  770.000
463.260;   -4.675;  614.000;  474.000
463.380;   18.925;  902.000;  884.000
463.499;  -39.125;  342.000;  332.000
463.619;  -41.950;  581.000;  559.000
463.738;  102.425; 1644.000;  903.000
463.858;    3.450;  657.000;  811.000
463.978;  -48.125;  542.000;  396.000
464.097;   34.375;  921.000; 1114.000
464.217;   99.050; 1196.000; 1143.000
464.336;  114.025; 1068.000; 1130.000
464.455;  -32.300;  328.000;  659.000
464.575;   42.550;  597.000;  602.000
464.694;  153.025; 1204.000; 1179.000
464.814;  126.975; 1190.000; 1138.000
464.933;   79.050; 1095.000; 1027.000
465.052;   88.800; 1412.000; 1054.000
465.172;   83.050;  922.000;  799.000
465.291;  127.000; 1376.000; 1320.000
465.410;   17.825;  462.000;  735.000
465.530;   67.100; 1355.000; 1310.000
465.649;   65.925; 1209.000; 1273.000
465.768;  139.800; 1673.000; 1508.000
465.888;   50.475;  941.000; 1174.000
466.007;   89.750; 1335.000; 1440.000
466.126;   -5.400;  721.000;  641.000
466.245;   36.600; 1176.000; 1187.000
466.364;   27.200;  950.000; 1060.000
466.484;   47.050; 1024.000; 1213.000
466.603;   34.125; 1101.000; 1222.000
466.722;  122.325; 1490.000; 1769.000
466.841;   77.850; 1151.000; 1401.000
466.960;   38.625; 1069.000;  972.000
467.079;  131.725; 1971.000; 1786.000
467.198;   30.875; 1238.000; 1181.000
467.317;   84.750; 1768.000; 1162.000
467.436;   76.850; 1709.000; 1261.000
467.555;  129.450; 1796.000; 1746.000
467.674;   47.450; 1227.000; 1329.000
467.793;   56.375; 1376.000; 1374.000
467.912;   90.175; 1658.000; 1539.000
468.031;  123.425; 2038.000; 1930.000
468.150;  146.975; 1842.000; 1837.000
468.269;  191.675; 2313.000; 2090.000
468.388;  172.800; 2168.000; 2339.000
468.507;  244.575; 2884.000; 2903.000
468.626;  218.000; 2555.000; 2541.000
468.744;  137.000; 2018.000; 2174.000
468.863;  196.250; 2312.000; 2523.000
468.982;   88.750; 1503.000; 1555.000
469.101;  224.525; 2788.000; 2692.000
469.220;  140.275; 2333.000; 2176.000
469.338;  264.300; 2935.000; 3051.000
469.457;  196.350; 2719.000; 2545.000
469.576;  329.275; 3953.000; 3784.000
469.695;  236.300; 2877.000; 3066.000
469.813;  438.800; 4148.000; 4192.000
469.932;  397.525; 4255.000; 4485.000
470.051;  420.150; 4075.000; 4161.000
470.169;  859.775; 4470.000; 4338.000
470.288; 1506.875; 4700.000; 4809.000
470.406;  889.925; 5059.000; 5194.000
470.525;  619.700; 6101.000; 5787.000
470.644;  635.925; 6847.000; 6794.000
470.762;  806.125; 8397.000; 7873.000
470.881;  912.600; 8651.000; 8464.000
470.999; 1024.050; 9685.000; 9151.000
471.118; 1097.350;11174.000;10711.000

