
Integration time [ms]: 200.000
Averaging Nr. [scans]: 10
Smoothing Nr. [pixels]: 0
Data measured with spectrometer [name]: 2101012U2
Wave   ;Sample   ;Dark     ;Reference
[nm]   ;[counts] ;[counts] ;[counts] 

197.733;  134.100;  516.000;  404.000
197.879; -223.700; -610.000; -634.000
198.025; -113.200; -475.000; -420.000
198.171; -160.500; -602.000; -612.000
198.317;  -65.000; -401.000; -316.000
198.463; -164.900; -655.000; -404.000
198.609;   58.600;  181.000; -137.000
198.755; -199.100; -644.000; -410.000
198.901; -172.500; -505.000; -424.000
199.047; -151.100; -615.000; -488.000
199.193;  -92.000; -230.000; -468.000
199.339; -104.500; -222.000; -369.000
199.485;   54.400;  330.000;  271.000
199.631;   38.800;  227.000;  310.000
199.777; -111.100; -466.000; -398.000
199.923; -130.900; -610.000; -424.000
200.069;   25.700; -141.000;  -58.000
200.215;   82.800;  128.000;  453.000
200.361;   81.300;  243.000;  477.000
200.507; -145.900; -600.000; -373.000
200.653;  -60.500; -371.000; -194.000
200.798;  -63.800; -215.000; -125.000
200.944;  -26.600; -146.000;  -41.000
201.090;   85.900;   61.000;  222.000
201.236;   23.500; -116.000; -158.000
201.382;  284.200;  874.000;  903.000
201.528;  -14.300;  -58.000;  -48.000
201.674;  -62.300; -386.000; -293.000
201.819; -154.900; -540.000; -439.000
201.965; -176.100; -699.000; -447.000
202.111;  -44.200; -273.000; -226.000
202.257;  -73.900; -250.000; -238.000
202.402;  -14.100;   13.000;  -36.000
202.548;  -81.800; -169.000; -116.000
202.694;  192.300;  410.000; -183.000
202.840; -164.600; -603.000; -531.000
202.985; -180.400; -681.000; -639.000
203.131; -239.100; -832.000; -666.000
203.277;  -54.100; -199.000; -262.000
203.423; -106.500; -434.000; -520.000
203.568; -107.800; -462.000; -237.000
203.714; -124.200; -535.000; -542.000
203.860; -163.100; -682.000; -641.000
204.005;   44.300;  112.000;  167.000
204.151;  128.700;  561.000;  556.000
204.296; -101.400; -354.000; -221.000
204.442; -169.900; -600.000; -547.000
204.588; -166.800; -592.000; -579.000
204.733;   11.800;  178.000;  168.000
204.879; -289.800;-1018.000; -822.000
205.025;    8.700;  -99.000;  126.000
205.170;  -26.400;  -17.000;   94.000
205.316;  170.900;  438.000;  661.000
205.461; -170.200; -698.000; -554.000
205.607;  182.800;  609.000;  665.000
205.752; -168.000; -626.000; -551.000
205.898; -112.400; -501.000; -391.000
206.043; -158.700; -578.000; -506.000
206.189;  -92.000; -243.000; -285.000
206.334;  158.400;  554.000;  606.000
206.480;  153.700;  409.000;  239.000
206.625; -154.300; -529.000; -552.000
206.771;  -96.700; -451.000; -373.000
206.916;  -68.900; -210.000; -537.000
207.062; -168.400; -545.000; -591.000
207.207; -122.300; -546.000; -443.000
207.353;  107.100;  185.000;  460.000
207.498;   30.500;  196.000;   85.000
207.643;  -92.400; -501.000; -370.000
207.789; -289.100;-1069.000; -910.000
207.934; -225.200; -665.000; -713.000
208.080;  -72.900; -154.000;   66.000
208.225;  -30.500;  -22.000;  -57.000
208.370; -158.600; -727.000; -619.000
208.516; -176.700; -741.000; -487.000
208.661;  -80.500; -127.000;  -69.000
208.806;  -55.200; -165.000; -171.000
208.952; -291.700;-1044.000; -731.000
209.097;  171.400;  378.000;  349.000
209.242;  -89.100; -307.000; -382.000
209.387;  114.800;  392.000;  350.000
209.533; -104.400; -321.000; -350.000
209.678;  180.200;  472.000;  543.000
209.823; -126.500; -408.000; -310.000
209.969; -224.100; -860.000; -757.000
210.114; -240.600; -907.000; -719.000
210.259; -260.900; -939.000; -889.000
210.404;   19.000; -171.000;  103.000
210.549;    7.200;  108.000;    3.000
210.695;  -33.700;   -3.000;  -95.000
210.840;   52.300;   94.000;   67.000
210.985; -116.600; -484.000; -303.000
211.130;  159.700;  268.000;  406.000
211.275;   37.900;  207.000;  199.000
211.420; -127.200; -300.000; -289.000
211.566; -147.000; -536.000; -489.000
211.711;   61.000;  218.000;  157.000
211.856; -106.000; -545.000; -519.000
212.001;   -3.000;  151.000;   44.000
212.146;   47.600;  153.000;   49.000
212.291;  -52.900; -210.000; -186.000
212.436;  -70.100; -280.000;   -6.000
212.581; -202.700; -685.000; -653.000
212.726; -164.000; -487.000; -538.000
212.871; -126.700; -552.000; -217.000
213.016; -315.100;-1172.000;-1029.000
213.161;  133.100;  406.000;  291.000
213.306; -168.800; -435.000; -577.000
213.451; -195.800; -778.000; -689.000
213.596;  -76.700; -455.000; -347.000
213.741; -140.000; -448.000; -538.000
213.886; -167.800; -498.000; -517.000
214.031;  -70.500; -294.000; -124.000
214.176; -114.200; -408.000; -341.000
214.321;  -27.800; -296.000; -157.000
214.466;  -59.800; -163.000;  -43.000
214.611;  -13.400;  -61.000;  -10.000
214.756; -235.900; -948.000; -858.000
214.901;  -31.700; -388.000; -226.000
215.046; -248.400; -797.000; -825.000
215.191;   29.600;  128.000;   35.000
215.336;  -39.000; -157.000;  -19.000
215.480; -135.100; -684.000; -505.000
215.625;  -22.100; -175.000;  -19.000
215.770; -207.300; -757.000; -662.000
215.915;  -26.700;   -5.000;  -97.000
216.060;   15.000; -113.000;  -21.000
216.205; -231.600; -731.000; -779.000
216.349; -132.300; -470.000; -533.000
216.494; -278.700; -939.000; -867.000
216.639; -266.100; -823.000; -888.000
216.784; -155.000; -577.000; -525.000
216.929;   76.600;  392.000;  281.000
217.073;    6.000; -244.000;  -31.000
217.218;   13.800;   78.000;  -47.000
217.363; -193.600; -656.000; -618.000
217.507; -160.400; -623.000; -588.000
217.652; -252.100; -845.000; -874.000
217.797; -175.000; -708.000; -659.000
217.942; -262.300; -856.000; -720.000
218.086;  133.700;  608.000;  539.000
218.231;  -37.200; -174.000;  -26.000
218.376;  -63.500; -337.000; -229.000
218.520;    6.300;  -41.000;   96.000
218.665;  -59.900; -338.000; -204.000
218.810; -103.500; -275.000; -233.000
218.954;   63.100;  201.000;   35.000
219.099; -235.200; -713.000; -963.000
219.243; -182.900; -589.000; -554.000
219.388;  -53.100; -264.000; -136.000
219.532;  -15.200; -116.000; -116.000
219.677; -171.100; -564.000; -521.000
219.822;  -25.100;   33.000;   89.000
219.966;   25.100;   17.000;  -99.000
220.111;  -85.900; -328.000;  -40.000
220.255; -207.900; -797.000; -750.000
220.400;  -55.600; -180.000; -146.000
220.544; -138.400; -516.000; -450.000
220.689; -117.800; -422.000; -451.000
220.833;  -55.700; -123.000;  -58.000
220.978; -102.000; -393.000; -563.000
221.122;   83.900;  319.000;  307.000
221.267; -251.000; -906.000; -837.000
221.411; -138.000; -478.000; -394.000
221.555;    6.200; -104.000;  -23.000
221.700; -109.600; -329.000; -222.000
221.844;   69.500;  255.000;  272.000
221.989; -114.400; -328.000; -311.000
222.133;  -89.000; -289.000; -307.000
222.277;  -24.900;    5.000;   78.000
222.422;   45.600;  227.000;  113.000
222.566;  -98.200; -381.000; -214.000
222.711; -140.000; -414.000; -479.000
222.855; -183.600; -643.000; -586.000
222.999; -171.200; -642.000; -717.000
223.144;  -71.700; -195.000; -194.000
223.288;  115.800;  423.000;  251.000
223.432;   17.200;  184.000;  230.000
223.576;   53.900;  152.000;  -21.000
223.721;   97.900;  364.000;  273.000
223.865; -113.900; -472.000; -475.000
224.009;  570.700; 1673.000; 1631.000
224.153; -204.200; -660.000; -671.000
224.298; -147.700; -531.000; -489.000
224.442;  -42.900;  -74.000;  -33.000
224.586;   -6.200; -169.000; -106.000
224.730; -217.500; -858.000; -670.000
224.875; -224.600; -739.000; -688.000
225.019;   17.900;  102.000;  188.000
225.163;  101.000;  208.000;  341.000
225.307;   51.600;   97.000;  -91.000
225.451;  105.600;  360.000;  481.000
225.595;   44.200;  264.000;  176.000
225.739;  -54.600; -170.000;  -94.000
225.884;   20.500;   86.000;    5.000
226.028; -171.200; -760.000; -626.000
226.172; -107.600; -260.000; -273.000
226.316; -241.300; -941.000; -902.000
226.460; -141.800; -645.000; -493.000
226.604; -122.600; -406.000; -400.000
226.748; -220.600; -836.000; -733.000
226.892;  -44.700; -227.000; -181.000
227.036; -117.500; -537.000; -447.000
227.180; -143.000; -551.000; -375.000
227.324; -145.900; -561.000; -580.000
227.468; -256.400; -819.000; -717.000
227.612;   23.200;  242.000;  -28.000
227.756; -218.000; -845.000; -698.000
227.900;  144.800;  342.000;  441.000
228.044; -114.700; -509.000; -290.000
228.188;  148.300;  448.000;  568.000
228.332; -181.300; -546.000; -472.000
228.476;  -69.800; -223.000; -149.000
228.620;  -44.900; -210.000; -150.000
228.764;  128.400;  431.000;  349.000
228.908;  -22.600; -155.000;   30.000
229.052; -132.700; -615.000; -528.000
229.195;  -10.200; -172.000;   13.000
229.339;  -51.800; -235.000; -305.000
229.483;  -42.600;    5.000; -162.000
229.627;   -1.000; -156.000;  139.000
229.771;  -87.000; -218.000; -294.000
229.915;   13.300;  230.000;   79.000
230.059; -185.300; -648.000; -663.000
230.202;  -98.100; -370.000; -317.000
230.346;  -26.200; -107.000;  107.000
230.490; -154.800; -489.000; -521.000
230.634; -256.900; -736.000; -553.000
230.777;  157.000;  478.000;  509.000
230.921; -122.300; -450.000; -359.000
231.065;  -75.000; -246.000; -286.000
231.209;   51.100;  261.000;  265.000
231.352;   25.300;   54.000;   40.000
231.496;   53.300;  568.000;  188.000
231.640; -171.100; -693.000; -621.000
231.783;  159.800;  546.000;  525.000
231.927;  -87.100; -294.000; -365.000
232.071; -258.600; -962.000; -736.000
232.214; -244.200; -980.000; -764.000
232.358; -208.200; -683.000; -599.000
232.502;    4.400;  -19.000;    7.000
232.645; -293.500;-1090.000; -927.000
232.789;  -63.200; -257.000; -218.000
232.933;  -93.200; -407.000; -224.000
233.076; -274.700;-1038.000; -897.000
233.220; -228.900; -752.000; -777.000
233.363; -172.900; -669.000; -477.000
233.507;  130.900;  371.000;  129.000
233.650; -222.100; -764.000; -834.000
233.794;   83.600;  438.000;  461.000
233.938; -123.400; -530.000; -362.000
234.081;  -63.700;  -93.000;   31.000
234.225; -154.700; -631.000; -539.000
234.368; -239.700; -773.000; -723.000
234.512;  -99.000; -385.000; -299.000
234.655; -182.300; -582.000; -555.000
234.798; -153.400; -493.000; -466.000
234.942; -278.900; -884.000;-1002.000
235.085; -154.400; -651.000; -443.000
235.229; -142.100; -405.000; -410.000
235.372;  -95.200; -247.000; -191.000
235.516; -106.700; -397.000; -321.000
235.659;   63.800;   92.000;  121.000
235.802;   -9.700;  -38.000;  -22.000
235.946;   68.800;  335.000;  215.000
236.089;   82.600;  126.000;  250.000
236.233;  112.200;  275.000;  298.000
236.376;  -83.300; -235.000; -378.000
236.519; -107.500; -297.000; -319.000
236.663;  -11.800; -215.000; -117.000
236.806; -284.000;-1029.000; -999.000
236.949;   84.100;  543.000;  431.000
237.092;  121.500;  412.000;  391.000
237.236; -172.400; -589.000; -502.000
237.379;  130.100;  352.000;  428.000
237.522; -237.900; -879.000; -768.000
237.666;  -51.700; -271.000;   18.000
237.809; -256.800; -851.000; -823.000
237.952;   64.900;  469.000;  271.000
238.095; -143.900; -447.000; -442.000
238.238;  169.500;  688.000;  700.000
238.382;   23.900;  166.000;  103.000
238.525; -135.900; -598.000; -511.000
238.668; -297.900;-1060.000; -985.000
238.811; -163.500; -638.000; -643.000
238.954; -125.900; -483.000; -334.000
239.097;  206.300;  617.000;  664.000
239.241;   56.200;  394.000;  326.000
239.384;  -84.300; -254.000; -214.000
239.527;  -94.500; -424.000; -224.000
239.670; -310.300; -994.000;-1091.000
239.813; -206.800; -696.000; -658.000
239.956;  161.900;  579.000;  473.000
240.099; -230.000; -778.000; -725.000
240.242;  161.700;  428.000;  432.000
240.385;  110.200;  466.000;  450.000
240.528; -147.000; -706.000; -473.000
240.671;   75.800;  189.000;  134.000
240.814;  -71.900; -441.000; -158.000
240.957; -230.100; -767.000; -578.000
241.100; -178.600; -779.000; -755.000
241.243; -286.600;-1234.000; -893.000
241.386; -133.300; -508.000; -379.000
241.529; -168.400; -735.000; -547.000
241.672; -104.800; -566.000; -495.000
241.815; -249.000; -832.000; -808.000
241.958;  -84.400; -125.000; -182.000
242.101; -136.600; -545.000; -390.000
242.244;  -90.000; -270.000; -325.000
242.387;  -58.700; -304.000; -246.000
242.530;  138.000;  470.000;  134.000
242.673;  -75.200; -381.000; -309.000
242.815; -240.500; -925.000; -899.000
242.958; -134.500; -482.000; -381.000
243.101;   46.400;  132.000;  187.000
243.244; -182.100; -564.000; -521.000
243.387;  -91.500; -313.000; -316.000
243.530; -186.300; -657.000; -674.000
243.672;   12.400;   43.000;  -92.000
243.815; -109.300; -355.000; -283.000
243.958;    8.300;   98.000;  -26.000
244.101;    4.700;   59.000;  -16.000
244.243;  -24.000;  -47.000;  101.000
244.386; -231.700; -761.000; -630.000
244.529;  -74.600; -132.000; -139.000
244.672; -306.000;-1154.000; -951.000
244.814; -214.000; -621.000; -794.000
244.957; -145.700; -380.000; -304.000
245.100; -160.000; -489.000; -489.000
245.242; -102.400; -387.000; -374.000
245.385;  -20.800;  -59.000;  -39.000
245.528; -243.700; -871.000; -705.000
245.670;  200.800;  612.000;  634.000
245.813; -182.400; -599.000; -547.000
245.956;  -44.200; -324.000; -275.000
246.098; -174.700; -508.000; -650.000
246.241;   31.000;  194.000;   48.000
246.383;  -30.800; -119.000;  -73.000
246.526; -159.400; -454.000; -525.000
246.669; -272.700; -889.000; -780.000
246.811;   49.900;  172.000;   -1.000
246.954; -131.600; -512.000; -426.000
247.096;  -33.000;  -84.000;   -6.000
247.239; -155.300; -482.000; -445.000
247.381; -158.900; -647.000; -488.000
247.524;  226.600;  645.000;  679.000
247.666;   17.500;   58.000;   11.000
247.809; -251.800; -887.000; -691.000
247.951;   -2.500;  -75.000;  138.000
248.094;   85.300;  432.000;  308.000
248.236; -338.200;-1262.000;-1238.000
248.378;  -11.800; -356.000;  -81.000
248.521;  -41.500; -334.000; -337.000
248.663;  -53.300; -236.000; -267.000
248.806;  -10.600; -300.000; -266.000
248.948; -188.200; -886.000; -763.000
249.090; -118.100; -428.000; -398.000
249.233; -100.100; -344.000; -381.000
249.375; -115.400; -474.000; -451.000
249.518;  -27.200;  -83.000; -133.000
249.660;  -22.500; -103.000;    3.000
249.802; -357.300;-1303.000;-1189.000
249.945; -162.500; -612.000; -540.000
250.087; -242.200; -834.000; -768.000
250.229; -120.900; -362.000; -480.000
250.371; -185.200; -494.000; -439.000
250.514; -101.100; -310.000; -244.000
250.656; -130.200;   69.000;  102.000
250.798; -232.600; -849.000; -800.000
250.940; -118.100; -322.000; -322.000
251.083;  -43.500; -335.000; -111.000
251.225;  142.400;  338.000;  310.000
251.367;  -67.400; -274.000; -373.000
251.509;  -76.300; -265.000; -210.000
251.651; -196.000; -731.000; -671.000
251.794;  125.700;  538.000;  632.000
251.936; -250.200; -821.000; -747.000
252.078; -161.500; -540.000; -461.000
252.220; -172.200; -645.000; -477.000
252.362;  164.900;  344.000;  462.000
252.504; -163.600; -677.000; -584.000
252.646; -218.500; -875.000; -722.000
252.788;   -4.600;   14.000; -128.000
252.931;  -70.100; -257.000; -253.000
253.073;  -82.700; -376.000; -317.000
253.215;  -28.900;  141.000;  122.000
253.357;   -4.000;   82.000; -153.000
253.499; -110.700; -374.000; -234.000
253.641; -202.500; -749.000; -594.000
253.783; -213.500; -609.000; -527.000
253.925; -193.200; -586.000; -591.000
254.067; -258.000; -744.000; -667.000
254.209;  -70.900; -391.000; -259.000
254.351; -257.400; -865.000; -883.000
254.493; -150.900; -441.000; -417.000
254.635; -243.600; -936.000; -818.000
254.777; -188.400; -752.000; -687.000
254.918; -148.100; -512.000; -430.000
255.060; -121.700; -551.000; -395.000
255.202; -124.900; -473.000; -261.000
255.344; -156.500; -658.000; -455.000
255.486; -130.300; -471.000; -406.000
255.628; -219.900; -780.000; -781.000
255.770; -166.500; -676.000; -536.000
255.912; -125.500; -559.000; -468.000
256.053; -190.900; -730.000; -508.000
256.195;  338.800; 1008.000;  903.000
256.337; -182.300; -861.000; -595.000
256.479;  131.100;  532.000;  416.000
256.621;  -90.400; -394.000; -212.000
256.762; -204.000; -789.000; -742.000
256.904;  110.700;  485.000;  487.000
257.046;  -56.300; -381.000; -271.000
257.188;  -67.900; -351.000; -264.000
257.329; -161.800; -525.000; -464.000
257.471; -233.600; -939.000; -807.000
257.613; -106.300; -584.000; -498.000
257.755; -290.100;-1073.000; -982.000
257.896;   46.800;  286.000;  392.000
258.038; -142.800; -403.000; -352.000
258.180;  -73.300; -354.000; -279.000
258.321; -174.500; -581.000; -457.000
258.463;  -10.600;  -71.000;  133.000
258.605; -187.800; -562.000; -570.000
258.746; -226.600; -886.000; -772.000
258.888; -299.000;-1026.000;-1020.000
259.029;   50.000;  121.000;   -8.000
259.171; -205.000; -614.000; -550.000
259.313;   -6.300;  -49.000;  -47.000
259.454; -146.800; -536.000; -414.000
259.596;  -86.800; -483.000; -390.000
259.737; -138.800; -590.000; -474.000
259.879;   86.900;  217.000;  311.000
260.020;  188.000;  901.000;  636.000
260.162;  -55.500; -146.000; -253.000
260.303; -219.300; -768.000; -687.000
260.445; -192.100; -609.000; -613.000
260.586;   73.700;  392.000;  157.000
260.728;  -76.400; -360.000; -248.000
260.869; -121.100; -350.000; -343.000
261.011;  143.000;  706.000;  537.000
261.152; -129.100; -479.000; -319.000
261.293; -176.000; -576.000; -595.000
261.435;  -75.100; -219.000; -184.000
261.576; -107.600; -455.000; -325.000
261.718;  143.700;  420.000;  470.000
261.859; -273.700; -940.000; -949.000
262.000; -251.400; -951.000;-1016.000
262.142;  -29.600;  -52.000;  -60.000
262.283; -218.600; -808.000; -691.000
262.424; -203.100; -666.000; -625.000
262.566; -311.000;-1161.000; -983.000
262.707; -251.400; -840.000; -830.000
262.848; -238.300; -769.000; -726.000
262.990;  -85.500; -362.000; -345.000
263.131;  203.600;  650.000;  681.000
263.272;    5.500;  -61.000;  -41.000
263.413; -200.600; -589.000; -561.000
263.555; -171.900; -669.000; -143.000
263.696; -174.400; -550.000; -641.000
263.837; -107.100; -449.000; -551.000
263.978;   14.400;   -5.000;  -77.000
264.119; -129.300; -283.000; -264.000
264.261; -233.700; -847.000; -630.000
264.402;    8.300;   33.000;   40.000
264.543; -161.100; -509.000; -524.000
264.684;  -18.300;   61.000;  -50.000
264.825; -159.300; -816.000; -538.000
264.966;  -12.000;  -84.000;  -67.000
265.107; -239.600; -646.000; -670.000
265.248; -270.100; -825.000; -812.000
265.390;  -25.900;  152.000;   -9.000
265.531;  -46.900; -238.000; -107.000
265.672; -137.400; -557.000; -630.000
265.813;  132.800;  563.000;  439.000
265.954; -274.000; -959.000; -940.000
266.095;  -11.500; -372.000; -322.000
266.236; -163.200; -686.000; -548.000
266.377;  -91.800; -243.000; -297.000
266.518; -151.700; -619.000; -547.000
266.659;   70.500;  170.000;  268.000
266.800;   35.500;   83.000;   85.000
266.941; -158.900; -487.000; -478.000
267.082;   62.100;  354.000;   99.000
267.223;  -98.700; -344.000; -273.000
267.364; -229.000; -892.000; -686.000
267.504;  -39.700;    3.000;  135.000
267.645;   11.400;  160.000;   67.000
267.786;  -40.800; -147.000;  -86.000
267.927; -128.200; -473.000; -379.000
268.068;  -28.500; -186.000;  -61.000
268.209;  -97.100; -175.000; -413.000
268.350; -140.200; -388.000; -532.000
268.490; -210.300; -648.000; -521.000
268.631;  124.900;  127.000;  225.000
268.772; -185.300; -874.000; -647.000
268.913; -101.900; -328.000; -476.000
269.054;  -20.100; -117.000;   12.000
269.194;  -63.100; -418.000; -402.000
269.335; -313.200;-1137.000;-1074.000
269.476;  -37.800;   33.000;  -35.000
269.617;  -82.800; -347.000; -392.000
269.757; -195.100; -713.000; -646.000
269.898; -208.300; -856.000; -613.000
270.039; -129.000; -415.000; -405.000
270.180; -277.600; -952.000; -816.000
270.320;  -41.000; -190.000; -250.000
270.461;  -79.900; -277.000; -249.000
270.602;  -18.400; -186.000; -156.000
270.742; -250.100; -868.000; -943.000
270.883;  -81.800; -442.000; -390.000
271.023; -118.700; -358.000; -357.000
271.164; -144.700; -607.000; -528.000
271.305; -196.100; -666.000; -654.000
271.445; -205.600; -722.000; -683.000
271.586; -122.000; -462.000; -283.000
271.726;  -72.200; -397.000; -322.000
271.867; -137.900; -594.000; -534.000
272.008;  228.600; -473.000; -285.000
272.148;  249.400;  462.000;  468.000
272.289;   -3.600; -113.000; -181.000
272.429;   46.500;   19.000;  185.000
272.570; -210.300; -633.000; -737.000
272.710; -190.300; -825.000; -775.000
272.851;  -47.300;  113.000; -130.000
272.991; -333.100;-1173.000;-1077.000
273.131; -136.000; -419.000; -459.000
273.272; -183.500; -683.000; -723.000
273.412;  -15.100; -143.000;  -31.000
273.553; -120.100; -488.000; -507.000
273.693;  292.200;  913.000;  858.000
273.834; -219.100; -894.000; -692.000
273.974; -150.700; -664.000; -615.000
274.114; -209.900; -772.000; -560.000
274.255;  140.400;  414.000;  373.000
274.395;  -20.900; -180.000; -125.000
274.535;   99.700;  199.000;  350.000
274.676;   73.700;  225.000;   94.000
274.816;    6.500;  110.000;   34.000
274.956; -167.700; -624.000; -690.000
275.097; -172.800;-1014.000; -922.000
275.237; -210.600; -913.000; -803.000
275.377; -210.300; -778.000; -689.000
275.517; -307.900; -878.000; -937.000
275.658; -138.100; -590.000; -555.000
275.798; -158.100; -606.000; -413.000
275.938;   50.200;  215.000;  323.000
276.078; -190.000; -626.000; -395.000
276.218;    2.100;   99.000;  104.000
276.359; -271.200;-1026.000;-1024.000
276.499; -133.400; -605.000; -446.000
276.639;  -94.900; -305.000; -151.000
276.779; -123.100; -475.000; -357.000
276.919; -205.800; -783.000; -624.000
277.059;  -28.400; -261.000; -212.000
277.199;  -74.300; -357.000; -259.000
277.340;  108.700;  287.000;  175.000
277.480; -250.200; -840.000; -693.000
277.620;   67.600;  192.000;   16.000
277.760; -402.300;-1533.000;-1294.000
277.900;   36.000;  113.000;   33.000
278.040;   47.600;  137.000;  159.000
278.180;   64.500;  270.000;  170.000
278.320;    3.500;   21.000;   56.000
278.460; -156.800; -443.000; -469.000
278.600; -189.700; -708.000; -598.000
278.740;  137.700;  448.000;  224.000
278.880; -189.000; -768.000; -791.000
279.020;   35.900; -194.000; -144.000
279.160; -182.500; -672.000; -595.000
279.300; -224.000; -926.000; -873.000
279.440; -179.800; -709.000; -622.000
279.579; -114.400;-1014.000; -929.000
279.719; -124.200; -410.000; -394.000
279.859;  108.700;   -4.000;   41.000
279.999;   35.400; -208.000;  101.000
280.139;  -52.100; -435.000; -387.000
280.279; -150.600; -708.000; -745.000
280.419;  -36.300; -229.000; -147.000
280.559;  -63.400; -259.000; -180.000
280.698; -211.300; -790.000; -639.000
280.838; -215.400; -778.000; -800.000
280.978; -221.200; -846.000; -790.000
281.118; -202.800; -811.000; -704.000
281.257;   23.600;   24.000;    6.000
281.397; -278.100;-1094.000; -960.000
281.537; -179.000; -599.000; -712.000
281.677;  -22.200; -150.000; -101.000
281.816; -175.800; -700.000; -630.000
281.956;  -59.800; -193.000; -257.000
282.096; -147.000; -539.000; -396.000
282.235; -202.600; -672.000; -638.000
282.375;  -12.600; -243.000;  -98.000
282.515; -220.700; -715.000; -707.000
282.654;   59.500;   29.000;  106.000
282.794;   63.200;  388.000;  244.000
282.934; -113.100; -530.000; -491.000
283.073; -276.000;-1030.000; -857.000
283.213; -112.300; -460.000; -467.000
283.353;  -83.300; -408.000; -349.000
283.492;  -60.500; -264.000; -296.000
283.632;  -93.100; -254.000; -168.000
283.771; -183.700; -859.000; -730.000
283.911;  -75.100; -369.000; -260.000
284.050; -200.200; -794.000; -748.000
284.190; -328.700;-1229.000;-1096.000
284.329; -297.400;-1055.000; -964.000
284.469; -127.900; -516.000; -591.000
284.608; -135.600; -559.000; -598.000
284.748; -140.000; -614.000; -570.000
284.887;   30.100;  -87.000;  -20.000
285.027; -231.600; -844.000; -892.000
285.166;  -54.600; -192.000; -249.000
285.306;   18.000; -116.000;  -33.000
285.445;  -59.400; -229.000; -343.000
285.584; -177.500; -630.000; -494.000
285.724;  -86.100; -282.000; -322.000
285.863; -245.000; -857.000; -507.000
286.002; -105.200; -366.000; -276.000
286.142; -213.300; -715.000; -622.000
286.281; -125.500; -525.000; -493.000
286.420; -116.800; -554.000; -417.000
286.560;  242.700;  653.000;  623.000
286.699; -281.400; -958.000; -912.000
286.838; -189.600; -590.000; -591.000
286.978; -195.400; -533.000; -537.000
287.117; -263.100;-1085.000; -950.000
287.256;  -45.000; -228.000; -211.000
287.395; -102.500; -197.000; -378.000
287.535;  -92.700; -370.000; -298.000
287.674; -132.900; -509.000; -484.000
287.813;  128.000;  661.000;  533.000
287.952; -272.200;-1010.000; -871.000
288.091; -298.000;-1049.000; -915.000
288.231;   47.400;   13.000;   15.000
288.370; -362.900;-1217.000;-1200.000
288.509; -196.200; -728.000; -645.000
288.648; -187.700; -770.000; -548.000
288.787;  -36.700; -243.000;  -87.000
288.926; -109.400; -454.000; -475.000
289.065;  264.700;  859.000;  672.000
289.204;  -98.000; -377.000; -217.000
289.344; -188.500; -791.000; -690.000
289.483;   56.800;  416.000;  304.000
289.622;  -47.000; -291.000; -149.000
289.761;  -48.700; -309.000; -166.000
289.900; -186.800; -785.000; -626.000
290.039;    2.100;  -12.000;  -95.000
290.178;  -88.500; -274.000; -180.000
290.317; -148.600; -618.000; -479.000
290.456; -141.700; -463.000; -451.000
290.595; -277.800; -961.000; -833.000
290.734; -289.500; -904.000; -891.000
290.873; -138.900; -456.000; -420.000
291.011; -256.700; -833.000; -843.000
291.150; -213.100; -770.000; -682.000
291.289;  -54.400; -343.000; -110.000
291.428; -185.300; -599.000; -480.000
291.567;  -99.200; -370.000; -442.000
291.706;   18.100;  109.000;  154.000
291.845; -171.000; -597.000; -505.000
291.984; -331.600;-1234.000;-1061.000
292.122;  148.000;  602.000;  582.000
292.261;  130.300;  620.000;  463.000
292.400;   21.900; -144.000;  211.000
292.539; -252.500; -959.000; -813.000
292.678;  -53.400; -325.000; -300.000
292.816; -321.400;-1136.000; -965.000
292.955; -187.200; -844.000; -684.000
293.094;  -48.100; -173.000; -337.000
293.233;  -91.400; -556.000; -400.000
293.371;  -46.000; -225.000;  -84.000
293.510; -218.400; -866.000; -780.000
293.649; -271.300; -959.000; -924.000
293.787; -170.500;-1083.000;-1012.000
293.926;   19.800; -113.000;  -32.000
294.065; -123.500; -379.000; -290.000
294.203;  114.400;  298.000;  406.000
294.342;   95.900;   74.000;  156.000
294.481;12542.600;51180.000; -836.000
294.619;  -83.900; -425.000; -582.000
294.758; -294.500;-1230.000;-1137.000
294.896;  103.300; -125.000;    5.000
295.035; -259.800;-1040.000;-1006.000
295.174; -262.700;-1082.000; -954.000
295.312;  -77.500; -323.000; -203.000
295.451;  -42.100; -307.000; -428.000
295.589; -100.300; -389.000; -518.000
295.728;   33.700; -292.000; -165.000
295.866;   11.100;  -36.000;  -51.000
296.005; -132.700; -584.000; -341.000
296.143; -164.500; -558.000; -596.000
296.282; -193.400; -957.000; -881.000
296.420; -161.000; -657.000; -557.000
296.559; -193.500; -892.000; -633.000
296.697;  -17.300; -847.000; -665.000
296.835;    9.700;-1141.000;-1002.000
296.974;  110.000;  -23.000;   39.000
297.112;  -28.200; -443.000; -504.000
297.251; -182.900; -815.000; -755.000
297.389;   88.100; -576.000; -438.000
297.527;   74.900; -145.000;  -83.000
297.666; -112.300; -486.000; -438.000
297.804;  -95.600; -404.000; -264.000
297.942;  -13.900; -136.000; -161.000
298.081;   39.700; -183.000;   63.000
298.219;  114.400;  -17.000;  -19.000
298.357;   72.000; -144.000;  -71.000
298.495;   -9.700; -810.000; -812.000
298.634;  131.400;  245.000;  219.000
298.772;   67.800; -220.000; -338.000
298.910;  -68.200; -309.000; -182.000
299.048;  -14.200; -130.000; -153.000
299.187;  -67.600; -350.000; -250.000
299.325;   43.700;   52.000;  122.000
299.463;   54.900; -389.000; -299.000
299.601;  136.200; -327.000; -271.000
299.739; -270.300; -908.000; -883.000
299.877; -176.900; -791.000; -703.000
300.016; -182.700;-1095.000; -935.000
300.154;  234.300;  -19.000; -161.000
300.292;   40.800; -428.000; -348.000
300.430;   24.500; -408.000; -291.000
300.568; -213.100; -940.000; -874.000
300.706; -117.000; -366.000; -469.000
300.844; -186.900;-1108.000; -979.000
300.982;  211.800;  246.000;  282.000
301.120; -227.600; -965.000; -866.000
301.258; -113.600; -812.000; -705.000
301.396;   83.700;  104.000;  -41.000
301.534;   90.200; -218.000; -293.000
301.672;  -70.200; -664.000; -521.000
301.810;   -1.200; -613.000; -545.000
301.948;  230.900;   53.000;  149.000
302.086;  843.400; -250.000;  -32.000
302.224; 1349.400; -610.000; -585.000
302.362;   29.700; -558.000; -622.000
302.500; -132.900; -923.000; -893.000
302.638;  170.000;  128.000;  245.000
302.776;    7.800; -352.000; -408.000
302.913;  100.400;  447.000;  236.000
303.051;   -6.100;  -86.000;  -23.000
303.189;  118.000;   90.000;  118.000
303.327;  -64.900; -341.000; -256.000
303.465; -129.400; -832.000; -588.000
303.603; -187.000; -805.000; -604.000
303.740;  211.400;  417.000;  241.000
303.878;  -38.800; -800.000; -759.000
304.016; -186.700; -915.000; -790.000
304.154; -262.000;-1123.000;-1152.000
304.291;  -83.300; -505.000; -554.000
304.429;   66.300;  102.000;   74.000
304.567; -292.600; -908.000; -893.000
304.705; -124.000; -408.000; -515.000
304.842;   66.500; -616.000; -540.000
304.980;  100.900;  215.000;   35.000
305.118;   59.400; -367.000; -365.000
305.255; -182.600; -945.000; -927.000
305.393;   86.800;  178.000;  239.000
305.531; -229.700;-1173.000; -956.000
305.668; -147.200; -663.000; -582.000
305.806;  172.300; -358.000; -439.000
305.943;   68.700; -629.000; -637.000
306.081;   81.300; -378.000; -267.000
306.219; -181.000; -863.000; -748.000
306.356;   60.900;  158.000;   27.000
306.494;  274.700;  981.000;  761.000
306.631;   23.600;  -11.000;  -55.000
306.769;  -11.300; -613.000; -485.000
306.906;  -18.200; -284.000; -258.000
307.044;  -87.700; -473.000; -488.000
307.181;  -96.400; -410.000; -332.000
307.319;   79.700;  112.000;   87.000
307.456; -364.800;-1191.000;-1153.000
307.594; -207.400; -980.000; -727.000
307.731;   10.300; -371.000; -164.000
307.868;   25.000;  -15.000;   20.000
308.006; -250.100; -961.000; -847.000
308.143; -129.000; -618.000; -330.000
308.281;  351.900;  -37.000; -254.000
308.418;  -15.100; -748.000; -640.000
308.555; -100.500; -400.000; -250.000
308.693; -123.600; -577.000; -573.000
308.830; -203.100; -712.000; -657.000
308.967;   -8.400; -215.000;  -95.000
309.105;  -57.300; -507.000; -396.000
309.242;   62.700; -468.000; -367.000
309.379;  699.600; -577.000; -655.000
309.517; -114.400; -936.000; -948.000
309.654; -196.800; -910.000; -734.000
309.791; -160.000; -662.000; -580.000
309.928; -224.900; -977.000; -914.000
310.065;  399.900;  819.000;  697.000
310.203;  -94.500; -825.000; -850.000
310.340;  -35.100; -465.000; -321.000
310.477; -138.500; -412.000; -516.000
310.614; -112.800; -383.000; -473.000
310.751; -104.000; -427.000; -518.000
310.889;  -37.800;    1.000;   11.000
311.026; -266.900;-1161.000; -939.000
311.163;  -85.500; -386.000; -380.000
311.300; -121.900; -512.000; -479.000
311.437; -133.200; -658.000; -619.000
311.574; -304.700;-1226.000; -985.000
311.711; -115.900; -595.000; -433.000
311.848;  -64.400; -380.000; -388.000
311.985;   39.100;  270.000;   93.000
312.122; -223.300; -932.000; -762.000
312.259; -238.000; -941.000; -994.000
312.396; -123.600; -508.000; -551.000
312.533; -173.700; -812.000; -790.000
312.670; -287.100;-1070.000; -898.000
312.807;  -71.800; -352.000; -367.000
312.944; -143.100; -513.000; -611.000
313.081;  -61.900; -150.000; -415.000
313.218; -203.500;-1111.000; -867.000
313.355;   -8.400; -531.000; -449.000
313.492;   -4.200; -455.000; -292.000
313.629;  296.500;  815.000;  735.000
313.766; -309.100;-1176.000;-1008.000
313.902;   28.900; -186.000;   21.000
314.039;  -56.100; -372.000; -289.000
314.176;   98.900;  286.000;  192.000
314.313; -118.100; -569.000; -473.000
314.450; -146.300; -788.000; -684.000
314.587;  -99.800; -468.000; -480.000
314.723;    3.000;  -78.000;  130.000
314.860;   53.400;  318.000;  332.000
314.997;   66.200;  223.000;  142.000
315.134; -101.400; -385.000; -368.000
315.270;  -48.600; -480.000; -496.000
315.407; -285.900;-1094.000; -967.000
315.544;  -99.600; -657.000; -538.000
315.681; -163.900; -681.000; -565.000
315.817;   30.000; -133.000; -176.000
315.954;  -27.800; -613.000; -392.000
316.091; -289.400;-1045.000;-1023.000
316.227;  -20.100;  -71.000; -179.000
316.364;   14.500;   23.000;    6.000
316.500;  -63.500; -113.000; -300.000
316.637;  -67.000; -181.000; -302.000
316.774; -151.900; -625.000; -358.000
316.910; -178.700; -598.000; -629.000
317.047; -141.000; -487.000; -351.000
317.183;  -97.400; -435.000; -566.000
317.320;  -16.200; -367.000; -321.000
317.456; -172.000; -733.000; -805.000
317.593; -148.300; -598.000; -641.000
317.729;   37.700;  168.000;  -67.000
317.866; -404.300;-1434.000;-1285.000
318.002; -187.600; -708.000; -948.000
318.139; -213.000; -883.000; -867.000
318.275; -197.600;-1003.000; -738.000
318.412;  -94.700; -517.000; -336.000
318.548; -102.600; -751.000; -720.000
318.685; -222.100; -985.000; -888.000
318.821; -184.300; -762.000; -735.000
318.957;  -52.200;   34.000;  -23.000
319.094;   89.100;  297.000;  154.000
319.230; -131.100; -756.000; -742.000
319.367;  171.700; -471.000; -520.000
319.503;   46.500; -538.000; -436.000
319.639; -196.100; -877.000; -793.000
319.775; -112.000; -750.000; -685.000
319.912;  -88.000; -424.000; -519.000
320.048; -195.000;-1184.000;-1184.000
320.184;  182.500;   59.000;   70.000
320.321;  -92.500; -497.000; -467.000
320.457;  137.800;  475.000;  662.000
320.593;  -97.700; -375.000; -382.000
320.729; -213.300; -732.000; -734.000
320.866; -139.100; -577.000; -635.000
321.002; -167.100; -759.000; -809.000
321.138;  -33.700; -135.000; -211.000
321.274;   76.700; -148.000; -115.000
321.410;  -96.100; -585.000; -353.000
321.546; -154.000;-1011.000; -911.000
321.683;  132.900;  400.000;  185.000
321.819;   34.200;  -48.000; -117.000
321.955; -204.600; -743.000; -722.000
322.091;  -98.400; -585.000; -540.000
322.227;  -32.400; -382.000; -202.000
322.363;  -28.500; -320.000; -215.000
322.499;  -77.600; -343.000; -331.000
322.635;  306.600;  636.000;  443.000
322.771;   64.700; -139.000;   12.000
322.907;  171.700;  129.000;  327.000
323.043;  -17.500; -115.000; -206.000
323.179;  -91.900; -394.000; -363.000
323.315;  -12.100; -401.000; -371.000
323.451;  112.600; -328.000; -236.000
323.587;   99.400;  -60.000;  -77.000
323.723;   -4.000; -682.000; -601.000
323.859;  -27.500; -258.000;  -76.000
323.995;  -75.200; -467.000; -409.000
324.131; -244.400; -967.000; -892.000
324.267;  -52.600; -254.000; -276.000
324.402; -258.800; -960.000; -983.000
324.538;  -38.100; -279.000; -104.000
324.674;   35.600;  164.000;   77.000
324.810;  204.100;  226.000;  308.000
324.946;  -41.200; -810.000; -658.000
325.082; -119.500; -568.000; -475.000
325.217;  -12.600;  -62.000;   16.000
325.353; -170.500; -764.000; -659.000
325.489; -145.000; -540.000; -506.000
325.625; -121.800; -579.000; -525.000
325.760;  137.800;  517.000;  376.000
325.896;  -72.300; -515.000; -702.000
326.032;  -87.900; -403.000; -352.000
326.168;  -88.600; -462.000; -369.000
326.303;  -99.600; -352.000; -461.000
326.439;  -49.100; -336.000; -276.000
326.575;    9.300; -190.000;  -29.000
326.710;   -6.900; -156.000;  -30.000
326.846;   21.700;  146.000;  103.000
326.982; -179.200; -530.000; -548.000
327.117; -117.000; -481.000; -442.000
327.253; -160.700; -745.000; -742.000
327.388; -255.400;-1137.000;-1153.000
327.524; -135.900; -811.000; -578.000
327.659;    4.800;  -58.000;  -22.000
327.795;    4.300;   69.000;   45.000
327.931; -197.500; -723.000; -499.000
328.066;  -19.700; -417.000; -276.000
328.202;   10.900;   12.000; -129.000
328.337;  280.300;  957.000;  713.000
328.473;   -0.500;  -12.000;  -74.000
328.608;   -9.200; -256.000; -267.000
328.743; -169.700; -799.000; -664.000
328.879;   39.500;  214.000;  114.000
329.014; -100.500; -102.000; -122.000
329.150; -154.200; -358.000; -483.000
329.285; -152.700; -465.000; -466.000
329.421;  -88.800; -548.000; -246.000
329.556;    1.900;  -36.000;   85.000
329.691; -186.700; -633.000; -615.000
329.827; -139.800; -626.000; -480.000
329.962;  -91.100;  131.000; -301.000
330.097; -172.700; -673.000; -585.000
330.233;  -58.600; -410.000; -223.000
330.368; -241.200; -839.000; -628.000
330.503;  -10.300;    3.000;   98.000
330.638;   37.900;  -93.000; -125.000
330.774; -131.300; -609.000; -530.000
330.909;  -67.400; -434.000; -244.000
331.044; -179.900; -714.000; -708.000
331.179; -343.000;-1217.000;-1109.000
331.315;   48.200;   77.000;   20.000
331.450;   22.200;  157.000;  285.000
331.585; -195.500; -805.000; -706.000
331.720; -154.400; -510.000; -460.000
331.855;  -15.400;  -35.000; -102.000
331.990;  435.700;   62.000;  138.000
332.126;  230.500; -110.000;   71.000
332.261;  -12.000; -379.000; -265.000
332.396;    0.500; -135.000; -242.000
332.531; -238.700;-1074.000;-1031.000
332.666;   22.800; -519.000; -363.000
332.801; -180.800; -726.000; -807.000
332.936;  -23.200; -192.000; -122.000
333.071; -259.200; -870.000; -817.000
333.206;   68.800;  307.000;  379.000
333.341;  101.900;  344.000;  418.000
333.476; -164.600; -627.000; -623.000
333.611;  -63.900; -251.000; -173.000
333.746;  -76.500; -381.000; -464.000
333.881; -251.900; -973.000; -935.000
334.016; -255.400; -936.000; -917.000
334.151; -233.900; -746.000; -702.000
334.286;   37.600;  152.000;  186.000
334.421;  -29.500; -125.000; -178.000
334.556; -166.100; -611.000; -567.000
334.690; -158.400; -631.000; -577.000
334.825;  112.600;  381.000;   83.000
334.960; -120.000; -285.000; -413.000
335.095;   27.900;  135.000;  -91.000
335.230; -177.000; -722.000; -738.000
335.365; -285.800;-1084.000; -990.000
335.499; -264.200;-1108.000;-1037.000
335.634;   35.600;    9.000;  534.000
335.769; -218.300; -755.000; -720.000
335.904; -126.500; -603.000; -561.000
336.038; -127.000; -735.000; -657.000
336.173; -285.800;-1206.000;-1194.000
336.308;   13.700; -116.000; -189.000
336.443;   36.200; -544.000; -634.000
336.577; -166.900; -936.000; -787.000
336.712;  124.400;   -4.000;  -12.000
336.847; -126.100; -724.000; -607.000
336.981;   79.500; -272.000; -208.000
337.116;  451.800;  615.000;  501.000
337.250;  176.500; -434.000; -421.000
337.385;  358.100; -297.000; -208.000
337.520;  114.800; -632.000; -603.000
337.654;  -46.200; -215.000; -126.000
337.789; -229.300; -989.000; -933.000
337.923;  -49.100; -104.000; -205.000
338.058; -182.900; -673.000; -738.000
338.192; -100.800; -611.000; -488.000
338.327;  -11.000;  -18.000; -155.000
338.461; -120.900; -299.000; -469.000
338.596; -206.200; -780.000; -638.000
338.730; -181.700; -767.000; -803.000
338.865;  160.700;  -46.000; -140.000
338.999; -139.400; -846.000; -702.000
339.134;  -81.700; -634.000; -536.000
339.268;  -29.800; -741.000; -603.000
339.403;  453.600; -740.000; -775.000
339.537;  115.300; -894.000; -820.000
339.671; -164.700; -829.000; -813.000
339.806; -114.700; -556.000; -512.000
339.940;   21.200; -261.000; -235.000
340.074; -199.800; -685.000; -510.000
340.209;  -62.200; -351.000; -230.000
340.343; -163.000; -517.000; -573.000
340.477;  333.800;  998.000; 1036.000
340.612; -140.700;-1033.000; -900.000
340.746;  195.600; -199.000; -243.000
340.880; -169.700; -924.000; -785.000
341.014;  -23.900;  -45.000; -154.000
341.149; -227.900; -756.000; -718.000
341.283; -206.900; -839.000; -754.000
341.417; -217.400;-1124.000; -938.000
341.551;  120.200; -768.000; -708.000
341.685;  -74.100; -633.000; -611.000
341.820; -123.800; -562.000; -493.000
341.954; -110.000; -218.000; -349.000
342.088; -283.000;-1102.000;-1019.000
342.222;  103.100;  565.000;  618.000
342.356; -129.000; -395.000; -335.000
342.490; -193.200; -880.000; -841.000
342.624;  -90.900; -339.000; -242.000
342.758;  -18.300; -364.000; -312.000
342.892; -142.100; -710.000; -585.000
343.026;  -28.500;  -58.000; -116.000
343.160; -117.100; -426.000; -376.000
343.294; -114.000; -474.000; -337.000
343.428;  -55.000; -488.000; -448.000
343.562;    2.300; -172.000;  -23.000
343.696;  -72.800; -385.000; -314.000
343.830;  -25.900; -362.000; -356.000
343.964;    3.000; -231.000; -168.000
344.098; 1334.700;  199.000;   70.000
344.232; 1100.800; -266.000; -127.000
344.366;   73.300; -567.000; -453.000
344.500;   65.100; -665.000; -744.000
344.634;   -6.400; -324.000; -164.000
344.768;  -70.800; -531.000; -341.000
344.902;   60.600;  278.000;  256.000
345.035; -134.700; -556.000; -496.000
345.169; -282.100; -933.000; -656.000
345.303;  -50.000; -308.000; -482.000
345.437; -173.400; -826.000; -717.000
345.571; -177.400; -675.000; -594.000
345.704; -108.700; -309.000; -532.000
345.838;  -43.900; -331.000; -284.000
345.972;  -86.200; -543.000; -495.000
346.106;  280.400; -179.000; -190.000
346.239;  633.500; -312.000; -243.000
346.373;   14.500; -343.000; -302.000
346.507; -287.000; -950.000; -962.000
346.640;  182.000;  -30.000;   13.000
346.774; -107.700; -650.000; -797.000
346.908;   -1.900; -138.000;  -11.000
347.041; -166.500; -646.000; -593.000
347.175;   13.100;  259.000;   27.000
347.309; -147.100; -698.000; -628.000
347.442; -191.800; -883.000; -732.000
347.576;  471.200;  670.000;  668.000
347.709;  310.700; -123.000;  -52.000
347.843; -212.900; -933.000; -825.000
347.976;   86.300;  235.000;  294.000
348.110; -365.900;-1268.000;-1186.000
348.243; -168.800; -679.000; -772.000
348.377;   19.700;  -26.000;   60.000
348.510;  121.700;  403.000;  540.000
348.644;  -26.100;  -37.000; -159.000
348.777;   43.700;  180.000;  191.000
348.911;  -76.000; -142.000; -112.000
349.044;  292.700;  471.000;  448.000
349.178;  148.400;-1069.000;-1006.000
349.311;  195.700;  141.000;  255.000
349.444;  -43.400; -927.000; -813.000
349.578;  -34.700; -347.000; -200.000
349.711; -216.800; -959.000; -862.000
349.845;  -47.500; -661.000; -591.000
349.978; -291.500;-1224.000;-1137.000
350.111; -156.400; -546.000; -612.000
350.244; -147.000; -596.000; -700.000
350.378;    4.700; -392.000; -393.000
350.511; -103.500; -393.000; -426.000
350.644; -225.600; -808.000; -806.000
350.778;   77.700;  168.000;  104.000
350.911;   43.700;  134.000;  140.000
351.044; -178.400; -685.000; -615.000
351.177;  -47.500; -321.000; -281.000
351.310;   26.400;    3.000; -131.000
351.444; -180.400; -888.000; -788.000
351.577;  204.300;  140.000;   90.000
351.710;  229.000;  593.000;  417.000
351.843;   -2.300; -165.000;  -77.000
351.976;   13.000;  149.000;  -79.000
352.109; -156.700; -621.000; -612.000
352.242;  -75.700; -464.000; -419.000
352.376; -121.500; -580.000; -636.000
352.509;  210.300; -437.000; -356.000
352.642;  -85.700; -654.000; -604.000
352.775;   88.700; -141.000;  -98.000
352.908; -222.800; -933.000; -904.000
353.041; -200.800; -814.000; -824.000
353.174; -109.500; -551.000; -424.000
353.307; -177.000; -753.000; -764.000
353.440;  143.500;  541.000;  453.000
353.573; -240.800; -957.000;-1008.000
353.706;  -66.000; -384.000; -558.000
353.839;  -31.800; -264.000; -220.000
353.971; -178.600; -657.000; -512.000
354.104; -182.200; -896.000; -835.000
354.237; -131.100; -627.000; -662.000
354.370; -157.200; -846.000; -879.000
354.503; -337.000;-1231.000;-1308.000
354.636;  -90.000; -529.000; -348.000
354.769; -255.500; -937.000; -860.000
354.902;  -29.100; -230.000; -139.000
355.034;  -30.300; -164.000; -220.000
355.167;    5.800; -262.000; -162.000
355.300; -192.500;-1061.000; -880.000
355.433; 1460.400;  -71.000;  -14.000
355.565; 2210.200; -402.000; -384.000
355.698;  561.000; -356.000; -296.000
355.831;  -49.100; -882.000; -801.000
355.964;   80.100; -285.000; -170.000
356.096; -192.000; -856.000; -843.000
356.229;  -27.400; -523.000; -530.000
356.362;  471.700; -373.000; -266.000
356.494;  889.700; -229.000; -162.000
356.627;  718.600;  269.000;  377.000
356.760;  991.500;  120.000;   53.000
356.892; 1442.400; -286.000; -601.000
357.025;  982.600;  403.000;  389.000
357.157;  847.300; -167.000; -179.000
357.290;  980.200; -856.000; -713.000
357.423;  276.800; -667.000; -556.000
357.555;  144.900; -217.000; -228.000
357.688;  135.900; -483.000; -364.000
357.820;  557.300; -870.000; -877.000
357.953; 5343.100; -563.000; -589.000
358.085; 1052.300; -632.000; -612.000
358.218; 1464.200;-1131.000; -932.000
358.350;  327.500;  -58.000;  312.000
358.483; -301.800;-1300.000;-1187.000
358.615; -134.100;-1182.000;-1078.000
358.747; -195.500;-1187.000;-1058.000
358.880;   17.500; -810.000; -744.000
359.012;  -26.200; -376.000; -202.000
359.145;  -99.300; -480.000; -511.000
359.277;    4.000; -962.000; -913.000
359.409; 4434.900;  536.000;  231.000
359.542; 1070.800; -738.000; -688.000
359.674;  107.400;   46.000;   13.000
359.806; -137.500; -565.000; -438.000
359.939; -114.600; -617.000; -516.000
360.071;  -23.600; -583.000; -579.000
360.203;  -34.000; -411.000; -364.000
360.335;   95.600;  164.000;  -16.000
360.468;  262.000; -249.000; -307.000
360.600; 3545.500; -547.000; -454.000
360.732; 4284.500; -546.000; -423.000
360.864;  474.200;-1216.000;-1044.000
360.996;  354.000; -516.000; -554.000
361.129;   47.100; -389.000; -598.000
361.261;   17.000;  110.000; -113.000
361.393;  -53.100; -252.000; -214.000
361.525;   66.100;   94.000;  244.000
361.657; -110.800; -821.000; -703.000
361.789;   10.500; -139.000; -155.000
361.921;  256.100; -642.000; -593.000
362.053;  426.600;  524.000;  541.000
362.185;  118.100;  288.000;   72.000
362.318; -163.500; -709.000; -705.000
362.450;  207.300;  294.000;  444.000
362.582;   69.800; -913.000; -870.000
362.714;  -71.600; -353.000; -332.000
362.846; -131.200; -606.000; -490.000
362.978; -250.600; -941.000; -811.000
363.109;   22.900; -161.000; -260.000
363.241;  524.200; -739.000; -749.000
363.373;  609.200; -649.000; -564.000
363.505; 1038.700; -186.000;  -91.000
363.637;  212.300; -787.000; -601.000
363.769; -266.200;-1067.000;-1080.000
363.901; -153.900; -596.000; -654.000
364.033; -259.400;-1103.000;-1062.000
364.165;   -7.600; -283.000; -283.000
364.296;  117.100; -316.000; -177.000
364.428;    9.200;-1344.000;-1220.000
364.560; -138.600; -679.000; -661.000
364.692; -124.600; -738.000; -835.000
364.824;  312.200; -588.000; -456.000
364.955;  647.600; -402.000; -564.000
365.087; 1353.800;-1097.000; -852.000
365.219;  -18.400; -686.000; -816.000
365.351; -118.900; -526.000; -572.000
365.482;  121.100;  300.000;  240.000
365.614;  -43.500; -402.000; -314.000
365.746; -165.100; -729.000; -752.000
365.877; -161.400; -706.000; -672.000
366.009;  437.500;  -35.000;  -62.000
366.141; -202.200;-1249.000;-1134.000
366.272; -189.400; -803.000; -719.000
366.404; -213.200;-1005.000; -874.000
366.535;   -5.500; -139.000;  -12.000
366.667; -202.800; -644.000; -649.000
366.799;  113.600;  353.000;  203.000
366.930; -241.500; -862.000; -996.000
367.062;  121.800; -639.000; -613.000
367.193;  184.400; -872.000; -842.000
367.325; -103.200; -580.000; -684.000
367.456;   64.000; -246.000;   31.000
367.588;  229.100; -371.000; -318.000
367.719;   65.000;  -44.000;  -45.000
367.851;  -45.800; -222.000; -241.000
367.982; -124.200; -875.000; -732.000
368.113;  119.400; -475.000; -358.000
368.245; -214.300; -960.000; -841.000
368.376;  -19.500; -254.000; -302.000
368.508;  -55.300; -188.000; -263.000
368.639; -271.000;-1166.000;-1034.000
368.770;  -68.100; -670.000; -589.000
368.902; -148.600; -836.000; -926.000
369.033; -180.900; -906.000; -855.000
369.164;  -96.200; -720.000; -653.000
369.296; -195.100; -452.000; -601.000
369.427;   18.700; -209.000; -144.000
369.558;  -72.400; -593.000; -377.000
369.689; -157.200; -721.000; -569.000
369.821; -236.000; -951.000; -845.000
369.952;  -41.000;   42.000; -108.000
370.083;  -73.800; -229.000; -108.000
370.214; -151.500; -735.000; -650.000
370.345;   32.200;   65.000;   81.000
370.477; -166.700; -810.000; -790.000
370.608;  313.600; -328.000; -264.000
370.739; -167.400;-1233.000;-1292.000
370.870; -112.700;-1102.000; -923.000
371.001;  100.200; -378.000; -467.000
371.132; -174.500; -754.000; -735.000
371.263;    1.900;  -42.000; -148.000
371.394; -247.100; -841.000; -748.000
371.525;  104.100;  345.000;  225.000
371.657; -186.000; -808.000; -670.000
371.788;  155.500;  103.000;  199.000
371.919;  263.300; -384.000; -304.000
372.050; 5354.100;  -91.000; -156.000
372.181; 1514.700; -188.000; -294.000
372.311;  547.400;   42.000; -127.000
372.442;   57.600; -457.000; -451.000
372.573;  -41.300; -444.000; -340.000
372.704; -236.100;-1008.000; -980.000
372.835;  118.200; -228.000; -289.000
372.966; -109.400; -646.000; -554.000
373.097; -136.100; -575.000; -711.000
373.228; -103.000; -717.000; -542.000
373.359;  134.100; -824.000; -536.000
373.490; 1300.700; -881.000; -727.000
373.620; 1476.400;-1001.000; -803.000
373.751; 2512.400; -332.000; -396.000
373.882; 1031.600; -663.000; -733.000
374.013;   75.700; -449.000; -262.000
374.143;  -86.200; -581.000; -659.000
374.274; -229.300; -987.000; -908.000
374.405;  227.600; -388.000; -276.000
374.536;  611.700; -526.000; -387.000
374.666; 1514.400; -759.000; -807.000
374.797;  249.400; -817.000; -868.000
374.928; 1184.500; -710.000; -560.000
375.058; 1120.400; -535.000; -500.000
375.189;   87.300;  -59.000;  -93.000
375.320; -223.500; -928.000;-1034.000
375.450; -105.800; -625.000; -616.000
375.581;  -87.500; -526.000; -436.000
375.712;  -21.000; -574.000; -250.000
375.842;  391.900; -438.000; -415.000
375.973;  242.200; -554.000; -513.000
376.103; -110.200; -665.000; -648.000
376.234; -115.900; -531.000; -552.000
376.364; -110.000; -944.000; -867.000
376.495;  531.800;  925.000;  529.000
376.625;  -38.700; -472.000; -485.000
376.756;   38.500; -709.000; -678.000
376.886; -200.100;-1178.000;-1026.000
377.017;   62.000;-1048.000;-1061.000
377.147;  471.500; -786.000; -782.000
377.278;  101.500;  174.000;  228.000
377.408; -230.700; -801.000; -815.000
377.538; -201.700; -707.000; -693.000
377.669; -143.800; -537.000; -613.000
377.799; -200.200; -645.000; -635.000
377.929; -133.400; -610.000; -428.000
378.060; -236.100; -781.000; -847.000
378.190;  -89.200; -726.000; -531.000
378.320; -102.000; -401.000; -406.000
378.451;  -11.600; -131.000;  -22.000
378.581;    4.500;  -67.000; -110.000
378.711;  315.500; 1035.000;  866.000
378.841;  -62.500; -533.000; -675.000
378.972; -162.000; -871.000; -751.000
379.102;  -71.200; -652.000; -579.000
379.232;  -21.800; -126.000;  -73.000
379.362; -227.200;-1001.000; -885.000
379.492;  -35.400; -373.000; -424.000
379.623;  187.300;    0.000;  111.000
379.753; -209.700;-1107.000; -974.000
379.883;  288.700;   59.000;  156.000
380.013;  -54.400;-1081.000;-1017.000
380.143; -226.400;-1097.000;-1056.000
380.273; -184.700; -985.000; -861.000
380.403;    8.400; -344.000; -257.000
380.533;  -92.300; -651.000; -664.000
380.663;  120.100;  173.000;  128.000
380.793; -228.700;-1027.000;-1074.000
380.923;  -10.500; -103.000;  -34.000
381.053; -201.200; -613.000; -623.000
381.183;  -34.200; -106.000; -248.000
381.313;   48.300; -656.000; -470.000
381.443;   29.900; -692.000; -473.000
381.573;  241.300; -402.000; -409.000
381.703;  258.100;-1249.000;-1095.000
381.833; -302.100;-1454.000;-1336.000
381.963;  178.300; -134.000;  -87.000
382.093; 1980.700; -925.000; -909.000
382.223;  549.600; -713.000; -602.000
382.353;  -21.200; -801.000; -608.000
382.482;  471.900;-1091.000; -964.000
382.612; 1072.500; -872.000; -644.000
382.742;  568.700; -695.000; -622.000
382.872;  292.900; -565.000; -551.000
383.002;  127.100;  347.000; -132.000
383.131;   -2.600; -226.000; -160.000
383.261; -108.400; -706.000; -768.000
383.391;  407.700; -552.000; -377.000
383.521; 5100.200;  451.000;  263.000
383.650; 1016.900; -947.000; -904.000
383.780;  -62.800; -783.000; -656.000
383.910;  267.100;  880.000;  802.000
384.039;  -46.500; -794.000; -656.000
384.169;  217.400;-1205.000;-1017.000
384.299;  -78.900; -650.000; -662.000
384.428; -179.700; -764.000; -680.000
384.558;  -67.000; -308.000; -275.000
384.687;  -82.400; -414.000; -334.000
384.817;   76.800;   75.000;   -2.000
384.947;   35.200; -234.000; -141.000
385.076;  543.900;  982.000;  912.000
385.206;  205.900;  369.000;  480.000
385.335;  -45.200; -549.000; -417.000
385.465; -134.700; -655.000; -663.000
385.594;  218.100;  -53.000;  -44.000
385.724;  528.200; -868.000; -838.000
385.853;  132.000; -296.000; -270.000
385.982; 2058.300; -743.000; -787.000
386.112; 2904.700;-1052.000; -871.000
386.241;  185.400; -307.000; -312.000
386.371;  -21.800; -174.000;  -87.000
386.500;  -47.100; -825.000; -789.000
386.629;  -33.100; -874.000; -817.000
386.759;  112.900;  -43.000;   68.000
386.888;  -11.400; -170.000; -250.000
387.017; -151.800; -648.000; -620.000
387.147; -147.000; -771.000; -798.000
387.276;  -20.000; -410.000; -397.000
387.405;    3.400; -398.000; -342.000
387.535;  -75.100; -452.000; -361.000
387.664; -130.300; -692.000; -620.000
387.793;  138.200; -198.000; -113.000
387.922;  758.500;  255.000;  200.000
388.052;   -9.700; -576.000; -423.000
388.181;  -15.000; -342.000; -472.000
388.310;  -73.800; -889.000; -710.000
388.439; -132.800; -749.000; -742.000
388.568;  318.800;  365.000;  244.000
388.697; 1513.700; -756.000; -653.000
388.826;  263.000; -768.000; -666.000
388.956;   58.700; -285.000; -307.000
389.085;  -65.000; -347.000; -287.000
389.214; -214.700; -842.000; -872.000
389.343; -113.600; -645.000; -413.000
389.472;  713.900;  126.000;  149.000
389.601;  800.100;   91.000;    0.000
389.730;  -35.500; -568.000; -687.000
389.859;  142.500;  226.000;   46.000
389.988;  263.100; -423.000; -408.000
390.117;  202.000; -168.000; -146.000
390.246;  -10.600; -331.000; -320.000
390.375;  101.100; -673.000; -626.000
390.504; -135.100; -703.000; -621.000
390.633; -165.800; -672.000; -726.000
390.761; -133.200; -732.000; -645.000
390.890;   -7.200;   -4.000; -130.000
391.019;  -51.800; -421.000; -441.000
391.148; -262.700; -826.000; -855.000
391.277; -132.100; -576.000; -493.000
391.406; -179.200; -821.000; -805.000
391.534;   72.300;  574.000; -301.000
391.663; -143.800; -583.000; -645.000
391.792; -160.500; -673.000; -701.000
391.921;  200.300;   -3.000;   15.000
392.050;  228.700; -287.000; -228.000
392.178; -166.700;-1206.000;-1061.000
392.307;  174.500; -758.000; -712.000
392.436;   54.000; -427.000; -641.000
392.564;   36.300;  166.000;   -6.000
392.693; -126.600; -860.000; -682.000
392.822;  278.600; -529.000; -534.000
392.950;   90.300; -880.000; -714.000
393.079;  462.500; -188.000; -328.000
393.208;    4.600; -488.000; -511.000
393.336;   14.300; -170.000; -145.000
393.465;  -71.600; -317.000; -199.000
393.593;   70.100;   62.000;   79.000
393.722; -300.100;-1121.000; -916.000
393.850;  -20.800; -188.000;  -61.000
393.979; -286.300; -926.000; -805.000
394.107; -119.700; -517.000; -537.000
394.236;  -76.800; -570.000; -507.000
394.364;  468.200;  383.000;  206.000
394.493;  711.500; -911.000; -767.000
394.621;  -91.300; -955.000; -916.000
394.750; 1073.400; -873.000; -923.000
394.878; 4542.500; -247.000; -149.000
395.007; 5779.000; -721.000; -807.000
395.135;  390.400; -790.000; -721.000
395.263; -203.100;-1038.000;-1040.000
395.392;   24.200;  -25.000; -107.000
395.520; -226.100; -818.000; -679.000
395.648; -192.400; -865.000; -915.000
395.777;  -49.400; -366.000; -405.000
395.905;  -63.500; -449.000; -564.000
396.033;   69.800;  217.000;  172.000
396.162; 1234.200; -399.000; -453.000
396.290; 1033.700;  -17.000;   -2.000
396.418;  152.100; -555.000; -514.000
396.546; -176.800; -571.000; -466.000
396.674; -213.800; -850.000; -878.000
396.803;   41.600;  -72.000;  -23.000
396.931;  150.600; -179.000; -199.000
397.059;  -48.800;-1026.000; -989.000
397.187; -219.100;-1026.000; -975.000
397.315; -243.400; -884.000; -649.000
397.443; -161.900; -592.000; -443.000
397.572; -156.400; -578.000; -424.000
397.700;  -77.600; -607.000; -614.000
397.828;   36.300;  120.000;  -90.000
397.956;  -85.800; -508.000; -478.000
398.084; -120.800; -767.000; -626.000
398.212;   91.000;  137.000;  124.000
398.340;   75.700;  -56.000;  159.000
398.468;   11.100; -390.000; -169.000
398.596; -260.200; -993.000; -953.000
398.724; -236.400; -762.000; -767.000
398.852; -308.200;-1024.000; -976.000
398.980; -109.200; -560.000; -560.000
399.108; -100.600; -982.000; -735.000
399.236;   34.100;   13.000;    8.000
399.363;   81.200;  222.000;  196.000
399.491; -112.700; -404.000; -398.000
399.619; -245.300; -829.000; -800.000
399.747; -200.400; -859.000; -771.000
399.875;  142.600;  220.000;  234.000
400.003;  -77.500; -359.000; -284.000
400.130; -138.400; -421.000; -341.000
400.258;    8.700;  -83.000;   38.000
400.386;  -70.700; -352.000; -168.000
400.514;  -93.000; -526.000; -587.000
400.641; -196.200; -928.000; -802.000
400.769; -257.200; -979.000; -888.000
400.897; -178.000; -838.000; -793.000
401.025;   -3.700; -166.000; -152.000
401.152;   45.500;  220.000;   38.000
401.280; -114.700; -430.000; -429.000
401.408; -222.600; -712.000; -576.000
401.535; -198.500; -735.000; -758.000
401.663; -315.700;-1134.000;-1054.000
401.790; -146.000; -514.000; -525.000
401.918;  137.400;  436.000;  405.000
402.046;  -23.100;  134.000;  122.000
402.173;  -14.000;  -18.000;    7.000
402.301;  -95.700; -519.000; -397.000
402.428;  114.600;  528.000;  383.000
402.556; -290.200;-1188.000; -913.000
402.683;   -5.500;  -20.000;   -1.000
402.811;  -21.400;  -37.000; -206.000
402.938;  -10.600;   20.000;   27.000
403.066;  267.500; -574.000; -558.000
403.193;  496.600;  299.000;  239.000
403.321;  357.200; -396.000; -574.000
403.448;  480.300;   83.000;   27.000
403.575;  226.900;  -90.000;  -46.000
403.703; -197.400; -732.000; -557.000
403.830; -103.900; -531.000; -496.000
403.957; -269.500;-1117.000;-1023.000
404.085;    7.900;  -61.000; -172.000
404.212;  161.100;  -50.000;   63.000
404.339;  392.600; -566.000; -306.000
404.467; 9082.800; -612.000; -524.000
404.594; 5336.400; -287.000; -227.000
404.721; 1148.900; -869.000; -764.000
404.848;  128.200; -113.000; -202.000
404.976; -193.800; -856.000; -783.000
405.103;   30.500;  -14.000;  -82.000
405.230;   22.500;  190.000;  226.000
405.357;   91.000;  117.000;   44.000
405.484;  421.000;  -49.000;    5.000
405.612;   50.200; -548.000; -563.000
405.739; -115.200; -488.000; -243.000
405.866;  217.400;  669.000;  385.000
405.993;  -33.000; -398.000; -102.000
406.120; -270.400; -801.000; -887.000
406.247;  -46.000; -323.000; -342.000
406.374;  672.300;  540.000;  629.000
406.501;   71.800; -632.000; -702.000
406.628; -143.600; -621.000; -589.000
406.755; -169.200; -803.000; -620.000
406.882;  -78.900; -228.000; -277.000
407.009; -192.000; -719.000; -628.000
407.136;   66.300; -480.000; -401.000
407.263;  103.500; -939.000; -829.000
407.390; -146.300; -692.000; -614.000
407.517; -308.900;-1139.000;-1187.000
407.644;  -87.600; -332.000; -256.000
407.771; -116.200; -249.000; -287.000
407.898;   53.400;  168.000;  328.000
408.025; -114.100; -421.000; -313.000
408.151;   25.600;   82.000;  153.000
408.278;  -95.700; -267.000; -216.000
408.405; -212.100; -931.000; -899.000
408.532; -128.800; -549.000; -542.000
408.659; -206.600; -677.000; -648.000
408.785; -359.200;-1298.000;-1170.000
408.912;  -68.600; -412.000; -296.000
409.039; -164.600; -610.000; -686.000
409.166; -162.500; -591.000; -555.000
409.292; -204.000; -571.000; -534.000
409.419; -194.000; -665.000; -649.000
409.546; -144.900; -431.000; -192.000
409.672; -176.500; -713.000; -545.000
409.799;  -23.000;  -36.000;   34.000
409.926;  -51.100; -180.000; -179.000
410.052; -341.800;-1127.000;-1091.000
410.179; -119.300; -368.000; -392.000
410.305; -126.600; -375.000; -493.000
410.432;  -66.300; -220.000; -333.000
410.558; -142.100; -305.000; -380.000
410.685; -143.500; -688.000; -431.000
410.812; -151.700; -409.000; -588.000
410.938; -245.800; -964.000; -808.000
411.065; -146.100; -671.000; -645.000
411.191;  -13.200; -189.000; -174.000
411.317; -209.600; -823.000; -742.000
411.444;  -64.900; -317.000; -246.000
411.570;  -86.900; -339.000; -294.000
411.697; -190.600; -758.000; -752.000
411.823; -336.200; -989.000; -999.000
411.949;   -8.100;  -56.000;   17.000
412.076; -184.600; -539.000; -519.000
412.202; -211.200; -758.000; -757.000
412.329; -233.000; -798.000; -752.000
412.455; -195.300; -821.000; -657.000
412.581;   41.000;  -15.000;  172.000
412.707;  -94.600; -540.000; -457.000
412.834;   68.500;  156.000;  219.000
412.960; -164.900; -785.000; -784.000
413.086; -204.300; -743.000; -701.000
413.212;  248.900;  604.000;  578.000
413.339; -137.800; -685.000; -701.000
413.465;  -16.500; -364.000; -310.000
413.591; -188.400; -757.000; -474.000
413.717;  -82.500; -358.000; -366.000
413.843; -229.800; -839.000; -861.000
413.969;  -60.900;  -47.000; -292.000
414.096; -177.600; -679.000; -679.000
414.222;   -6.000;  -33.000;   85.000
414.348;  -73.300; -652.000; -385.000
414.474;  154.800;   38.000;  -52.000
414.600;   24.500; -126.000; -144.000
414.726;   22.800;  -96.000;  -55.000
414.852; -108.000; -365.000; -342.000
414.978;   95.400;  104.000;  -18.000
415.104;   88.300;   38.000;   80.000
415.230;   16.500; -329.000; -330.000
415.356;   76.800; -409.000; -514.000
415.482;  340.200;   13.000;  -35.000
415.608;  400.400; -247.000; -323.000
415.734; 1560.300;   67.000;   38.000
415.860;32069.300; -875.000; -767.000
415.986;20718.200; -685.000; -607.000
416.111; 1670.900; -798.000; -652.000
416.237;  369.600; -424.000; -571.000
416.363; 1917.500; -765.000; -733.000
416.489; 6336.700; -324.000; -251.000
416.615;  581.100; -707.000; -742.000
416.741;  -43.100; -677.000; -784.000
416.866; -159.500; -673.000; -736.000
416.992; -220.000; -801.000; -818.000
417.118;  -36.000;  -41.000;  -80.000
417.244; -109.600; -798.000; -531.000
417.369; -175.900; -801.000; -612.000
417.495;  -35.100; -325.000; -254.000
417.621; -163.400;-1015.000; -803.000
417.746;  -30.900; -579.000; -572.000
417.872;  144.300; -254.000; -144.000
417.998;   53.300; -515.000; -530.000
418.123; 1730.800;-1073.000; -845.000
418.249; 8089.700; -512.000; -601.000
418.374;  985.500; -916.000; -824.000
418.500;  143.100; -383.000; -482.000
418.626;  202.900;   70.000;  -59.000
418.751;  185.600; -549.000; -448.000
418.877;  287.000; -637.000; -643.000
419.002; 3070.700; -688.000; -560.000
419.128;19411.300; -930.000; -721.000
419.253; 4146.000; -967.000; -837.000
419.379;  576.300; -391.000; -338.000
419.504;  669.600;  325.000;  415.000
419.629;  785.000; -393.000; -212.000
419.755; 6104.300; -317.000; -254.000
419.880;32700.900;  -98.000;   67.000
420.006;18109.500; -280.000; -221.000
420.131;43965.700; -662.000; -775.000
420.256; 5632.900; -315.000; -316.000
420.382;  742.000; -665.000; -687.000
420.507;   21.600; -649.000; -778.000
420.632;  186.200; -337.000; -339.000
420.758;  309.100; -251.000; -425.000
420.883; -202.700; -876.000; -672.000
421.008; -180.000; -775.000; -619.000
421.133; -140.600; -509.000; -467.000
421.259;  -74.300; -325.000; -259.000
421.384; -221.400; -834.000; -693.000
421.509;  -88.100;-1052.000; -862.000
421.634; 1610.900; -936.000; -820.000
421.759;  571.400; -359.000; -327.000
421.885; -141.500; -717.000; -656.000
422.010; -134.800; -673.000; -542.000
422.135; -264.800; -695.000; -727.000
422.260;   98.300;  340.000;  280.000
422.385;  -33.600;   12.000;  -98.000
422.510;   53.200;  151.000;  -26.000
422.635;   53.300;  -87.000;  -43.000
422.760;  101.500; -766.000; -791.000
422.885;   87.400;  -57.000;  -80.000
423.010;  -16.600; -112.000; -169.000
423.135; -181.500; -481.000; -561.000
423.260;    2.900; -150.000; -245.000
423.385;  155.700;  476.000;  222.000
423.510;   71.700;   71.000;  -22.000
423.635;  165.700;  133.000;   45.000
423.760;  158.400;  383.000;  328.000
423.885;  153.900;  336.000;  391.000
424.010;   16.600;  -68.000;  -13.000
424.135;  -21.600;    5.000;  -33.000
424.259; -135.100; -654.000; -457.000
424.384;  -88.600; -279.000; -272.000
424.509;  -29.800; -260.000; -186.000
424.634; -193.400; -761.000; -623.000
424.759;  -90.700; -688.000; -544.000
424.883;  -37.800; -506.000; -527.000
425.008;  274.800; -502.000; -410.000
425.133; 3110.200; -679.000; -653.000
425.258; 1282.000; -517.000; -381.000
425.382; 1591.800; -867.000; -774.000
425.507; 3645.300; -487.000; -543.000
425.632;  563.200; -802.000; -663.000
425.756;  707.500; -256.000; -146.000
425.881;11239.400; -831.000; -857.000
426.006;26933.700; -604.000; -355.000
426.130; 3714.700; -696.000; -508.000
426.255;  484.200; -611.000; -491.000
426.379;  241.400; -189.000; -577.000
426.504;  675.900;  660.000;  544.000
426.629; 6463.600; -519.000; -466.000
426.753; 3921.100;   64.000;  -46.000
426.878;  457.000; -252.000; -288.000
427.002;  259.200; -651.000; -668.000
427.127; 2673.000;  -35.000; -158.000
427.251;18101.200;  372.000;  401.000
427.375; 4488.500; -191.000; -173.000
427.500; 3319.100; -616.000; -610.000
427.624; 1001.800; -234.000; -400.000
427.749;  159.000; -216.000; -225.000
427.873;  -95.900; -499.000; -412.000
427.997;  -23.400; -222.000; -230.000
428.122;  190.400;  795.000;  703.000
428.246;  168.700;  433.000;  434.000
428.371; -235.200; -869.000; -773.000
428.495; -188.300; -624.000; -646.000
428.619;  -48.500; -186.000; -117.000
428.743;  105.900;   65.000;  132.000
428.868;    3.000; -732.000; -643.000
428.992; 2060.200; -219.000; -326.000
429.116;  726.100; -329.000; -357.000
429.240;  394.800;  419.000;  426.000
429.365;  -21.600; -454.000; -574.000
429.489;  -93.700; -638.000; -647.000
429.613;   46.900; -236.000; -177.000
429.737;   72.400; -563.000; -432.000
429.861;  429.300; -247.000; -133.000
429.985; 9073.000; -425.000; -305.000
430.109; 8827.300; -770.000; -908.000
430.234; 1016.100;   76.000;  -50.000
430.358;  123.800; -250.000; -160.000
430.482; -129.700; -672.000; -564.000
430.606;  -89.200; -655.000; -375.000
430.730;   17.200; -437.000; -388.000
430.854;   87.200; -909.000; -835.000
430.978; -151.000; -795.000; -764.000
431.102; -126.600; -499.000; -422.000
431.226; -218.500; -874.000; -815.000
431.350;  132.200;  345.000;  422.000
431.474; -117.500; -661.000; -373.000
431.597; -262.300;-1060.000; -848.000
431.721; -131.900; -276.000; -267.000
431.845; -219.000; -704.000; -472.000
431.969;  -98.400; -304.000; -349.000
432.093; -162.000; -395.000; -317.000
432.217;   17.600;   32.000;   82.000
432.341; -136.900; -523.000; -518.000
432.464;   38.200;   96.000;   40.000
432.588;  246.400; -401.000; -329.000
432.712;  148.500;  -52.000;  -52.000
432.836;  133.900;  213.000;  263.000
432.959;  -10.200; -372.000; -311.000
433.083;  170.000;   11.000;    2.000
433.207;  664.400;  285.000;  930.000
433.330; 8244.300; -391.000; -200.000
433.454; 9238.800; -654.000; -638.000
433.578; 5611.300;  583.000;  278.000
433.701;  838.000; -623.000; -675.000
433.825;  192.400; -292.000; -299.000
433.949;  289.900;   28.000;  -72.000
434.072;   -8.600; -410.000; -323.000
434.196;    7.900; -309.000; -117.000
434.319; 7739.200;25482.000;25124.000
434.443; 1261.100; -656.000; -603.000
434.566; 4092.700;  281.000;   62.000
434.690;  554.500; -637.000; -383.000
434.813;   49.500; -251.000; -173.000
434.937; -113.200; -569.000; -696.000
435.060;  -78.700; -423.000; -332.000
435.184;  413.600; -492.000; -217.000
435.307;  230.200;  159.000;  102.000
435.431;   40.600;  -40.000;   24.000
435.554;  -92.300; -399.000; -240.000
435.677; -144.200; -350.000; -258.000
435.801;  -41.100;  -25.000;   49.000
435.924;    8.900;    1.000;  -67.000
436.048; -250.100;-1019.000; -732.000
436.171; -101.200; -240.000;  -66.000
436.294;  -21.100; -248.000; -229.000
436.417;  112.700; -963.000; -849.000
436.541; -150.400; -814.000; -840.000
436.664;  -71.200; -242.000; -316.000
436.787;   16.200;   13.000;  113.000
436.910; -212.500; -792.000; -422.000
437.034;   35.100;  142.000;  143.000
437.157;  124.900;  -11.000;    0.000
437.280;  -94.800; -392.000; -292.000
437.403; -210.100; -982.000; -869.000
437.526;  840.000; -903.000; -865.000
437.649; 2994.500; -505.000; -332.000
437.772;  344.200; -692.000; -540.000
437.896;  259.700;  700.000;  544.000
438.019; -197.000; -758.000; -503.000
438.142; -148.300; -596.000; -506.000
438.265;  -48.100; -639.000; -670.000
438.388;  704.800; -520.000; -410.000
438.511;   72.100; -597.000; -394.000
438.634;  -70.000; -247.000; -125.000
438.757; -227.900; -693.000; -619.000
438.880;  -10.100;  -34.000;  -57.000
439.003; -122.800; -417.000; -437.000
439.126;  -93.000; -287.000; -167.000
439.248;  -87.000;  -98.000; -139.000
439.371;  -55.300;    9.000;  -53.000
439.494;  107.700;  510.000;  439.000
439.617;  -49.300;   65.000;  -88.000
439.740; -341.900; -968.000; -816.000
439.863; -239.100; -755.000; -595.000
439.986; -201.900; -476.000; -431.000
440.108;  -56.800; -161.000; -112.000
440.231; -281.300; -950.000; -836.000
440.354;  -30.100;  -64.000; -150.000
440.477;    7.300; -566.000; -542.000
440.599;  -40.500; -200.000; -225.000
440.722; -205.300; -709.000; -586.000
440.845;  178.300;  751.000;  928.000
440.968; -169.000; -415.000; -311.000
441.090;  -71.600; -199.000;  -33.000
441.213; -294.600;-1021.000; -825.000
441.336;  -65.100; -159.000;   -5.000
441.458; -112.500; -549.000; -396.000
441.581; -172.000; -628.000; -629.000
441.703;  -79.200; -152.000;   13.000
441.826; -184.500; -557.000; -400.000
441.948;  -66.100;   56.000;   51.000
442.071;  136.300;  555.000;  424.000
442.193; -203.500; -531.000; -485.000
442.316;   42.300;  152.000;   97.000
442.438;   59.400; -233.000;  -10.000
442.561;  173.000;  272.000;  262.000
442.683;  775.600; -809.000; -522.000
442.806; 1590.300;   -8.000;   74.000
442.928;  -61.400; -859.000; -604.000
443.051; -125.400; -577.000; -373.000
443.173; -142.500; -341.000; -339.000
443.295; -130.200; -263.000; -371.000
443.418;  -58.400; -321.000;  -29.000
443.540;   34.000; -106.000;   -4.000
443.662; -198.100; -563.000; -465.000
443.785;   34.900;  335.000;  199.000
443.907; -155.300; -362.000; -208.000
444.029; -214.700; -767.000; -494.000
444.152; -251.100; -644.000; -554.000
444.274;    0.200;  -18.000;  -24.000
444.396; -194.300; -461.000; -221.000
444.518; -226.200; -691.000; -454.000
444.640; -144.100; -268.000; -111.000
444.763;   43.700;  388.000;  249.000
444.885; -187.800; -432.000; -392.000
445.007;   -7.600;   35.000;   86.000
445.129; -194.100; -610.000; -515.000
445.251; -169.100; -372.000; -439.000
445.373; -231.900; -537.000; -386.000
445.495;   66.700;  242.000;  350.000
445.617;  173.800;  853.000;  753.000
445.739; -114.800; -215.000;  -97.000
445.861;  -54.800; -245.000; -112.000
445.984;  -65.800; -267.000; -101.000
446.105;  311.600; -418.000; -251.000
446.227;  842.300; -176.000;  -19.000
446.349;  -50.300; -358.000; -249.000
446.471; -169.700; -615.000; -448.000
446.593;  -89.300; -316.000;   19.000
446.715;   -5.400;  -67.000;   41.000
446.837;  175.400;  697.000;  832.000
446.959; -153.500; -457.000; -478.000
447.081; -218.400; -628.000; -518.000
447.203;  176.700;  862.000;  834.000
447.325; -109.300; -270.000;   42.000
447.446;   33.600;  286.000;  530.000
447.568; -284.200; -921.000; -803.000
447.690; -151.900; -236.000; -245.000
447.812; -248.400; -798.000; -519.000
447.933;    4.100;  155.000;  127.000
448.055; -114.300; -306.000; -261.000
448.177;  258.800;   31.000;   79.000
448.299;   46.700; -935.000; -727.000
448.420;   47.300;  -25.000;  159.000
448.542;  -39.100;   -3.000;   33.000
448.664;   27.800;  109.000;  322.000
448.785;  -32.600;  265.000;   83.000
448.907; -170.300; -614.000; -353.000
449.028;  -68.300; -771.000; -471.000
449.150;  140.500;  492.000;  589.000
449.272; -334.000;-1044.000; -913.000
449.393;  100.700;  612.000;  694.000
449.515; -215.500; -634.000; -581.000
449.636;  -35.600; -264.000; -155.000
449.758;  187.800;  763.000;  622.000
449.879; -182.100; -498.000; -396.000
450.001; -110.800; -149.000;  -49.000
450.122;   -5.600;  -95.000;  162.000
450.244;   45.700;   37.000;  364.000
450.365; -162.600; -495.000; -301.000
450.486;  -16.400;   80.000;  268.000
450.608;   77.300;  393.000;  326.000
450.729;  175.400;  578.000;  645.000
450.850;  -28.400; -574.000; -466.000
450.972; 1273.400; -552.000; -389.000
451.093; 7966.800;  190.000;  588.000
451.214; 2945.100; -516.000; -337.000
451.336;  611.900;  773.000;  579.000
451.457;  110.900;  264.000;  393.000
451.578;  -48.400; -118.000;  -74.000
451.699; -200.900; -546.000; -540.000
451.821;  -50.900; -284.000;  -50.000
451.942;   38.900;  278.000;  285.000
452.063;  121.600;  228.000;  419.000
452.184;  952.600;  -54.000;  -49.000
452.305; 1741.000;  103.000;  170.000
452.427;  120.700; -549.000; -301.000
452.548;  -12.600;   23.000;   79.000
452.669;  -80.400; -257.000;  -89.000
452.790;  -32.600;    3.000;  -18.000
452.911;   67.200;  195.000;  259.000
453.032;  -97.000; -289.000;  -60.000
453.153;  -61.400;  -29.000;   81.000
453.274;  206.800;  737.000;  868.000
453.395;  -48.800;  -51.000;  175.000
453.516;  286.800; 1317.000; 1388.000
453.637;  -74.900; -205.000; -150.000
453.758;  -60.800;   15.000;   69.000
453.879; -182.900; -462.000; -250.000
454.000;  197.300; 1086.000;  948.000
454.121; -175.900; -554.000; -326.000
454.242; -191.700; -599.000; -383.000
454.362;  -66.800;  -99.000;  114.000
454.483;  -60.600; -309.000; -229.000
454.604;  142.700;  512.000;  580.000
454.725; -229.300; -627.000; -555.000
454.846; -187.700; -474.000; -406.000
454.967;   11.300;  230.000;  539.000
455.087;  -40.500;  179.000;  153.000
455.208;   60.600;  554.000;  856.000
455.329;  -66.600;  -22.000;   82.000
455.450;  121.100;  473.000;  633.000
455.570; -116.000; -234.000; -211.000
455.691;  -51.800;  201.000;  407.000
455.812; -159.400; -270.000;  -92.000
455.932;  -45.600;  107.000;  -97.000
456.053; -115.600;   36.000;   24.000
456.173; -200.800; -433.000; -355.000
456.294; -227.900; -476.000; -303.000
456.415; -100.200;  -73.000;   70.000
456.535;   -8.900;  297.000;  273.000
456.656;  -32.800;  132.000;  240.000
456.776;  -73.700;    3.000;  298.000
456.897;   25.000;  308.000;  513.000
457.017; -126.900; -153.000;   -3.000
457.138; -192.100; -402.000; -249.000
457.258;  -33.000;  263.000;  224.000
457.379;   32.500;  509.000;  521.000
457.499;   16.300;  443.000;  432.000
457.620; -221.600; -407.000; -231.000
457.740; -118.000; -132.000;  -11.000
457.860;  -58.500;   87.000;   44.000
457.981;  -47.500;  132.000;  124.000
458.101;  -88.000;  -89.000;   40.000
458.221;   42.200;  336.000;  402.000
458.342;  -52.000;   -4.000;  -37.000
458.462;   95.100;  617.000;  352.000
458.582;  -85.200; -302.000; -294.000
458.703;   34.600;  303.000;  154.000
458.823;  -23.200;   22.000;  163.000
458.943;   66.500;  341.000;  467.000
459.063;   25.200; 1124.000;  192.000
459.183;  -12.500;  328.000;  313.000
459.304;   78.700;  315.000;  517.000
459.424;  -66.900; -246.000;  -89.000
459.544;  623.900;  388.000;  764.000
459.664; 1396.300;  499.000;  506.000
459.784;  532.000; 1004.000; 1175.000
459.904;  164.000;  867.000;  744.000
460.024;  205.400;  867.000;  684.000
460.144;   74.400;  449.000;  554.000
460.264;   21.600;  515.000;  327.000
460.385; -144.900; -145.000; -119.000
460.505;  119.200;  905.000;  858.000
460.625; -150.100;  -17.000;  -68.000
460.745;   20.200;  396.000;  541.000
460.864;  -27.100;  153.000;  469.000
460.984;   88.900;  499.000;  573.000
461.104;  334.500; 1656.000; 1775.000
461.224;   66.400;  657.000;  650.000
461.344;   -1.400;  431.000;  360.000
461.464;  -17.900;  258.000;  513.000
461.584;   -2.700;  283.000;  466.000
461.704;  -66.200;   58.000;  108.000
461.824;  -57.500;  238.000;  259.000
461.943;  -48.200;  191.000;  130.000
462.063; -120.300;    2.000;  324.000
462.183;  125.200;  639.000;  717.000
462.303;  285.000; 1678.000; 1230.000
462.422;  117.100;  781.000;  840.000
462.542;    1.500;  271.000;  391.000
462.662;  109.700;  353.000;  380.000
462.782;  460.600;  833.000;  572.000
462.901;  754.800;  545.000;  717.000
463.021;  574.900; 1702.000; 1638.000
463.141;   -7.600;  337.000;  770.000
463.260;   19.300;  614.000;  474.000
463.380;   97.300;  902.000;  884.000
463.499;  -13.500;  342.000;  332.000
463.619;   -5.400;  581.000;  559.000
463.738;  309.700; 1644.000;  903.000
463.858;  108.100;  657.000;  811.000
463.978;    7.500;  542.000;  396.000
464.097;  170.200;  921.000; 1114.000
464.217;  258.900; 1196.000; 1143.000
464.336;  285.200; 1068.000; 1130.000
464.455;   -7.800;  328.000;  659.000
464.575;   88.900;  597.000;  602.000
464.694;  325.700; 1204.000; 1179.000
464.814;  284.100; 1190.000; 1138.000
464.933;  229.200; 1095.000; 1027.000
465.052;  264.600; 1412.000; 1054.000
465.172;  179.900;  922.000;  799.000
465.291;  290.700; 1376.000; 1320.000
465.410;  100.500;  462.000;  735.000
465.530;  243.900; 1355.000; 1310.000
465.649;  225.600; 1209.000; 1273.000
465.768;  323.200; 1673.000; 1508.000
465.888;  145.100;  941.000; 1174.000
466.007;  279.800; 1335.000; 1440.000
466.126;   57.900;  721.000;  641.000
466.245;  161.700; 1176.000; 1187.000
466.364;   94.200;  950.000; 1060.000
466.484;  168.400; 1024.000; 1213.000
466.603;  127.300; 1101.000; 1222.000
466.722;  291.700; 1490.000; 1769.000
466.841;  230.000; 1151.000; 1401.000
466.960;  147.700; 1069.000;  972.000
467.079;  310.200; 1971.000; 1786.000
467.198;  148.800; 1238.000; 1181.000
467.317;  225.500; 1768.000; 1162.000
467.436;  220.700; 1709.000; 1261.000
467.555;  335.500; 1796.000; 1746.000
467.674;  185.900; 1227.000; 1329.000
467.793;  158.000; 1376.000; 1374.000
467.912;  223.900; 1658.000; 1539.000
468.031;  341.300; 2038.000; 1930.000
468.150;  337.800; 1842.000; 1837.000
468.269;  481.500; 2313.000; 2090.000
468.388;  475.900; 2168.000; 2339.000
468.507;  572.400; 2884.000; 2903.000
468.626;  634.600; 2555.000; 2541.000
468.744;  331.100; 2018.000; 2174.000
468.863;  494.400; 2312.000; 2523.000
468.982;  273.200; 1503.000; 1555.000
469.101;  539.500; 2788.000; 2692.000
469.220;  371.000; 2333.000; 2176.000
469.338;  592.100; 2935.000; 3051.000
469.457;  428.600; 2719.000; 2545.000
469.576;  821.600; 3953.000; 3784.000
469.695;  559.300; 2877.000; 3066.000
469.813;  926.800; 4148.000; 4192.000
469.932;  891.800; 4255.000; 4485.000
470.051;  867.900; 4075.000; 4161.000
470.169; 1637.300; 4470.000; 4338.000
470.288; 2508.800; 4700.000; 4809.000
470.406; 1556.300; 5059.000; 5194.000
470.525; 1294.400; 6101.000; 5787.000
470.644; 1399.200; 6847.000; 6794.000
470.762; 1707.800; 8397.000; 7873.000
470.881; 1850.000; 8651.000; 8464.000
470.999; 2156.000; 9685.000; 9151.000
471.118; 2315.600;11174.000;10711.000

