
Integration time [ms]: 100.000
Averaging Nr. [scans]: 40
Smoothing Nr. [pixels]: 0
Data measured with spectrometer [name]: 2101012U2
Wave   ;Sample   ;Dark     ;Reference
[nm]   ;[counts] ;[counts] ;[counts] 

197.733;   57.775;  516.000;  404.000
197.879;  -97.450; -610.000; -634.000
198.025;  -40.125; -475.000; -420.000
198.171;  -78.825; -602.000; -612.000
198.317;  -32.500; -401.000; -316.000
198.463;  -68.700; -655.000; -404.000
198.609;   25.250;  181.000; -137.000
198.755;  -83.650; -644.000; -410.000
198.901;  -69.200; -505.000; -424.000
199.047;  -65.425; -615.000; -488.000
199.193;  -37.900; -230.000; -468.000
199.339;  -44.750; -222.000; -369.000
199.485;   29.600;  330.000;  271.000
199.631;   20.850;  227.000;  310.000
199.777;  -42.075; -466.000; -398.000
199.923;  -71.050; -610.000; -424.000
200.069;  -10.050; -141.000;  -58.000
200.215;   53.000;  128.000;  453.000
200.361;   34.500;  243.000;  477.000
200.507;  -71.925; -600.000; -373.000
200.653;  -35.425; -371.000; -194.000
200.798;  -42.775; -215.000; -125.000
200.944;   -3.100; -146.000;  -41.000
201.090;   43.875;   61.000;  222.000
201.236;   -7.575; -116.000; -158.000
201.382;  134.325;  874.000;  903.000
201.528;   17.800;  -58.000;  -48.000
201.674;  -65.150; -386.000; -293.000
201.819;  -68.675; -540.000; -439.000
201.965;  -91.325; -699.000; -447.000
202.111;  -30.200; -273.000; -226.000
202.257;  -40.500; -250.000; -238.000
202.402;   -7.750;   13.000;  -36.000
202.548;  -32.875; -169.000; -116.000
202.694;   88.925;  410.000; -183.000
202.840;  -78.625; -603.000; -531.000
202.985;  -70.425; -681.000; -639.000
203.131; -119.825; -832.000; -666.000
203.277;  -12.950; -199.000; -262.000
203.423;  -39.200; -434.000; -520.000
203.568;  -51.550; -462.000; -237.000
203.714;  -69.300; -535.000; -542.000
203.860;  -92.825; -682.000; -641.000
204.005;   13.400;  112.000;  167.000
204.151;   83.025;  561.000;  556.000
204.296;  -52.025; -354.000; -221.000
204.442;  -70.900; -600.000; -547.000
204.588;  -86.450; -592.000; -579.000
204.733;   21.875;  178.000;  168.000
204.879; -135.350;-1018.000; -822.000
205.025;   14.050;  -99.000;  126.000
205.170;  -11.900;  -17.000;   94.000
205.316;   87.650;  438.000;  661.000
205.461;  -81.600; -698.000; -554.000
205.607;   89.925;  609.000;  665.000
205.752;  -81.400; -626.000; -551.000
205.898;  -56.675; -501.000; -391.000
206.043;  -63.350; -578.000; -506.000
206.189;  -39.150; -243.000; -285.000
206.334;   73.275;  554.000;  606.000
206.480;   84.825;  409.000;  239.000
206.625;  -86.850; -529.000; -552.000
206.771;  -31.625; -451.000; -373.000
206.916;  -38.475; -210.000; -537.000
207.062;  -74.275; -545.000; -591.000
207.207;  -72.625; -546.000; -443.000
207.353;   49.625;  185.000;  460.000
207.498;   15.575;  196.000;   85.000
207.643;  -54.550; -501.000; -370.000
207.789; -129.200;-1069.000; -910.000
207.934; -103.250; -665.000; -713.000
208.080;  -24.225; -154.000;   66.000
208.225;   -8.850;  -22.000;  -57.000
208.370;  -87.600; -727.000; -619.000
208.516;  -73.350; -741.000; -487.000
208.661;  -24.025; -127.000;  -69.000
208.806;  -21.325; -165.000; -171.000
208.952; -117.825;-1044.000; -731.000
209.097;   80.125;  378.000;  349.000
209.242;  -55.050; -307.000; -382.000
209.387;   72.600;  392.000;  350.000
209.533;  -60.575; -321.000; -350.000
209.678;   88.575;  472.000;  543.000
209.823;  -53.625; -408.000; -310.000
209.969; -103.500; -860.000; -757.000
210.114; -116.625; -907.000; -719.000
210.259; -120.425; -939.000; -889.000
210.404;  -10.075; -171.000;  103.000
210.549;    9.350;  108.000;    3.000
210.695;  -15.275;   -3.000;  -95.000
210.840;   43.825;   94.000;   67.000
210.985;  -62.600; -484.000; -303.000
211.130;   83.425;  268.000;  406.000
211.275;   22.200;  207.000;  199.000
211.420;  -48.100; -300.000; -289.000
211.566;  -70.175; -536.000; -489.000
211.711;   39.225;  218.000;  157.000
211.856;  -74.150; -545.000; -519.000
212.001;    6.225;  151.000;   44.000
212.146;   29.000;  153.000;   49.000
212.291;  -20.200; -210.000; -186.000
212.436;  -34.800; -280.000;   -6.000
212.581;  -89.625; -685.000; -653.000
212.726;  -82.675; -487.000; -538.000
212.871;  -45.525; -552.000; -217.000
213.016; -153.750;-1172.000;-1029.000
213.161;   72.825;  406.000;  291.000
213.306;  -71.475; -435.000; -577.000
213.451;  -86.600; -778.000; -689.000
213.596;  -51.950; -455.000; -347.000
213.741;  -40.925; -448.000; -538.000
213.886;  -89.275; -498.000; -517.000
214.031;  -20.350; -294.000; -124.000
214.176;  -57.875; -408.000; -341.000
214.321;  -22.150; -296.000; -157.000
214.466;  -30.700; -163.000;  -43.000
214.611;   -0.050;  -61.000;  -10.000
214.756; -129.775; -948.000; -858.000
214.901;  -13.175; -388.000; -226.000
215.046; -123.225; -797.000; -825.000
215.191;    8.900;  128.000;   35.000
215.336;   -2.750; -157.000;  -19.000
215.480;  -76.800; -684.000; -505.000
215.625;  -24.000; -175.000;  -19.000
215.770;  -90.925; -757.000; -662.000
215.915;  -15.200;   -5.000;  -97.000
216.060;   -2.575; -113.000;  -21.000
216.205; -108.500; -731.000; -779.000
216.349;  -74.000; -470.000; -533.000
216.494; -150.525; -939.000; -867.000
216.639; -115.150; -823.000; -888.000
216.784;  -87.650; -577.000; -525.000
216.929;   56.550;  392.000;  281.000
217.073;  -24.300; -244.000;  -31.000
217.218;   14.900;   78.000;  -47.000
217.363; -105.575; -656.000; -618.000
217.507;  -94.525; -623.000; -588.000
217.652; -132.625; -845.000; -874.000
217.797; -109.425; -708.000; -659.000
217.942; -108.550; -856.000; -720.000
218.086;   74.675;  608.000;  539.000
218.231;  -14.800; -174.000;  -26.000
218.376;  -32.875; -337.000; -229.000
218.520;   13.100;  -41.000;   96.000
218.665;  -49.125; -338.000; -204.000
218.810;  -52.725; -275.000; -233.000
218.954;   18.975;  201.000;   35.000
219.099; -101.225; -713.000; -963.000
219.243;  -67.225; -589.000; -554.000
219.388;  -30.500; -264.000; -136.000
219.532;   -1.500; -116.000; -116.000
219.677;  -70.775; -564.000; -521.000
219.822;    6.500;   33.000;   89.000
219.966;   -6.925;   17.000;  -99.000
220.111;  -37.025; -328.000;  -40.000
220.255; -108.375; -797.000; -750.000
220.400;  -22.700; -180.000; -146.000
220.544;  -65.150; -516.000; -450.000
220.689;  -70.575; -422.000; -451.000
220.833;   -7.800; -123.000;  -58.000
220.978;  -52.950; -393.000; -563.000
221.122;   14.250;  319.000;  307.000
221.267; -114.650; -906.000; -837.000
221.411;  -69.600; -478.000; -394.000
221.555;   -7.325; -104.000;  -23.000
221.700;  -55.700; -329.000; -222.000
221.844;   51.925;  255.000;  272.000
221.989;  -50.375; -328.000; -311.000
222.133;  -29.575; -289.000; -307.000
222.277;   -7.375;    5.000;   78.000
222.422;   14.900;  227.000;  113.000
222.566;  -36.100; -381.000; -214.000
222.711;  -55.225; -414.000; -479.000
222.855;  -83.375; -643.000; -586.000
222.999;  -92.150; -642.000; -717.000
223.144;  -41.950; -195.000; -194.000
223.288;   55.400;  423.000;  251.000
223.432;   19.500;  184.000;  230.000
223.576;   16.925;  152.000;  -21.000
223.721;   40.600;  364.000;  273.000
223.865;  -66.150; -472.000; -475.000
224.009;  243.225; 1673.000; 1631.000
224.153;  -82.500; -660.000; -671.000
224.298;  -71.100; -531.000; -489.000
224.442;  -15.050;  -74.000;  -33.000
224.586;  -20.825; -169.000; -106.000
224.730; -105.975; -858.000; -670.000
224.875; -116.925; -739.000; -688.000
225.019;   14.225;  102.000;  188.000
225.163;   55.675;  208.000;  341.000
225.307;   15.675;   97.000;  -91.000
225.451;   51.875;  360.000;  481.000
225.595;   24.625;  264.000;  176.000
225.739;  -16.800; -170.000;  -94.000
225.884;   13.150;   86.000;    5.000
226.028; -108.900; -760.000; -626.000
226.172;  -39.150; -260.000; -273.000
226.316; -127.400; -941.000; -902.000
226.460;  -61.475; -645.000; -493.000
226.604;  -54.275; -406.000; -400.000
226.748; -100.325; -836.000; -733.000
226.892;  -50.925; -227.000; -181.000
227.036;  -55.400; -537.000; -447.000
227.180;  -63.275; -551.000; -375.000
227.324;  -67.850; -561.000; -580.000
227.468; -109.925; -819.000; -717.000
227.612;    3.525;  242.000;  -28.000
227.756;  -98.550; -845.000; -698.000
227.900;   66.625;  342.000;  441.000
228.044;  -69.850; -509.000; -290.000
228.188;   64.450;  448.000;  568.000
228.332;  -97.025; -546.000; -472.000
228.476;  -18.550; -223.000; -149.000
228.620;  -23.725; -210.000; -150.000
228.764;   64.800;  431.000;  349.000
228.908;  -30.300; -155.000;   30.000
229.052;  -66.825; -615.000; -528.000
229.195;  -12.300; -172.000;   13.000
229.339;  -22.800; -235.000; -305.000
229.483;  -27.225;    5.000; -162.000
229.627;   -7.975; -156.000;  139.000
229.771;  -49.900; -218.000; -294.000
229.915;   11.775;  230.000;   79.000
230.059;  -92.575; -648.000; -663.000
230.202;  -49.575; -370.000; -317.000
230.346;  -25.925; -107.000;  107.000
230.490;  -66.425; -489.000; -521.000
230.634;  -98.500; -736.000; -553.000
230.777;   78.000;  478.000;  509.000
230.921;  -55.725; -450.000; -359.000
231.065;  -25.200; -246.000; -286.000
231.209;   23.650;  261.000;  265.000
231.352;   22.800;   54.000;   40.000
231.496;   19.875;  568.000;  188.000
231.640;  -74.900; -693.000; -621.000
231.783;   63.750;  546.000;  525.000
231.927;  -41.225; -294.000; -365.000
232.071; -133.725; -962.000; -736.000
232.214; -106.750; -980.000; -764.000
232.358;  -96.175; -683.000; -599.000
232.502;    1.150;  -19.000;    7.000
232.645; -136.125;-1090.000; -927.000
232.789;  -20.025; -257.000; -218.000
232.933;  -47.325; -407.000; -224.000
233.076; -126.950;-1038.000; -897.000
233.220;  -99.325; -752.000; -777.000
233.363;  -78.425; -669.000; -477.000
233.507;   80.575;  371.000;  129.000
233.650;  -96.100; -764.000; -834.000
233.794;   53.550;  438.000;  461.000
233.938;  -59.875; -530.000; -362.000
234.081;  -23.875;  -93.000;   31.000
234.225;  -62.100; -631.000; -539.000
234.368; -119.925; -773.000; -723.000
234.512;  -41.325; -385.000; -299.000
234.655;  -97.750; -582.000; -555.000
234.798;  -70.400; -493.000; -466.000
234.942; -127.025; -884.000;-1002.000
235.085;  -70.850; -651.000; -443.000
235.229;  -78.500; -405.000; -410.000
235.372;  -42.600; -247.000; -191.000
235.516;  -60.425; -397.000; -321.000
235.659;   13.075;   92.000;  121.000
235.802;  -22.850;  -38.000;  -22.000
235.946;   39.500;  335.000;  215.000
236.089;   20.850;  126.000;  250.000
236.233;   52.725;  275.000;  298.000
236.376;  -48.025; -235.000; -378.000
236.519;  -53.850; -297.000; -319.000
236.663;  -22.200; -215.000; -117.000
236.806; -138.425;-1029.000; -999.000
236.949;   67.250;  543.000;  431.000
237.092;   64.550;  412.000;  391.000
237.236;  -82.250; -589.000; -502.000
237.379;   70.550;  352.000;  428.000
237.522; -137.975; -879.000; -768.000
237.666;  -11.600; -271.000;   18.000
237.809; -125.075; -851.000; -823.000
237.952;   30.975;  469.000;  271.000
238.095;  -65.675; -447.000; -442.000
238.238;   91.200;  688.000;  700.000
238.382;    2.475;  166.000;  103.000
238.525;  -73.725; -598.000; -511.000
238.668; -142.800;-1060.000; -985.000
238.811;  -85.075; -638.000; -643.000
238.954;  -54.125; -483.000; -334.000
239.097;   88.425;  617.000;  664.000
239.241;   28.050;  394.000;  326.000
239.384;  -30.725; -254.000; -214.000
239.527;  -80.450; -424.000; -224.000
239.670; -156.250; -994.000;-1091.000
239.813; -107.450; -696.000; -658.000
239.956;   78.500;  579.000;  473.000
240.099; -109.875; -778.000; -725.000
240.242;   66.750;  428.000;  432.000
240.385;   50.600;  466.000;  450.000
240.528;  -64.350; -706.000; -473.000
240.671;   26.650;  189.000;  134.000
240.814;  -52.450; -441.000; -158.000
240.957;  -84.700; -767.000; -578.000
241.100;  -93.200; -779.000; -755.000
241.243; -148.250;-1234.000; -893.000
241.386;  -69.375; -508.000; -379.000
241.529;  -88.325; -735.000; -547.000
241.672;  -63.000; -566.000; -495.000
241.815; -123.425; -832.000; -808.000
241.958;  -25.200; -125.000; -182.000
242.101;  -81.875; -545.000; -390.000
242.244;  -31.825; -270.000; -325.000
242.387;  -47.600; -304.000; -246.000
242.530;   59.000;  470.000;  134.000
242.673;  -34.200; -381.000; -309.000
242.815; -118.250; -925.000; -899.000
242.958;  -69.550; -482.000; -381.000
243.101;   24.900;  132.000;  187.000
243.244;  -84.750; -564.000; -521.000
243.387;  -48.200; -313.000; -316.000
243.530;  -97.025; -657.000; -674.000
243.672;    2.025;   43.000;  -92.000
243.815;  -49.375; -355.000; -283.000
243.958;   -3.900;   98.000;  -26.000
244.101;    6.875;   59.000;  -16.000
244.243;   -3.950;  -47.000;  101.000
244.386; -124.075; -761.000; -630.000
244.529;  -27.275; -132.000; -139.000
244.672; -160.400;-1154.000; -951.000
244.814; -107.350; -621.000; -794.000
244.957;  -44.175; -380.000; -304.000
245.100;  -78.075; -489.000; -489.000
245.242;  -52.150; -387.000; -374.000
245.385;    3.550;  -59.000;  -39.000
245.528; -133.625; -871.000; -705.000
245.670;   87.575;  612.000;  634.000
245.813;  -96.100; -599.000; -547.000
245.956;  -22.600; -324.000; -275.000
246.098;  -73.225; -508.000; -650.000
246.241;   10.650;  194.000;   48.000
246.383;  -17.825; -119.000;  -73.000
246.526;  -78.750; -454.000; -525.000
246.669; -121.300; -889.000; -780.000
246.811;   17.225;  172.000;   -1.000
246.954;  -60.850; -512.000; -426.000
247.096;  -19.475;  -84.000;   -6.000
247.239;  -80.625; -482.000; -445.000
247.381;  -65.275; -647.000; -488.000
247.524;   84.300;  645.000;  679.000
247.666;  -13.450;   58.000;   11.000
247.809; -128.375; -887.000; -691.000
247.951;   -9.125;  -75.000;  138.000
248.094;   23.325;  432.000;  308.000
248.236; -171.275;-1262.000;-1238.000
248.378;   -3.675; -356.000;  -81.000
248.521;  -10.775; -334.000; -337.000
248.663;  -49.625; -236.000; -267.000
248.806;  -34.775; -300.000; -266.000
248.948; -110.675; -886.000; -763.000
249.090;  -46.275; -428.000; -398.000
249.233;  -57.325; -344.000; -381.000
249.375;  -74.550; -474.000; -451.000
249.518;  -28.350;  -83.000; -133.000
249.660;    3.825; -103.000;    3.000
249.802; -181.225;-1303.000;-1189.000
249.945;  -67.750; -612.000; -540.000
250.087; -106.175; -834.000; -768.000
250.229;  -60.925; -362.000; -480.000
250.371;  -68.625; -494.000; -439.000
250.514;  -61.025; -310.000; -244.000
250.656;  -71.100;   69.000;  102.000
250.798; -120.025; -849.000; -800.000
250.940;  -74.125; -322.000; -322.000
251.083;  -35.775; -335.000; -111.000
251.225;   58.200;  338.000;  310.000
251.367;  -61.450; -274.000; -373.000
251.509;  -34.225; -265.000; -210.000
251.651;  -86.750; -731.000; -671.000
251.794;   77.775;  538.000;  632.000
251.936; -108.300; -821.000; -747.000
252.078;  -78.925; -540.000; -461.000
252.220;  -79.800; -645.000; -477.000
252.362;   75.825;  344.000;  462.000
252.504;  -71.575; -677.000; -584.000
252.646; -120.400; -875.000; -722.000
252.788;   -5.100;   14.000; -128.000
252.931;  -43.500; -257.000; -253.000
253.073;  -27.400; -376.000; -317.000
253.215;   -4.475;  141.000;  122.000
253.357;   -2.350;   82.000; -153.000
253.499;  -67.350; -374.000; -234.000
253.641;  -94.450; -749.000; -594.000
253.783;  -89.950; -609.000; -527.000
253.925;  -90.600; -586.000; -591.000
254.067; -116.125; -744.000; -667.000
254.209;  -24.775; -391.000; -259.000
254.351; -148.450; -865.000; -883.000
254.493;  -59.575; -441.000; -417.000
254.635; -140.425; -936.000; -818.000
254.777;  -96.150; -752.000; -687.000
254.918;  -72.550; -512.000; -430.000
255.060;  -67.775; -551.000; -395.000
255.202;  -58.150; -473.000; -261.000
255.344;  -75.975; -658.000; -455.000
255.486;  -73.350; -471.000; -406.000
255.628; -106.650; -780.000; -781.000
255.770;  -95.225; -676.000; -536.000
255.912;  -69.875; -559.000; -468.000
256.053;  -95.350; -730.000; -508.000
256.195;  161.000; 1008.000;  903.000
256.337; -105.100; -861.000; -595.000
256.479;   63.000;  532.000;  416.000
256.621;  -53.725; -394.000; -212.000
256.762;  -96.175; -789.000; -742.000
256.904;   55.375;  485.000;  487.000
257.046;  -47.100; -381.000; -271.000
257.188;  -51.600; -351.000; -264.000
257.329;  -75.625; -525.000; -464.000
257.471; -128.375; -939.000; -807.000
257.613;  -77.300; -584.000; -498.000
257.755; -148.825;-1073.000; -982.000
257.896;   53.500;  286.000;  392.000
258.038;  -80.750; -403.000; -352.000
258.180;  -33.750; -354.000; -279.000
258.321;  -92.725; -581.000; -457.000
258.463;    6.675;  -71.000;  133.000
258.605; -101.100; -562.000; -570.000
258.746; -114.900; -886.000; -772.000
258.888; -159.825;-1026.000;-1020.000
259.029;   14.375;  121.000;   -8.000
259.171;  -97.025; -614.000; -550.000
259.313;    4.775;  -49.000;  -47.000
259.454;  -77.450; -536.000; -414.000
259.596;  -68.600; -483.000; -390.000
259.737;  -69.300; -590.000; -474.000
259.879;   39.425;  217.000;  311.000
260.020;   90.450;  901.000;  636.000
260.162;  -27.125; -146.000; -253.000
260.303; -125.350; -768.000; -687.000
260.445;  -82.700; -609.000; -613.000
260.586;   15.650;  392.000;  157.000
260.728;  -27.100; -360.000; -248.000
260.869; -126.375; -350.000; -343.000
261.011;   72.225;  706.000;  537.000
261.152;  -54.425; -479.000; -319.000
261.293;  -84.125; -576.000; -595.000
261.435;  -44.800; -219.000; -184.000
261.576;  -61.225; -455.000; -325.000
261.718;   57.875;  420.000;  470.000
261.859; -142.125; -940.000; -949.000
262.000; -139.725; -951.000;-1016.000
262.142;  -30.575;  -52.000;  -60.000
262.283; -129.300; -808.000; -691.000
262.424;  -97.100; -666.000; -625.000
262.566; -164.300;-1161.000; -983.000
262.707; -108.875; -840.000; -830.000
262.848; -129.150; -769.000; -726.000
262.990;  -37.175; -362.000; -345.000
263.131;   87.775;  650.000;  681.000
263.272;   -9.625;  -61.000;  -41.000
263.413;  -95.800; -589.000; -561.000
263.555;  -84.700; -669.000; -143.000
263.696;  -94.800; -550.000; -641.000
263.837;  -53.450; -449.000; -551.000
263.978;   -9.350;   -5.000;  -77.000
264.119;  -57.025; -283.000; -264.000
264.261; -116.050; -847.000; -630.000
264.402;    0.800;   33.000;   40.000
264.543;  -78.750; -509.000; -524.000
264.684;  -14.600;   61.000;  -50.000
264.825;  -86.625; -816.000; -538.000
264.966;   -4.175;  -84.000;  -67.000
265.107; -121.625; -646.000; -670.000
265.248; -121.250; -825.000; -812.000
265.390;  -13.100;  152.000;   -9.000
265.531;  -19.075; -238.000; -107.000
265.672;  -98.600; -557.000; -630.000
265.813;   64.425;  563.000;  439.000
265.954; -144.925; -959.000; -940.000
266.095;  -16.375; -372.000; -322.000
266.236; -112.425; -686.000; -548.000
266.377;  -33.275; -243.000; -297.000
266.518;  -87.750; -619.000; -547.000
266.659;   29.325;  170.000;  268.000
266.800;    8.850;   83.000;   85.000
266.941;  -73.100; -487.000; -478.000
267.082;   10.275;  354.000;   99.000
267.223;  -46.725; -344.000; -273.000
267.364; -118.525; -892.000; -686.000
267.504;   -4.550;    3.000;  135.000
267.645;   -6.550;  160.000;   67.000
267.786;  -32.400; -147.000;  -86.000
267.927;  -79.200; -473.000; -379.000
268.068;  -14.625; -186.000;  -61.000
268.209;  -53.100; -175.000; -413.000
268.350;  -58.875; -388.000; -532.000
268.490;  -91.950; -648.000; -521.000
268.631;   32.550;  127.000;  225.000
268.772; -113.175; -874.000; -647.000
268.913;  -53.575; -328.000; -476.000
269.054;  -11.375; -117.000;   12.000
269.194;  -42.375; -418.000; -402.000
269.335; -158.575;-1137.000;-1074.000
269.476;  -33.750;   33.000;  -35.000
269.617;  -55.900; -347.000; -392.000
269.757;  -97.650; -713.000; -646.000
269.898; -113.400; -856.000; -613.000
270.039;  -55.500; -415.000; -405.000
270.180; -135.125; -952.000; -816.000
270.320;  -22.725; -190.000; -250.000
270.461;  -40.500; -277.000; -249.000
270.602;  -27.375; -186.000; -156.000
270.742; -135.900; -868.000; -943.000
270.883;  -51.825; -442.000; -390.000
271.023;  -72.975; -358.000; -357.000
271.164;  -72.975; -607.000; -528.000
271.305; -105.825; -666.000; -654.000
271.445; -101.225; -722.000; -683.000
271.586;  -62.950; -462.000; -283.000
271.726;  -44.600; -397.000; -322.000
271.867;  -66.625; -594.000; -534.000
272.008;  155.925; -473.000; -285.000
272.148;  127.750;  462.000;  468.000
272.289;    2.050; -113.000; -181.000
272.429;   17.425;   19.000;  185.000
272.570;  -97.325; -633.000; -737.000
272.710;  -98.400; -825.000; -775.000
272.851;  -26.975;  113.000; -130.000
272.991; -157.775;-1173.000;-1077.000
273.131;  -61.000; -419.000; -459.000
273.272; -104.950; -683.000; -723.000
273.412;   15.775; -143.000;  -31.000
273.553;  -65.175; -488.000; -507.000
273.693;  141.850;  913.000;  858.000
273.834; -101.850; -894.000; -692.000
273.974;  -79.275; -664.000; -615.000
274.114; -101.125; -772.000; -560.000
274.255;   68.925;  414.000;  373.000
274.395;    1.325; -180.000; -125.000
274.535;   37.050;  199.000;  350.000
274.676;   25.550;  225.000;   94.000
274.816;   -2.525;  110.000;   34.000
274.956;  -83.275; -624.000; -690.000
275.097;  -73.025;-1014.000; -922.000
275.237; -122.325; -913.000; -803.000
275.377;  -91.775; -778.000; -689.000
275.517; -140.625; -878.000; -937.000
275.658;  -60.975; -590.000; -555.000
275.798;  -85.975; -606.000; -413.000
275.938;   13.550;  215.000;  323.000
276.078;  -87.325; -626.000; -395.000
276.218;    7.650;   99.000;  104.000
276.359; -138.950;-1026.000;-1024.000
276.499;  -69.900; -605.000; -446.000
276.639;  -39.750; -305.000; -151.000
276.779;  -52.250; -475.000; -357.000
276.919; -101.450; -783.000; -624.000
277.059;  -12.750; -261.000; -212.000
277.199;  -59.200; -357.000; -259.000
277.340;   36.975;  287.000;  175.000
277.480; -108.675; -840.000; -693.000
277.620;   25.975;  192.000;   16.000
277.760; -205.650;-1533.000;-1294.000
277.900;   11.100;  113.000;   33.000
278.040;   36.150;  137.000;  159.000
278.180;   46.825;  270.000;  170.000
278.320;    9.475;   21.000;   56.000
278.460;  -83.050; -443.000; -469.000
278.600; -102.825; -708.000; -598.000
278.740;   54.900;  448.000;  224.000
278.880;  -58.725; -768.000; -791.000
279.020;    8.825; -194.000; -144.000
279.160;  -89.875; -672.000; -595.000
279.300; -119.175; -926.000; -873.000
279.440;  -92.475; -709.000; -622.000
279.579;  -24.225;-1014.000; -929.000
279.719;  -54.575; -410.000; -394.000
279.859;   72.100;   -4.000;   41.000
279.999;   21.025; -208.000;  101.000
280.139;  -15.200; -435.000; -387.000
280.279;  -81.875; -708.000; -745.000
280.419;  -26.325; -229.000; -147.000
280.559;  -30.000; -259.000; -180.000
280.698; -104.825; -790.000; -639.000
280.838; -113.750; -778.000; -800.000
280.978; -100.775; -846.000; -790.000
281.118; -120.550; -811.000; -704.000
281.257;    2.225;   24.000;    6.000
281.397; -104.550;-1094.000; -960.000
281.537;  -84.600; -599.000; -712.000
281.677;  -25.125; -150.000; -101.000
281.816; -101.075; -700.000; -630.000
281.956;  -22.500; -193.000; -257.000
282.096;  -79.350; -539.000; -396.000
282.235; -117.750; -672.000; -638.000
282.375;  -16.450; -243.000;  -98.000
282.515; -112.325; -715.000; -707.000
282.654;   17.350;   29.000;  106.000
282.794;   33.425;  388.000;  244.000
282.934;  -60.325; -530.000; -491.000
283.073; -137.725;-1030.000; -857.000
283.213;  -57.775; -460.000; -467.000
283.353;  -43.350; -408.000; -349.000
283.492;  -21.300; -264.000; -296.000
283.632;  -41.525; -254.000; -168.000
283.771; -105.550; -859.000; -730.000
283.911;  -59.700; -369.000; -260.000
284.050; -105.625; -794.000; -748.000
284.190; -169.800;-1229.000;-1096.000
284.329; -135.925;-1055.000; -964.000
284.469;  -65.800; -516.000; -591.000
284.608;  -60.450; -559.000; -598.000
284.748;  -91.625; -614.000; -570.000
284.887;  -18.575;  -87.000;  -20.000
285.027; -131.725; -844.000; -892.000
285.166;  -47.375; -192.000; -249.000
285.306;   -0.350; -116.000;  -33.000
285.445;  -41.150; -229.000; -343.000
285.584;  -96.200; -630.000; -494.000
285.724;  -48.850; -282.000; -322.000
285.863; -112.950; -857.000; -507.000
286.002;  -61.700; -366.000; -276.000
286.142; -110.300; -715.000; -622.000
286.281;  -66.400; -525.000; -493.000
286.420;  -77.200; -554.000; -417.000
286.560;  109.225;  653.000;  623.000
286.699; -149.925; -958.000; -912.000
286.838;  -80.150; -590.000; -591.000
286.978; -105.125; -533.000; -537.000
287.117; -144.600;-1085.000; -950.000
287.256;  -35.825; -228.000; -211.000
287.395;  -49.925; -197.000; -378.000
287.535;  -50.800; -370.000; -298.000
287.674;  -75.650; -509.000; -484.000
287.813;   61.175;  661.000;  533.000
287.952; -132.625;-1010.000; -871.000
288.091; -160.050;-1049.000; -915.000
288.231;   20.000;   13.000;   15.000
288.370; -183.950;-1217.000;-1200.000
288.509;  -90.525; -728.000; -645.000
288.648;  -98.950; -770.000; -548.000
288.787;  -32.700; -243.000;  -87.000
288.926;  -73.275; -454.000; -475.000
289.065;  116.600;  859.000;  672.000
289.204;  -50.225; -377.000; -217.000
289.344;  -86.350; -791.000; -690.000
289.483;   22.625;  416.000;  304.000
289.622;  -22.175; -291.000; -149.000
289.761;  -29.250; -309.000; -166.000
289.900;  -95.500; -785.000; -626.000
290.039;  -26.575;  -12.000;  -95.000
290.178;  -50.025; -274.000; -180.000
290.317;  -89.450; -618.000; -479.000
290.456;  -69.400; -463.000; -451.000
290.595; -145.625; -961.000; -833.000
290.734; -149.625; -904.000; -891.000
290.873;  -78.325; -456.000; -420.000
291.011; -103.175; -833.000; -843.000
291.150; -107.425; -770.000; -682.000
291.289;  -19.925; -343.000; -110.000
291.428; -102.600; -599.000; -480.000
291.567;  -64.275; -370.000; -442.000
291.706;  -14.325;  109.000;  154.000
291.845;  -85.900; -597.000; -505.000
291.984; -173.475;-1234.000;-1061.000
292.122;   78.600;  602.000;  582.000
292.261;   59.200;  620.000;  463.000
292.400;   13.625; -144.000;  211.000
292.539; -130.700; -959.000; -813.000
292.678;  -37.550; -325.000; -300.000
292.816; -167.275;-1136.000; -965.000
292.955;  -86.225; -844.000; -684.000
293.094;  -30.425; -173.000; -337.000
293.233;  -52.775; -556.000; -400.000
293.371;  -30.675; -225.000;  -84.000
293.510; -103.875; -866.000; -780.000
293.649; -121.825; -959.000; -924.000
293.787;  -65.125;-1083.000;-1012.000
293.926;   -7.950; -113.000;  -32.000
294.065;  -54.700; -379.000; -290.000
294.203;   54.625;  298.000;  406.000
294.342;   22.250;   74.000;  156.000
294.481; 6133.800;51180.000; -836.000
294.619;  -27.200; -425.000; -582.000
294.758; -154.325;-1230.000;-1137.000
294.896;   62.950; -125.000;    5.000
295.035; -135.525;-1040.000;-1006.000
295.174; -121.775;-1082.000; -954.000
295.312;  -45.975; -323.000; -203.000
295.451;  -15.150; -307.000; -428.000
295.589;  -46.025; -389.000; -518.000
295.728;   12.650; -292.000; -165.000
295.866;    2.825;  -36.000;  -51.000
296.005;  -65.775; -584.000; -341.000
296.143;  -65.900; -558.000; -596.000
296.282; -114.150; -957.000; -881.000
296.420;  -96.525; -657.000; -557.000
296.559;  -76.050; -892.000; -633.000
296.697;   21.475; -847.000; -665.000
296.835;   42.350;-1141.000;-1002.000
296.974;   44.500;  -23.000;   39.000
297.112;   20.375; -443.000; -504.000
297.251;  -73.925; -815.000; -755.000
297.389;   87.050; -576.000; -438.000
297.527;   42.075; -145.000;  -83.000
297.666;  -47.025; -486.000; -438.000
297.804;  -41.700; -404.000; -264.000
297.942;    1.700; -136.000; -161.000
298.081;    2.150; -183.000;   63.000
298.219;   71.950;  -17.000;  -19.000
298.357;   48.650; -144.000;  -71.000
298.495;   40.075; -810.000; -812.000
298.634;   85.675;  245.000;  219.000
298.772;   46.025; -220.000; -338.000
298.910;  -38.100; -309.000; -182.000
299.048;   -8.900; -130.000; -153.000
299.187;  -27.175; -350.000; -250.000
299.325;   30.775;   52.000;  122.000
299.463;   46.675; -389.000; -299.000
299.601;  103.100; -327.000; -271.000
299.739; -107.050; -908.000; -883.000
299.877;  -75.525; -791.000; -703.000
300.016;  -66.025;-1095.000; -935.000
300.154;  157.950;  -19.000; -161.000
300.292;   49.650; -428.000; -348.000
300.430;   37.950; -408.000; -291.000
300.568; -113.275; -940.000; -874.000
300.706;  -43.700; -366.000; -469.000
300.844;  -88.625;-1108.000; -979.000
300.982;  114.375;  246.000;  282.000
301.120; -116.100; -965.000; -866.000
301.258;  -71.700; -812.000; -705.000
301.396;   15.475;  104.000;  -41.000
301.534;   80.125; -218.000; -293.000
301.672;   -3.400; -664.000; -521.000
301.810;   26.675; -613.000; -545.000
301.948;  115.300;   53.000;  149.000
302.086;  569.175; -250.000;  -32.000
302.224;  915.325; -610.000; -585.000
302.362;   29.425; -558.000; -622.000
302.500;  -34.850; -923.000; -893.000
302.638;   99.425;  128.000;  245.000
302.776;   -2.150; -352.000; -408.000
302.913;   52.500;  447.000;  236.000
303.051;   -5.250;  -86.000;  -23.000
303.189;   50.050;   90.000;  118.000
303.327;  -37.950; -341.000; -256.000
303.465;  -91.775; -832.000; -588.000
303.603; -104.550; -805.000; -604.000
303.740;   99.850;  417.000;  241.000
303.878;   20.300; -800.000; -759.000
304.016;  -91.500; -915.000; -790.000
304.154; -138.975;-1123.000;-1152.000
304.291;  -34.225; -505.000; -554.000
304.429;   24.875;  102.000;   74.000
304.567; -122.125; -908.000; -893.000
304.705;  -54.525; -408.000; -515.000
304.842;   91.400; -616.000; -540.000
304.980;   46.250;  215.000;   35.000
305.118;   43.925; -367.000; -365.000
305.255;  -77.875; -945.000; -927.000
305.393;   58.125;  178.000;  239.000
305.531; -115.150;-1173.000; -956.000
305.668;  -56.100; -663.000; -582.000
305.806;   83.800; -358.000; -439.000
305.943;   86.800; -629.000; -637.000
306.081;   61.000; -378.000; -267.000
306.219; -115.300; -863.000; -748.000
306.356;   -4.125;  158.000;   27.000
306.494;  111.775;  981.000;  761.000
306.631;    5.975;  -11.000;  -55.000
306.769;   -6.750; -613.000; -485.000
306.906;  -34.300; -284.000; -258.000
307.044;  -65.600; -473.000; -488.000
307.181;  -65.600; -410.000; -332.000
307.319;   13.225;  112.000;   87.000
307.456; -179.300;-1191.000;-1153.000
307.594; -100.200; -980.000; -727.000
307.731;  -20.275; -371.000; -164.000
307.868;    5.825;  -15.000;   20.000
308.006; -138.850; -961.000; -847.000
308.143;  -79.150; -618.000; -330.000
308.281;  106.200;  -37.000; -254.000
308.418;  -40.625; -748.000; -640.000
308.555;  -84.850; -400.000; -250.000
308.693;  -70.975; -577.000; -573.000
308.830; -122.500; -712.000; -657.000
308.967;  -18.100; -215.000;  -95.000
309.105;  -49.875; -507.000; -396.000
309.242;   28.200; -468.000; -367.000
309.379;  192.050; -577.000; -655.000
309.517;  -72.575; -936.000; -948.000
309.654; -112.250; -910.000; -734.000
309.791;  -75.125; -662.000; -580.000
309.928; -116.950; -977.000; -914.000
310.065;  188.575;  819.000;  697.000
310.203;  -17.275; -825.000; -850.000
310.340;   -9.425; -465.000; -321.000
310.477;  -84.375; -412.000; -516.000
310.614;  -77.450; -383.000; -473.000
310.751;  -81.125; -427.000; -518.000
310.889;  -14.725;    1.000;   11.000
311.026; -150.725;-1161.000; -939.000
311.163;  -46.575; -386.000; -380.000
311.300;  -83.300; -512.000; -479.000
311.437;  -78.925; -658.000; -619.000
311.574; -168.225;-1226.000; -985.000
311.711;  -39.025; -595.000; -433.000
311.848;  -40.500; -380.000; -388.000
311.985;   13.350;  270.000;   93.000
312.122; -131.225; -932.000; -762.000
312.259; -118.700; -941.000; -994.000
312.396;  -66.875; -508.000; -551.000
312.533;  -88.850; -812.000; -790.000
312.670; -140.325;-1070.000; -898.000
312.807;  -27.875; -352.000; -367.000
312.944;  -73.400; -513.000; -611.000
313.081;  -26.825; -150.000; -415.000
313.218; -105.975;-1111.000; -867.000
313.355;    7.225; -531.000; -449.000
313.492;    5.025; -455.000; -292.000
313.629;  141.375;  815.000;  735.000
313.766; -157.075;-1176.000;-1008.000
313.902;  -18.200; -186.000;   21.000
314.039;  -39.750; -372.000; -289.000
314.176;   30.300;  286.000;  192.000
314.313;  -76.800; -569.000; -473.000
314.450;  -79.600; -788.000; -684.000
314.587;  -60.725; -468.000; -480.000
314.723;   15.625;  -78.000;  130.000
314.860;   53.750;  318.000;  332.000
314.997;   25.775;  223.000;  142.000
315.134;  -46.375; -385.000; -368.000
315.270;  -28.550; -480.000; -496.000
315.407; -132.600;-1094.000; -967.000
315.544;  -52.725; -657.000; -538.000
315.681;  -68.700; -681.000; -565.000
315.817;   32.150; -133.000; -176.000
315.954;    6.725; -613.000; -392.000
316.091; -123.050;-1045.000;-1023.000
316.227;  -34.225;  -71.000; -179.000
316.364;   -3.075;   23.000;    6.000
316.500;  -46.325; -113.000; -300.000
316.637;  -51.250; -181.000; -302.000
316.774;  -93.975; -625.000; -358.000
316.910; -104.825; -598.000; -629.000
317.047;  -74.600; -487.000; -351.000
317.183;  -50.325; -435.000; -566.000
317.320;  -22.525; -367.000; -321.000
317.456;  -78.850; -733.000; -805.000
317.593;  -89.400; -598.000; -641.000
317.729;   11.025;  168.000;  -67.000
317.866; -205.775;-1434.000;-1285.000
318.002;  -98.700; -708.000; -948.000
318.139; -108.775; -883.000; -867.000
318.275; -107.850;-1003.000; -738.000
318.412;  -70.550; -517.000; -336.000
318.548;  -32.250; -751.000; -720.000
318.685; -102.675; -985.000; -888.000
318.821; -106.300; -762.000; -735.000
318.957;  -13.425;   34.000;  -23.000
319.094;   36.250;  297.000;  154.000
319.230;  -70.150; -756.000; -742.000
319.367;  117.050; -471.000; -520.000
319.503;   42.450; -538.000; -436.000
319.639; -111.975; -877.000; -793.000
319.775;  -57.025; -750.000; -685.000
319.912;  -61.200; -424.000; -519.000
320.048;  -90.375;-1184.000;-1184.000
320.184;   65.900;   59.000;   70.000
320.321;  -68.225; -497.000; -467.000
320.457;   66.350;  475.000;  662.000
320.593;  -63.400; -375.000; -382.000
320.729;  -97.900; -732.000; -734.000
320.866;  -83.750; -577.000; -635.000
321.002;  -90.350; -759.000; -809.000
321.138;  -20.675; -135.000; -211.000
321.274;   67.375; -148.000; -115.000
321.410;  -16.875; -585.000; -353.000
321.546;  -35.725;-1011.000; -911.000
321.683;   42.400;  400.000;  185.000
321.819;    2.500;  -48.000; -117.000
321.955; -109.950; -743.000; -722.000
322.091;  -43.125; -585.000; -540.000
322.227;  -15.425; -382.000; -202.000
322.363;  -19.175; -320.000; -215.000
322.499;  -53.525; -343.000; -331.000
322.635;  162.625;  636.000;  443.000
322.771;   24.300; -139.000;   12.000
322.907;   94.450;  129.000;  327.000
323.043;  -33.425; -115.000; -206.000
323.179;  -23.475; -394.000; -363.000
323.315;   12.800; -401.000; -371.000
323.451;  108.625; -328.000; -236.000
323.587;   57.225;  -60.000;  -77.000
323.723;   21.075; -682.000; -601.000
323.859;  -12.725; -258.000;  -76.000
323.995;  -49.350; -467.000; -409.000
324.131; -123.750; -967.000; -892.000
324.267;  -42.375; -254.000; -276.000
324.402; -139.450; -960.000; -983.000
324.538;  -10.450; -279.000; -104.000
324.674;    1.850;  164.000;   77.000
324.810;  123.025;  226.000;  308.000
324.946;   -3.800; -810.000; -658.000
325.082;  -64.675; -568.000; -475.000
325.217;   -2.650;  -62.000;   16.000
325.353;  -99.675; -764.000; -659.000
325.489;  -89.225; -540.000; -506.000
325.625;  -74.850; -579.000; -525.000
325.760;   74.050;  517.000;  376.000
325.896;  -26.325; -515.000; -702.000
326.032;  -63.575; -403.000; -352.000
326.168;  -66.075; -462.000; -369.000
326.303;  -61.875; -352.000; -461.000
326.439;   -7.550; -336.000; -276.000
326.575;   14.325; -190.000;  -29.000
326.710;   -7.075; -156.000;  -30.000
326.846;   -6.725;  146.000;  103.000
326.982;  -99.625; -530.000; -548.000
327.117;  -76.650; -481.000; -442.000
327.253;  -95.200; -745.000; -742.000
327.388; -144.375;-1137.000;-1153.000
327.524;  -52.400; -811.000; -578.000
327.659;  -22.450;  -58.000;  -22.000
327.795;  -10.625;   69.000;   45.000
327.931; -100.125; -723.000; -499.000
328.066;  -46.275; -417.000; -276.000
328.202;  -30.500;   12.000; -129.000
328.337;  100.275;  957.000;  713.000
328.473;   19.525;  -12.000;  -74.000
328.608;  -24.150; -256.000; -267.000
328.743;  -85.750; -799.000; -664.000
328.879;    6.750;  214.000;  114.000
329.014;  -40.650; -102.000; -122.000
329.150;  -81.325; -358.000; -483.000
329.285;  -65.275; -465.000; -466.000
329.421;  -37.525; -548.000; -246.000
329.556;  -27.125;  -36.000;   85.000
329.691;  -89.150; -633.000; -615.000
329.827;  -85.800; -626.000; -480.000
329.962;  -45.300;  131.000; -301.000
330.097;  -99.900; -673.000; -585.000
330.233;  -47.075; -410.000; -223.000
330.368; -128.925; -839.000; -628.000
330.503;  -12.900;    3.000;   98.000
330.638;   -1.625;  -93.000; -125.000
330.774;  -52.450; -609.000; -530.000
330.909;  -59.100; -434.000; -244.000
331.044;  -99.275; -714.000; -708.000
331.179; -185.600;-1217.000;-1109.000
331.315;   12.050;   77.000;   20.000
331.450;   14.075;  157.000;  285.000
331.585;  -80.400; -805.000; -706.000
331.720;  -82.850; -510.000; -460.000
331.855;  -13.025;  -35.000; -102.000
331.990;  236.225;   62.000;  138.000
332.126;  112.375; -110.000;   71.000
332.261;  -21.800; -379.000; -265.000
332.396;    2.275; -135.000; -242.000
332.531; -104.925;-1074.000;-1031.000
332.666;   29.625; -519.000; -363.000
332.801; -102.850; -726.000; -807.000
332.936;  -12.375; -192.000; -122.000
333.071; -143.125; -870.000; -817.000
333.206;   19.525;  307.000;  379.000
333.341;   37.400;  344.000;  418.000
333.476;  -78.200; -627.000; -623.000
333.611;  -32.625; -251.000; -173.000
333.746;  -34.725; -381.000; -464.000
333.881; -119.225; -973.000; -935.000
334.016; -119.400; -936.000; -917.000
334.151; -130.275; -746.000; -702.000
334.286;   23.100;  152.000;  186.000
334.421;  -21.125; -125.000; -178.000
334.556;  -76.200; -611.000; -567.000
334.690;  -78.475; -631.000; -577.000
334.825;   57.300;  381.000;   83.000
334.960;  -70.200; -285.000; -413.000
335.095;    6.025;  135.000;  -91.000
335.230;  -95.300; -722.000; -738.000
335.365; -131.650;-1084.000; -990.000
335.499; -129.425;-1108.000;-1037.000
335.634;   23.125;    9.000;  534.000
335.769; -113.250; -755.000; -720.000
335.904;  -42.100; -603.000; -561.000
336.038;  -57.925; -735.000; -657.000
336.173; -114.725;-1206.000;-1194.000
336.308;    4.550; -116.000; -189.000
336.443;   33.125; -544.000; -634.000
336.577;  -82.275; -936.000; -787.000
336.712;   82.375;   -4.000;  -12.000
336.847;  -45.500; -724.000; -607.000
336.981;   80.275; -272.000; -208.000
337.116;  289.975;  615.000;  501.000
337.250;  156.825; -434.000; -421.000
337.385;  243.500; -297.000; -208.000
337.520;   73.975; -632.000; -603.000
337.654;  -42.150; -215.000; -126.000
337.789; -128.975; -989.000; -933.000
337.923;  -41.275; -104.000; -205.000
338.058;  -98.400; -673.000; -738.000
338.192;  -24.925; -611.000; -488.000
338.327;  -10.500;  -18.000; -155.000
338.461;  -94.275; -299.000; -469.000
338.596;  -84.875; -780.000; -638.000
338.730; -111.025; -767.000; -803.000
338.865;   83.125;  -46.000; -140.000
338.999;  -76.275; -846.000; -702.000
339.134;  -20.675; -634.000; -536.000
339.268;   -3.975; -741.000; -603.000
339.403;  333.850; -740.000; -775.000
339.537;   99.975; -894.000; -820.000
339.671; -121.975; -829.000; -813.000
339.806;  -67.500; -556.000; -512.000
339.940;   15.250; -261.000; -235.000
340.074;  -97.475; -685.000; -510.000
340.209;  -51.125; -351.000; -230.000
340.343;  -93.000; -517.000; -573.000
340.477;  155.700;  998.000; 1036.000
340.612;  -61.500;-1033.000; -900.000
340.746;  120.125; -199.000; -243.000
340.880;  -75.825; -924.000; -785.000
341.014;  -14.350;  -45.000; -154.000
341.149; -125.775; -756.000; -718.000
341.283; -114.825; -839.000; -754.000
341.417; -109.550;-1124.000; -938.000
341.551;  124.250; -768.000; -708.000
341.685;  -31.600; -633.000; -611.000
341.820;  -51.400; -562.000; -493.000
341.954;  -57.425; -218.000; -349.000
342.088; -153.750;-1102.000;-1019.000
342.222;   48.725;  565.000;  618.000
342.356;  -53.375; -395.000; -335.000
342.490; -114.825; -880.000; -841.000
342.624;  -50.950; -339.000; -242.000
342.758;   -0.975; -364.000; -312.000
342.892;  -71.625; -710.000; -585.000
343.026;  -42.175;  -58.000; -116.000
343.160;  -61.375; -426.000; -376.000
343.294;  -81.125; -474.000; -337.000
343.428;  -24.875; -488.000; -448.000
343.562;  -11.650; -172.000;  -23.000
343.696;  -37.725; -385.000; -314.000
343.830;  -22.200; -362.000; -356.000
343.964;    5.250; -231.000; -168.000
344.098;  880.925;  199.000;   70.000
344.232;  750.350; -266.000; -127.000
344.366;   72.325; -567.000; -453.000
344.500;   29.225; -665.000; -744.000
344.634;   22.500; -324.000; -164.000
344.768;   -6.550; -531.000; -341.000
344.902;   24.650;  278.000;  256.000
345.035;  -73.450; -556.000; -496.000
345.169; -146.700; -933.000; -656.000
345.303;  -30.550; -308.000; -482.000
345.437;  -79.650; -826.000; -717.000
345.571;  -74.825; -675.000; -594.000
345.704;  -62.075; -309.000; -532.000
345.838;  -17.850; -331.000; -284.000
345.972;  -44.300; -543.000; -495.000
346.106;  171.350; -179.000; -190.000
346.239;  398.125; -312.000; -243.000
346.373;    1.600; -343.000; -302.000
346.507; -150.200; -950.000; -962.000
346.640;  145.450;  -30.000;   13.000
346.774;  -63.650; -650.000; -797.000
346.908;  -10.000; -138.000;  -11.000
347.041;  -90.375; -646.000; -593.000
347.175;    5.100;  259.000;   27.000
347.309;  -73.350; -698.000; -628.000
347.442;  -98.100; -883.000; -732.000
347.576;  270.175;  670.000;  668.000
347.709;  203.875; -123.000;  -52.000
347.843;  -92.800; -933.000; -825.000
347.976;   34.300;  235.000;  294.000
348.110; -185.725;-1268.000;-1186.000
348.243;  -93.750; -679.000; -772.000
348.377;  -16.875;  -26.000;   60.000
348.510;   38.325;  403.000;  540.000
348.644;  -47.400;  -37.000; -159.000
348.777;   -9.050;  180.000;  191.000
348.911;  -66.450; -142.000; -112.000
349.044;  160.875;  471.000;  448.000
349.178;  139.050;-1069.000;-1006.000
349.311;  112.350;  141.000;  255.000
349.444;  -10.825; -927.000; -813.000
349.578;  -10.775; -347.000; -200.000
349.711; -117.225; -959.000; -862.000
349.845;  -19.000; -661.000; -591.000
349.978; -154.200;-1224.000;-1137.000
350.111;  -86.050; -546.000; -612.000
350.244;  -78.875; -596.000; -700.000
350.378;   10.475; -392.000; -393.000
350.511;  -90.850; -393.000; -426.000
350.644; -111.975; -808.000; -806.000
350.778;   -5.675;  168.000;  104.000
350.911;   -7.325;  134.000;  140.000
351.044;  -95.725; -685.000; -615.000
351.177;  -29.250; -321.000; -281.000
351.310;  -20.800;    3.000; -131.000
351.444;  -87.200; -888.000; -788.000
351.577;  111.325;  140.000;   90.000
351.710;   99.825;  593.000;  417.000
351.843;  -33.000; -165.000;  -77.000
351.976;  -13.825;  149.000;  -79.000
352.109; -110.475; -621.000; -612.000
352.242;  -17.150; -464.000; -419.000
352.376;  -59.325; -580.000; -636.000
352.509;  173.675; -437.000; -356.000
352.642;   -9.400; -654.000; -604.000
352.775;   53.675; -141.000;  -98.000
352.908; -112.650; -933.000; -904.000
353.041; -115.625; -814.000; -824.000
353.174;  -58.900; -551.000; -424.000
353.307;  -76.075; -753.000; -764.000
353.440;   82.025;  541.000;  453.000
353.573; -107.300; -957.000;-1008.000
353.706;  -19.475; -384.000; -558.000
353.839;  -14.875; -264.000; -220.000
353.971;  -96.075; -657.000; -512.000
354.104;  -92.325; -896.000; -835.000
354.237;  -38.350; -627.000; -662.000
354.370;  -89.525; -846.000; -879.000
354.503; -195.150;-1231.000;-1308.000
354.636;  -32.375; -529.000; -348.000
354.769; -136.125; -937.000; -860.000
354.902;  -15.350; -230.000; -139.000
355.034;  -18.125; -164.000; -220.000
355.167;  -11.100; -262.000; -162.000
355.300;  -96.975;-1061.000; -880.000
355.433;  939.850;  -71.000;  -14.000
355.565; 1445.325; -402.000; -384.000
355.698;  353.100; -356.000; -296.000
355.831;  -10.500; -882.000; -801.000
355.964;   67.425; -285.000; -170.000
356.096;  -79.650; -856.000; -843.000
356.229;  -13.475; -523.000; -530.000
356.362;  298.725; -373.000; -266.000
356.494;  559.150; -229.000; -162.000
356.627;  475.225;  269.000;  377.000
356.760;  639.850;  120.000;   53.000
356.892;  903.650; -286.000; -601.000
357.025;  661.150;  403.000;  389.000
357.157;  579.100; -167.000; -179.000
357.290;  617.300; -856.000; -713.000
357.423;  192.000; -667.000; -556.000
357.555;  119.025; -217.000; -228.000
357.688;  111.075; -483.000; -364.000
357.820;  435.600; -870.000; -877.000
357.953; 3541.225; -563.000; -589.000
358.085;  773.525; -632.000; -612.000
358.218; 1143.750;-1131.000; -932.000
358.350;  212.925;  -58.000;  312.000
358.483; -118.350;-1300.000;-1187.000
358.615;   -9.125;-1182.000;-1078.000
358.747;  -70.575;-1187.000;-1058.000
358.880;   24.450; -810.000; -744.000
359.012;  -13.075; -376.000; -202.000
359.145;  -43.125; -480.000; -511.000
359.277;   49.125; -962.000; -913.000
359.409; 2932.950;  536.000;  231.000
359.542;  758.525; -738.000; -688.000
359.674;   59.625;   46.000;   13.000
359.806;  -45.525; -565.000; -438.000
359.939;  -52.075; -617.000; -516.000
360.071;  -19.775; -583.000; -579.000
360.203;  -22.500; -411.000; -364.000
360.335;   53.325;  164.000;  -16.000
360.468;  177.475; -249.000; -307.000
360.600; 2349.300; -547.000; -454.000
360.732; 2634.400; -546.000; -423.000
360.864;  345.975;-1216.000;-1044.000
360.996;  281.850; -516.000; -554.000
361.129;   48.925; -389.000; -598.000
361.261;   26.850;  110.000; -113.000
361.393;  -35.100; -252.000; -214.000
361.525;   25.775;   94.000;  244.000
361.657;  -49.725; -821.000; -703.000
361.789;    6.400; -139.000; -155.000
361.921;  224.775; -642.000; -593.000
362.053;  251.400;  524.000;  541.000
362.185;   46.900;  288.000;   72.000
362.318;  -72.875; -709.000; -705.000
362.450;  134.125;  294.000;  444.000
362.582;  121.950; -913.000; -870.000
362.714;  -44.950; -353.000; -332.000
362.846;  -91.650; -606.000; -490.000
362.978; -138.725; -941.000; -811.000
363.109;   57.625; -161.000; -260.000
363.241;  431.075; -739.000; -749.000
363.373;  411.950; -649.000; -564.000
363.505;  629.175; -186.000;  -91.000
363.637;  138.875; -787.000; -601.000
363.769; -120.725;-1067.000;-1080.000
363.901;  -77.700; -596.000; -654.000
364.033; -122.200;-1103.000;-1062.000
364.165;   -9.025; -283.000; -283.000
364.296;   69.075; -316.000; -177.000
364.428;   45.900;-1344.000;-1220.000
364.560;  -81.400; -679.000; -661.000
364.692;  -79.000; -738.000; -835.000
364.824;  262.325; -588.000; -456.000
364.955;  417.725; -402.000; -564.000
365.087;  826.175;-1097.000; -852.000
365.219;   15.600; -686.000; -816.000
365.351;  -75.200; -526.000; -572.000
365.482;   48.300;  300.000;  240.000
365.614;  -56.050; -402.000; -314.000
365.746; -106.175; -729.000; -752.000
365.877; -101.900; -706.000; -672.000
366.009;  256.025;  -35.000;  -62.000
366.141; -104.200;-1249.000;-1134.000
366.272; -116.925; -803.000; -719.000
366.404; -122.125;-1005.000; -874.000
366.535;  -17.900; -139.000;  -12.000
366.667; -100.600; -644.000; -649.000
366.799;   41.725;  353.000;  203.000
366.930; -121.100; -862.000; -996.000
367.062;  135.450; -639.000; -613.000
367.193;  125.250; -872.000; -842.000
367.325;  -73.500; -580.000; -684.000
367.456;   56.000; -246.000;   31.000
367.588;  141.225; -371.000; -318.000
367.719;   23.350;  -44.000;  -45.000
367.851;  -26.925; -222.000; -241.000
367.982;  -43.150; -875.000; -732.000
368.113;   70.075; -475.000; -358.000
368.245; -125.850; -960.000; -841.000
368.376;  -22.025; -254.000; -302.000
368.508;  -37.125; -188.000; -263.000
368.639; -148.425;-1166.000;-1034.000
368.770;  -34.275; -670.000; -589.000
368.902;  -63.925; -836.000; -926.000
369.033; -123.850; -906.000; -855.000
369.164;  -59.275; -720.000; -653.000
369.296; -106.025; -452.000; -601.000
369.427;    6.650; -209.000; -144.000
369.558;  -51.800; -593.000; -377.000
369.689;  -84.300; -721.000; -569.000
369.821; -139.575; -951.000; -845.000
369.952;  -15.100;   42.000; -108.000
370.083;  -54.700; -229.000; -108.000
370.214;  -83.200; -735.000; -650.000
370.345;  -13.275;   65.000;   81.000
370.477;  -88.275; -810.000; -790.000
370.608;  209.875; -328.000; -264.000
370.739;  -62.125;-1233.000;-1292.000
370.870;  -56.900;-1102.000; -923.000
371.001;   73.625; -378.000; -467.000
371.132;  -72.550; -754.000; -735.000
371.263;  -19.625;  -42.000; -148.000
371.394; -122.675; -841.000; -748.000
371.525;   39.775;  345.000;  225.000
371.657;  -95.075; -808.000; -670.000
371.788;   70.850;  103.000;  199.000
371.919;  176.500; -384.000; -304.000
372.050; 3539.100;  -91.000; -156.000
372.181; 1014.775; -188.000; -294.000
372.311;  375.250;   42.000; -127.000
372.442;   23.100; -457.000; -451.000
372.573;  -28.375; -444.000; -340.000
372.704; -132.250;-1008.000; -980.000
372.835;   92.700; -228.000; -289.000
372.966;  -75.475; -646.000; -554.000
373.097;  -71.475; -575.000; -711.000
373.228;  -35.800; -717.000; -542.000
373.359;  127.375; -824.000; -536.000
373.490;  904.600; -881.000; -727.000
373.620; 1127.900;-1001.000; -803.000
373.751; 1746.200; -332.000; -396.000
373.882;  746.700; -663.000; -733.000
374.013;   62.450; -449.000; -262.000
374.143;  -41.025; -581.000; -659.000
374.274; -113.925; -987.000; -908.000
374.405;  163.525; -388.000; -276.000
374.536;  444.225; -526.000; -387.000
374.666; 1092.925; -759.000; -807.000
374.797;  214.850; -817.000; -868.000
374.928;  863.025; -710.000; -560.000
375.058;  861.600; -535.000; -500.000
375.189;   74.100;  -59.000;  -93.000
375.320; -105.125; -928.000;-1034.000
375.450;  -49.050; -625.000; -616.000
375.581;  -49.575; -526.000; -436.000
375.712;  -30.700; -574.000; -250.000
375.842;  287.975; -438.000; -415.000
375.973;  190.775; -554.000; -513.000
376.103;  -57.375; -665.000; -648.000
376.234;  -78.300; -531.000; -552.000
376.364;  -59.700; -944.000; -867.000
376.495;  335.800;  925.000;  529.000
376.625;   10.000; -472.000; -485.000
376.756;   53.500; -709.000; -678.000
376.886;  -84.925;-1178.000;-1026.000
377.017;   54.875;-1048.000;-1061.000
377.147;  311.250; -786.000; -782.000
377.278;   63.875;  174.000;  228.000
377.408; -133.675; -801.000; -815.000
377.538; -103.700; -707.000; -693.000
377.669;  -92.150; -537.000; -613.000
377.799;  -83.300; -645.000; -635.000
377.929;  -61.700; -610.000; -428.000
378.060; -130.450; -781.000; -847.000
378.190;  -68.975; -726.000; -531.000
378.320;  -50.450; -401.000; -406.000
378.451;  -14.250; -131.000;  -22.000
378.581;   -5.275;  -67.000; -110.000
378.711;  153.300; 1035.000;  866.000
378.841;  -29.250; -533.000; -675.000
378.972;  -81.300; -871.000; -751.000
379.102;   -6.525; -652.000; -579.000
379.232;  -30.050; -126.000;  -73.000
379.362; -115.475;-1001.000; -885.000
379.492;    5.125; -373.000; -424.000
379.623;  101.800;    0.000;  111.000
379.753; -100.900;-1107.000; -974.000
379.883;  202.825;   59.000;  156.000
380.013;    3.025;-1081.000;-1017.000
380.143; -113.800;-1097.000;-1056.000
380.273; -118.375; -985.000; -861.000
380.403;   16.600; -344.000; -257.000
380.533;  -36.100; -651.000; -664.000
380.663;   88.325;  173.000;  128.000
380.793;  -89.525;-1027.000;-1074.000
380.923;  -19.400; -103.000;  -34.000
381.053; -108.900; -613.000; -623.000
381.183;  -36.500; -106.000; -248.000
381.313;   23.275; -656.000; -470.000
381.443;   26.700; -692.000; -473.000
381.573;  195.075; -402.000; -409.000
381.703;  275.850;-1249.000;-1095.000
381.833; -141.900;-1454.000;-1336.000
381.963;  113.925; -134.000;  -87.000
382.093; 1343.375; -925.000; -909.000
382.223;  394.725; -713.000; -602.000
382.353;  -16.475; -801.000; -608.000
382.482;  384.350;-1091.000; -964.000
382.612;  731.400; -872.000; -644.000
382.742;  420.450; -695.000; -622.000
382.872;  250.300; -565.000; -551.000
383.002;   63.600;  347.000; -132.000
383.131;  -11.375; -226.000; -160.000
383.261;  -53.775; -706.000; -768.000
383.391;  277.175; -552.000; -377.000
383.521; 3043.650;  451.000;  263.000
383.650;  661.500; -947.000; -904.000
383.780;  -23.650; -783.000; -656.000
383.910;  118.350;  880.000;  802.000
384.039;   16.625; -794.000; -656.000
384.169;  196.600;-1205.000;-1017.000
384.299;  -18.700; -650.000; -662.000
384.428;  -94.000; -764.000; -680.000
384.558;  -42.575; -308.000; -275.000
384.687;  -43.225; -414.000; -334.000
384.817;   13.300;   75.000;   -2.000
384.947;   19.500; -234.000; -141.000
385.076;  303.275;  982.000;  912.000
385.206;  102.475;  369.000;  480.000
385.335;  -26.325; -549.000; -417.000
385.465;  -74.800; -655.000; -663.000
385.594;  157.775;  -53.000;  -44.000
385.724;  417.725; -868.000; -838.000
385.853;  113.400; -296.000; -270.000
385.982; 1364.900; -743.000; -787.000
386.112; 2066.325;-1052.000; -871.000
386.241;  127.800; -307.000; -312.000
386.371;   29.625; -174.000;  -87.000
386.500;  -12.550; -825.000; -789.000
386.629;   18.125; -874.000; -817.000
386.759;   65.075;  -43.000;   68.000
386.888;   -9.275; -170.000; -250.000
387.017;  -79.525; -648.000; -620.000
387.147;  -76.400; -771.000; -798.000
387.276;   -8.100; -410.000; -397.000
387.405;    4.525; -398.000; -342.000
387.535;  -43.400; -452.000; -361.000
387.664;  -59.800; -692.000; -620.000
387.793;   67.850; -198.000; -113.000
387.922;  513.000;  255.000;  200.000
388.052;   22.100; -576.000; -423.000
388.181;   18.525; -342.000; -472.000
388.310;   10.450; -889.000; -710.000
388.439;  -38.150; -749.000; -742.000
388.568;  196.575;  365.000;  244.000
388.697; 1073.650; -756.000; -653.000
388.826;  189.300; -768.000; -666.000
388.956;   55.100; -285.000; -307.000
389.085;  -26.425; -347.000; -287.000
389.214; -108.275; -842.000; -872.000
389.343;  -53.250; -645.000; -413.000
389.472;  390.025;  126.000;  149.000
389.601;  517.475;   91.000;    0.000
389.730;    4.925; -568.000; -687.000
389.859;   58.075;  226.000;   46.000
389.988;  191.725; -423.000; -408.000
390.117;  130.650; -168.000; -146.000
390.246;  -10.300; -331.000; -320.000
390.375;   91.975; -673.000; -626.000
390.504;  -60.100; -703.000; -621.000
390.633; -105.950; -672.000; -726.000
390.761;  -69.300; -732.000; -645.000
390.890;   24.825;   -4.000; -130.000
391.019;  -25.625; -421.000; -441.000
391.148; -136.525; -826.000; -855.000
391.277;  -64.750; -576.000; -493.000
391.406;  -87.625; -821.000; -805.000
391.534;   27.650;  574.000; -301.000
391.663;  -65.525; -583.000; -645.000
391.792;  -82.575; -673.000; -701.000
391.921;   98.850;   -3.000;   15.000
392.050;  178.075; -287.000; -228.000
392.178;  -44.925;-1206.000;-1061.000
392.307;  154.450; -758.000; -712.000
392.436;   57.025; -427.000; -641.000
392.564;   21.875;  166.000;   -6.000
392.693;  -87.925; -860.000; -682.000
392.822;  203.250; -529.000; -534.000
392.950;   87.150; -880.000; -714.000
393.079;  312.225; -188.000; -328.000
393.208;    6.075; -488.000; -511.000
393.336;   -7.050; -170.000; -145.000
393.465;  -59.625; -317.000; -199.000
393.593;    2.725;   62.000;   79.000
393.722; -168.900;-1121.000; -916.000
393.850;  -37.875; -188.000;  -61.000
393.979; -149.350; -926.000; -805.000
394.107;  -80.275; -517.000; -537.000
394.236;  -35.075; -570.000; -507.000
394.364;  176.175;  383.000;  206.000
394.493;  199.550; -911.000; -767.000
394.621;  -34.800; -955.000; -916.000
394.750;  692.325; -873.000; -923.000
394.878; 2857.400; -247.000; -149.000
395.007; 3761.975; -721.000; -807.000
395.135;  264.150; -790.000; -721.000
395.263;  -82.875;-1038.000;-1040.000
395.392;   -8.350;  -25.000; -107.000
395.520; -144.700; -818.000; -679.000
395.648;  -88.325; -865.000; -915.000
395.777;  -27.250; -366.000; -405.000
395.905;  -52.150; -449.000; -564.000
396.033;   -6.750;  217.000;  172.000
396.162;  385.400; -399.000; -453.000
396.290;  322.025;  -17.000;   -2.000
396.418;   80.150; -555.000; -514.000
396.546;  -84.875; -571.000; -466.000
396.674; -101.650; -850.000; -878.000
396.803;    0.800;  -72.000;  -23.000
396.931;   89.875; -179.000; -199.000
397.059;   34.925;-1026.000; -989.000
397.187; -115.125;-1026.000; -975.000
397.315; -141.950; -884.000; -649.000
397.443;  -86.425; -592.000; -443.000
397.572;  -91.425; -578.000; -424.000
397.700;  -14.900; -607.000; -614.000
397.828;    9.250;  120.000;  -90.000
397.956;  -62.575; -508.000; -478.000
398.084;  -79.950; -767.000; -626.000
398.212;   38.475;  137.000;  124.000
398.340;   11.175;  -56.000;  159.000
398.468;   28.900; -390.000; -169.000
398.596; -153.525; -993.000; -953.000
398.724; -121.950; -762.000; -767.000
398.852; -168.100;-1024.000; -976.000
398.980;  -76.550; -560.000; -560.000
399.108;  -65.300; -982.000; -735.000
399.236;   39.350;   13.000;    8.000
399.363;   16.200;  222.000;  196.000
399.491;  -69.575; -404.000; -398.000
399.619; -131.275; -829.000; -800.000
399.747; -103.100; -859.000; -771.000
399.875;   74.100;  220.000;  234.000
400.003;  -43.025; -359.000; -284.000
400.130;  -93.700; -421.000; -341.000
400.258;  -33.050;  -83.000;   38.000
400.386;  -71.925; -352.000; -168.000
400.514;  -36.000; -526.000; -587.000
400.641; -108.600; -928.000; -802.000
400.769; -138.650; -979.000; -888.000
400.897; -111.725; -838.000; -793.000
401.025;  -38.575; -166.000; -152.000
401.152;  -10.425;  220.000;   38.000
401.280;  -82.450; -430.000; -429.000
401.408; -107.925; -712.000; -576.000
401.535; -102.325; -735.000; -758.000
401.663; -197.675;-1134.000;-1054.000
401.790;  -92.425; -514.000; -525.000
401.918;   33.425;  436.000;  405.000
402.046;  -10.950;  134.000;  122.000
402.173;  -38.625;  -18.000;    7.000
402.301;  -74.725; -519.000; -397.000
402.428;   24.100;  528.000;  383.000
402.556; -146.350;-1188.000; -913.000
402.683;  -25.550;  -20.000;   -1.000
402.811;  -21.550;  -37.000; -206.000
402.938;  -23.025;   20.000;   27.000
403.066;  210.150; -574.000; -558.000
403.193;  336.075;  299.000;  239.000
403.321;  266.500; -396.000; -574.000
403.448;  331.075;   83.000;   27.000
403.575;  149.825;  -90.000;  -46.000
403.703; -104.800; -732.000; -557.000
403.830;  -59.275; -531.000; -496.000
403.957; -154.600;-1117.000;-1023.000
404.085;    4.925;  -61.000; -172.000
404.212;  111.425;  -50.000;   63.000
404.339;  255.300; -566.000; -306.000
404.467; 5594.550; -612.000; -524.000
404.594; 3644.300; -287.000; -227.000
404.721;  835.125; -869.000; -764.000
404.848;   84.725; -113.000; -202.000
404.976;  -96.225; -856.000; -783.000
405.103;    0.550;  -14.000;  -82.000
405.230;   -7.125;  190.000;  226.000
405.357;   27.075;  117.000;   44.000
405.484;  240.900;  -49.000;    5.000
405.612;   53.500; -548.000; -563.000
405.739;  -61.950; -488.000; -243.000
405.866;   86.900;  669.000;  385.000
405.993;  -40.000; -398.000; -102.000
406.120; -148.425; -801.000; -887.000
406.247;  -63.600; -323.000; -342.000
406.374;  430.800;  540.000;  629.000
406.501;   86.775; -632.000; -702.000
406.628;  -87.150; -621.000; -589.000
406.755; -111.300; -803.000; -620.000
406.882;  -44.925; -228.000; -277.000
407.009; -111.325; -719.000; -628.000
407.136;   35.450; -480.000; -401.000
407.263;  101.200; -939.000; -829.000
407.390;  -77.925; -692.000; -614.000
407.517; -179.600;-1139.000;-1187.000
407.644;  -65.375; -332.000; -256.000
407.771;  -71.950; -249.000; -287.000
407.898;    0.925;  168.000;  328.000
408.025;  -77.825; -421.000; -313.000
408.151;  -14.400;   82.000;  153.000
408.278;  -64.825; -267.000; -216.000
408.405; -120.025; -931.000; -899.000
408.532;  -85.250; -549.000; -542.000
408.659; -115.950; -677.000; -648.000
408.785; -204.575;-1298.000;-1170.000
408.912;  -64.875; -412.000; -296.000
409.039; -133.425; -610.000; -686.000
409.166; -113.950; -591.000; -555.000
409.292; -115.575; -571.000; -534.000
409.419; -114.500; -665.000; -649.000
409.546;  -89.975; -431.000; -192.000
409.672; -106.350; -713.000; -545.000
409.799;  -23.650;  -36.000;   34.000
409.926;  -45.350; -180.000; -179.000
410.052; -172.900;-1127.000;-1091.000
410.179;  -57.600; -368.000; -392.000
410.305;  -92.275; -375.000; -493.000
410.432;  -52.275; -220.000; -333.000
410.558;  -93.050; -305.000; -380.000
410.685; -115.425; -688.000; -431.000
410.812;  -92.175; -409.000; -588.000
410.938; -132.600; -964.000; -808.000
411.065; -111.075; -671.000; -645.000
411.191;  -26.950; -189.000; -174.000
411.317; -131.675; -823.000; -742.000
411.444;  -72.175; -317.000; -246.000
411.570;  -82.125; -339.000; -294.000
411.697; -132.475; -758.000; -752.000
411.823; -178.250; -989.000; -999.000
411.949;  -40.375;  -56.000;   17.000
412.076; -116.675; -539.000; -519.000
412.202; -123.875; -758.000; -757.000
412.329; -130.750; -798.000; -752.000
412.455; -120.225; -821.000; -657.000
412.581;  -28.675;  -15.000;  172.000
412.707;  -79.075; -540.000; -457.000
412.834;    3.375;  156.000;  219.000
412.960;  -98.350; -785.000; -784.000
413.086; -112.500; -743.000; -701.000
413.212;  148.775;  604.000;  578.000
413.339;  -62.425; -685.000; -701.000
413.465;    1.950; -364.000; -310.000
413.591;  -94.275; -757.000; -474.000
413.717;  -49.500; -358.000; -366.000
413.843; -149.075; -839.000; -861.000
413.969;  -68.525;  -47.000; -292.000
414.096; -114.100; -679.000; -679.000
414.222;  -17.500;  -33.000;   85.000
414.348;  -49.000; -652.000; -385.000
414.474;   99.050;   38.000;  -52.000
414.600;  -24.200; -126.000; -144.000
414.726;    4.350;  -96.000;  -55.000
414.852;  -61.375; -365.000; -342.000
414.978;   14.475;  104.000;  -18.000
415.104;   47.750;   38.000;   80.000
415.230;   24.600; -329.000; -330.000
415.356;   21.325; -409.000; -514.000
415.482;  191.625;   13.000;  -35.000
415.608;  251.925; -247.000; -323.000
415.734;  957.425;   67.000;   38.000
415.860;19823.850; -875.000; -767.000
415.986;13779.200; -685.000; -607.000
416.111; 1166.850; -798.000; -652.000
416.237;  237.750; -424.000; -571.000
416.363; 1136.575; -765.000; -733.000
416.489; 3979.725; -324.000; -251.000
416.615;  406.200; -707.000; -742.000
416.741;  -36.150; -677.000; -784.000
416.866; -102.525; -673.000; -736.000
416.992; -114.925; -801.000; -818.000
417.118;  -29.900;  -41.000;  -80.000
417.244;  -71.550; -798.000; -531.000
417.369;  -96.575; -801.000; -612.000
417.495;  -12.500; -325.000; -254.000
417.621;  -94.600;-1015.000; -803.000
417.746;    0.575; -579.000; -572.000
417.872;   45.175; -254.000; -144.000
417.998;   50.025; -515.000; -530.000
418.123; 1053.875;-1073.000; -845.000
418.249; 5219.325; -512.000; -601.000
418.374;  681.050; -916.000; -824.000
418.500;   91.150; -383.000; -482.000
418.626;  104.550;   70.000;  -59.000
418.751;   99.675; -549.000; -448.000
418.877;  185.050; -637.000; -643.000
419.002; 1787.000; -688.000; -560.000
419.128;12225.900; -930.000; -721.000
419.253; 2824.625; -967.000; -837.000
419.379;  370.325; -391.000; -338.000
419.504;  389.075;  325.000;  415.000
419.629;  483.175; -393.000; -212.000
419.755; 3523.825; -317.000; -254.000
419.880;20294.525;  -98.000;   67.000
420.006;11141.625; -280.000; -221.000
420.131;28398.175; -662.000; -775.000
420.256; 3933.300; -315.000; -316.000
420.382;  502.525; -665.000; -687.000
420.507;   61.650; -649.000; -778.000
420.632;  161.600; -337.000; -339.000
420.758;  252.925; -251.000; -425.000
420.883;  -82.975; -876.000; -672.000
421.008;  -99.300; -775.000; -619.000
421.133;  -82.650; -509.000; -467.000
421.259;  -43.525; -325.000; -259.000
421.384; -121.250; -834.000; -693.000
421.509;  -40.375;-1052.000; -862.000
421.634; 1171.825; -936.000; -820.000
421.759;  490.450; -359.000; -327.000
421.885;  -55.900; -717.000; -656.000
422.010;  -80.925; -673.000; -542.000
422.135; -141.900; -695.000; -727.000
422.260;   40.275;  340.000;  280.000
422.385;  -47.325;   12.000;  -98.000
422.510;    2.650;  151.000;  -26.000
422.635;   20.075;  -87.000;  -43.000
422.760;   92.150; -766.000; -791.000
422.885;   48.225;  -57.000;  -80.000
423.010;  -29.825; -112.000; -169.000
423.135; -101.675; -481.000; -561.000
423.260;   -0.125; -150.000; -245.000
423.385;   82.825;  476.000;  222.000
423.510;   30.550;   71.000;  -22.000
423.635;   82.850;  133.000;   45.000
423.760;   58.950;  383.000;  328.000
423.885;   49.900;  336.000;  391.000
424.010;   17.550;  -68.000;  -13.000
424.135;  -25.725;    5.000;  -33.000
424.259;  -86.575; -654.000; -457.000
424.384;  -76.775; -279.000; -272.000
424.509;  -23.450; -260.000; -186.000
424.634; -111.650; -761.000; -623.000
424.759;  -18.550; -688.000; -544.000
424.883;  -28.125; -506.000; -527.000
425.008;  153.625; -502.000; -410.000
425.133; 1935.075; -679.000; -653.000
425.258;  866.300; -517.000; -381.000
425.382; 1005.375; -867.000; -774.000
425.507; 2510.425; -487.000; -543.000
425.632;  382.350; -802.000; -663.000
425.756;  438.800; -256.000; -146.000
425.881; 6477.350; -831.000; -857.000
426.006;16629.400; -604.000; -355.000
426.130; 2500.075; -696.000; -508.000
426.255;  317.775; -611.000; -491.000
426.379;  148.150; -189.000; -577.000
426.504;  380.475;  660.000;  544.000
426.629; 4026.525; -519.000; -466.000
426.753; 2627.800;   64.000;  -46.000
426.878;  289.800; -252.000; -288.000
427.002;  123.125; -651.000; -668.000
427.127; 1589.050;  -35.000; -158.000
427.251;11143.775;  372.000;  401.000
427.375; 2960.650; -191.000; -173.000
427.500; 2250.325; -616.000; -610.000
427.624;  710.300; -234.000; -400.000
427.749;   82.275; -216.000; -225.000
427.873;  -42.050; -499.000; -412.000
427.997;  -49.775; -222.000; -230.000
428.122;   78.525;  795.000;  703.000
428.246;   76.750;  433.000;  434.000
428.371; -133.125; -869.000; -773.000
428.495; -121.275; -624.000; -646.000
428.619;  -34.850; -186.000; -117.000
428.743;   36.100;   65.000;  132.000
428.868;    0.150; -732.000; -643.000
428.992; 1388.975; -219.000; -326.000
429.116;  536.975; -329.000; -357.000
429.240;  275.900;  419.000;  426.000
429.365;  -18.875; -454.000; -574.000
429.489;  -55.350; -638.000; -647.000
429.613;   13.900; -236.000; -177.000
429.737;   28.300; -563.000; -432.000
429.861;  259.475; -247.000; -133.000
429.985; 5585.325; -425.000; -305.000
430.109; 5826.550; -770.000; -908.000
430.234;  658.925;   76.000;  -50.000
430.358;   64.900; -250.000; -160.000
430.482;  -65.975; -672.000; -564.000
430.606;  -87.250; -655.000; -375.000
430.730;    5.675; -437.000; -388.000
430.854;  120.975; -909.000; -835.000
430.978;  -74.350; -795.000; -764.000
431.102;  -77.575; -499.000; -422.000
431.226; -113.200; -874.000; -815.000
431.350;   42.675;  345.000;  422.000
431.474;  -68.025; -661.000; -373.000
431.597; -166.050;-1060.000; -848.000
431.721;  -73.425; -276.000; -267.000
431.845; -149.600; -704.000; -472.000
431.969;  -84.400; -304.000; -349.000
432.093;  -98.775; -395.000; -317.000
432.217;  -19.425;   32.000;   82.000
432.341;  -97.725; -523.000; -518.000
432.464;    4.175;   96.000;   40.000
432.588;  191.350; -401.000; -329.000
432.712;   92.775;  -52.000;  -52.000
432.836;   37.525;  213.000;  263.000
432.959;  -14.000; -372.000; -311.000
433.083;   61.950;   11.000;    2.000
433.207;  376.275;  285.000;  930.000
433.330; 4991.850; -391.000; -200.000
433.454; 5968.975; -654.000; -638.000
433.578; 3439.375;  583.000;  278.000
433.701;  607.150; -623.000; -675.000
433.825;  133.375; -292.000; -299.000
433.949;  167.575;   28.000;  -72.000
434.072;   54.450; -410.000; -323.000
434.196;  -16.450; -309.000; -117.000
434.319; 3799.775;25482.000;25124.000
434.443;  740.400; -656.000; -603.000
434.566; 2579.000;  281.000;   62.000
434.690;  391.900; -637.000; -383.000
434.813;   44.675; -251.000; -173.000
434.937;  -91.725; -569.000; -696.000
435.060;  -55.200; -423.000; -332.000
435.184;  332.300; -492.000; -217.000
435.307;  158.150;  159.000;  102.000
435.431;  -21.350;  -40.000;   24.000
435.554;  -82.525; -399.000; -240.000
435.677; -106.100; -350.000; -258.000
435.801;  -38.250;  -25.000;   49.000
435.924;    7.100;    1.000;  -67.000
436.048; -116.025;-1019.000; -732.000
436.171;  -73.975; -240.000;  -66.000
436.294;  -39.575; -248.000; -229.000
436.417;   81.650; -963.000; -849.000
436.541;  -98.075; -814.000; -840.000
436.664;  -50.200; -242.000; -316.000
436.787;  -30.175;   13.000;  113.000
436.910; -110.925; -792.000; -422.000
437.034;   -2.975;  142.000;  143.000
437.157;   56.950;  -11.000;    0.000
437.280;  -65.525; -392.000; -292.000
437.403;  -85.325; -982.000; -869.000
437.526;  680.400; -903.000; -865.000
437.649; 2318.375; -505.000; -332.000
437.772;  294.575; -692.000; -540.000
437.896;  117.825;  700.000;  544.000
438.019; -109.450; -758.000; -503.000
438.142;  -95.350; -596.000; -506.000
438.265;  -29.200; -639.000; -670.000
438.388;  547.450; -520.000; -410.000
438.511;   73.825; -597.000; -394.000
438.634;  -42.325; -247.000; -125.000
438.757; -144.750; -693.000; -619.000
438.880;  -27.175;  -34.000;  -57.000
439.003;  -75.500; -417.000; -437.000
439.126;  -72.925; -287.000; -167.000
439.248;  -58.925;  -98.000; -139.000
439.371;  -48.325;    9.000;  -53.000
439.494;   21.150;  510.000;  439.000
439.617;  -73.550;   65.000;  -88.000
439.740; -191.500; -968.000; -816.000
439.863; -140.025; -755.000; -595.000
439.986; -135.625; -476.000; -431.000
440.108;  -55.600; -161.000; -112.000
440.231; -170.275; -950.000; -836.000
440.354;  -37.150;  -64.000; -150.000
440.477;   15.625; -566.000; -542.000
440.599;  -11.525; -200.000; -225.000
440.722; -129.350; -709.000; -586.000
440.845;   69.675;  751.000;  928.000
440.968; -124.150; -415.000; -311.000
441.090;  -78.850; -199.000;  -33.000
441.213; -173.150;-1021.000; -825.000
441.336;  -50.375; -159.000;   -5.000
441.458;  -91.275; -549.000; -396.000
441.581;  -76.100; -628.000; -629.000
441.703;  -72.000; -152.000;   13.000
441.826; -106.525; -557.000; -400.000
441.948;  -60.925;   56.000;   51.000
442.071;   32.925;  555.000;  424.000
442.193; -124.250; -531.000; -485.000
442.316;   14.275;  152.000;   97.000
442.438;   32.800; -233.000;  -10.000
442.561;   68.225;  272.000;  262.000
442.683;  551.750; -809.000; -522.000
442.806; 1165.000;   -8.000;   74.000
442.928;    8.375; -859.000; -604.000
443.051;  -75.675; -577.000; -373.000
443.173;  -89.550; -341.000; -339.000
443.295;  -87.400; -263.000; -371.000
443.418;  -85.375; -321.000;  -29.000
443.540;   -2.700; -106.000;   -4.000
443.662; -140.900; -563.000; -465.000
443.785;  -10.050;  335.000;  199.000
443.907; -126.850; -362.000; -208.000
444.029; -137.175; -767.000; -494.000
444.152; -148.450; -644.000; -554.000
444.274;  -32.550;  -18.000;  -24.000
444.396; -115.300; -461.000; -221.000
444.518; -129.350; -691.000; -454.000
444.640; -117.300; -268.000; -111.000
444.763;  -24.425;  388.000;  249.000
444.885; -129.650; -432.000; -392.000
445.007;  -39.600;   35.000;   86.000
445.129; -130.500; -610.000; -515.000
445.251;  -99.175; -372.000; -439.000
445.373; -146.000; -537.000; -386.000
445.495;   20.750;  242.000;  350.000
445.617;   34.025;  853.000;  753.000
445.739;  -76.075; -215.000;  -97.000
445.861;  -36.175; -245.000; -112.000
445.984;  -35.075; -267.000; -101.000
446.105;  201.325; -418.000; -251.000
446.227;  586.200; -176.000;  -19.000
446.349;   -1.225; -358.000; -249.000
446.471;  -89.525; -615.000; -448.000
446.593;  -59.675; -316.000;   19.000
446.715;   -7.675;  -67.000;   41.000
446.837;   53.575;  697.000;  832.000
446.959;  -99.200; -457.000; -478.000
447.081; -144.500; -628.000; -518.000
447.203;   53.400;  862.000;  834.000
447.325;  -96.725; -270.000;   42.000
447.446;  -12.075;  286.000;  530.000
447.568; -172.725; -921.000; -803.000
447.690;  -80.000; -236.000; -245.000
447.812; -160.000; -798.000; -519.000
447.933;  -32.825;  155.000;  127.000
448.055;  -75.825; -306.000; -261.000
448.177;  136.500;   31.000;   79.000
448.299;   65.475; -935.000; -727.000
448.420;   12.725;  -25.000;  159.000
448.542;  -54.450;   -3.000;   33.000
448.664;  -32.200;  109.000;  322.000
448.785;  -30.525;  265.000;   83.000
448.907;  -97.825; -614.000; -353.000
449.028;  -50.375; -771.000; -471.000
449.150;   50.650;  492.000;  589.000
449.272; -180.250;-1044.000; -913.000
449.393;   32.100;  612.000;  694.000
449.515; -151.475; -634.000; -581.000
449.636;  -56.575; -264.000; -155.000
449.758;   83.400;  763.000;  622.000
449.879; -106.775; -498.000; -396.000
450.001;  -79.400; -149.000;  -49.000
450.122;  -46.975;  -95.000;  162.000
450.244;  -17.000;   37.000;  364.000
450.365;  -86.675; -495.000; -301.000
450.486;  -39.100;   80.000;  268.000
450.608;   12.850;  393.000;  326.000
450.729;   53.550;  578.000;  645.000
450.850;   -6.600; -574.000; -466.000
450.972;  713.075; -552.000; -389.000
451.093; 4748.950;  190.000;  588.000
451.214; 1939.675; -516.000; -337.000
451.336;  359.575;  773.000;  579.000
451.457;   51.725;  264.000;  393.000
451.578;  -40.475; -118.000;  -74.000
451.699; -129.500; -546.000; -540.000
451.821;  -56.875; -284.000;  -50.000
451.942;  -16.500;  278.000;  285.000
452.063;   28.875;  228.000;  419.000
452.184;  547.850;  -54.000;  -49.000
452.305; 1042.725;  103.000;  170.000
452.427;  113.825; -549.000; -301.000
452.548;  -17.650;   23.000;   79.000
452.669;  -60.550; -257.000;  -89.000
452.790;  -46.025;    3.000;  -18.000
452.911;  -13.000;  195.000;  259.000
453.032;  -62.525; -289.000;  -60.000
453.153;  -47.750;  -29.000;   81.000
453.274;   62.150;  737.000;  868.000
453.395;  -55.300;  -51.000;  175.000
453.516;  137.800; 1317.000; 1388.000
453.637;  -71.200; -205.000; -150.000
453.758;  -63.750;   15.000;   69.000
453.879; -115.750; -462.000; -250.000
454.000;   79.050; 1086.000;  948.000
454.121; -115.250; -554.000; -326.000
454.242; -122.400; -599.000; -383.000
454.362;  -76.400;  -99.000;  114.000
454.483;  -49.200; -309.000; -229.000
454.604;   44.400;  512.000;  580.000
454.725; -127.075; -627.000; -555.000
454.846; -128.050; -474.000; -406.000
454.967;  -36.875;  230.000;  539.000
455.087;  -50.775;  179.000;  153.000
455.208;    8.350;  554.000;  856.000
455.329;  -65.200;  -22.000;   82.000
455.450;   19.700;  473.000;  633.000
455.570;  -83.925; -234.000; -211.000
455.691;  -50.975;  201.000;  407.000
455.812; -122.500; -270.000;  -92.000
455.932;  -64.250;  107.000;  -97.000
456.053;  -78.650;   36.000;   24.000
456.173; -104.650; -433.000; -355.000
456.294; -138.975; -476.000; -303.000
456.415;  -61.500;  -73.000;   70.000
456.535;  -40.375;  297.000;  273.000
456.656;  -40.450;  132.000;  240.000
456.776;  -82.475;    3.000;  298.000
456.897;  -22.900;  308.000;  513.000
457.017;  -71.925; -153.000;   -3.000
457.138; -114.600; -402.000; -249.000
457.258;  -41.475;  263.000;  224.000
457.379;  -30.575;  509.000;  521.000
457.499;  -30.925;  443.000;  432.000
457.620; -128.975; -407.000; -231.000
457.740; -105.075; -132.000;  -11.000
457.860;  -64.650;   87.000;   44.000
457.981;  -59.000;  132.000;  124.000
458.101;  -82.725;  -89.000;   40.000
458.221;  -17.750;  336.000;  402.000
458.342;  -64.125;   -4.000;  -37.000
458.462;   21.075;  617.000;  352.000
458.582;  -53.775; -302.000; -294.000
458.703;    1.350;  303.000;  154.000
458.823;  -38.200;   22.000;  163.000
458.943;   18.550;  341.000;  467.000
459.063;   -9.650; 1124.000;  192.000
459.183;  -36.150;  328.000;  313.000
459.304;    5.075;  315.000;  517.000
459.424;  -69.600; -246.000;  -89.000
459.544;  342.025;  388.000;  764.000
459.664;  804.150;  499.000;  506.000
459.784;  281.575; 1004.000; 1175.000
459.904;   46.500;  867.000;  744.000
460.024;   64.500;  867.000;  684.000
460.144;   -1.200;  449.000;  554.000
460.264;  -16.150;  515.000;  327.000
460.385; -108.075; -145.000; -119.000
460.505;   28.675;  905.000;  858.000
460.625; -105.700;  -17.000;  -68.000
460.745;  -18.200;  396.000;  541.000
460.864;  -65.025;  153.000;  469.000
460.984;    9.325;  499.000;  573.000
461.104;  131.575; 1656.000; 1775.000
461.224;   24.475;  657.000;  650.000
461.344;  -25.150;  431.000;  360.000
461.464;  -24.475;  258.000;  513.000
461.584;  -18.800;  283.000;  466.000
461.704;  -55.950;   58.000;  108.000
461.824;  -73.875;  238.000;  259.000
461.943;  -36.175;  191.000;  130.000
462.063;  -78.325;    2.000;  324.000
462.183;   30.475;  639.000;  717.000
462.303;   77.900; 1678.000; 1230.000
462.422;   31.975;  781.000;  840.000
462.542;  -49.950;  271.000;  391.000
462.662;   47.650;  353.000;  380.000
462.782;  241.550;  833.000;  572.000
462.901;  463.750;  545.000;  717.000
463.021;  260.850; 1702.000; 1638.000
463.141;  -10.075;  337.000;  770.000
463.260;  -13.075;  614.000;  474.000
463.380;   18.925;  902.000;  884.000
463.499;  -41.025;  342.000;  332.000
463.619;  -51.425;  581.000;  559.000
463.738;  114.250; 1644.000;  903.000
463.858;   21.400;  657.000;  811.000
463.978;  -29.250;  542.000;  396.000
464.097;   44.550;  921.000; 1114.000
464.217;  111.100; 1196.000; 1143.000
464.336;  114.600; 1068.000; 1130.000
464.455;  -53.625;  328.000;  659.000
464.575;   36.375;  597.000;  602.000
464.694;  158.600; 1204.000; 1179.000
464.814;  122.300; 1190.000; 1138.000
464.933;   60.650; 1095.000; 1027.000
465.052;   89.900; 1412.000; 1054.000
465.172;   75.900;  922.000;  799.000
465.291;  139.650; 1376.000; 1320.000
465.410;   10.000;  462.000;  735.000
465.530;   74.050; 1355.000; 1310.000
465.649;   55.475; 1209.000; 1273.000
465.768;  152.525; 1673.000; 1508.000
465.888;   46.900;  941.000; 1174.000
466.007;   93.975; 1335.000; 1440.000
466.126;  -18.425;  721.000;  641.000
466.245;   48.700; 1176.000; 1187.000
466.364;   12.450;  950.000; 1060.000
466.484;   55.975; 1024.000; 1213.000
466.603;   39.850; 1101.000; 1222.000
466.722;  127.450; 1490.000; 1769.000
466.841;   81.225; 1151.000; 1401.000
466.960;   32.850; 1069.000;  972.000
467.079;  127.200; 1971.000; 1786.000
467.198;   39.625; 1238.000; 1181.000
467.317;   71.325; 1768.000; 1162.000
467.436;   68.875; 1709.000; 1261.000
467.555;  116.900; 1796.000; 1746.000
467.674;   70.050; 1227.000; 1329.000
467.793;   44.325; 1376.000; 1374.000
467.912;   77.850; 1658.000; 1539.000
468.031;  126.175; 2038.000; 1930.000
468.150;  147.100; 1842.000; 1837.000
468.269;  199.700; 2313.000; 2090.000
468.388;  203.025; 2168.000; 2339.000
468.507;  243.675; 2884.000; 2903.000
468.626;  267.750; 2555.000; 2541.000
468.744;  133.475; 2018.000; 2174.000
468.863;  181.200; 2312.000; 2523.000
468.982;   90.350; 1503.000; 1555.000
469.101;  226.600; 2788.000; 2692.000
469.220;  145.725; 2333.000; 2176.000
469.338;  241.400; 2935.000; 3051.000
469.457;  185.975; 2719.000; 2545.000
469.576;  354.450; 3953.000; 3784.000
469.695;  232.275; 2877.000; 3066.000
469.813;  421.950; 4148.000; 4192.000
469.932;  399.750; 4255.000; 4485.000
470.051;  413.925; 4075.000; 4161.000
470.169;  862.350; 4470.000; 4338.000
470.288; 1438.325; 4700.000; 4809.000
470.406;  840.875; 5059.000; 5194.000
470.525;  621.150; 6101.000; 5787.000
470.644;  635.150; 6847.000; 6794.000
470.762;  852.675; 8397.000; 7873.000
470.881;  893.575; 8651.000; 8464.000
470.999; 1043.650; 9685.000; 9151.000
471.118; 1102.950;11174.000;10711.000

