
Integration time [ms]: 100.000
Averaging Nr. [scans]: 40
Smoothing Nr. [pixels]: 0
Data measured with spectrometer [name]: 2101012U2
Wave   ;Sample   ;Dark     ;Reference
[nm]   ;[counts] ;[counts] ;[counts] 

197.733;   59.275;  516.000;  404.000
197.879;  -78.300; -610.000; -634.000
198.025;  -51.425; -475.000; -420.000
198.171;  -65.675; -602.000; -612.000
198.317;  -28.325; -401.000; -316.000
198.463;  -52.175; -655.000; -404.000
198.609;   17.375;  181.000; -137.000
198.755;  -67.500; -644.000; -410.000
198.901;  -55.400; -505.000; -424.000
199.047;  -56.750; -615.000; -488.000
199.193;  -40.175; -230.000; -468.000
199.339;  -37.325; -222.000; -369.000
199.485;   35.350;  330.000;  271.000
199.631;    8.050;  227.000;  310.000
199.777;  -53.625; -466.000; -398.000
199.923;  -72.575; -610.000; -424.000
200.069;   -8.025; -141.000;  -58.000
200.215;   57.925;  128.000;  453.000
200.361;   40.425;  243.000;  477.000
200.507;  -65.275; -600.000; -373.000
200.653;  -26.100; -371.000; -194.000
200.798;  -31.800; -215.000; -125.000
200.944;   -8.825; -146.000;  -41.000
201.090;   33.125;   61.000;  222.000
201.236;   -9.375; -116.000; -158.000
201.382;  123.275;  874.000;  903.000
201.528;    1.150;  -58.000;  -48.000
201.674;  -58.675; -386.000; -293.000
201.819;  -63.625; -540.000; -439.000
201.965;  -69.350; -699.000; -447.000
202.111;  -32.200; -273.000; -226.000
202.257;  -31.250; -250.000; -238.000
202.402;    0.350;   13.000;  -36.000
202.548;  -14.600; -169.000; -116.000
202.694;   74.725;  410.000; -183.000
202.840;  -73.800; -603.000; -531.000
202.985;  -68.175; -681.000; -639.000
203.131; -102.200; -832.000; -666.000
203.277;  -30.000; -199.000; -262.000
203.423;  -47.675; -434.000; -520.000
203.568;  -48.225; -462.000; -237.000
203.714;  -55.775; -535.000; -542.000
203.860;  -78.250; -682.000; -641.000
204.005;   22.200;  112.000;  167.000
204.151;   79.725;  561.000;  556.000
204.296;  -40.200; -354.000; -221.000
204.442;  -75.250; -600.000; -547.000
204.588;  -66.325; -592.000; -579.000
204.733;   19.750;  178.000;  168.000
204.879; -125.625;-1018.000; -822.000
205.025;   17.175;  -99.000;  126.000
205.170;   19.425;  -17.000;   94.000
205.316;   71.200;  438.000;  661.000
205.461;  -79.150; -698.000; -554.000
205.607;   81.525;  609.000;  665.000
205.752;  -61.325; -626.000; -551.000
205.898;  -53.900; -501.000; -391.000
206.043;  -59.375; -578.000; -506.000
206.189;  -50.850; -243.000; -285.000
206.334;   72.300;  554.000;  606.000
206.480;   76.475;  409.000;  239.000
206.625;  -68.225; -529.000; -552.000
206.771;  -50.800; -451.000; -373.000
206.916;  -33.950; -210.000; -537.000
207.062;  -72.900; -545.000; -591.000
207.207;  -46.900; -546.000; -443.000
207.353;   55.925;  185.000;  460.000
207.498;   12.775;  196.000;   85.000
207.643;  -44.125; -501.000; -370.000
207.789; -116.075;-1069.000; -910.000
207.934; -100.125; -665.000; -713.000
208.080;  -27.850; -154.000;   66.000
208.225;  -15.025;  -22.000;  -57.000
208.370;  -78.750; -727.000; -619.000
208.516;  -74.500; -741.000; -487.000
208.661;  -14.750; -127.000;  -69.000
208.806;  -16.475; -165.000; -171.000
208.952; -116.350;-1044.000; -731.000
209.097;   51.575;  378.000;  349.000
209.242;  -39.625; -307.000; -382.000
209.387;   67.850;  392.000;  350.000
209.533;  -49.175; -321.000; -350.000
209.678;   58.575;  472.000;  543.000
209.823;  -42.800; -408.000; -310.000
209.969;  -96.075; -860.000; -757.000
210.114; -102.550; -907.000; -719.000
210.259; -104.200; -939.000; -889.000
210.404;   -4.325; -171.000;  103.000
210.549;    9.400;  108.000;    3.000
210.695;  -11.550;   -3.000;  -95.000
210.840;   30.100;   94.000;   67.000
210.985;  -65.075; -484.000; -303.000
211.130;   49.575;  268.000;  406.000
211.275;   14.550;  207.000;  199.000
211.420;  -41.825; -300.000; -289.000
211.566;  -67.950; -536.000; -489.000
211.711;   23.525;  218.000;  157.000
211.856;  -54.250; -545.000; -519.000
212.001;    5.450;  151.000;   44.000
212.146;   15.375;  153.000;   49.000
212.291;  -32.850; -210.000; -186.000
212.436;  -20.475; -280.000;   -6.000
212.581;  -81.025; -685.000; -653.000
212.726;  -75.275; -487.000; -538.000
212.871;  -62.475; -552.000; -217.000
213.016; -140.825;-1172.000;-1029.000
213.161;   50.275;  406.000;  291.000
213.306;  -70.650; -435.000; -577.000
213.451;  -95.425; -778.000; -689.000
213.596;  -36.725; -455.000; -347.000
213.741;  -56.925; -448.000; -538.000
213.886;  -74.125; -498.000; -517.000
214.031;  -27.700; -294.000; -124.000
214.176;  -41.750; -408.000; -341.000
214.321;  -23.350; -296.000; -157.000
214.466;  -22.675; -163.000;  -43.000
214.611;    4.325;  -61.000;  -10.000
214.756; -121.350; -948.000; -858.000
214.901;  -19.500; -388.000; -226.000
215.046; -108.050; -797.000; -825.000
215.191;    7.875;  128.000;   35.000
215.336;  -18.175; -157.000;  -19.000
215.480;  -70.025; -684.000; -505.000
215.625;  -30.050; -175.000;  -19.000
215.770;  -65.625; -757.000; -662.000
215.915;   -4.300;   -5.000;  -97.000
216.060;  -17.975; -113.000;  -21.000
216.205; -107.175; -731.000; -779.000
216.349;  -63.175; -470.000; -533.000
216.494; -124.200; -939.000; -867.000
216.639; -105.875; -823.000; -888.000
216.784;  -84.575; -577.000; -525.000
216.929;   37.650;  392.000;  281.000
217.073;  -11.125; -244.000;  -31.000
217.218;   25.650;   78.000;  -47.000
217.363;  -81.500; -656.000; -618.000
217.507;  -84.200; -623.000; -588.000
217.652; -114.200; -845.000; -874.000
217.797;  -80.100; -708.000; -659.000
217.942; -105.875; -856.000; -720.000
218.086;   51.050;  608.000;  539.000
218.231;  -24.750; -174.000;  -26.000
218.376;  -35.400; -337.000; -229.000
218.520;    2.700;  -41.000;   96.000
218.665;  -27.850; -338.000; -204.000
218.810;  -21.100; -275.000; -233.000
218.954;   18.925;  201.000;   35.000
219.099; -104.850; -713.000; -963.000
219.243;  -62.150; -589.000; -554.000
219.388;  -29.325; -264.000; -136.000
219.532;  -16.800; -116.000; -116.000
219.677;  -64.250; -564.000; -521.000
219.822;   -4.275;   33.000;   89.000
219.966;   -3.925;   17.000;  -99.000
220.111;  -30.425; -328.000;  -40.000
220.255;  -89.125; -797.000; -750.000
220.400;  -19.750; -180.000; -146.000
220.544;  -61.175; -516.000; -450.000
220.689;  -55.000; -422.000; -451.000
220.833;  -19.025; -123.000;  -58.000
220.978;  -37.275; -393.000; -563.000
221.122;   21.250;  319.000;  307.000
221.267; -120.525; -906.000; -837.000
221.411;  -52.775; -478.000; -394.000
221.555;    1.300; -104.000;  -23.000
221.700;  -41.625; -329.000; -222.000
221.844;   31.325;  255.000;  272.000
221.989;  -50.925; -328.000; -311.000
222.133;  -35.100; -289.000; -307.000
222.277;   -8.525;    5.000;   78.000
222.422;   12.575;  227.000;  113.000
222.566;  -41.125; -381.000; -214.000
222.711;  -58.075; -414.000; -479.000
222.855;  -67.375; -643.000; -586.000
222.999;  -75.075; -642.000; -717.000
223.144;  -38.100; -195.000; -194.000
223.288;   48.100;  423.000;  251.000
223.432;   31.125;  184.000;  230.000
223.576;   15.150;  152.000;  -21.000
223.721;   36.725;  364.000;  273.000
223.865;  -52.750; -472.000; -475.000
224.009;  223.200; 1673.000; 1631.000
224.153;  -77.425; -660.000; -671.000
224.298;  -59.325; -531.000; -489.000
224.442;   -1.225;  -74.000;  -33.000
224.586;  -14.275; -169.000; -106.000
224.730;  -78.825; -858.000; -670.000
224.875;  -96.325; -739.000; -688.000
225.019;    9.525;  102.000;  188.000
225.163;   53.800;  208.000;  341.000
225.307;   11.050;   97.000;  -91.000
225.451;   42.175;  360.000;  481.000
225.595;   22.175;  264.000;  176.000
225.739;  -19.100; -170.000;  -94.000
225.884;   11.525;   86.000;    5.000
226.028;  -89.975; -760.000; -626.000
226.172;  -29.825; -260.000; -273.000
226.316; -122.750; -941.000; -902.000
226.460;  -74.600; -645.000; -493.000
226.604;  -42.025; -406.000; -400.000
226.748; -101.325; -836.000; -733.000
226.892;  -22.250; -227.000; -181.000
227.036;  -47.150; -537.000; -447.000
227.180;  -65.275; -551.000; -375.000
227.324;  -65.625; -561.000; -580.000
227.468; -104.450; -819.000; -717.000
227.612;   11.950;  242.000;  -28.000
227.756;  -94.825; -845.000; -698.000
227.900;   53.575;  342.000;  441.000
228.044;  -50.575; -509.000; -290.000
228.188;   54.325;  448.000;  568.000
228.332;  -87.150; -546.000; -472.000
228.476;  -21.900; -223.000; -149.000
228.620;  -37.375; -210.000; -150.000
228.764;   59.300;  431.000;  349.000
228.908;  -28.875; -155.000;   30.000
229.052;  -46.775; -615.000; -528.000
229.195;  -20.925; -172.000;   13.000
229.339;  -36.350; -235.000; -305.000
229.483;  -29.350;    5.000; -162.000
229.627;  -11.150; -156.000;  139.000
229.771;  -49.325; -218.000; -294.000
229.915;    7.550;  230.000;   79.000
230.059;  -87.625; -648.000; -663.000
230.202;  -43.400; -370.000; -317.000
230.346;  -39.075; -107.000;  107.000
230.490;  -72.150; -489.000; -521.000
230.634; -102.575; -736.000; -553.000
230.777;   58.850;  478.000;  509.000
230.921;  -39.825; -450.000; -359.000
231.065;  -39.850; -246.000; -286.000
231.209;   19.200;  261.000;  265.000
231.352;    5.075;   54.000;   40.000
231.496;   28.300;  568.000;  188.000
231.640;  -69.900; -693.000; -621.000
231.783;   61.925;  546.000;  525.000
231.927;  -40.475; -294.000; -365.000
232.071; -123.650; -962.000; -736.000
232.214; -113.325; -980.000; -764.000
232.358;  -88.600; -683.000; -599.000
232.502;    6.100;  -19.000;    7.000
232.645; -122.850;-1090.000; -927.000
232.789;  -17.450; -257.000; -218.000
232.933;  -45.300; -407.000; -224.000
233.076; -117.125;-1038.000; -897.000
233.220; -104.600; -752.000; -777.000
233.363;  -76.600; -669.000; -477.000
233.507;   56.900;  371.000;  129.000
233.650; -102.500; -764.000; -834.000
233.794;   49.200;  438.000;  461.000
233.938;  -53.250; -530.000; -362.000
234.081;  -27.700;  -93.000;   31.000
234.225;  -64.350; -631.000; -539.000
234.368; -113.075; -773.000; -723.000
234.512;  -46.775; -385.000; -299.000
234.655;  -79.125; -582.000; -555.000
234.798;  -67.875; -493.000; -466.000
234.942; -125.225; -884.000;-1002.000
235.085;  -79.350; -651.000; -443.000
235.229;  -65.825; -405.000; -410.000
235.372;  -50.525; -247.000; -191.000
235.516;  -54.400; -397.000; -321.000
235.659;   13.125;   92.000;  121.000
235.802;  -16.550;  -38.000;  -22.000
235.946;   16.925;  335.000;  215.000
236.089;   30.925;  126.000;  250.000
236.233;   61.800;  275.000;  298.000
236.376;  -36.725; -235.000; -378.000
236.519;  -47.075; -297.000; -319.000
236.663;   -5.900; -215.000; -117.000
236.806; -129.475;-1029.000; -999.000
236.949;   53.775;  543.000;  431.000
237.092;   53.275;  412.000;  391.000
237.236;  -80.925; -589.000; -502.000
237.379;   49.775;  352.000;  428.000
237.522; -114.300; -879.000; -768.000
237.666;  -19.500; -271.000;   18.000
237.809; -115.000; -851.000; -823.000
237.952;   26.375;  469.000;  271.000
238.095;  -66.175; -447.000; -442.000
238.238;   80.350;  688.000;  700.000
238.382;   -5.275;  166.000;  103.000
238.525;  -72.075; -598.000; -511.000
238.668; -131.475;-1060.000; -985.000
238.811;  -83.725; -638.000; -643.000
238.954;  -54.450; -483.000; -334.000
239.097;   90.600;  617.000;  664.000
239.241;   37.825;  394.000;  326.000
239.384;  -46.575; -254.000; -214.000
239.527;  -54.725; -424.000; -224.000
239.670; -133.325; -994.000;-1091.000
239.813; -110.275; -696.000; -658.000
239.956;   74.075;  579.000;  473.000
240.099; -111.025; -778.000; -725.000
240.242;   65.300;  428.000;  432.000
240.385;   59.025;  466.000;  450.000
240.528;  -57.525; -706.000; -473.000
240.671;   19.200;  189.000;  134.000
240.814;  -44.100; -441.000; -158.000
240.957;  -87.400; -767.000; -578.000
241.100;  -92.550; -779.000; -755.000
241.243; -136.450;-1234.000; -893.000
241.386;  -66.125; -508.000; -379.000
241.529;  -85.375; -735.000; -547.000
241.672;  -58.225; -566.000; -495.000
241.815; -112.800; -832.000; -808.000
241.958;  -15.525; -125.000; -182.000
242.101;  -67.900; -545.000; -390.000
242.244;  -31.500; -270.000; -325.000
242.387;  -31.775; -304.000; -246.000
242.530;   52.700;  470.000;  134.000
242.673;  -37.650; -381.000; -309.000
242.815; -108.075; -925.000; -899.000
242.958;  -75.975; -482.000; -381.000
243.101;    6.725;  132.000;  187.000
243.244;  -81.775; -564.000; -521.000
243.387;  -50.750; -313.000; -316.000
243.530;  -88.325; -657.000; -674.000
243.672;   -2.425;   43.000;  -92.000
243.815;  -65.275; -355.000; -283.000
243.958;    3.550;   98.000;  -26.000
244.101;   -8.650;   59.000;  -16.000
244.243;  -28.575;  -47.000;  101.000
244.386; -111.925; -761.000; -630.000
244.529;  -20.300; -132.000; -139.000
244.672; -141.350;-1154.000; -951.000
244.814;  -93.400; -621.000; -794.000
244.957;  -55.450; -380.000; -304.000
245.100;  -74.925; -489.000; -489.000
245.242;  -67.400; -387.000; -374.000
245.385;  -18.625;  -59.000;  -39.000
245.528; -123.675; -871.000; -705.000
245.670;   87.425;  612.000;  634.000
245.813;  -72.725; -599.000; -547.000
245.956;  -35.225; -324.000; -275.000
246.098;  -78.600; -508.000; -650.000
246.241;   17.300;  194.000;   48.000
246.383;  -20.475; -119.000;  -73.000
246.526;  -74.400; -454.000; -525.000
246.669; -108.275; -889.000; -780.000
246.811;   11.875;  172.000;   -1.000
246.954;  -64.800; -512.000; -426.000
247.096;  -13.250;  -84.000;   -6.000
247.239;  -71.750; -482.000; -445.000
247.381;  -60.975; -647.000; -488.000
247.524;   96.250;  645.000;  679.000
247.666;  -15.525;   58.000;   11.000
247.809; -104.650; -887.000; -691.000
247.951;  -12.750;  -75.000;  138.000
248.094;   32.375;  432.000;  308.000
248.236; -151.750;-1262.000;-1238.000
248.378;  -11.475; -356.000;  -81.000
248.521;  -36.250; -334.000; -337.000
248.663;  -29.925; -236.000; -267.000
248.806;  -35.600; -300.000; -266.000
248.948; -102.625; -886.000; -763.000
249.090;  -55.425; -428.000; -398.000
249.233;  -60.900; -344.000; -381.000
249.375;  -57.800; -474.000; -451.000
249.518;  -29.025;  -83.000; -133.000
249.660;  -23.475; -103.000;    3.000
249.802; -168.950;-1303.000;-1189.000
249.945;  -84.275; -612.000; -540.000
250.087;  -98.575; -834.000; -768.000
250.229;  -43.200; -362.000; -480.000
250.371;  -68.250; -494.000; -439.000
250.514;  -55.950; -310.000; -244.000
250.656;  -10.475;   69.000;  102.000
250.798; -101.300; -849.000; -800.000
250.940;  -48.650; -322.000; -322.000
251.083;  -38.625; -335.000; -111.000
251.225;   58.425;  338.000;  310.000
251.367;  -42.625; -274.000; -373.000
251.509;  -44.850; -265.000; -210.000
251.651;  -93.600; -731.000; -671.000
251.794;   46.950;  538.000;  632.000
251.936; -122.250; -821.000; -747.000
252.078;  -55.500; -540.000; -461.000
252.220;  -67.425; -645.000; -477.000
252.362;   48.425;  344.000;  462.000
252.504;  -72.450; -677.000; -584.000
252.646; -101.625; -875.000; -722.000
252.788;  -14.000;   14.000; -128.000
252.931;  -44.525; -257.000; -253.000
253.073;  -50.775; -376.000; -317.000
253.215;   -0.475;  141.000;  122.000
253.357;  -18.025;   82.000; -153.000
253.499;  -53.800; -374.000; -234.000
253.641;  -92.950; -749.000; -594.000
253.783;  -89.250; -609.000; -527.000
253.925;  -81.825; -586.000; -591.000
254.067; -100.875; -744.000; -667.000
254.209;  -34.225; -391.000; -259.000
254.351; -123.900; -865.000; -883.000
254.493;  -73.800; -441.000; -417.000
254.635; -119.350; -936.000; -818.000
254.777;  -81.500; -752.000; -687.000
254.918;  -65.250; -512.000; -430.000
255.060;  -53.675; -551.000; -395.000
255.202;  -66.275; -473.000; -261.000
255.344;  -80.000; -658.000; -455.000
255.486;  -61.500; -471.000; -406.000
255.628; -103.525; -780.000; -781.000
255.770;  -88.175; -676.000; -536.000
255.912;  -74.650; -559.000; -468.000
256.053;  -82.300; -730.000; -508.000
256.195;  152.675; 1008.000;  903.000
256.337;  -94.950; -861.000; -595.000
256.479;   50.025;  532.000;  416.000
256.621;  -46.800; -394.000; -212.000
256.762; -105.150; -789.000; -742.000
256.904;   45.950;  485.000;  487.000
257.046;  -54.650; -381.000; -271.000
257.188;  -51.300; -351.000; -264.000
257.329;  -70.950; -525.000; -464.000
257.471; -122.600; -939.000; -807.000
257.613;  -64.700; -584.000; -498.000
257.755; -146.400;-1073.000; -982.000
257.896;   30.225;  286.000;  392.000
258.038;  -68.425; -403.000; -352.000
258.180;  -51.150; -354.000; -279.000
258.321;  -80.800; -581.000; -457.000
258.463;  -19.375;  -71.000;  133.000
258.605;  -89.000; -562.000; -570.000
258.746; -102.175; -886.000; -772.000
258.888; -128.900;-1026.000;-1020.000
259.029;   23.625;  121.000;   -8.000
259.171;  -86.800; -614.000; -550.000
259.313;   -6.625;  -49.000;  -47.000
259.454;  -80.175; -536.000; -414.000
259.596;  -60.100; -483.000; -390.000
259.737;  -71.800; -590.000; -474.000
259.879;   35.675;  217.000;  311.000
260.020;   89.900;  901.000;  636.000
260.162;  -31.325; -146.000; -253.000
260.303; -119.275; -768.000; -687.000
260.445;  -85.625; -609.000; -613.000
260.586;   24.025;  392.000;  157.000
260.728;  -53.175; -360.000; -248.000
260.869;  -67.175; -350.000; -343.000
261.011;   55.700;  706.000;  537.000
261.152;  -52.950; -479.000; -319.000
261.293;  -83.125; -576.000; -595.000
261.435;  -30.600; -219.000; -184.000
261.576;  -42.425; -455.000; -325.000
261.718;   49.225;  420.000;  470.000
261.859; -121.100; -940.000; -949.000
262.000; -131.000; -951.000;-1016.000
262.142;  -25.100;  -52.000;  -60.000
262.283; -128.500; -808.000; -691.000
262.424;  -99.150; -666.000; -625.000
262.566; -153.425;-1161.000; -983.000
262.707; -112.325; -840.000; -830.000
262.848; -118.100; -769.000; -726.000
262.990;  -49.775; -362.000; -345.000
263.131;   73.325;  650.000;  681.000
263.272;  -28.350;  -61.000;  -41.000
263.413;  -94.275; -589.000; -561.000
263.555;  -62.350; -669.000; -143.000
263.696;  -87.675; -550.000; -641.000
263.837;  -57.075; -449.000; -551.000
263.978;  -11.275;   -5.000;  -77.000
264.119;  -53.650; -283.000; -264.000
264.261; -102.150; -847.000; -630.000
264.402;   -9.325;   33.000;   40.000
264.543;  -82.325; -509.000; -524.000
264.684;  -23.350;   61.000;  -50.000
264.825;  -59.975; -816.000; -538.000
264.966;  -18.775;  -84.000;  -67.000
265.107; -114.050; -646.000; -670.000
265.248; -115.100; -825.000; -812.000
265.390;    1.875;  152.000;   -9.000
265.531;  -27.675; -238.000; -107.000
265.672;  -88.900; -557.000; -630.000
265.813;   53.100;  563.000;  439.000
265.954; -132.325; -959.000; -940.000
266.095;  -30.525; -372.000; -322.000
266.236;  -96.575; -686.000; -548.000
266.377;  -46.125; -243.000; -297.000
266.518;  -74.875; -619.000; -547.000
266.659;   12.650;  170.000;  268.000
266.800;   -1.900;   83.000;   85.000
266.941;  -77.075; -487.000; -478.000
267.082;   10.000;  354.000;   99.000
267.223;  -56.150; -344.000; -273.000
267.364; -110.100; -892.000; -686.000
267.504;  -21.675;    3.000;  135.000
267.645;    3.650;  160.000;   67.000
267.786;  -45.425; -147.000;  -86.000
267.927;  -76.575; -473.000; -379.000
268.068;  -14.425; -186.000;  -61.000
268.209;  -60.375; -175.000; -413.000
268.350;  -55.350; -388.000; -532.000
268.490;  -99.975; -648.000; -521.000
268.631;   18.700;  127.000;  225.000
268.772; -108.625; -874.000; -647.000
268.913;  -57.700; -328.000; -476.000
269.054;   -8.975; -117.000;   12.000
269.194;  -45.600; -418.000; -402.000
269.335; -163.350;-1137.000;-1074.000
269.476;  -21.125;   33.000;  -35.000
269.617;  -42.325; -347.000; -392.000
269.757;  -90.550; -713.000; -646.000
269.898; -101.050; -856.000; -613.000
270.039;  -66.775; -415.000; -405.000
270.180; -128.675; -952.000; -816.000
270.320;  -43.375; -190.000; -250.000
270.461;  -30.300; -277.000; -249.000
270.602;  -24.100; -186.000; -156.000
270.742; -125.525; -868.000; -943.000
270.883;  -51.050; -442.000; -390.000
271.023;  -69.225; -358.000; -357.000
271.164;  -76.000; -607.000; -528.000
271.305;  -90.275; -666.000; -654.000
271.445;  -98.050; -722.000; -683.000
271.586;  -69.175; -462.000; -283.000
271.726;  -43.250; -397.000; -322.000
271.867;  -75.550; -594.000; -534.000
272.008;   39.450; -473.000; -285.000
272.148;   81.900;  462.000;  468.000
272.289;  -10.800; -113.000; -181.000
272.429;    3.025;   19.000;  185.000
272.570;  -95.425; -633.000; -737.000
272.710; -111.550; -825.000; -775.000
272.851;  -24.625;  113.000; -130.000
272.991; -163.600;-1173.000;-1077.000
273.131;  -74.275; -419.000; -459.000
273.272; -110.800; -683.000; -723.000
273.412;  -24.750; -143.000;  -31.000
273.553;  -75.400; -488.000; -507.000
273.693;  112.200;  913.000;  858.000
273.834; -117.475; -894.000; -692.000
273.974;  -98.075; -664.000; -615.000
274.114;  -99.450; -772.000; -560.000
274.255;   49.750;  414.000;  373.000
274.395;  -22.600; -180.000; -125.000
274.535;   18.400;  199.000;  350.000
274.676;    2.550;  225.000;   94.000
274.816;   -8.250;  110.000;   34.000
274.956;  -98.075; -624.000; -690.000
275.097; -107.700;-1014.000; -922.000
275.237; -116.775; -913.000; -803.000
275.377; -115.825; -778.000; -689.000
275.517; -137.850; -878.000; -937.000
275.658;  -68.300; -590.000; -555.000
275.798;  -86.725; -606.000; -413.000
275.938;   16.475;  215.000;  323.000
276.078;  -92.300; -626.000; -395.000
276.218;    0.400;   99.000;  104.000
276.359; -134.200;-1026.000;-1024.000
276.499;  -76.325; -605.000; -446.000
276.639;  -44.800; -305.000; -151.000
276.779;  -49.825; -475.000; -357.000
276.919; -109.650; -783.000; -624.000
277.059;  -22.450; -261.000; -212.000
277.199;  -44.225; -357.000; -259.000
277.340;   27.250;  287.000;  175.000
277.480; -119.500; -840.000; -693.000
277.620;    7.125;  192.000;   16.000
277.760; -191.675;-1533.000;-1294.000
277.900;   -1.725;  113.000;   33.000
278.040;   -6.800;  137.000;  159.000
278.180;   16.075;  270.000;  170.000
278.320;  -15.900;   21.000;   56.000
278.460;  -69.275; -443.000; -469.000
278.600;  -92.725; -708.000; -598.000
278.740;   23.350;  448.000;  224.000
278.880; -104.525; -768.000; -791.000
279.020;  -41.050; -194.000; -144.000
279.160;  -93.375; -672.000; -595.000
279.300; -127.200; -926.000; -873.000
279.440;  -94.650; -709.000; -622.000
279.579;  -83.100;-1014.000; -929.000
279.719;  -66.825; -410.000; -394.000
279.859;   30.800;   -4.000;   41.000
279.999;   -7.850; -208.000;  101.000
280.139;  -40.125; -435.000; -387.000
280.279;  -99.375; -708.000; -745.000
280.419;  -22.925; -229.000; -147.000
280.559;  -33.325; -259.000; -180.000
280.698;  -95.125; -790.000; -639.000
280.838;  -96.550; -778.000; -800.000
280.978; -102.200; -846.000; -790.000
281.118; -103.250; -811.000; -704.000
281.257;    3.775;   24.000;    6.000
281.397; -137.000;-1094.000; -960.000
281.537; -107.750; -599.000; -712.000
281.677;  -38.825; -150.000; -101.000
281.816;  -95.075; -700.000; -630.000
281.956;  -35.725; -193.000; -257.000
282.096;  -62.350; -539.000; -396.000
282.235; -100.350; -672.000; -638.000
282.375;  -23.650; -243.000;  -98.000
282.515; -105.575; -715.000; -707.000
282.654;   -6.700;   29.000;  106.000
282.794;   22.750;  388.000;  244.000
282.934;  -68.925; -530.000; -491.000
283.073; -125.475;-1030.000; -857.000
283.213;  -65.575; -460.000; -467.000
283.353;  -65.050; -408.000; -349.000
283.492;  -30.950; -264.000; -296.000
283.632;  -56.375; -254.000; -168.000
283.771;  -99.325; -859.000; -730.000
283.911;  -55.000; -369.000; -260.000
284.050; -104.650; -794.000; -748.000
284.190; -153.750;-1229.000;-1096.000
284.329; -144.400;-1055.000; -964.000
284.469;  -95.825; -516.000; -591.000
284.608;  -70.725; -559.000; -598.000
284.748;  -80.025; -614.000; -570.000
284.887;  -23.700;  -87.000;  -20.000
285.027; -119.000; -844.000; -892.000
285.166;  -46.500; -192.000; -249.000
285.306;  -19.850; -116.000;  -33.000
285.445;  -52.950; -229.000; -343.000
285.584;  -92.750; -630.000; -494.000
285.724;  -63.175; -282.000; -322.000
285.863; -113.975; -857.000; -507.000
286.002;  -55.025; -366.000; -276.000
286.142; -112.150; -715.000; -622.000
286.281;  -72.100; -525.000; -493.000
286.420;  -78.850; -554.000; -417.000
286.560;   90.200;  653.000;  623.000
286.699; -129.175; -958.000; -912.000
286.838;  -96.550; -590.000; -591.000
286.978;  -85.525; -533.000; -537.000
287.117; -128.600;-1085.000; -950.000
287.256;  -34.850; -228.000; -211.000
287.395;  -62.075; -197.000; -378.000
287.535;  -61.850; -370.000; -298.000
287.674;  -86.550; -509.000; -484.000
287.813;   54.200;  661.000;  533.000
287.952; -126.300;-1010.000; -871.000
288.091; -150.050;-1049.000; -915.000
288.231;    0.900;   13.000;   15.000
288.370; -166.575;-1217.000;-1200.000
288.509;  -88.425; -728.000; -645.000
288.648;  -91.475; -770.000; -548.000
288.787;  -43.850; -243.000;  -87.000
288.926;  -73.450; -454.000; -475.000
289.065;  105.500;  859.000;  672.000
289.204;  -68.200; -377.000; -217.000
289.344; -100.500; -791.000; -690.000
289.483;   15.650;  416.000;  304.000
289.622;  -33.975; -291.000; -149.000
289.761;  -23.350; -309.000; -166.000
289.900; -115.025; -785.000; -626.000
290.039;  -19.300;  -12.000;  -95.000
290.178;  -35.200; -274.000; -180.000
290.317;  -93.775; -618.000; -479.000
290.456;  -62.925; -463.000; -451.000
290.595; -120.675; -961.000; -833.000
290.734; -128.375; -904.000; -891.000
290.873;  -77.650; -456.000; -420.000
291.011; -109.225; -833.000; -843.000
291.150; -107.725; -770.000; -682.000
291.289;  -33.225; -343.000; -110.000
291.428;  -93.650; -599.000; -480.000
291.567;  -65.850; -370.000; -442.000
291.706;  -16.350;  109.000;  154.000
291.845;  -88.200; -597.000; -505.000
291.984; -159.400;-1234.000;-1061.000
292.122;   62.200;  602.000;  582.000
292.261;   42.725;  620.000;  463.000
292.400;  -11.425; -144.000;  211.000
292.539; -127.675; -959.000; -813.000
292.678;  -37.650; -325.000; -300.000
292.816; -154.425;-1136.000; -965.000
292.955; -103.800; -844.000; -684.000
293.094;  -42.250; -173.000; -337.000
293.233;  -67.275; -556.000; -400.000
293.371;  -35.625; -225.000;  -84.000
293.510; -104.750; -866.000; -780.000
293.649; -128.500; -959.000; -924.000
293.787; -112.975;-1083.000;-1012.000
293.926;  -20.550; -113.000;  -32.000
294.065;  -54.875; -379.000; -290.000
294.203;   32.325;  298.000;  406.000
294.342;   14.700;   74.000;  156.000
294.481; 5784.000;51180.000; -836.000
294.619;  -31.350; -425.000; -582.000
294.758; -160.050;-1230.000;-1137.000
294.896;   -5.825; -125.000;    5.000
295.035; -130.025;-1040.000;-1006.000
295.174; -126.825;-1082.000; -954.000
295.312;  -52.050; -323.000; -203.000
295.451;  -53.600; -307.000; -428.000
295.589;  -81.450; -389.000; -518.000
295.728;   -3.150; -292.000; -165.000
295.866;  -17.725;  -36.000;  -51.000
296.005;  -76.450; -584.000; -341.000
296.143;  -86.425; -558.000; -596.000
296.282; -109.475; -957.000; -881.000
296.420;  -84.700; -657.000; -557.000
296.559;  -97.525; -892.000; -633.000
296.697;  -68.300; -847.000; -665.000
296.835;  -81.925;-1141.000;-1002.000
296.974;    5.275;  -23.000;   39.000
297.112;  -61.450; -443.000; -504.000
297.251;  -87.675; -815.000; -755.000
297.389;  -19.725; -576.000; -438.000
297.527;   -8.150; -145.000;  -83.000
297.666;  -70.950; -486.000; -438.000
297.804;  -56.025; -404.000; -264.000
297.942;  -10.050; -136.000; -161.000
298.081;  -15.700; -183.000;   63.000
298.219;   -5.050;  -17.000;  -19.000
298.357;  -14.450; -144.000;  -71.000
298.495;  -64.100; -810.000; -812.000
298.634;   21.850;  245.000;  219.000
298.772;  -55.425; -220.000; -338.000
298.910;  -54.300; -309.000; -182.000
299.048;  -20.175; -130.000; -153.000
299.187;  -39.350; -350.000; -250.000
299.325;  -21.875;   52.000;  122.000
299.463;  -35.275; -389.000; -299.000
299.601;  -22.225; -327.000; -271.000
299.739; -133.000; -908.000; -883.000
299.877;  -91.900; -791.000; -703.000
300.016; -112.275;-1095.000; -935.000
300.154;   36.975;  -19.000; -161.000
300.292;  -46.625; -428.000; -348.000
300.430;  -27.425; -408.000; -291.000
300.568; -131.375; -940.000; -874.000
300.706;  -76.650; -366.000; -469.000
300.844; -140.125;-1108.000; -979.000
300.982;   55.325;  246.000;  282.000
301.120; -131.825; -965.000; -866.000
301.258;  -91.250; -812.000; -705.000
301.396;   -5.525;  104.000;  -41.000
301.534;  -30.325; -218.000; -293.000
301.672;  -72.675; -664.000; -521.000
301.810;  -71.700; -613.000; -545.000
301.948;    8.175;   53.000;  149.000
302.086;  193.950; -250.000;  -32.000
302.224;  222.300; -610.000; -585.000
302.362;  -74.950; -558.000; -622.000
302.500; -110.775; -923.000; -893.000
302.638;   25.250;  128.000;  245.000
302.776;  -44.650; -352.000; -408.000
302.913;   26.750;  447.000;  236.000
303.051;  -34.125;  -86.000;  -23.000
303.189;    3.800;   90.000;  118.000
303.327;  -60.150; -341.000; -256.000
303.465;  -91.725; -832.000; -588.000
303.603; -102.425; -805.000; -604.000
303.740;   56.150;  417.000;  241.000
303.878;  -77.025; -800.000; -759.000
304.016; -104.475; -915.000; -790.000
304.154; -152.550;-1123.000;-1152.000
304.291;  -74.450; -505.000; -554.000
304.429;   -3.225;  102.000;   74.000
304.567; -142.725; -908.000; -893.000
304.705;  -72.800; -408.000; -515.000
304.842;  -36.950; -616.000; -540.000
304.980;   21.075;  215.000;   35.000
305.118;  -25.950; -367.000; -365.000
305.255; -133.025; -945.000; -927.000
305.393;   24.650;  178.000;  239.000
305.531; -138.750;-1173.000; -956.000
305.668;  -89.475; -663.000; -582.000
305.806;    1.025; -358.000; -439.000
305.943;  -21.900; -629.000; -637.000
306.081;  -15.500; -378.000; -267.000
306.219; -115.875; -863.000; -748.000
306.356;   10.525;  158.000;   27.000
306.494;  103.625;  981.000;  761.000
306.631;   -7.700;  -11.000;  -55.000
306.769;  -38.925; -613.000; -485.000
306.906;  -48.925; -284.000; -258.000
307.044;  -69.325; -473.000; -488.000
307.181;  -65.325; -410.000; -332.000
307.319;   -2.300;  112.000;   87.000
307.456; -168.375;-1191.000;-1153.000
307.594; -102.400; -980.000; -727.000
307.731;  -36.925; -371.000; -164.000
307.868;  -21.000;  -15.000;   20.000
308.006; -127.725; -961.000; -847.000
308.143;  -81.275; -618.000; -330.000
308.281;   39.200;  -37.000; -254.000
308.418;  -71.250; -748.000; -640.000
308.555;  -71.475; -400.000; -250.000
308.693;  -76.475; -577.000; -573.000
308.830; -105.000; -712.000; -657.000
308.967;  -15.675; -215.000;  -95.000
309.105;  -43.000; -507.000; -396.000
309.242;  -18.025; -468.000; -367.000
309.379;   23.750; -577.000; -655.000
309.517; -117.000; -936.000; -948.000
309.654; -112.350; -910.000; -734.000
309.791;  -88.275; -662.000; -580.000
309.928; -116.575; -977.000; -914.000
310.065;  117.700;  819.000;  697.000
310.203;  -86.675; -825.000; -850.000
310.340;  -56.850; -465.000; -321.000
310.477;  -89.375; -412.000; -516.000
310.614;  -68.350; -383.000; -473.000
310.751;  -86.400; -427.000; -518.000
310.889;  -41.300;    1.000;   11.000
311.026; -142.250;-1161.000; -939.000
311.163;  -63.525; -386.000; -380.000
311.300;  -65.625; -512.000; -479.000
311.437;  -82.200; -658.000; -619.000
311.574; -145.975;-1226.000; -985.000
311.711;  -61.100; -595.000; -433.000
311.848;  -38.375; -380.000; -388.000
311.985;    2.825;  270.000;   93.000
312.122; -115.950; -932.000; -762.000
312.259; -118.900; -941.000; -994.000
312.396;  -79.950; -508.000; -551.000
312.533;  -91.075; -812.000; -790.000
312.670; -132.100;-1070.000; -898.000
312.807;  -45.300; -352.000; -367.000
312.944;  -69.900; -513.000; -611.000
313.081;  -32.025; -150.000; -415.000
313.218; -102.925;-1111.000; -867.000
313.355;  -15.850; -531.000; -449.000
313.492;  -29.300; -455.000; -292.000
313.629;  111.650;  815.000;  735.000
313.766; -149.525;-1176.000;-1008.000
313.902;  -28.150; -186.000;   21.000
314.039;  -51.325; -372.000; -289.000
314.176;   25.550;  286.000;  192.000
314.313;  -70.900; -569.000; -473.000
314.450;  -78.725; -788.000; -684.000
314.587;  -69.425; -468.000; -480.000
314.723;   -5.850;  -78.000;  130.000
314.860;   27.600;  318.000;  332.000
314.997;   30.625;  223.000;  142.000
315.134;  -36.375; -385.000; -368.000
315.270;  -32.950; -480.000; -496.000
315.407; -128.400;-1094.000; -967.000
315.544;  -51.100; -657.000; -538.000
315.681;  -64.675; -681.000; -565.000
315.817;   29.075; -133.000; -176.000
315.954;   39.100; -613.000; -392.000
316.091; -114.150;-1045.000;-1023.000
316.227;  -41.600;  -71.000; -179.000
316.364;   -7.675;   23.000;    6.000
316.500;  -54.650; -113.000; -300.000
316.637;  -37.050; -181.000; -302.000
316.774;  -94.200; -625.000; -358.000
316.910;  -95.975; -598.000; -629.000
317.047;  -79.800; -487.000; -351.000
317.183;  -77.050; -435.000; -566.000
317.320;   24.175; -367.000; -321.000
317.456;  -35.425; -733.000; -805.000
317.593;  -88.550; -598.000; -641.000
317.729;   -6.125;  168.000;  -67.000
317.866; -191.200;-1434.000;-1285.000
318.002; -106.575; -708.000; -948.000
318.139; -125.250; -883.000; -867.000
318.275; -122.525;-1003.000; -738.000
318.412;  -78.950; -517.000; -336.000
318.548;  -81.800; -751.000; -720.000
318.685;  -98.750; -985.000; -888.000
318.821;  -90.400; -762.000; -735.000
318.957;  -22.625;   34.000;  -23.000
319.094;   26.600;  297.000;  154.000
319.230;  -83.100; -756.000; -742.000
319.367;  -12.550; -471.000; -520.000
319.503;  -33.425; -538.000; -436.000
319.639; -106.525; -877.000; -793.000
319.775;  -93.150; -750.000; -685.000
319.912;  -65.200; -424.000; -519.000
320.048; -113.425;-1184.000;-1184.000
320.184;   70.425;   59.000;   70.000
320.321;  -64.625; -497.000; -467.000
320.457;   70.600;  475.000;  662.000
320.593;  -68.725; -375.000; -382.000
320.729; -105.625; -732.000; -734.000
320.866;  -76.750; -577.000; -635.000
321.002; -105.350; -759.000; -809.000
321.138;  -38.600; -135.000; -211.000
321.274;    9.500; -148.000; -115.000
321.410;  -66.300; -585.000; -353.000
321.546; -107.825;-1011.000; -911.000
321.683;   26.400;  400.000;  185.000
321.819;  -36.925;  -48.000; -117.000
321.955; -114.400; -743.000; -722.000
322.091;  -68.825; -585.000; -540.000
322.227;  -48.675; -382.000; -202.000
322.363;  -52.700; -320.000; -215.000
322.499;  -57.050; -343.000; -331.000
322.635;   81.400;  636.000;  443.000
322.771;  -10.825; -139.000;   12.000
322.907;   33.900;  129.000;  327.000
323.043;  -52.475; -115.000; -206.000
323.179;  -58.350; -394.000; -363.000
323.315;  -53.350; -401.000; -371.000
323.451;   14.050; -328.000; -236.000
323.587;   43.475;  -60.000;  -77.000
323.723;  -44.475; -682.000; -601.000
323.859;  -34.025; -258.000;  -76.000
323.995;  -51.500; -467.000; -409.000
324.131; -140.300; -967.000; -892.000
324.267;  -52.925; -254.000; -276.000
324.402; -137.625; -960.000; -983.000
324.538;  -41.500; -279.000; -104.000
324.674;  -15.825;  164.000;   77.000
324.810;   28.800;  226.000;  308.000
324.946;  -48.550; -810.000; -658.000
325.082;  -82.350; -568.000; -475.000
325.217;  -31.875;  -62.000;   16.000
325.353; -112.875; -764.000; -659.000
325.489;  -82.700; -540.000; -506.000
325.625;  -84.300; -579.000; -525.000
325.760;   86.300;  517.000;  376.000
325.896;   11.275; -515.000; -702.000
326.032;  -56.950; -403.000; -352.000
326.168;  -59.850; -462.000; -369.000
326.303;  -59.475; -352.000; -461.000
326.439;  -18.900; -336.000; -276.000
326.575;   -5.800; -190.000;  -29.000
326.710;  -21.900; -156.000;  -30.000
326.846;  -25.800;  146.000;  103.000
326.982;  -82.150; -530.000; -548.000
327.117;  -64.600; -481.000; -442.000
327.253;  -81.625; -745.000; -742.000
327.388; -133.950;-1137.000;-1153.000
327.524;  -89.925; -811.000; -578.000
327.659;  -31.875;  -58.000;  -22.000
327.795;  -17.000;   69.000;   45.000
327.931;  -57.125; -723.000; -499.000
328.066;  -29.950; -417.000; -276.000
328.202;  -25.850;   12.000; -129.000
328.337;   88.250;  957.000;  713.000
328.473;   18.125;  -12.000;  -74.000
328.608;  -26.000; -256.000; -267.000
328.743; -113.150; -799.000; -664.000
328.879;   -6.900;  214.000;  114.000
329.014;  -37.625; -102.000; -122.000
329.150;  -92.975; -358.000; -483.000
329.285;  -92.775; -465.000; -466.000
329.421;  -60.725; -548.000; -246.000
329.556;  -28.075;  -36.000;   85.000
329.691;  -94.950; -633.000; -615.000
329.827;  -80.875; -626.000; -480.000
329.962;  -43.075;  131.000; -301.000
330.097;  -96.975; -673.000; -585.000
330.233;  -53.800; -410.000; -223.000
330.368; -128.675; -839.000; -628.000
330.503;  -22.950;    3.000;   98.000
330.638;  -22.925;  -93.000; -125.000
330.774;  -82.475; -609.000; -530.000
330.909;  -63.375; -434.000; -244.000
331.044;  -95.800; -714.000; -708.000
331.179; -179.325;-1217.000;-1109.000
331.315;   -6.350;   77.000;   20.000
331.450;    3.200;  157.000;  285.000
331.585; -101.325; -805.000; -706.000
331.720;  -92.175; -510.000; -460.000
331.855;   -6.350;  -35.000; -102.000
331.990;  413.200;   62.000;  138.000
332.126;  217.800; -110.000;   71.000
332.261;   11.550; -379.000; -265.000
332.396;    0.075; -135.000; -242.000
332.531;  -70.625;-1074.000;-1031.000
332.666;   87.050; -519.000; -363.000
332.801;  -98.125; -726.000; -807.000
332.936;  -33.875; -192.000; -122.000
333.071; -128.650; -870.000; -817.000
333.206;    1.050;  307.000;  379.000
333.341;   30.525;  344.000;  418.000
333.476; -100.100; -627.000; -623.000
333.611;  -50.900; -251.000; -173.000
333.746;  -65.775; -381.000; -464.000
333.881; -133.300; -973.000; -935.000
334.016; -131.150; -936.000; -917.000
334.151; -131.625; -746.000; -702.000
334.286;    0.050;  152.000;  186.000
334.421;  -12.225; -125.000; -178.000
334.556;  -82.625; -611.000; -567.000
334.690;  -91.600; -631.000; -577.000
334.825;   26.975;  381.000;   83.000
334.960;  -72.650; -285.000; -413.000
335.095;  -16.550;  135.000;  -91.000
335.230;  -95.625; -722.000; -738.000
335.365; -146.200;-1084.000; -990.000
335.499; -134.400;-1108.000;-1037.000
335.634;    5.575;    9.000;  534.000
335.769;  -92.675; -755.000; -720.000
335.904;  -60.425; -603.000; -561.000
336.038;  -53.525; -735.000; -657.000
336.173; -115.450;-1206.000;-1194.000
336.308;   18.475; -116.000; -189.000
336.443;   49.525; -544.000; -634.000
336.577;  -56.225; -936.000; -787.000
336.712;   74.125;   -4.000;  -12.000
336.847;  -32.325; -724.000; -607.000
336.981;   44.925; -272.000; -208.000
337.116;  277.775;  615.000;  501.000
337.250;  107.875; -434.000; -421.000
337.385;  471.350; -297.000; -208.000
337.520;  225.275; -632.000; -603.000
337.654;  -32.325; -215.000; -126.000
337.789; -116.475; -989.000; -933.000
337.923;  -40.100; -104.000; -205.000
338.058; -112.025; -673.000; -738.000
338.192;  -74.325; -611.000; -488.000
338.327;  -13.225;  -18.000; -155.000
338.461;  -72.825; -299.000; -469.000
338.596; -108.375; -780.000; -638.000
338.730;  -85.550; -767.000; -803.000
338.865;  169.800;  -46.000; -140.000
338.999;    7.325; -846.000; -702.000
339.134;    2.950; -634.000; -536.000
339.268;   39.975; -741.000; -603.000
339.403;  563.125; -740.000; -775.000
339.537;  283.200; -894.000; -820.000
339.671; -103.275; -829.000; -813.000
339.806;  -34.075; -556.000; -512.000
339.940;   32.875; -261.000; -235.000
340.074; -107.525; -685.000; -510.000
340.209;  -60.225; -351.000; -230.000
340.343;  -92.200; -517.000; -573.000
340.477;  117.475;  998.000; 1036.000
340.612;   10.125;-1033.000; -900.000
340.746;  251.300; -199.000; -243.000
340.880; -112.900; -924.000; -785.000
341.014;  -24.975;  -45.000; -154.000
341.149; -117.025; -756.000; -718.000
341.283; -121.800; -839.000; -754.000
341.417; -121.325;-1124.000; -938.000
341.551;  -40.975; -768.000; -708.000
341.685;  -54.100; -633.000; -611.000
341.820;  -63.650; -562.000; -493.000
341.954;  -65.875; -218.000; -349.000
342.088; -150.625;-1102.000;-1019.000
342.222;   44.850;  565.000;  618.000
342.356;  -86.825; -395.000; -335.000
342.490; -124.525; -880.000; -841.000
342.624;  -58.675; -339.000; -242.000
342.758;  -51.025; -364.000; -312.000
342.892;  -95.550; -710.000; -585.000
343.026;  -37.425;  -58.000; -116.000
343.160;  -56.875; -426.000; -376.000
343.294;  -77.550; -474.000; -337.000
343.428;  -68.725; -488.000; -448.000
343.562;  -35.525; -172.000;  -23.000
343.696;  -58.975; -385.000; -314.000
343.830;  -56.700; -362.000; -356.000
343.964;  -23.425; -231.000; -168.000
344.098;  284.100;  199.000;   70.000
344.232;  254.125; -266.000; -127.000
344.366;   70.475; -567.000; -453.000
344.500;  -60.325; -665.000; -744.000
344.634;  -48.225; -324.000; -164.000
344.768;  -70.350; -531.000; -341.000
344.902;    4.075;  278.000;  256.000
345.035;  -75.800; -556.000; -496.000
345.169; -142.075; -933.000; -656.000
345.303;  -64.775; -308.000; -482.000
345.437; -109.525; -826.000; -717.000
345.571;  -59.950; -675.000; -594.000
345.704;  -70.725; -309.000; -532.000
345.838;  -36.350; -331.000; -284.000
345.972;  -71.025; -543.000; -495.000
346.106;  242.875; -179.000; -190.000
346.239;  470.825; -312.000; -243.000
346.373;  -19.425; -343.000; -302.000
346.507; -139.225; -950.000; -962.000
346.640;    2.400;  -30.000;   13.000
346.774;  -96.000; -650.000; -797.000
346.908;  -31.075; -138.000;  -11.000
347.041;  -99.300; -646.000; -593.000
347.175;  -10.900;  259.000;   27.000
347.309;  -95.475; -698.000; -628.000
347.442; -120.650; -883.000; -732.000
347.576;  129.325;  670.000;  668.000
347.709;   37.600; -123.000;  -52.000
347.843; -134.675; -933.000; -825.000
347.976;   15.050;  235.000;  294.000
348.110; -175.400;-1268.000;-1186.000
348.243; -111.325; -679.000; -772.000
348.377;  -13.250;  -26.000;   60.000
348.510;   40.900;  403.000;  540.000
348.644;  -43.225;  -37.000; -159.000
348.777;  -19.350;  180.000;  191.000
348.911;  -42.350; -142.000; -112.000
349.044;   76.825;  471.000;  448.000
349.178;  -45.000;-1069.000;-1006.000
349.311;  112.375;  141.000;  255.000
349.444;   37.875; -927.000; -813.000
349.578;  -37.750; -347.000; -200.000
349.711; -122.100; -959.000; -862.000
349.845;  -84.825; -661.000; -591.000
349.978; -162.975;-1224.000;-1137.000
350.111;  -79.075; -546.000; -612.000
350.244; -115.675; -596.000; -700.000
350.378;  -54.225; -392.000; -393.000
350.511;  -78.000; -393.000; -426.000
350.644;  -92.250; -808.000; -806.000
350.778;   -6.800;  168.000;  104.000
350.911;  -12.050;  134.000;  140.000
351.044;  -97.675; -685.000; -615.000
351.177;  -45.775; -321.000; -281.000
351.310;  -36.375;    3.000; -131.000
351.444; -123.175; -888.000; -788.000
351.577;   32.675;  140.000;   90.000
351.710;   64.425;  593.000;  417.000
351.843;  -37.775; -165.000;  -77.000
351.976;  -22.125;  149.000;  -79.000
352.109;  -93.525; -621.000; -612.000
352.242;  -63.850; -464.000; -419.000
352.376;  -95.375; -580.000; -636.000
352.509;   20.225; -437.000; -356.000
352.642;  -88.800; -654.000; -604.000
352.775;  -12.675; -141.000;  -98.000
352.908; -124.250; -933.000; -904.000
353.041; -106.850; -814.000; -824.000
353.174;  -68.675; -551.000; -424.000
353.307;  -99.575; -753.000; -764.000
353.440;   57.450;  541.000;  453.000
353.573; -102.200; -957.000;-1008.000
353.706;  -52.500; -384.000; -558.000
353.839;  -43.175; -264.000; -220.000
353.971; -102.550; -657.000; -512.000
354.104; -121.600; -896.000; -835.000
354.237;  -81.250; -627.000; -662.000
354.370; -110.825; -846.000; -879.000
354.503; -173.725;-1231.000;-1308.000
354.636;  -43.075; -529.000; -348.000
354.769; -125.175; -937.000; -860.000
354.902;  -36.125; -230.000; -139.000
355.034;  -37.575; -164.000; -220.000
355.167;   -2.150; -262.000; -162.000
355.300;  -80.775;-1061.000; -880.000
355.433; 1420.725;  -71.000;  -14.000
355.565; 2241.325; -402.000; -384.000
355.698;  590.575; -356.000; -296.000
355.831;    1.400; -882.000; -801.000
355.964;   15.925; -285.000; -170.000
356.096;  -80.825; -856.000; -843.000
356.229;  -17.050; -523.000; -530.000
356.362;  510.925; -373.000; -266.000
356.494;  925.300; -229.000; -162.000
356.627;  330.250;  269.000;  377.000
356.760;  871.400;  120.000;   53.000
356.892; 1517.425; -286.000; -601.000
357.025;  323.675;  403.000;  389.000
357.157;  226.950; -167.000; -179.000
357.290; 1224.650; -856.000; -713.000
357.423;  377.550; -667.000; -556.000
357.555;   96.350; -217.000; -228.000
357.688;  129.975; -483.000; -364.000
357.820;  152.325; -870.000; -877.000
357.953; 1475.625; -563.000; -589.000
358.085;  223.300; -632.000; -612.000
358.218;  102.525;-1131.000; -932.000
358.350;   23.575;  -58.000;  312.000
358.483; -158.000;-1300.000;-1187.000
358.615; -138.525;-1182.000;-1078.000
358.747; -156.750;-1187.000;-1058.000
358.880;  -58.425; -810.000; -744.000
359.012;  -31.925; -376.000; -202.000
359.145;  -68.075; -480.000; -511.000
359.277;  -65.875; -962.000; -913.000
359.409; 1230.300;  536.000;  231.000
359.542;  256.975; -738.000; -688.000
359.674;   13.600;   46.000;   13.000
359.806;  -87.900; -565.000; -438.000
359.939;  -48.400; -617.000; -516.000
360.071;   22.025; -583.000; -579.000
360.203;  -20.250; -411.000; -364.000
360.335;   21.450;  164.000;  -16.000
360.468;   83.375; -249.000; -307.000
360.600; 1331.950; -547.000; -454.000
360.732; 4270.300; -546.000; -423.000
360.864;  660.400;-1216.000;-1044.000
360.996;   64.500; -516.000; -554.000
361.129;  -48.325; -389.000; -598.000
361.261;  -14.625;  110.000; -113.000
361.393;  -66.275; -252.000; -214.000
361.525;   -3.025;   94.000;  244.000
361.657; -106.550; -821.000; -703.000
361.789;  -43.800; -139.000; -155.000
361.921;  -48.125; -642.000; -593.000
362.053;   81.100;  524.000;  541.000
362.185;  -22.525;  288.000;   72.000
362.318; -120.650; -709.000; -705.000
362.450;   25.675;  294.000;  444.000
362.582; -103.650; -913.000; -870.000
362.714;  -67.725; -353.000; -332.000
362.846;  -96.400; -606.000; -490.000
362.978; -143.600; -941.000; -811.000
363.109;  -38.875; -161.000; -260.000
363.241;  134.575; -739.000; -749.000
363.373;  616.375; -649.000; -564.000
363.505; 1047.375; -186.000;  -91.000
363.637;  226.375; -787.000; -601.000
363.769; -141.950;-1067.000;-1080.000
363.901;  -82.075; -596.000; -654.000
364.033; -158.400;-1103.000;-1062.000
364.165;  -22.550; -283.000; -283.000
364.296;   88.600; -316.000; -177.000
364.428;  189.025;-1344.000;-1220.000
364.560;  -62.250; -679.000; -661.000
364.692;  -95.350; -738.000; -835.000
364.824;   -9.525; -588.000; -456.000
364.955;  496.675; -402.000; -564.000
365.087; 1724.000;-1097.000; -852.000
365.219;  114.550; -686.000; -816.000
365.351;  -70.000; -526.000; -572.000
365.482;    8.850;  300.000;  240.000
365.614;  -64.500; -402.000; -314.000
365.746; -101.250; -729.000; -752.000
365.877;  -83.625; -706.000; -672.000
366.009;  411.625;  -35.000;  -62.000
366.141;  -29.850;-1249.000;-1134.000
366.272; -109.250; -803.000; -719.000
366.404; -121.125;-1005.000; -874.000
366.535;  -22.425; -139.000;  -12.000
366.667; -107.650; -644.000; -649.000
366.799;   13.475;  353.000;  203.000
366.930; -128.400; -862.000; -996.000
367.062;  185.225; -639.000; -613.000
367.193;  343.200; -872.000; -842.000
367.325;  -59.450; -580.000; -684.000
367.456;   -9.975; -246.000;   31.000
367.588;  267.675; -371.000; -318.000
367.719;   46.825;  -44.000;  -45.000
367.851;  -54.300; -222.000; -241.000
367.982;  -99.025; -875.000; -732.000
368.113;  -29.650; -475.000; -358.000
368.245; -139.900; -960.000; -841.000
368.376;  -59.675; -254.000; -302.000
368.508;  -57.925; -188.000; -263.000
368.639; -164.625;-1166.000;-1034.000
368.770;  -97.000; -670.000; -589.000
368.902; -121.800; -836.000; -926.000
369.033; -128.375; -906.000; -855.000
369.164;  -43.000; -720.000; -653.000
369.296;  -97.275; -452.000; -601.000
369.427;  -44.150; -209.000; -144.000
369.558;  -80.125; -593.000; -377.000
369.689;  -87.675; -721.000; -569.000
369.821; -143.850; -951.000; -845.000
369.952;  -34.000;   42.000; -108.000
370.083;  -64.800; -229.000; -108.000
370.214;  -96.425; -735.000; -650.000
370.345;  -12.925;   65.000;   81.000
370.477; -120.700; -810.000; -790.000
370.608;   17.500; -328.000; -264.000
370.739; -161.650;-1233.000;-1292.000
370.870; -119.675;-1102.000; -923.000
371.001;  -14.700; -378.000; -467.000
371.132; -114.825; -754.000; -735.000
371.263;  -29.825;  -42.000; -148.000
371.394; -146.250; -841.000; -748.000
371.525;    6.150;  345.000;  225.000
371.657; -119.950; -808.000; -670.000
371.788;    7.100;  103.000;  199.000
371.919;    6.475; -384.000; -304.000
372.050; 1236.225;  -91.000; -156.000
372.181;  380.050; -188.000; -294.000
372.311;   79.350;   42.000; -127.000
372.442;  -64.250; -457.000; -451.000
372.573;  -60.625; -444.000; -340.000
372.704; -149.725;-1008.000; -980.000
372.835;  -45.050; -228.000; -289.000
372.966;  -94.700; -646.000; -554.000
373.097; -106.450; -575.000; -711.000
373.228; -101.150; -717.000; -542.000
373.359;  -56.975; -824.000; -536.000
373.490;  146.800; -881.000; -727.000
373.620;  229.700;-1001.000; -803.000
373.751;  496.300; -332.000; -396.000
373.882;  172.325; -663.000; -733.000
374.013;  -17.550; -449.000; -262.000
374.143;  -78.625; -581.000; -659.000
374.274; -149.575; -987.000; -908.000
374.405;   55.800; -388.000; -276.000
374.536;  101.900; -526.000; -387.000
374.666;  243.425; -759.000; -807.000
374.797;  -37.950; -817.000; -868.000
374.928;  145.050; -710.000; -560.000
375.058;  167.675; -535.000; -500.000
375.189;   -7.600;  -59.000;  -93.000
375.320; -130.650; -928.000;-1034.000
375.450;  -77.900; -625.000; -616.000
375.581;  -58.200; -526.000; -436.000
375.712;  -52.975; -574.000; -250.000
375.842;   12.600; -438.000; -415.000
375.973;  -29.950; -554.000; -513.000
376.103; -106.575; -665.000; -648.000
376.234;  -98.200; -531.000; -552.000
376.364; -125.025; -944.000; -867.000
376.495;  119.725;  925.000;  529.000
376.625;  -75.900; -472.000; -485.000
376.756;  -67.850; -709.000; -678.000
376.886; -139.675;-1178.000;-1026.000
377.017;  132.900;-1048.000;-1061.000
377.147;  651.725; -786.000; -782.000
377.278;   73.925;  174.000;  228.000
377.408; -129.600; -801.000; -815.000
377.538; -106.725; -707.000; -693.000
377.669;  -85.225; -537.000; -613.000
377.799; -112.675; -645.000; -635.000
377.929;  -95.025; -610.000; -428.000
378.060; -140.525; -781.000; -847.000
378.190;  -40.625; -726.000; -531.000
378.320;  -60.700; -401.000; -406.000
378.451;  -19.575; -131.000;  -22.000
378.581;  -41.850;  -67.000; -110.000
378.711;   94.075; 1035.000;  866.000
378.841;  -89.725; -533.000; -675.000
378.972; -118.075; -871.000; -751.000
379.102;  -71.475; -652.000; -579.000
379.232;  -56.600; -126.000;  -73.000
379.362; -130.775;-1001.000; -885.000
379.492;  -61.375; -373.000; -424.000
379.623;   29.550;    0.000;  111.000
379.753; -119.425;-1107.000; -974.000
379.883;   68.775;   59.000;  156.000
380.013; -104.600;-1081.000;-1017.000
380.143; -144.075;-1097.000;-1056.000
380.273; -111.675; -985.000; -861.000
380.403;    3.725; -344.000; -257.000
380.533;  -48.625; -651.000; -664.000
380.663;   16.400;  173.000;  128.000
380.793; -154.325;-1027.000;-1074.000
380.923;  -47.575; -103.000;  -34.000
381.053; -113.525; -613.000; -623.000
381.183;  -49.100; -106.000; -248.000
381.313;  -73.925; -656.000; -470.000
381.443;  -71.250; -692.000; -473.000
381.573;  -42.650; -402.000; -409.000
381.703; -100.225;-1249.000;-1095.000
381.833; -186.650;-1454.000;-1336.000
381.963;   10.025; -134.000;  -87.000
382.093;  368.950; -925.000; -909.000
382.223;   82.025; -713.000; -602.000
382.353;  -84.075; -801.000; -608.000
382.482;   -5.225;-1091.000; -964.000
382.612;  168.525; -872.000; -644.000
382.742;   65.825; -695.000; -622.000
382.872;  -21.375; -565.000; -551.000
383.002;    6.075;  347.000; -132.000
383.131;  -34.125; -226.000; -160.000
383.261;  -40.100; -706.000; -768.000
383.391;  323.375; -552.000; -377.000
383.521; 5069.500;  451.000;  263.000
383.650; 1527.725; -947.000; -904.000
383.780;   34.775; -783.000; -656.000
383.910;   89.100;  880.000;  802.000
384.039;  -96.750; -794.000; -656.000
384.169;  -90.725;-1205.000;-1017.000
384.299;  -92.500; -650.000; -662.000
384.428; -134.625; -764.000; -680.000
384.558;  -70.875; -308.000; -275.000
384.687;  -83.525; -414.000; -334.000
384.817;  -20.950;   75.000;   -2.000
384.947;  -47.400; -234.000; -141.000
385.076;  137.100;  982.000;  912.000
385.206;   49.275;  369.000;  480.000
385.335;  -73.800; -549.000; -417.000
385.465; -117.925; -655.000; -663.000
385.594;   11.175;  -53.000;  -44.000
385.724;   16.225; -868.000; -838.000
385.853;   -7.075; -296.000; -270.000
385.982;  331.375; -743.000; -787.000
386.112;  619.550;-1052.000; -871.000
386.241;  -13.675; -307.000; -312.000
386.371;  -32.600; -174.000;  -87.000
386.500;  -58.450; -825.000; -789.000
386.629;  -19.925; -874.000; -817.000
386.759;   79.975;  -43.000;   68.000
386.888;  -45.800; -170.000; -250.000
387.017; -103.975; -648.000; -620.000
387.147; -111.775; -771.000; -798.000
387.276;  -85.700; -410.000; -397.000
387.405;  -59.225; -398.000; -342.000
387.535;  -78.350; -452.000; -361.000
387.664;  -75.850; -692.000; -620.000
387.793;  -14.350; -198.000; -113.000
387.922;  130.000;  255.000;  200.000
388.052;  -62.100; -576.000; -423.000
388.181;  -79.375; -342.000; -472.000
388.310;  -92.950; -889.000; -710.000
388.439; -123.375; -749.000; -742.000
388.568;   41.350;  365.000;  244.000
388.697;  247.425; -756.000; -653.000
388.826;  -14.475; -768.000; -666.000
388.956;  -44.100; -285.000; -307.000
389.085;  -58.375; -347.000; -287.000
389.214; -125.500; -842.000; -872.000
389.343;  -85.275; -645.000; -413.000
389.472;  533.375;  126.000;  149.000
389.601;  633.300;   91.000;    0.000
389.730;  -35.225; -568.000; -687.000
389.859;   19.475;  226.000;   46.000
389.988;    4.425; -423.000; -408.000
390.117;   30.675; -168.000; -146.000
390.246;  -67.975; -331.000; -320.000
390.375;  -64.500; -673.000; -626.000
390.504;  -88.625; -703.000; -621.000
390.633; -142.300; -672.000; -726.000
390.761; -111.925; -732.000; -645.000
390.890;  -42.075;   -4.000; -130.000
391.019;  -71.450; -421.000; -441.000
391.148; -139.175; -826.000; -855.000
391.277; -100.650; -576.000; -493.000
391.406; -114.250; -821.000; -805.000
391.534;   -2.550;  574.000; -301.000
391.663;  -88.325; -583.000; -645.000
391.792; -110.875; -673.000; -701.000
391.921;  -28.375;   -3.000;   15.000
392.050;   -8.200; -287.000; -228.000
392.178; -146.500;-1206.000;-1061.000
392.307;  -56.025; -758.000; -712.000
392.436;  -60.675; -427.000; -641.000
392.564;  -13.375;  166.000;   -6.000
392.693; -115.475; -860.000; -682.000
392.822;  -30.000; -529.000; -534.000
392.950;  -65.875; -880.000; -714.000
393.079;   36.975; -188.000; -328.000
393.208;  -48.150; -488.000; -511.000
393.336;  -28.725; -170.000; -145.000
393.465;  -56.950; -317.000; -199.000
393.593;  -11.800;   62.000;   79.000
393.722; -164.575;-1121.000; -916.000
393.850;  -33.375; -188.000;  -61.000
393.979; -146.925; -926.000; -805.000
394.107;  -84.800; -517.000; -537.000
394.236;  -66.875; -570.000; -507.000
394.364;   89.300;  383.000;  206.000
394.493;   60.700; -911.000; -767.000
394.621;  -18.600; -955.000; -916.000
394.750; 1114.700; -873.000; -923.000
394.878; 4373.200; -247.000; -149.000
395.007; 6420.150; -721.000; -807.000
395.135;  575.675; -790.000; -721.000
395.263;  -64.450;-1038.000;-1040.000
395.392;    3.800;  -25.000; -107.000
395.520; -125.175; -818.000; -679.000
395.648; -129.000; -865.000; -915.000
395.777;  -88.875; -366.000; -405.000
395.905;  -98.775; -449.000; -564.000
396.033;  -25.825;  217.000;  172.000
396.162;   90.575; -399.000; -453.000
396.290;  108.800;  -17.000;   -2.000
396.418;  -64.275; -555.000; -514.000
396.546; -108.925; -571.000; -466.000
396.674; -144.600; -850.000; -878.000
396.803;  -28.150;  -72.000;  -23.000
396.931;  -30.150; -179.000; -199.000
397.059; -135.325;-1026.000; -989.000
397.187; -153.450;-1026.000; -975.000
397.315; -150.975; -884.000; -649.000
397.443; -111.550; -592.000; -443.000
397.572; -108.675; -578.000; -424.000
397.700; -107.275; -607.000; -614.000
397.828;  -29.225;  120.000;  -90.000
397.956;  -56.500; -508.000; -478.000
398.084;  -32.425; -767.000; -626.000
398.212;    0.925;  137.000;  124.000
398.340;  -26.275;  -56.000;  159.000
398.468;  -60.375; -390.000; -169.000
398.596; -156.250; -993.000; -953.000
398.724; -129.275; -762.000; -767.000
398.852; -159.250;-1024.000; -976.000
398.980;  -83.525; -560.000; -560.000
399.108; -105.750; -982.000; -735.000
399.236;  -16.625;   13.000;    8.000
399.363;   -9.325;  222.000;  196.000
399.491;  -72.175; -404.000; -398.000
399.619; -127.350; -829.000; -800.000
399.747; -119.850; -859.000; -771.000
399.875;   31.200;  220.000;  234.000
400.003;  -74.275; -359.000; -284.000
400.130;  -91.050; -421.000; -341.000
400.258;  -43.600;  -83.000;   38.000
400.386;  -78.600; -352.000; -168.000
400.514;  -99.575; -526.000; -587.000
400.641; -155.600; -928.000; -802.000
400.769; -152.400; -979.000; -888.000
400.897; -121.675; -838.000; -793.000
401.025;  -55.975; -166.000; -152.000
401.152;  -24.400;  220.000;   38.000
401.280;  -91.125; -430.000; -429.000
401.408; -126.200; -712.000; -576.000
401.535; -112.025; -735.000; -758.000
401.663; -196.700;-1134.000;-1054.000
401.790;  -94.400; -514.000; -525.000
401.918;   23.450;  436.000;  405.000
402.046;  -31.100;  134.000;  122.000
402.173;  -46.675;  -18.000;    7.000
402.301;  -88.700; -519.000; -397.000
402.428;   19.250;  528.000;  383.000
402.556; -159.100;-1188.000; -913.000
402.683;  -54.500;  -20.000;   -1.000
402.811;  -46.700;  -37.000; -206.000
402.938;  -34.575;   20.000;   27.000
403.066;  -15.675; -574.000; -558.000
403.193;   99.800;  299.000;  239.000
403.321;   40.200; -396.000; -574.000
403.448;  111.825;   83.000;   27.000
403.575;   26.875;  -90.000;  -46.000
403.703; -105.375; -732.000; -557.000
403.830;  -70.400; -531.000; -496.000
403.957; -125.525;-1117.000;-1023.000
404.085;    2.875;  -61.000; -172.000
404.212;  105.200;  -50.000;   63.000
404.339;  414.450; -566.000; -306.000
404.467; 8854.200; -612.000; -524.000
404.594; 5398.625; -287.000; -227.000
404.721;  930.600; -869.000; -764.000
404.848;  103.125; -113.000; -202.000
404.976; -105.600; -856.000; -783.000
405.103;   -5.925;  -14.000;  -82.000
405.230;   -3.275;  190.000;  226.000
405.357;   37.000;  117.000;   44.000
405.484;  401.325;  -49.000;    5.000
405.612;   99.125; -548.000; -563.000
405.739;  -66.900; -488.000; -243.000
405.866;   48.850;  669.000;  385.000
405.993;  -62.225; -398.000; -102.000
406.120; -141.650; -801.000; -887.000
406.247;  -83.325; -323.000; -342.000
406.374;   81.100;  540.000;  629.000
406.501;  -95.350; -632.000; -702.000
406.628; -114.300; -621.000; -589.000
406.755; -116.525; -803.000; -620.000
406.882;  -65.325; -228.000; -277.000
407.009; -118.525; -719.000; -628.000
407.136;  -65.950; -480.000; -401.000
407.263;  -83.800; -939.000; -829.000
407.390;  -97.900; -692.000; -614.000
407.517; -180.175;-1139.000;-1187.000
407.644;  -81.000; -332.000; -256.000
407.771; -141.300; -249.000; -287.000
407.898;  -18.700;  168.000;  328.000
408.025;  -82.675; -421.000; -313.000
408.151;  -31.825;   82.000;  153.000
408.278;  -77.075; -267.000; -216.000
408.405; -145.025; -931.000; -899.000
408.532;  -96.875; -549.000; -542.000
408.659; -130.400; -677.000; -648.000
408.785; -193.225;-1298.000;-1170.000
408.912;  -86.375; -412.000; -296.000
409.039; -122.150; -610.000; -686.000
409.166; -103.350; -591.000; -555.000
409.292; -111.025; -571.000; -534.000
409.419; -126.150; -665.000; -649.000
409.546;  -76.100; -431.000; -192.000
409.672; -120.900; -713.000; -545.000
409.799;  -33.500;  -36.000;   34.000
409.926;  -47.400; -180.000; -179.000
410.052; -180.900;-1127.000;-1091.000
410.179;  -85.150; -368.000; -392.000
410.305;  -90.200; -375.000; -493.000
410.432;  -50.025; -220.000; -333.000
410.558;  -95.975; -305.000; -380.000
410.685; -116.750; -688.000; -431.000
410.812; -112.300; -409.000; -588.000
410.938; -148.800; -964.000; -808.000
411.065; -123.650; -671.000; -645.000
411.191;  -38.475; -189.000; -174.000
411.317; -130.875; -823.000; -742.000
411.444;  -84.050; -317.000; -246.000
411.570;  -75.475; -339.000; -294.000
411.697; -132.575; -758.000; -752.000
411.823; -175.925; -989.000; -999.000
411.949;  -53.000;  -56.000;   17.000
412.076; -116.975; -539.000; -519.000
412.202; -131.175; -758.000; -757.000
412.329; -130.425; -798.000; -752.000
412.455; -124.750; -821.000; -657.000
412.581;  -41.675;  -15.000;  172.000
412.707;  -95.175; -540.000; -457.000
412.834;  -12.025;  156.000;  219.000
412.960; -121.025; -785.000; -784.000
413.086; -133.625; -743.000; -701.000
413.212;  111.350;  604.000;  578.000
413.339; -114.600; -685.000; -701.000
413.465;  -69.975; -364.000; -310.000
413.591; -110.050; -757.000; -474.000
413.717;  -66.250; -358.000; -366.000
413.843; -143.175; -839.000; -861.000
413.969;  -67.250;  -47.000; -292.000
414.096;  -95.400; -679.000; -679.000
414.222;  -12.925;  -33.000;   85.000
414.348;  -86.825; -652.000; -385.000
414.474;   -2.875;   38.000;  -52.000
414.600;  -25.650; -126.000; -144.000
414.726;   -6.850;  -96.000;  -55.000
414.852;  -47.875; -365.000; -342.000
414.978;   29.475;  104.000;  -18.000
415.104;   49.950;   38.000;   80.000
415.230;   47.300; -329.000; -330.000
415.356;   58.225; -409.000; -514.000
415.482;  215.775;   13.000;  -35.000
415.608;  384.550; -247.000; -323.000
415.734; 1294.925;   67.000;   38.000
415.860;26917.725; -875.000; -767.000
415.986;22053.200; -685.000; -607.000
416.111; 2090.200; -798.000; -652.000
416.237;  460.625; -424.000; -571.000
416.363; 1661.175; -765.000; -733.000
416.489; 6657.175; -324.000; -251.000
416.615;  902.925; -707.000; -742.000
416.741;   37.075; -677.000; -784.000
416.866;  -64.425; -673.000; -736.000
416.992; -107.375; -801.000; -818.000
417.118;  -22.100;  -41.000;  -80.000
417.244;  -77.850; -798.000; -531.000
417.369;  -91.700; -801.000; -612.000
417.495;  -23.000; -325.000; -254.000
417.621;  -95.875;-1015.000; -803.000
417.746;    5.400; -579.000; -572.000
417.872;   69.425; -254.000; -144.000
417.998;  104.450; -515.000; -530.000
418.123; 1509.825;-1073.000; -845.000
418.249; 8440.600; -512.000; -601.000
418.374; 1416.725; -916.000; -824.000
418.500;  234.575; -383.000; -482.000
418.626;  183.875;   70.000;  -59.000
418.751;  150.175; -549.000; -448.000
418.877;  287.100; -637.000; -643.000
419.002; 2539.475; -688.000; -560.000
419.128;19287.300; -930.000; -721.000
419.253; 5469.500; -967.000; -837.000
419.379;  761.775; -391.000; -338.000
419.504;  558.725;  325.000;  415.000
419.629;  811.325; -393.000; -212.000
419.755; 5315.975; -317.000; -254.000
419.880;34607.950;  -98.000;   67.000
420.006;17294.700; -280.000; -221.000
420.131;42879.400; -662.000; -775.000
420.256; 6883.075; -315.000; -316.000
420.382;  935.950; -665.000; -687.000
420.507;  150.075; -649.000; -778.000
420.632;   36.900; -337.000; -339.000
420.758;   27.700; -251.000; -425.000
420.883;  -92.550; -876.000; -672.000
421.008; -121.800; -775.000; -619.000
421.133;  -89.950; -509.000; -467.000
421.259;  -68.325; -325.000; -259.000
421.384; -143.700; -834.000; -693.000
421.509; -128.275;-1052.000; -862.000
421.634;  115.600; -936.000; -820.000
421.759;   49.175; -359.000; -327.000
421.885;  -92.000; -717.000; -656.000
422.010; -106.775; -673.000; -542.000
422.135; -157.675; -695.000; -727.000
422.260;    7.800;  340.000;  280.000
422.385;  -53.150;   12.000;  -98.000
422.510;   -2.675;  151.000;  -26.000
422.635;  -28.000;  -87.000;  -43.000
422.760;  -31.050; -766.000; -791.000
422.885;   24.550;  -57.000;  -80.000
423.010;  -47.650; -112.000; -169.000
423.135;  -92.025; -481.000; -561.000
423.260;  -57.350; -150.000; -245.000
423.385;   10.750;  476.000;  222.000
423.510;    2.175;   71.000;  -22.000
423.635;   -4.750;  133.000;   45.000
423.760;   33.975;  383.000;  328.000
423.885;   23.725;  336.000;  391.000
424.010;   -8.450;  -68.000;  -13.000
424.135;  -30.025;    5.000;  -33.000
424.259;  -89.750; -654.000; -457.000
424.384;  -65.100; -279.000; -272.000
424.509;  -34.000; -260.000; -186.000
424.634;  -87.650; -761.000; -623.000
424.759;  -34.650; -688.000; -544.000
424.883;    4.225; -506.000; -527.000
425.008;  182.125; -502.000; -410.000
425.133; 2791.350; -679.000; -653.000
425.258; 1542.125; -517.000; -381.000
425.382;  491.225; -867.000; -774.000
425.507; 1109.075; -487.000; -543.000
425.632;  394.250; -802.000; -663.000
425.756;  690.425; -256.000; -146.000
425.881;10073.900; -831.000; -857.000
426.006;31068.075; -604.000; -355.000
426.130; 5108.675; -696.000; -508.000
426.255;  675.825; -611.000; -491.000
426.379;  277.875; -189.000; -577.000
426.504;  488.800;  660.000;  544.000
426.629; 5541.375; -519.000; -466.000
426.753; 4318.775;   64.000;  -46.000
426.878;  522.675; -252.000; -288.000
427.002;  309.900; -651.000; -668.000
427.127; 2057.725;  -35.000; -158.000
427.251;17082.600;  372.000;  401.000
427.375; 5552.175; -191.000; -173.000
427.500; 1298.425; -616.000; -610.000
427.624;  399.750; -234.000; -400.000
427.749;   77.200; -216.000; -225.000
427.873;  -26.025; -499.000; -412.000
427.997;  -59.675; -222.000; -230.000
428.122;   48.175;  795.000;  703.000
428.246;   24.000;  433.000;  434.000
428.371; -142.600; -869.000; -773.000
428.495; -119.325; -624.000; -646.000
428.619;  -28.750; -186.000; -117.000
428.743;   -0.700;   65.000;  132.000
428.868;  -75.425; -732.000; -643.000
428.992;  456.850; -219.000; -326.000
429.116;  182.025; -329.000; -357.000
429.240;   88.450;  419.000;  426.000
429.365;  -34.575; -454.000; -574.000
429.489;  -64.525; -638.000; -647.000
429.613;   32.050; -236.000; -177.000
429.737;   81.150; -563.000; -432.000
429.861;  350.775; -247.000; -133.000
429.985; 7799.250; -425.000; -305.000
430.109; 9890.050; -770.000; -908.000
430.234; 1210.325;   76.000;  -50.000
430.358;  138.525; -250.000; -160.000
430.482;  -48.250; -672.000; -564.000
430.606;  -79.025; -655.000; -375.000
430.730;  -59.500; -437.000; -388.000
430.854;  -93.100; -909.000; -835.000
430.978; -103.400; -795.000; -764.000
431.102;  -85.850; -499.000; -422.000
431.226; -122.975; -874.000; -815.000
431.350;   16.425;  345.000;  422.000
431.474; -104.175; -661.000; -373.000
431.597; -163.575;-1060.000; -848.000
431.721;  -86.725; -276.000; -267.000
431.845; -124.850; -704.000; -472.000
431.969;  -78.750; -304.000; -349.000
432.093;  -93.200; -395.000; -317.000
432.217;  -27.825;   32.000;   82.000
432.341;  -96.575; -523.000; -518.000
432.464;  -10.450;   96.000;   40.000
432.588;  -40.225; -401.000; -329.000
432.712;   10.125;  -52.000;  -52.000
432.836;   65.525;  213.000;  263.000
432.959;   12.975; -372.000; -311.000
433.083;  166.450;   11.000;    2.000
433.207;  548.075;  285.000;  930.000
433.330; 7508.575; -391.000; -200.000
433.454;10433.700; -654.000; -638.000
433.578; 5730.225;  583.000;  278.000
433.701; 1219.200; -623.000; -675.000
433.825;  137.375; -292.000; -299.000
433.949;   33.200;   28.000;  -72.000
434.072;  -22.900; -410.000; -323.000
434.196;  -14.150; -309.000; -117.000
434.319; 3491.175;25482.000;25124.000
434.443;  848.575; -656.000; -603.000
434.566; 4037.500;  281.000;   62.000
434.690;  870.050; -637.000; -383.000
434.813;  147.900; -251.000; -173.000
434.937;  -54.450; -569.000; -696.000
435.060;  -85.050; -423.000; -332.000
435.184;  -28.275; -492.000; -217.000
435.307;   -0.025;  159.000;  102.000
435.431;  -36.575;  -40.000;   24.000
435.554;  -83.450; -399.000; -240.000
435.677;  -96.025; -350.000; -258.000
435.801;  -47.300;  -25.000;   49.000
435.924;  -45.025;    1.000;  -67.000
436.048; -149.025;-1019.000; -732.000
436.171;  -80.275; -240.000;  -66.000
436.294;  -12.125; -248.000; -229.000
436.417;  213.100; -963.000; -849.000
436.541;  -38.050; -814.000; -840.000
436.664;  -60.600; -242.000; -316.000
436.787;  -47.675;   13.000;  113.000
436.910; -128.050; -792.000; -422.000
437.034;  -17.250;  142.000;  143.000
437.157;   -4.750;  -11.000;    0.000
437.280;  -95.175; -392.000; -292.000
437.403; -133.950; -982.000; -869.000
437.526;   -6.900; -903.000; -865.000
437.649;  413.175; -505.000; -332.000
437.772;  -21.825; -692.000; -540.000
437.896;   49.650;  700.000;  544.000
438.019; -113.700; -758.000; -503.000
438.142; -109.700; -596.000; -506.000
438.265; -134.850; -639.000; -670.000
438.388;   -9.875; -520.000; -410.000
438.511;  -84.050; -597.000; -394.000
438.634;  -86.900; -247.000; -125.000
438.757; -141.025; -693.000; -619.000
438.880;  -64.750;  -34.000;  -57.000
439.003; -100.875; -417.000; -437.000
439.126;  -91.900; -287.000; -167.000
439.248;  -85.700;  -98.000; -139.000
439.371;  -54.900;    9.000;  -53.000
439.494;   10.400;  510.000;  439.000
439.617;  -50.975;   65.000;  -88.000
439.740; -173.475; -968.000; -816.000
439.863; -148.100; -755.000; -595.000
439.986; -106.300; -476.000; -431.000
440.108;  -52.925; -161.000; -112.000
440.231; -171.525; -950.000; -836.000
440.354;  -68.025;  -64.000; -150.000
440.477; -120.000; -566.000; -542.000
440.599;  -99.375; -200.000; -225.000
440.722; -140.150; -709.000; -586.000
440.845;   50.650;  751.000;  928.000
440.968; -110.875; -415.000; -311.000
441.090;  -87.650; -199.000;  -33.000
441.213; -171.175;-1021.000; -825.000
441.336;  -69.375; -159.000;   -5.000
441.458;  -91.575; -549.000; -396.000
441.581; -132.625; -628.000; -629.000
441.703;  -74.900; -152.000;   13.000
441.826; -131.100; -557.000; -400.000
441.948;  -36.475;   56.000;   51.000
442.071;   20.200;  555.000;  424.000
442.193; -110.125; -531.000; -485.000
442.316;  -15.350;  152.000;   97.000
442.438;   67.300; -233.000;  -10.000
442.561;   55.775;  272.000;  262.000
442.683;    7.000; -809.000; -522.000
442.806;  218.875;   -8.000;   74.000
442.928; -122.200; -859.000; -604.000
443.051;  -97.600; -577.000; -373.000
443.173; -102.900; -341.000; -339.000
443.295;  -97.875; -263.000; -371.000
443.418;  -84.550; -321.000;  -29.000
443.540;  -50.575; -106.000;   -4.000
443.662; -131.425; -563.000; -465.000
443.785;  -35.275;  335.000;  199.000
443.907; -102.450; -362.000; -208.000
444.029; -118.675; -767.000; -494.000
444.152; -147.100; -644.000; -554.000
444.274;  -42.375;  -18.000;  -24.000
444.396; -134.200; -461.000; -221.000
444.518; -140.150; -691.000; -454.000
444.640;  -86.025; -268.000; -111.000
444.763;  -35.325;  388.000;  249.000
444.885; -124.150; -432.000; -392.000
445.007;  -50.400;   35.000;   86.000
445.129; -126.975; -610.000; -515.000
445.251; -125.825; -372.000; -439.000
445.373; -146.975; -537.000; -386.000
445.495;   -7.500;  242.000;  350.000
445.617;   18.700;  853.000;  753.000
445.739;  -86.375; -215.000;  -97.000
445.861;  -74.100; -245.000; -112.000
445.984;  -64.600; -267.000; -101.000
446.105;  -21.525; -418.000; -251.000
446.227;   80.500; -176.000;  -19.000
446.349; -102.075; -358.000; -249.000
446.471; -128.700; -615.000; -448.000
446.593; -107.350; -316.000;   19.000
446.715;  -55.525;  -67.000;   41.000
446.837;   50.200;  697.000;  832.000
446.959; -124.350; -457.000; -478.000
447.081; -138.400; -628.000; -518.000
447.203;   49.025;  862.000;  834.000
447.325;  -83.525; -270.000;   42.000
447.446;   -5.600;  286.000;  530.000
447.568; -166.025; -921.000; -803.000
447.690;  -92.700; -236.000; -245.000
447.812; -150.175; -798.000; -519.000
447.933;  -42.450;  155.000;  127.000
448.055;  -65.900; -306.000; -261.000
448.177;   -4.700;   31.000;   79.000
448.299; -102.650; -935.000; -727.000
448.420;  -16.575;  -25.000;  159.000
448.542;  -42.925;   -3.000;   33.000
448.664;  -34.725;  109.000;  322.000
448.785;  -36.725;  265.000;   83.000
448.907; -108.575; -614.000; -353.000
449.028; -121.900; -771.000; -471.000
449.150;   34.350;  492.000;  589.000
449.272; -182.475;-1044.000; -913.000
449.393;    6.325;  612.000;  694.000
449.515; -140.825; -634.000; -581.000
449.636;  -74.225; -264.000; -155.000
449.758;   45.250;  763.000;  622.000
449.879;  -98.600; -498.000; -396.000
450.001;  -93.900; -149.000;  -49.000
450.122;  -44.975;  -95.000;  162.000
450.244;  -30.975;   37.000;  364.000
450.365;  -67.250; -495.000; -301.000
450.486;  -10.250;   80.000;  268.000
450.608;   44.900;  393.000;  326.000
450.729;  104.075;  578.000;  645.000
450.850;   85.850; -574.000; -466.000
450.972; 1205.875; -552.000; -389.000
451.093; 7888.300;  190.000;  588.000
451.214; 4045.550; -516.000; -337.000
451.336;  694.650;  773.000;  579.000
451.457;  115.875;  264.000;  393.000
451.578;  -40.625; -118.000;  -74.000
451.699; -110.200; -546.000; -540.000
451.821;  -72.650; -284.000;  -50.000
451.942;    3.375;  278.000;  285.000
452.063;   61.100;  228.000;  419.000
452.184;  797.750;  -54.000;  -49.000
452.305; 1704.125;  103.000;  170.000
452.427;  323.000; -549.000; -301.000
452.548;   -4.200;   23.000;   79.000
452.669;  -68.750; -257.000;  -89.000
452.790;  -58.250;    3.000;  -18.000
452.911;  -28.450;  195.000;  259.000
453.032;  -81.725; -289.000;  -60.000
453.153;  -52.900;  -29.000;   81.000
453.274;   50.450;  737.000;  868.000
453.395;  -61.100;  -51.000;  175.000
453.516;   74.175; 1317.000; 1388.000
453.637;  -97.900; -205.000; -150.000
453.758;  -60.800;   15.000;   69.000
453.879; -127.775; -462.000; -250.000
454.000;   58.750; 1086.000;  948.000
454.121; -129.750; -554.000; -326.000
454.242; -127.950; -599.000; -383.000
454.362;  -76.225;  -99.000;  114.000
454.483;  -20.950; -309.000; -229.000
454.604;   57.675;  512.000;  580.000
454.725; -127.775; -627.000; -555.000
454.846; -132.475; -474.000; -406.000
454.967;  -36.625;  230.000;  539.000
455.087;  -52.775;  179.000;  153.000
455.208;   12.375;  554.000;  856.000
455.329;  -69.550;  -22.000;   82.000
455.450;   52.975;  473.000;  633.000
455.570;  -63.575; -234.000; -211.000
455.691;  -55.250;  201.000;  407.000
455.812;  -99.725; -270.000;  -92.000
455.932;  -64.925;  107.000;  -97.000
456.053;  -88.050;   36.000;   24.000
456.173; -104.200; -433.000; -355.000
456.294; -135.125; -476.000; -303.000
456.415;  -61.675;  -73.000;   70.000
456.535;  -34.575;  297.000;  273.000
456.656;  -54.475;  132.000;  240.000
456.776;  -60.675;    3.000;  298.000
456.897;  -19.600;  308.000;  513.000
457.017;  -86.150; -153.000;   -3.000
457.138; -121.525; -402.000; -249.000
457.258;  -35.250;  263.000;  224.000
457.379;   -7.325;  509.000;  521.000
457.499;  -33.200;  443.000;  432.000
457.620; -121.175; -407.000; -231.000
457.740;  -95.325; -132.000;  -11.000
457.860;  -46.825;   87.000;   44.000
457.981;  -43.950;  132.000;  124.000
458.101;  -70.225;  -89.000;   40.000
458.221;  -27.025;  336.000;  402.000
458.342;  -58.775;   -4.000;  -37.000
458.462;   52.575;  617.000;  352.000
458.582;   25.975; -302.000; -294.000
458.703;   73.325;  303.000;  154.000
458.823;   15.550;   22.000;  163.000
458.943;   48.875;  341.000;  467.000
459.063;  -10.800; 1124.000;  192.000
459.183;  -25.600;  328.000;  313.000
459.304;    1.925;  315.000;  517.000
459.424;  -50.725; -246.000;  -89.000
459.544;  443.700;  388.000;  764.000
459.664; 1308.950;  499.000;  506.000
459.784;  496.275; 1004.000; 1175.000
459.904;   87.725;  867.000;  744.000
460.024;   40.200;  867.000;  684.000
460.144;  -17.350;  449.000;  554.000
460.264;   -9.250;  515.000;  327.000
460.385;  -96.475; -145.000; -119.000
460.505;   31.200;  905.000;  858.000
460.625;  -96.550;  -17.000;  -68.000
460.745;  -44.325;  396.000;  541.000
460.864;  -44.575;  153.000;  469.000
460.984;   20.700;  499.000;  573.000
461.104;  149.425; 1656.000; 1775.000
461.224;   10.775;  657.000;  650.000
461.344;  -35.525;  431.000;  360.000
461.464;  -52.700;  258.000;  513.000
461.584;  -24.875;  283.000;  466.000
461.704;  -64.150;   58.000;  108.000
461.824;  -59.775;  238.000;  259.000
461.943;  -47.175;  191.000;  130.000
462.063;  -69.500;    2.000;  324.000
462.183;   14.275;  639.000;  717.000
462.303;   86.300; 1678.000; 1230.000
462.422;   19.825;  781.000;  840.000
462.542;  -37.100;  271.000;  391.000
462.662;   32.775;  353.000;  380.000
462.782;  345.850;  833.000;  572.000
462.901;  733.350;  545.000;  717.000
463.021;  383.350; 1702.000; 1638.000
463.141;   -4.875;  337.000;  770.000
463.260;  -14.675;  614.000;  474.000
463.380;   23.975;  902.000;  884.000
463.499;  -35.150;  342.000;  332.000
463.619;  -52.175;  581.000;  559.000
463.738;  100.675; 1644.000;  903.000
463.858;    9.325;  657.000;  811.000
463.978;  -28.350;  542.000;  396.000
464.097;   51.450;  921.000; 1114.000
464.217;  157.075; 1196.000; 1143.000
464.336;  149.800; 1068.000; 1130.000
464.455;  -10.250;  328.000;  659.000
464.575;    0.025;  597.000;  602.000
464.694;  121.575; 1204.000; 1179.000
464.814;  155.625; 1190.000; 1138.000
464.933;   72.850; 1095.000; 1027.000
465.052;   99.450; 1412.000; 1054.000
465.172;   78.200;  922.000;  799.000
465.291;   96.700; 1376.000; 1320.000
465.410;    1.600;  462.000;  735.000
465.530;   68.575; 1355.000; 1310.000
465.649;   64.100; 1209.000; 1273.000
465.768;  111.600; 1673.000; 1508.000
465.888;   62.150;  941.000; 1174.000
466.007;   86.850; 1335.000; 1440.000
466.126;   -0.850;  721.000;  641.000
466.245;   46.375; 1176.000; 1187.000
466.364;   21.075;  950.000; 1060.000
466.484;   60.150; 1024.000; 1213.000
466.603;   24.100; 1101.000; 1222.000
466.722;  110.950; 1490.000; 1769.000
466.841;   59.775; 1151.000; 1401.000
466.960;   34.075; 1069.000;  972.000
467.079;  130.425; 1971.000; 1786.000
467.198;   36.475; 1238.000; 1181.000
467.317;   84.750; 1768.000; 1162.000
467.436;   64.600; 1709.000; 1261.000
467.555;  131.300; 1796.000; 1746.000
467.674;   65.600; 1227.000; 1329.000
467.793;   45.300; 1376.000; 1374.000
467.912;   71.875; 1658.000; 1539.000
468.031;  125.775; 2038.000; 1930.000
468.150;  116.750; 1842.000; 1837.000
468.269;  163.675; 2313.000; 2090.000
468.388;  176.025; 2168.000; 2339.000
468.507;  245.000; 2884.000; 2903.000
468.626;  270.575; 2555.000; 2541.000
468.744;  141.525; 2018.000; 2174.000
468.863;  189.000; 2312.000; 2523.000
468.982;   92.500; 1503.000; 1555.000
469.101;  216.275; 2788.000; 2692.000
469.220;  154.850; 2333.000; 2176.000
469.338;  255.750; 2935.000; 3051.000
469.457;  196.500; 2719.000; 2545.000
469.576;  332.050; 3953.000; 3784.000
469.695;  241.300; 2877.000; 3066.000
469.813;  412.175; 4148.000; 4192.000
469.932;  403.900; 4255.000; 4485.000
470.051;  433.500; 4075.000; 4161.000
470.169; 1019.450; 4470.000; 4338.000
470.288; 1997.575; 4700.000; 4809.000
470.406; 1176.875; 5059.000; 5194.000
470.525;  669.650; 6101.000; 5787.000
470.644;  666.100; 6847.000; 6794.000
470.762;  801.675; 8397.000; 7873.000
470.881;  911.575; 8651.000; 8464.000
470.999; 1059.275; 9685.000; 9151.000
471.118; 1106.375;11174.000;10711.000

