
Integration time [ms]: 100.000
Averaging Nr. [scans]: 40
Smoothing Nr. [pixels]: 0
Data measured with spectrometer [name]: 2101012U2
Wave   ;Sample   ;Dark     ;Reference
[nm]   ;[counts] ;[counts] ;[counts] 

197.733;   38.275;  516.000;  404.000
197.879;  -71.050; -610.000; -634.000
198.025;  -47.675; -475.000; -420.000
198.171;  -68.675; -602.000; -612.000
198.317;  -16.650; -401.000; -316.000
198.463;  -61.250; -655.000; -404.000
198.609;   20.525;  181.000; -137.000
198.755;  -73.775; -644.000; -410.000
198.901;  -68.375; -505.000; -424.000
199.047;  -57.625; -615.000; -488.000
199.193;  -43.750; -230.000; -468.000
199.339;  -20.900; -222.000; -369.000
199.485;   36.725;  330.000;  271.000
199.631;   10.250;  227.000;  310.000
199.777;  -51.775; -466.000; -398.000
199.923;  -50.800; -610.000; -424.000
200.069;  -11.125; -141.000;  -58.000
200.215;   57.025;  128.000;  453.000
200.361;   24.525;  243.000;  477.000
200.507;  -58.850; -600.000; -373.000
200.653;  -31.675; -371.000; -194.000
200.798;  -32.850; -215.000; -125.000
200.944;    4.325; -146.000;  -41.000
201.090;   38.850;   61.000;  222.000
201.236;   -2.425; -116.000; -158.000
201.382;  128.100;  874.000;  903.000
201.528;    5.875;  -58.000;  -48.000
201.674;  -44.075; -386.000; -293.000
201.819;  -69.125; -540.000; -439.000
201.965;  -74.025; -699.000; -447.000
202.111;  -32.650; -273.000; -226.000
202.257;  -24.950; -250.000; -238.000
202.402;    2.300;   13.000;  -36.000
202.548;  -29.025; -169.000; -116.000
202.694;   71.225;  410.000; -183.000
202.840;  -64.350; -603.000; -531.000
202.985;  -69.450; -681.000; -639.000
203.131; -102.625; -832.000; -666.000
203.277;  -21.100; -199.000; -262.000
203.423;  -46.950; -434.000; -520.000
203.568;  -42.150; -462.000; -237.000
203.714;  -65.025; -535.000; -542.000
203.860;  -71.475; -682.000; -641.000
204.005;   23.275;  112.000;  167.000
204.151;   77.050;  561.000;  556.000
204.296;  -47.425; -354.000; -221.000
204.442;  -66.250; -600.000; -547.000
204.588;  -59.425; -592.000; -579.000
204.733;   16.050;  178.000;  168.000
204.879; -130.850;-1018.000; -822.000
205.025;    0.100;  -99.000;  126.000
205.170;    5.800;  -17.000;   94.000
205.316;   64.250;  438.000;  661.000
205.461;  -76.625; -698.000; -554.000
205.607;   73.150;  609.000;  665.000
205.752;  -64.825; -626.000; -551.000
205.898;  -44.700; -501.000; -391.000
206.043;  -55.850; -578.000; -506.000
206.189;  -45.600; -243.000; -285.000
206.334;   72.250;  554.000;  606.000
206.480;   66.425;  409.000;  239.000
206.625;  -72.800; -529.000; -552.000
206.771;  -49.450; -451.000; -373.000
206.916;  -41.225; -210.000; -537.000
207.062;  -65.050; -545.000; -591.000
207.207;  -57.925; -546.000; -443.000
207.353;   39.750;  185.000;  460.000
207.498;   16.100;  196.000;   85.000
207.643;  -53.950; -501.000; -370.000
207.789; -118.425;-1069.000; -910.000
207.934;  -87.950; -665.000; -713.000
208.080;  -13.550; -154.000;   66.000
208.225;   -6.450;  -22.000;  -57.000
208.370;  -64.200; -727.000; -619.000
208.516;  -89.275; -741.000; -487.000
208.661;  -14.775; -127.000;  -69.000
208.806;  -22.525; -165.000; -171.000
208.952;  -99.125;-1044.000; -731.000
209.097;   57.700;  378.000;  349.000
209.242;  -45.050; -307.000; -382.000
209.387;   60.850;  392.000;  350.000
209.533;  -51.800; -321.000; -350.000
209.678;   60.750;  472.000;  543.000
209.823;  -50.650; -408.000; -310.000
209.969;  -93.025; -860.000; -757.000
210.114;  -92.500; -907.000; -719.000
210.259; -104.225; -939.000; -889.000
210.404;  -17.125; -171.000;  103.000
210.549;   -2.850;  108.000;    3.000
210.695;  -18.450;   -3.000;  -95.000
210.840;   20.050;   94.000;   67.000
210.985;  -44.175; -484.000; -303.000
211.130;   59.275;  268.000;  406.000
211.275;   11.950;  207.000;  199.000
211.420;  -48.250; -300.000; -289.000
211.566;  -58.050; -536.000; -489.000
211.711;   16.650;  218.000;  157.000
211.856;  -63.625; -545.000; -519.000
212.001;    1.050;  151.000;   44.000
212.146;   39.600;  153.000;   49.000
212.291;  -27.450; -210.000; -186.000
212.436;  -12.225; -280.000;   -6.000
212.581;  -87.000; -685.000; -653.000
212.726;  -61.200; -487.000; -538.000
212.871;  -55.475; -552.000; -217.000
213.016; -138.100;-1172.000;-1029.000
213.161;   49.150;  406.000;  291.000
213.306;  -59.750; -435.000; -577.000
213.451;  -94.700; -778.000; -689.000
213.596;  -41.900; -455.000; -347.000
213.741;  -58.475; -448.000; -538.000
213.886;  -71.625; -498.000; -517.000
214.031;  -28.350; -294.000; -124.000
214.176;  -32.525; -408.000; -341.000
214.321;  -17.050; -296.000; -157.000
214.466;  -22.700; -163.000;  -43.000
214.611;   -5.600;  -61.000;  -10.000
214.756; -119.625; -948.000; -858.000
214.901;  -20.625; -388.000; -226.000
215.046;  -99.725; -797.000; -825.000
215.191;    8.525;  128.000;   35.000
215.336;  -17.050; -157.000;  -19.000
215.480;  -68.600; -684.000; -505.000
215.625;  -12.625; -175.000;  -19.000
215.770;  -76.075; -757.000; -662.000
215.915;  -18.350;   -5.000;  -97.000
216.060;   -1.825; -113.000;  -21.000
216.205;  -96.800; -731.000; -779.000
216.349;  -80.875; -470.000; -533.000
216.494; -121.275; -939.000; -867.000
216.639; -116.275; -823.000; -888.000
216.784;  -77.550; -577.000; -525.000
216.929;   42.850;  392.000;  281.000
217.073;   -5.475; -244.000;  -31.000
217.218;   14.175;   78.000;  -47.000
217.363;  -75.350; -656.000; -618.000
217.507;  -81.200; -623.000; -588.000
217.652; -108.400; -845.000; -874.000
217.797;  -89.500; -708.000; -659.000
217.942; -105.375; -856.000; -720.000
218.086;   62.650;  608.000;  539.000
218.231;   -8.975; -174.000;  -26.000
218.376;  -30.725; -337.000; -229.000
218.520;    0.425;  -41.000;   96.000
218.665;  -46.800; -338.000; -204.000
218.810;  -35.450; -275.000; -233.000
218.954;    8.800;  201.000;   35.000
219.099; -102.700; -713.000; -963.000
219.243;  -81.525; -589.000; -554.000
219.388;  -23.825; -264.000; -136.000
219.532;  -18.800; -116.000; -116.000
219.677;  -65.450; -564.000; -521.000
219.822;    4.700;   33.000;   89.000
219.966;    1.425;   17.000;  -99.000
220.111;  -47.000; -328.000;  -40.000
220.255;  -81.700; -797.000; -750.000
220.400;  -20.950; -180.000; -146.000
220.544;  -61.300; -516.000; -450.000
220.689;  -55.050; -422.000; -451.000
220.833;  -17.675; -123.000;  -58.000
220.978;  -57.525; -393.000; -563.000
221.122;   34.725;  319.000;  307.000
221.267; -123.925; -906.000; -837.000
221.411;  -57.025; -478.000; -394.000
221.555;   -9.275; -104.000;  -23.000
221.700;  -47.075; -329.000; -222.000
221.844;   23.100;  255.000;  272.000
221.989;  -34.125; -328.000; -311.000
222.133;  -40.500; -289.000; -307.000
222.277;   -4.900;    5.000;   78.000
222.422;   22.300;  227.000;  113.000
222.566;  -23.425; -381.000; -214.000
222.711;  -58.425; -414.000; -479.000
222.855;  -80.175; -643.000; -586.000
222.999;  -72.350; -642.000; -717.000
223.144;  -26.125; -195.000; -194.000
223.288;   48.725;  423.000;  251.000
223.432;   40.200;  184.000;  230.000
223.576;    3.700;  152.000;  -21.000
223.721;   50.650;  364.000;  273.000
223.865;  -62.875; -472.000; -475.000
224.009;  214.075; 1673.000; 1631.000
224.153;  -88.300; -660.000; -671.000
224.298;  -58.025; -531.000; -489.000
224.442;  -19.825;  -74.000;  -33.000
224.586;   -6.750; -169.000; -106.000
224.730;  -94.375; -858.000; -670.000
224.875; -102.250; -739.000; -688.000
225.019;   13.200;  102.000;  188.000
225.163;   53.150;  208.000;  341.000
225.307;    8.350;   97.000;  -91.000
225.451;   43.300;  360.000;  481.000
225.595;   10.400;  264.000;  176.000
225.739;  -21.625; -170.000;  -94.000
225.884;   -4.200;   86.000;    5.000
226.028;  -99.125; -760.000; -626.000
226.172;  -45.000; -260.000; -273.000
226.316; -101.350; -941.000; -902.000
226.460;  -73.775; -645.000; -493.000
226.604;  -45.450; -406.000; -400.000
226.748; -104.350; -836.000; -733.000
226.892;  -25.125; -227.000; -181.000
227.036;  -62.350; -537.000; -447.000
227.180;  -44.225; -551.000; -375.000
227.324;  -66.175; -561.000; -580.000
227.468; -105.550; -819.000; -717.000
227.612;    9.375;  242.000;  -28.000
227.756;  -83.200; -845.000; -698.000
227.900;   40.675;  342.000;  441.000
228.044;  -61.775; -509.000; -290.000
228.188;   34.925;  448.000;  568.000
228.332;  -68.125; -546.000; -472.000
228.476;  -33.275; -223.000; -149.000
228.620;  -31.800; -210.000; -150.000
228.764;   65.675;  431.000;  349.000
228.908;  -17.025; -155.000;   30.000
229.052;  -58.125; -615.000; -528.000
229.195;  -19.675; -172.000;   13.000
229.339;  -31.450; -235.000; -305.000
229.483;  -20.900;    5.000; -162.000
229.627;  -10.775; -156.000;  139.000
229.771;  -33.600; -218.000; -294.000
229.915;    9.875;  230.000;   79.000
230.059;  -84.950; -648.000; -663.000
230.202;  -41.425; -370.000; -317.000
230.346;   -6.375; -107.000;  107.000
230.490;  -61.325; -489.000; -521.000
230.634; -112.150; -736.000; -553.000
230.777;   72.475;  478.000;  509.000
230.921;  -51.775; -450.000; -359.000
231.065;  -45.850; -246.000; -286.000
231.209;   18.600;  261.000;  265.000
231.352;   12.000;   54.000;   40.000
231.496;   16.650;  568.000;  188.000
231.640;  -84.725; -693.000; -621.000
231.783;   49.175;  546.000;  525.000
231.927;  -42.025; -294.000; -365.000
232.071; -102.800; -962.000; -736.000
232.214; -107.050; -980.000; -764.000
232.358;  -95.400; -683.000; -599.000
232.502;    3.400;  -19.000;    7.000
232.645; -124.875;-1090.000; -927.000
232.789;  -18.925; -257.000; -218.000
232.933;  -42.500; -407.000; -224.000
233.076; -114.550;-1038.000; -897.000
233.220;  -91.725; -752.000; -777.000
233.363;  -74.300; -669.000; -477.000
233.507;   48.600;  371.000;  129.000
233.650;  -91.000; -764.000; -834.000
233.794;   34.925;  438.000;  461.000
233.938;  -65.525; -530.000; -362.000
234.081;  -16.600;  -93.000;   31.000
234.225;  -69.025; -631.000; -539.000
234.368;  -95.025; -773.000; -723.000
234.512;  -42.750; -385.000; -299.000
234.655;  -80.350; -582.000; -555.000
234.798;  -65.300; -493.000; -466.000
234.942; -125.775; -884.000;-1002.000
235.085;  -76.800; -651.000; -443.000
235.229;  -54.425; -405.000; -410.000
235.372;  -49.350; -247.000; -191.000
235.516;  -62.175; -397.000; -321.000
235.659;    9.025;   92.000;  121.000
235.802;  -18.875;  -38.000;  -22.000
235.946;   24.650;  335.000;  215.000
236.089;   28.950;  126.000;  250.000
236.233;   51.750;  275.000;  298.000
236.376;  -54.050; -235.000; -378.000
236.519;  -50.025; -297.000; -319.000
236.663;  -20.350; -215.000; -117.000
236.806; -129.500;-1029.000; -999.000
236.949;   41.125;  543.000;  431.000
237.092;   40.600;  412.000;  391.000
237.236;  -84.450; -589.000; -502.000
237.379;   50.875;  352.000;  428.000
237.522; -109.050; -879.000; -768.000
237.666;  -32.275; -271.000;   18.000
237.809; -123.575; -851.000; -823.000
237.952;   19.400;  469.000;  271.000
238.095;  -63.325; -447.000; -442.000
238.238;   80.125;  688.000;  700.000
238.382;   15.325;  166.000;  103.000
238.525;  -76.450; -598.000; -511.000
238.668; -129.125;-1060.000; -985.000
238.811;  -76.325; -638.000; -643.000
238.954;  -57.125; -483.000; -334.000
239.097;   81.300;  617.000;  664.000
239.241;   14.675;  394.000;  326.000
239.384;  -51.300; -254.000; -214.000
239.527;  -55.750; -424.000; -224.000
239.670; -130.300; -994.000;-1091.000
239.813; -117.000; -696.000; -658.000
239.956;   72.425;  579.000;  473.000
240.099; -111.000; -778.000; -725.000
240.242;   56.075;  428.000;  432.000
240.385;   37.950;  466.000;  450.000
240.528;  -75.475; -706.000; -473.000
240.671;   34.450;  189.000;  134.000
240.814;  -36.050; -441.000; -158.000
240.957;  -96.550; -767.000; -578.000
241.100;  -84.675; -779.000; -755.000
241.243; -148.750;-1234.000; -893.000
241.386;  -68.675; -508.000; -379.000
241.529;  -90.625; -735.000; -547.000
241.672;  -77.350; -566.000; -495.000
241.815; -131.950; -832.000; -808.000
241.958;  -21.225; -125.000; -182.000
242.101;  -71.175; -545.000; -390.000
242.244;  -47.400; -270.000; -325.000
242.387;  -41.700; -304.000; -246.000
242.530;   48.400;  470.000;  134.000
242.673;  -45.900; -381.000; -309.000
242.815; -114.900; -925.000; -899.000
242.958;  -56.500; -482.000; -381.000
243.101;    3.200;  132.000;  187.000
243.244;  -75.700; -564.000; -521.000
243.387;  -51.300; -313.000; -316.000
243.530;  -90.825; -657.000; -674.000
243.672;   -3.050;   43.000;  -92.000
243.815;  -46.775; -355.000; -283.000
243.958;  -18.125;   98.000;  -26.000
244.101;   -8.725;   59.000;  -16.000
244.243;  -13.600;  -47.000;  101.000
244.386;  -93.100; -761.000; -630.000
244.529;  -20.950; -132.000; -139.000
244.672; -135.350;-1154.000; -951.000
244.814;  -94.325; -621.000; -794.000
244.957;  -42.675; -380.000; -304.000
245.100;  -71.475; -489.000; -489.000
245.242;  -49.475; -387.000; -374.000
245.385;  -15.675;  -59.000;  -39.000
245.528; -107.975; -871.000; -705.000
245.670;   82.600;  612.000;  634.000
245.813;  -75.800; -599.000; -547.000
245.956;  -36.025; -324.000; -275.000
246.098;  -72.950; -508.000; -650.000
246.241;    1.875;  194.000;   48.000
246.383;  -27.500; -119.000;  -73.000
246.526;  -74.675; -454.000; -525.000
246.669; -116.325; -889.000; -780.000
246.811;   14.725;  172.000;   -1.000
246.954;  -60.125; -512.000; -426.000
247.096;  -33.025;  -84.000;   -6.000
247.239;  -67.475; -482.000; -445.000
247.381;  -73.300; -647.000; -488.000
247.524;   72.825;  645.000;  679.000
247.666;  -15.200;   58.000;   11.000
247.809; -118.000; -887.000; -691.000
247.951;  -25.650;  -75.000;  138.000
248.094;   24.425;  432.000;  308.000
248.236; -152.500;-1262.000;-1238.000
248.378;  -12.400; -356.000;  -81.000
248.521;  -47.975; -334.000; -337.000
248.663;  -32.200; -236.000; -267.000
248.806;  -44.300; -300.000; -266.000
248.948; -103.875; -886.000; -763.000
249.090;  -52.925; -428.000; -398.000
249.233;  -49.750; -344.000; -381.000
249.375;  -69.900; -474.000; -451.000
249.518;  -12.925;  -83.000; -133.000
249.660;  -17.500; -103.000;    3.000
249.802; -176.350;-1303.000;-1189.000
249.945;  -81.250; -612.000; -540.000
250.087; -109.950; -834.000; -768.000
250.229;  -59.125; -362.000; -480.000
250.371;  -68.750; -494.000; -439.000
250.514;  -50.400; -310.000; -244.000
250.656;  -20.800;   69.000;  102.000
250.798; -112.800; -849.000; -800.000
250.940;  -54.050; -322.000; -322.000
251.083;  -42.200; -335.000; -111.000
251.225;   55.825;  338.000;  310.000
251.367;  -53.625; -274.000; -373.000
251.509;  -35.600; -265.000; -210.000
251.651;  -95.175; -731.000; -671.000
251.794;   47.750;  538.000;  632.000
251.936; -114.025; -821.000; -747.000
252.078;  -74.450; -540.000; -461.000
252.220;  -89.100; -645.000; -477.000
252.362;   42.650;  344.000;  462.000
252.504;  -99.950; -677.000; -584.000
252.646; -112.400; -875.000; -722.000
252.788;  -20.425;   14.000; -128.000
252.931;  -32.750; -257.000; -253.000
253.073;  -55.400; -376.000; -317.000
253.215;   -0.100;  141.000;  122.000
253.357;  -30.650;   82.000; -153.000
253.499;  -39.500; -374.000; -234.000
253.641;  -87.075; -749.000; -594.000
253.783;  -76.025; -609.000; -527.000
253.925;  -90.575; -586.000; -591.000
254.067; -111.300; -744.000; -667.000
254.209;  -48.975; -391.000; -259.000
254.351; -124.725; -865.000; -883.000
254.493;  -58.500; -441.000; -417.000
254.635; -119.500; -936.000; -818.000
254.777;  -95.025; -752.000; -687.000
254.918;  -71.925; -512.000; -430.000
255.060;  -67.700; -551.000; -395.000
255.202;  -56.125; -473.000; -261.000
255.344;  -76.075; -658.000; -455.000
255.486;  -79.075; -471.000; -406.000
255.628; -101.175; -780.000; -781.000
255.770;  -88.150; -676.000; -536.000
255.912;  -66.000; -559.000; -468.000
256.053; -103.650; -730.000; -508.000
256.195;  140.275; 1008.000;  903.000
256.337;  -99.575; -861.000; -595.000
256.479;   43.175;  532.000;  416.000
256.621;  -36.650; -394.000; -212.000
256.762; -103.950; -789.000; -742.000
256.904;   47.775;  485.000;  487.000
257.046;  -37.200; -381.000; -271.000
257.188;  -52.475; -351.000; -264.000
257.329;  -65.675; -525.000; -464.000
257.471; -105.450; -939.000; -807.000
257.613;  -74.425; -584.000; -498.000
257.755; -140.725;-1073.000; -982.000
257.896;   19.675;  286.000;  392.000
258.038;  -65.125; -403.000; -352.000
258.180;  -48.825; -354.000; -279.000
258.321;  -73.950; -581.000; -457.000
258.463;   -7.425;  -71.000;  133.000
258.605;  -92.225; -562.000; -570.000
258.746; -100.475; -886.000; -772.000
258.888; -136.775;-1026.000;-1020.000
259.029;   11.850;  121.000;   -8.000
259.171;  -92.725; -614.000; -550.000
259.313;  -10.400;  -49.000;  -47.000
259.454;  -64.875; -536.000; -414.000
259.596;  -58.200; -483.000; -390.000
259.737;  -70.425; -590.000; -474.000
259.879;   25.550;  217.000;  311.000
260.020;   84.300;  901.000;  636.000
260.162;  -35.425; -146.000; -253.000
260.303; -109.675; -768.000; -687.000
260.445;  -78.075; -609.000; -613.000
260.586;   20.900;  392.000;  157.000
260.728;  -49.175; -360.000; -248.000
260.869;  -61.200; -350.000; -343.000
261.011;   69.100;  706.000;  537.000
261.152;  -54.150; -479.000; -319.000
261.293;  -79.575; -576.000; -595.000
261.435;  -37.375; -219.000; -184.000
261.576;  -67.375; -455.000; -325.000
261.718;   55.500;  420.000;  470.000
261.859; -133.350; -940.000; -949.000
262.000; -120.800; -951.000;-1016.000
262.142;  -24.400;  -52.000;  -60.000
262.283; -109.200; -808.000; -691.000
262.424;  -80.600; -666.000; -625.000
262.566; -148.225;-1161.000; -983.000
262.707; -126.850; -840.000; -830.000
262.848; -115.525; -769.000; -726.000
262.990;  -51.300; -362.000; -345.000
263.131;   78.750;  650.000;  681.000
263.272;  -21.775;  -61.000;  -41.000
263.413;  -75.725; -589.000; -561.000
263.555;  -77.550; -669.000; -143.000
263.696;  -82.325; -550.000; -641.000
263.837;  -52.825; -449.000; -551.000
263.978;   -6.475;   -5.000;  -77.000
264.119;  -56.925; -283.000; -264.000
264.261; -117.275; -847.000; -630.000
264.402;  -10.550;   33.000;   40.000
264.543;  -66.225; -509.000; -524.000
264.684;  -23.700;   61.000;  -50.000
264.825;  -83.475; -816.000; -538.000
264.966;  -10.700;  -84.000;  -67.000
265.107; -100.325; -646.000; -670.000
265.248; -112.075; -825.000; -812.000
265.390;   -6.250;  152.000;   -9.000
265.531;  -37.975; -238.000; -107.000
265.672;  -77.625; -557.000; -630.000
265.813;   54.125;  563.000;  439.000
265.954; -130.525; -959.000; -940.000
266.095;  -24.000; -372.000; -322.000
266.236;  -87.400; -686.000; -548.000
266.377;  -54.225; -243.000; -297.000
266.518;  -67.525; -619.000; -547.000
266.659;   23.425;  170.000;  268.000
266.800;   -0.600;   83.000;   85.000
266.941;  -73.925; -487.000; -478.000
267.082;    2.525;  354.000;   99.000
267.223;  -51.025; -344.000; -273.000
267.364; -109.150; -892.000; -686.000
267.504;  -24.100;    3.000;  135.000
267.645;    8.500;  160.000;   67.000
267.786;  -33.000; -147.000;  -86.000
267.927;  -67.675; -473.000; -379.000
268.068;  -34.100; -186.000;  -61.000
268.209;  -42.575; -175.000; -413.000
268.350;  -57.625; -388.000; -532.000
268.490;  -71.400; -648.000; -521.000
268.631;   14.525;  127.000;  225.000
268.772; -106.050; -874.000; -647.000
268.913;  -61.150; -328.000; -476.000
269.054;  -11.550; -117.000;   12.000
269.194;  -65.000; -418.000; -402.000
269.335; -148.075;-1137.000;-1074.000
269.476;  -28.075;   33.000;  -35.000
269.617;  -46.425; -347.000; -392.000
269.757;  -92.800; -713.000; -646.000
269.898;  -98.275; -856.000; -613.000
270.039;  -69.575; -415.000; -405.000
270.180; -132.200; -952.000; -816.000
270.320;  -36.750; -190.000; -250.000
270.461;  -41.575; -277.000; -249.000
270.602;  -34.400; -186.000; -156.000
270.742; -110.925; -868.000; -943.000
270.883;  -82.525; -442.000; -390.000
271.023;  -57.625; -358.000; -357.000
271.164;  -78.075; -607.000; -528.000
271.305;  -91.775; -666.000; -654.000
271.445;  -89.525; -722.000; -683.000
271.586;  -69.950; -462.000; -283.000
271.726;  -56.675; -397.000; -322.000
271.867;  -71.325; -594.000; -534.000
272.008;   37.475; -473.000; -285.000
272.148;   71.875;  462.000;  468.000
272.289;  -26.175; -113.000; -181.000
272.429;    6.725;   19.000;  185.000
272.570; -103.650; -633.000; -737.000
272.710; -106.275; -825.000; -775.000
272.851;  -45.300;  113.000; -130.000
272.991; -140.550;-1173.000;-1077.000
273.131;  -66.475; -419.000; -459.000
273.272;  -89.500; -683.000; -723.000
273.412;  -10.600; -143.000;  -31.000
273.553;  -63.350; -488.000; -507.000
273.693;  112.675;  913.000;  858.000
273.834; -111.775; -894.000; -692.000
273.974;  -71.275; -664.000; -615.000
274.114; -100.675; -772.000; -560.000
274.255;   40.025;  414.000;  373.000
274.395;  -24.700; -180.000; -125.000
274.535;    5.075;  199.000;  350.000
274.676;   16.975;  225.000;   94.000
274.816;   -8.125;  110.000;   34.000
274.956;  -80.800; -624.000; -690.000
275.097; -103.300;-1014.000; -922.000
275.237; -106.350; -913.000; -803.000
275.377; -116.325; -778.000; -689.000
275.517; -149.150; -878.000; -937.000
275.658;  -73.400; -590.000; -555.000
275.798;  -79.000; -606.000; -413.000
275.938;   22.000;  215.000;  323.000
276.078;  -65.700; -626.000; -395.000
276.218;    5.975;   99.000;  104.000
276.359; -136.150;-1026.000;-1024.000
276.499;  -86.375; -605.000; -446.000
276.639;  -35.475; -305.000; -151.000
276.779;  -57.050; -475.000; -357.000
276.919; -105.175; -783.000; -624.000
277.059;  -33.700; -261.000; -212.000
277.199;  -41.150; -357.000; -259.000
277.340;   21.325;  287.000;  175.000
277.480; -111.075; -840.000; -693.000
277.620;   14.675;  192.000;   16.000
277.760; -186.800;-1533.000;-1294.000
277.900;   -3.950;  113.000;   33.000
278.040;    3.075;  137.000;  159.000
278.180;   28.400;  270.000;  170.000
278.320;   -5.775;   21.000;   56.000
278.460;  -77.450; -443.000; -469.000
278.600; -100.750; -708.000; -598.000
278.740;   31.175;  448.000;  224.000
278.880; -106.225; -768.000; -791.000
279.020;  -29.725; -194.000; -144.000
279.160;  -82.000; -672.000; -595.000
279.300; -113.850; -926.000; -873.000
279.440; -102.250; -709.000; -622.000
279.579; -101.650;-1014.000; -929.000
279.719;  -58.700; -410.000; -394.000
279.859;   22.375;   -4.000;   41.000
279.999;    4.250; -208.000;  101.000
280.139;  -50.050; -435.000; -387.000
280.279;  -86.950; -708.000; -745.000
280.419;  -15.175; -229.000; -147.000
280.559;  -48.125; -259.000; -180.000
280.698;  -95.900; -790.000; -639.000
280.838; -100.325; -778.000; -800.000
280.978; -100.200; -846.000; -790.000
281.118; -114.750; -811.000; -704.000
281.257;    0.175;   24.000;    6.000
281.397; -137.775;-1094.000; -960.000
281.537; -106.150; -599.000; -712.000
281.677;  -16.300; -150.000; -101.000
281.816; -109.275; -700.000; -630.000
281.956;  -24.725; -193.000; -257.000
282.096;  -73.400; -539.000; -396.000
282.235;  -99.625; -672.000; -638.000
282.375;  -29.500; -243.000;  -98.000
282.515;  -87.875; -715.000; -707.000
282.654;   -0.575;   29.000;  106.000
282.794;   27.000;  388.000;  244.000
282.934;  -54.100; -530.000; -491.000
283.073; -122.750;-1030.000; -857.000
283.213;  -67.475; -460.000; -467.000
283.353;  -51.225; -408.000; -349.000
283.492;  -34.100; -264.000; -296.000
283.632;  -39.325; -254.000; -168.000
283.771; -108.025; -859.000; -730.000
283.911;  -63.050; -369.000; -260.000
284.050; -107.300; -794.000; -748.000
284.190; -143.700;-1229.000;-1096.000
284.329; -134.725;-1055.000; -964.000
284.469;  -86.375; -516.000; -591.000
284.608;  -71.675; -559.000; -598.000
284.748;  -78.825; -614.000; -570.000
284.887;  -17.975;  -87.000;  -20.000
285.027; -112.625; -844.000; -892.000
285.166;  -43.275; -192.000; -249.000
285.306;  -22.800; -116.000;  -33.000
285.445;  -56.750; -229.000; -343.000
285.584;  -92.725; -630.000; -494.000
285.724;  -46.525; -282.000; -322.000
285.863; -103.550; -857.000; -507.000
286.002;  -58.850; -366.000; -276.000
286.142; -100.075; -715.000; -622.000
286.281;  -86.100; -525.000; -493.000
286.420;  -69.875; -554.000; -417.000
286.560;   82.125;  653.000;  623.000
286.699; -135.150; -958.000; -912.000
286.838;  -82.525; -590.000; -591.000
286.978;  -85.850; -533.000; -537.000
287.117; -143.800;-1085.000; -950.000
287.256;  -28.825; -228.000; -211.000
287.395;  -56.350; -197.000; -378.000
287.535;  -59.075; -370.000; -298.000
287.674;  -86.000; -509.000; -484.000
287.813;   38.250;  661.000;  533.000
287.952; -127.925;-1010.000; -871.000
288.091; -156.650;-1049.000; -915.000
288.231;   -4.125;   13.000;   15.000
288.370; -155.575;-1217.000;-1200.000
288.509;  -85.600; -728.000; -645.000
288.648;  -78.150; -770.000; -548.000
288.787;  -33.950; -243.000;  -87.000
288.926;  -69.450; -454.000; -475.000
289.065;   81.200;  859.000;  672.000
289.204;  -58.550; -377.000; -217.000
289.344;  -95.525; -791.000; -690.000
289.483;   19.375;  416.000;  304.000
289.622;  -27.575; -291.000; -149.000
289.761;  -22.600; -309.000; -166.000
289.900; -112.875; -785.000; -626.000
290.039;  -23.375;  -12.000;  -95.000
290.178;  -43.625; -274.000; -180.000
290.317;  -77.950; -618.000; -479.000
290.456;  -74.775; -463.000; -451.000
290.595; -116.625; -961.000; -833.000
290.734; -143.250; -904.000; -891.000
290.873;  -69.750; -456.000; -420.000
291.011; -123.075; -833.000; -843.000
291.150; -102.100; -770.000; -682.000
291.289;  -45.200; -343.000; -110.000
291.428;  -89.000; -599.000; -480.000
291.567;  -61.025; -370.000; -442.000
291.706;  -14.275;  109.000;  154.000
291.845;  -98.500; -597.000; -505.000
291.984; -161.950;-1234.000;-1061.000
292.122;   64.625;  602.000;  582.000
292.261;   33.350;  620.000;  463.000
292.400;  -14.000; -144.000;  211.000
292.539; -121.575; -959.000; -813.000
292.678;  -49.900; -325.000; -300.000
292.816; -140.025;-1136.000; -965.000
292.955; -108.925; -844.000; -684.000
293.094;  -23.450; -173.000; -337.000
293.233;  -60.800; -556.000; -400.000
293.371;  -34.025; -225.000;  -84.000
293.510; -120.475; -866.000; -780.000
293.649; -132.450; -959.000; -924.000
293.787; -128.125;-1083.000;-1012.000
293.926;  -13.825; -113.000;  -32.000
294.065;  -46.875; -379.000; -290.000
294.203;   26.650;  298.000;  406.000
294.342;   17.775;   74.000;  156.000
294.481; 5039.775;51180.000; -836.000
294.619;  -50.350; -425.000; -582.000
294.758; -148.475;-1230.000;-1137.000
294.896;    2.225; -125.000;    5.000
295.035; -127.625;-1040.000;-1006.000
295.174; -144.175;-1082.000; -954.000
295.312;  -46.900; -323.000; -203.000
295.451;  -32.375; -307.000; -428.000
295.589;  -70.700; -389.000; -518.000
295.728;   -8.475; -292.000; -165.000
295.866;   -2.575;  -36.000;  -51.000
296.005;  -79.075; -584.000; -341.000
296.143;  -76.950; -558.000; -596.000
296.282; -112.800; -957.000; -881.000
296.420;  -92.150; -657.000; -557.000
296.559;  -96.300; -892.000; -633.000
296.697;  -61.050; -847.000; -665.000
296.835;  -93.125;-1141.000;-1002.000
296.974;   19.000;  -23.000;   39.000
297.112;  -55.100; -443.000; -504.000
297.251;  -91.275; -815.000; -755.000
297.389;  -29.925; -576.000; -438.000
297.527;    0.650; -145.000;  -83.000
297.666;  -63.375; -486.000; -438.000
297.804;  -61.500; -404.000; -264.000
297.942;  -23.675; -136.000; -161.000
298.081;  -30.675; -183.000;   63.000
298.219;   -7.475;  -17.000;  -19.000
298.357;   -9.325; -144.000;  -71.000
298.495;  -69.375; -810.000; -812.000
298.634;   10.525;  245.000;  219.000
298.772;  -40.200; -220.000; -338.000
298.910;  -47.900; -309.000; -182.000
299.048;  -27.400; -130.000; -153.000
299.187;  -39.125; -350.000; -250.000
299.325;  -10.200;   52.000;  122.000
299.463;  -35.925; -389.000; -299.000
299.601;   -6.875; -327.000; -271.000
299.739; -125.400; -908.000; -883.000
299.877;  -97.600; -791.000; -703.000
300.016; -117.950;-1095.000; -935.000
300.154;   29.325;  -19.000; -161.000
300.292;  -43.250; -428.000; -348.000
300.430;  -30.950; -408.000; -291.000
300.568; -112.250; -940.000; -874.000
300.706;  -63.875; -366.000; -469.000
300.844; -131.625;-1108.000; -979.000
300.982;   50.550;  246.000;  282.000
301.120; -133.050; -965.000; -866.000
301.258; -107.750; -812.000; -705.000
301.396;    9.650;  104.000;  -41.000
301.534;  -36.825; -218.000; -293.000
301.672;  -66.700; -664.000; -521.000
301.810;  -78.700; -613.000; -545.000
301.948;   28.675;   53.000;  149.000
302.086;  191.250; -250.000;  -32.000
302.224;  202.375; -610.000; -585.000
302.362;  -62.425; -558.000; -622.000
302.500;  -95.125; -923.000; -893.000
302.638;   23.725;  128.000;  245.000
302.776;  -38.700; -352.000; -408.000
302.913;   34.300;  447.000;  236.000
303.051;  -26.675;  -86.000;  -23.000
303.189;   13.350;   90.000;  118.000
303.327;  -48.000; -341.000; -256.000
303.465;  -87.225; -832.000; -588.000
303.603;  -92.325; -805.000; -604.000
303.740;   27.150;  417.000;  241.000
303.878;  -53.975; -800.000; -759.000
304.016;  -99.075; -915.000; -790.000
304.154; -137.625;-1123.000;-1152.000
304.291;  -70.700; -505.000; -554.000
304.429;   -4.900;  102.000;   74.000
304.567; -134.650; -908.000; -893.000
304.705;  -69.750; -408.000; -515.000
304.842;  -41.675; -616.000; -540.000
304.980;    4.800;  215.000;   35.000
305.118;  -30.725; -367.000; -365.000
305.255; -108.325; -945.000; -927.000
305.393;   16.825;  178.000;  239.000
305.531; -136.225;-1173.000; -956.000
305.668;  -90.375; -663.000; -582.000
305.806;  -11.075; -358.000; -439.000
305.943;  -30.250; -629.000; -637.000
306.081;   -9.100; -378.000; -267.000
306.219; -104.875; -863.000; -748.000
306.356;    6.100;  158.000;   27.000
306.494;  109.725;  981.000;  761.000
306.631;   -3.325;  -11.000;  -55.000
306.769;   -2.975; -613.000; -485.000
306.906;  -22.700; -284.000; -258.000
307.044;  -79.375; -473.000; -488.000
307.181;  -55.075; -410.000; -332.000
307.319;    6.950;  112.000;   87.000
307.456; -158.225;-1191.000;-1153.000
307.594; -110.500; -980.000; -727.000
307.731;  -17.100; -371.000; -164.000
307.868;  -11.250;  -15.000;   20.000
308.006; -134.250; -961.000; -847.000
308.143;  -72.100; -618.000; -330.000
308.281;   33.350;  -37.000; -254.000
308.418;  -65.050; -748.000; -640.000
308.555;  -64.450; -400.000; -250.000
308.693;  -76.175; -577.000; -573.000
308.830; -101.050; -712.000; -657.000
308.967;  -17.900; -215.000;  -95.000
309.105;  -26.475; -507.000; -396.000
309.242;  -19.325; -468.000; -367.000
309.379;   32.700; -577.000; -655.000
309.517;  -91.550; -936.000; -948.000
309.654;  -97.850; -910.000; -734.000
309.791;  -77.100; -662.000; -580.000
309.928; -104.575; -977.000; -914.000
310.065;  125.775;  819.000;  697.000
310.203;  -73.950; -825.000; -850.000
310.340;  -49.225; -465.000; -321.000
310.477;  -66.100; -412.000; -516.000
310.614;  -52.600; -383.000; -473.000
310.751;  -65.100; -427.000; -518.000
310.889;  -24.450;    1.000;   11.000
311.026; -129.900;-1161.000; -939.000
311.163;  -58.775; -386.000; -380.000
311.300;  -68.000; -512.000; -479.000
311.437;  -73.425; -658.000; -619.000
311.574; -146.000;-1226.000; -985.000
311.711;  -71.950; -595.000; -433.000
311.848;  -31.450; -380.000; -388.000
311.985;    0.825;  270.000;   93.000
312.122; -113.100; -932.000; -762.000
312.259; -124.950; -941.000; -994.000
312.396;  -71.050; -508.000; -551.000
312.533;  -69.450; -812.000; -790.000
312.670; -138.425;-1070.000; -898.000
312.807;  -47.225; -352.000; -367.000
312.944;  -71.825; -513.000; -611.000
313.081;  -21.700; -150.000; -415.000
313.218;  -80.050;-1111.000; -867.000
313.355;  -37.325; -531.000; -449.000
313.492;    1.075; -455.000; -292.000
313.629;  109.975;  815.000;  735.000
313.766; -144.375;-1176.000;-1008.000
313.902;  -21.625; -186.000;   21.000
314.039;  -59.200; -372.000; -289.000
314.176;   20.700;  286.000;  192.000
314.313;  -70.850; -569.000; -473.000
314.450;  -85.400; -788.000; -684.000
314.587;  -56.125; -468.000; -480.000
314.723;    4.025;  -78.000;  130.000
314.860;   38.225;  318.000;  332.000
314.997;   17.100;  223.000;  142.000
315.134;  -24.400; -385.000; -368.000
315.270;  -40.375; -480.000; -496.000
315.407; -105.975;-1094.000; -967.000
315.544;  -40.875; -657.000; -538.000
315.681;  -43.375; -681.000; -565.000
315.817;   26.350; -133.000; -176.000
315.954;   25.925; -613.000; -392.000
316.091; -123.350;-1045.000;-1023.000
316.227;  -21.675;  -71.000; -179.000
316.364;   -4.875;   23.000;    6.000
316.500;  -46.825; -113.000; -300.000
316.637;  -51.900; -181.000; -302.000
316.774;  -94.500; -625.000; -358.000
316.910; -113.325; -598.000; -629.000
317.047;  -65.825; -487.000; -351.000
317.183;  -60.750; -435.000; -566.000
317.320;   28.275; -367.000; -321.000
317.456;  -42.375; -733.000; -805.000
317.593;  -73.025; -598.000; -641.000
317.729;  -13.100;  168.000;  -67.000
317.866; -198.325;-1434.000;-1285.000
318.002;  -85.700; -708.000; -948.000
318.139; -106.675; -883.000; -867.000
318.275; -119.625;-1003.000; -738.000
318.412;  -66.775; -517.000; -336.000
318.548;  -74.800; -751.000; -720.000
318.685;  -99.550; -985.000; -888.000
318.821;  -92.450; -762.000; -735.000
318.957;  -19.050;   34.000;  -23.000
319.094;   28.750;  297.000;  154.000
319.230; -107.975; -756.000; -742.000
319.367;  -24.975; -471.000; -520.000
319.503;  -27.875; -538.000; -436.000
319.639; -109.300; -877.000; -793.000
319.775;  -94.625; -750.000; -685.000
319.912;  -65.025; -424.000; -519.000
320.048;  -95.625;-1184.000;-1184.000
320.184;   78.575;   59.000;   70.000
320.321;  -54.150; -497.000; -467.000
320.457;   64.025;  475.000;  662.000
320.593;  -65.925; -375.000; -382.000
320.729; -102.200; -732.000; -734.000
320.866;  -66.750; -577.000; -635.000
321.002;  -98.400; -759.000; -809.000
321.138;  -33.725; -135.000; -211.000
321.274;    1.925; -148.000; -115.000
321.410;  -59.125; -585.000; -353.000
321.546;  -98.050;-1011.000; -911.000
321.683;   40.925;  400.000;  185.000
321.819;  -20.450;  -48.000; -117.000
321.955; -115.250; -743.000; -722.000
322.091;  -72.225; -585.000; -540.000
322.227;  -23.625; -382.000; -202.000
322.363;  -51.150; -320.000; -215.000
322.499;  -66.525; -343.000; -331.000
322.635;   72.250;  636.000;  443.000
322.771;  -27.250; -139.000;   12.000
322.907;   31.275;  129.000;  327.000
323.043;  -35.775; -115.000; -206.000
323.179;  -59.775; -394.000; -363.000
323.315;  -45.575; -401.000; -371.000
323.451;   22.075; -328.000; -236.000
323.587;   50.800;  -60.000;  -77.000
323.723;  -49.575; -682.000; -601.000
323.859;  -35.325; -258.000;  -76.000
323.995;  -67.400; -467.000; -409.000
324.131; -132.925; -967.000; -892.000
324.267;  -56.200; -254.000; -276.000
324.402; -122.125; -960.000; -983.000
324.538;  -45.550; -279.000; -104.000
324.674;    6.900;  164.000;   77.000
324.810;   32.400;  226.000;  308.000
324.946;  -55.950; -810.000; -658.000
325.082;  -83.225; -568.000; -475.000
325.217;  -20.125;  -62.000;   16.000
325.353; -108.125; -764.000; -659.000
325.489;  -94.250; -540.000; -506.000
325.625;  -89.450; -579.000; -525.000
325.760;   93.850;  517.000;  376.000
325.896;   11.725; -515.000; -702.000
326.032;  -55.825; -403.000; -352.000
326.168;  -81.300; -462.000; -369.000
326.303;  -72.050; -352.000; -461.000
326.439;  -22.675; -336.000; -276.000
326.575;  -11.825; -190.000;  -29.000
326.710;  -28.875; -156.000;  -30.000
326.846;  -12.100;  146.000;  103.000
326.982; -101.275; -530.000; -548.000
327.117;  -60.550; -481.000; -442.000
327.253;  -82.300; -745.000; -742.000
327.388; -172.425;-1137.000;-1153.000
327.524;  -84.250; -811.000; -578.000
327.659;  -23.450;  -58.000;  -22.000
327.795;  -29.250;   69.000;   45.000
327.931;  -78.150; -723.000; -499.000
328.066;  -40.250; -417.000; -276.000
328.202;  -35.025;   12.000; -129.000
328.337;   74.350;  957.000;  713.000
328.473;   31.875;  -12.000;  -74.000
328.608;  -34.750; -256.000; -267.000
328.743; -106.475; -799.000; -664.000
328.879;   -2.800;  214.000;  114.000
329.014;  -30.275; -102.000; -122.000
329.150;  -85.425; -358.000; -483.000
329.285;  -82.325; -465.000; -466.000
329.421;  -60.525; -548.000; -246.000
329.556;  -14.575;  -36.000;   85.000
329.691; -108.200; -633.000; -615.000
329.827;  -78.125; -626.000; -480.000
329.962;  -41.875;  131.000; -301.000
330.097;  -91.525; -673.000; -585.000
330.233;  -51.875; -410.000; -223.000
330.368; -105.050; -839.000; -628.000
330.503;  -32.075;    3.000;   98.000
330.638;  -21.400;  -93.000; -125.000
330.774;  -76.700; -609.000; -530.000
330.909;  -44.350; -434.000; -244.000
331.044;  -94.325; -714.000; -708.000
331.179; -167.475;-1217.000;-1109.000
331.315;   -1.225;   77.000;   20.000
331.450;   -4.375;  157.000;  285.000
331.585;  -93.550; -805.000; -706.000
331.720;  -75.425; -510.000; -460.000
331.855;   -1.750;  -35.000; -102.000
331.990;  427.075;   62.000;  138.000
332.126;  206.775; -110.000;   71.000
332.261;    3.125; -379.000; -265.000
332.396;   17.725; -135.000; -242.000
332.531;  -57.850;-1074.000;-1031.000
332.666;   89.200; -519.000; -363.000
332.801; -102.550; -726.000; -807.000
332.936;  -30.425; -192.000; -122.000
333.071; -133.525; -870.000; -817.000
333.206;   -5.025;  307.000;  379.000
333.341;   29.775;  344.000;  418.000
333.476;  -96.375; -627.000; -623.000
333.611;  -53.275; -251.000; -173.000
333.746;  -66.775; -381.000; -464.000
333.881; -109.725; -973.000; -935.000
334.016; -122.200; -936.000; -917.000
334.151; -117.025; -746.000; -702.000
334.286;   -6.550;  152.000;  186.000
334.421;  -20.650; -125.000; -178.000
334.556;  -75.550; -611.000; -567.000
334.690;  -94.000; -631.000; -577.000
334.825;   53.350;  381.000;   83.000
334.960;  -64.125; -285.000; -413.000
335.095;   -2.425;  135.000;  -91.000
335.230;  -99.975; -722.000; -738.000
335.365; -138.575;-1084.000; -990.000
335.499; -125.425;-1108.000;-1037.000
335.634;    7.800;    9.000;  534.000
335.769;  -97.075; -755.000; -720.000
335.904;  -55.800; -603.000; -561.000
336.038;  -32.275; -735.000; -657.000
336.173; -112.400;-1206.000;-1194.000
336.308;   12.400; -116.000; -189.000
336.443;   55.675; -544.000; -634.000
336.577;  -55.900; -936.000; -787.000
336.712;   50.075;   -4.000;  -12.000
336.847;  -52.300; -724.000; -607.000
336.981;   55.650; -272.000; -208.000
337.116;  260.750;  615.000;  501.000
337.250;  107.000; -434.000; -421.000
337.385;  478.300; -297.000; -208.000
337.520;  227.950; -632.000; -603.000
337.654;  -35.950; -215.000; -126.000
337.789; -141.875; -989.000; -933.000
337.923;  -47.625; -104.000; -205.000
338.058; -116.550; -673.000; -738.000
338.192;  -57.975; -611.000; -488.000
338.327;  -23.575;  -18.000; -155.000
338.461;  -66.500; -299.000; -469.000
338.596;  -97.250; -780.000; -638.000
338.730;  -89.250; -767.000; -803.000
338.865;  158.700;  -46.000; -140.000
338.999;    8.225; -846.000; -702.000
339.134;   -6.700; -634.000; -536.000
339.268;   48.250; -741.000; -603.000
339.403;  581.025; -740.000; -775.000
339.537;  274.600; -894.000; -820.000
339.671; -100.550; -829.000; -813.000
339.806;  -22.225; -556.000; -512.000
339.940;   21.725; -261.000; -235.000
340.074; -100.525; -685.000; -510.000
340.209;  -54.075; -351.000; -230.000
340.343;  -91.450; -517.000; -573.000
340.477;  133.375;  998.000; 1036.000
340.612;   15.500;-1033.000; -900.000
340.746;  240.050; -199.000; -243.000
340.880;  -94.975; -924.000; -785.000
341.014;  -19.425;  -45.000; -154.000
341.149; -117.900; -756.000; -718.000
341.283; -103.925; -839.000; -754.000
341.417; -135.350;-1124.000; -938.000
341.551;  -49.450; -768.000; -708.000
341.685;  -61.575; -633.000; -611.000
341.820;  -59.525; -562.000; -493.000
341.954;  -50.425; -218.000; -349.000
342.088; -148.475;-1102.000;-1019.000
342.222;   44.250;  565.000;  618.000
342.356;  -88.925; -395.000; -335.000
342.490; -127.150; -880.000; -841.000
342.624;  -72.575; -339.000; -242.000
342.758;  -53.150; -364.000; -312.000
342.892; -101.000; -710.000; -585.000
343.026;  -49.375;  -58.000; -116.000
343.160;  -68.425; -426.000; -376.000
343.294;  -88.775; -474.000; -337.000
343.428;  -73.675; -488.000; -448.000
343.562;  -35.675; -172.000;  -23.000
343.696;  -49.975; -385.000; -314.000
343.830;  -46.400; -362.000; -356.000
343.964;  -46.250; -231.000; -168.000
344.098;  268.000;  199.000;   70.000
344.232;  204.075; -266.000; -127.000
344.366;   74.375; -567.000; -453.000
344.500;  -46.725; -665.000; -744.000
344.634;  -40.400; -324.000; -164.000
344.768;  -72.500; -531.000; -341.000
344.902;    3.075;  278.000;  256.000
345.035;  -84.175; -556.000; -496.000
345.169; -134.375; -933.000; -656.000
345.303;  -50.575; -308.000; -482.000
345.437; -109.825; -826.000; -717.000
345.571;  -78.650; -675.000; -594.000
345.704;  -69.375; -309.000; -532.000
345.838;  -25.175; -331.000; -284.000
345.972;  -57.000; -543.000; -495.000
346.106;  247.100; -179.000; -190.000
346.239;  471.225; -312.000; -243.000
346.373;  -13.125; -343.000; -302.000
346.507; -130.550; -950.000; -962.000
346.640;   19.125;  -30.000;   13.000
346.774;  -94.475; -650.000; -797.000
346.908;  -40.500; -138.000;  -11.000
347.041; -100.225; -646.000; -593.000
347.175;  -25.350;  259.000;   27.000
347.309; -108.875; -698.000; -628.000
347.442; -121.550; -883.000; -732.000
347.576;  110.375;  670.000;  668.000
347.709;   27.400; -123.000;  -52.000
347.843; -128.200; -933.000; -825.000
347.976;   12.700;  235.000;  294.000
348.110; -174.625;-1268.000;-1186.000
348.243; -105.775; -679.000; -772.000
348.377;   -1.650;  -26.000;   60.000
348.510;   39.200;  403.000;  540.000
348.644;  -42.050;  -37.000; -159.000
348.777;  -19.975;  180.000;  191.000
348.911;  -44.100; -142.000; -112.000
349.044;   67.850;  471.000;  448.000
349.178;  -45.200;-1069.000;-1006.000
349.311;   97.950;  141.000;  255.000
349.444;   43.900; -927.000; -813.000
349.578;  -38.175; -347.000; -200.000
349.711; -131.250; -959.000; -862.000
349.845;  -82.125; -661.000; -591.000
349.978; -160.150;-1224.000;-1137.000
350.111;  -97.050; -546.000; -612.000
350.244; -104.675; -596.000; -700.000
350.378;  -55.150; -392.000; -393.000
350.511;  -70.075; -393.000; -426.000
350.644;  -92.650; -808.000; -806.000
350.778;   11.450;  168.000;  104.000
350.911;  -21.300;  134.000;  140.000
351.044;  -91.475; -685.000; -615.000
351.177;  -52.550; -321.000; -281.000
351.310;  -19.900;    3.000; -131.000
351.444; -113.500; -888.000; -788.000
351.577;   28.075;  140.000;   90.000
351.710;   58.500;  593.000;  417.000
351.843;  -48.650; -165.000;  -77.000
351.976;  -19.875;  149.000;  -79.000
352.109;  -90.975; -621.000; -612.000
352.242;  -64.275; -464.000; -419.000
352.376;  -85.200; -580.000; -636.000
352.509;    1.700; -437.000; -356.000
352.642;  -81.800; -654.000; -604.000
352.775;   -1.300; -141.000;  -98.000
352.908; -112.025; -933.000; -904.000
353.041; -105.925; -814.000; -824.000
353.174;  -50.300; -551.000; -424.000
353.307; -101.775; -753.000; -764.000
353.440;   71.925;  541.000;  453.000
353.573; -108.900; -957.000;-1008.000
353.706;  -68.250; -384.000; -558.000
353.839;  -35.450; -264.000; -220.000
353.971; -100.125; -657.000; -512.000
354.104; -114.625; -896.000; -835.000
354.237;  -98.300; -627.000; -662.000
354.370;  -98.550; -846.000; -879.000
354.503; -170.175;-1231.000;-1308.000
354.636;  -28.875; -529.000; -348.000
354.769; -126.150; -937.000; -860.000
354.902;  -40.325; -230.000; -139.000
355.034;  -14.275; -164.000; -220.000
355.167;  -23.000; -262.000; -162.000
355.300;  -59.725;-1061.000; -880.000
355.433; 1429.200;  -71.000;  -14.000
355.565; 2306.825; -402.000; -384.000
355.698;  579.975; -356.000; -296.000
355.831;  -14.675; -882.000; -801.000
355.964;    9.500; -285.000; -170.000
356.096;  -72.850; -856.000; -843.000
356.229;  -13.225; -523.000; -530.000
356.362;  532.950; -373.000; -266.000
356.494;  924.725; -229.000; -162.000
356.627;  333.425;  269.000;  377.000
356.760;  902.800;  120.000;   53.000
356.892; 1524.225; -286.000; -601.000
357.025;  336.850;  403.000;  389.000
357.157;  218.250; -167.000; -179.000
357.290; 1234.700; -856.000; -713.000
357.423;  386.950; -667.000; -556.000
357.555;   87.450; -217.000; -228.000
357.688;  122.350; -483.000; -364.000
357.820;  130.925; -870.000; -877.000
357.953; 1338.000; -563.000; -589.000
358.085;  204.075; -632.000; -612.000
358.218;   88.000;-1131.000; -932.000
358.350;   29.300;  -58.000;  312.000
358.483; -160.025;-1300.000;-1187.000
358.615; -130.925;-1182.000;-1078.000
358.747; -150.625;-1187.000;-1058.000
358.880;  -49.400; -810.000; -744.000
359.012;  -33.875; -376.000; -202.000
359.145;  -52.175; -480.000; -511.000
359.277;  -62.900; -962.000; -913.000
359.409; 1123.250;  536.000;  231.000
359.542;  220.000; -738.000; -688.000
359.674;   12.075;   46.000;   13.000
359.806;  -60.200; -565.000; -438.000
359.939;  -29.250; -617.000; -516.000
360.071;   39.200; -583.000; -579.000
360.203;  -20.900; -411.000; -364.000
360.335;   12.950;  164.000;  -16.000
360.468;   72.275; -249.000; -307.000
360.600; 1218.750; -547.000; -454.000
360.732; 4288.250; -546.000; -423.000
360.864;  684.300;-1216.000;-1044.000
360.996;   64.300; -516.000; -554.000
361.129;  -47.475; -389.000; -598.000
361.261;    0.875;  110.000; -113.000
361.393;  -49.150; -252.000; -214.000
361.525;   -6.900;   94.000;  244.000
361.657; -108.925; -821.000; -703.000
361.789;  -25.950; -139.000; -155.000
361.921;  -49.000; -642.000; -593.000
362.053;   77.625;  524.000;  541.000
362.185;    3.900;  288.000;   72.000
362.318; -114.250; -709.000; -705.000
362.450;   33.325;  294.000;  444.000
362.582;  -97.650; -913.000; -870.000
362.714;  -61.400; -353.000; -332.000
362.846;  -97.425; -606.000; -490.000
362.978; -141.075; -941.000; -811.000
363.109;  -39.725; -161.000; -260.000
363.241;  136.650; -739.000; -749.000
363.373;  640.400; -649.000; -564.000
363.505; 1050.800; -186.000;  -91.000
363.637;  240.925; -787.000; -601.000
363.769; -120.925;-1067.000;-1080.000
363.901;  -86.675; -596.000; -654.000
364.033; -149.475;-1103.000;-1062.000
364.165;  -33.800; -283.000; -283.000
364.296;   98.900; -316.000; -177.000
364.428;  204.800;-1344.000;-1220.000
364.560;  -51.100; -679.000; -661.000
364.692;  -84.725; -738.000; -835.000
364.824;  -11.150; -588.000; -456.000
364.955;  496.075; -402.000; -564.000
365.087; 1752.300;-1097.000; -852.000
365.219;  112.025; -686.000; -816.000
365.351;  -62.050; -526.000; -572.000
365.482;   16.325;  300.000;  240.000
365.614;  -58.100; -402.000; -314.000
365.746; -102.425; -729.000; -752.000
365.877;  -95.125; -706.000; -672.000
366.009;  419.500;  -35.000;  -62.000
366.141;  -30.375;-1249.000;-1134.000
366.272; -117.200; -803.000; -719.000
366.404; -114.975;-1005.000; -874.000
366.535;  -24.200; -139.000;  -12.000
366.667; -116.925; -644.000; -649.000
366.799;   18.200;  353.000;  203.000
366.930; -127.550; -862.000; -996.000
367.062;  180.200; -639.000; -613.000
367.193;  367.725; -872.000; -842.000
367.325;  -49.000; -580.000; -684.000
367.456;  -25.900; -246.000;   31.000
367.588;  260.650; -371.000; -318.000
367.719;   51.250;  -44.000;  -45.000
367.851;  -49.500; -222.000; -241.000
367.982; -108.275; -875.000; -732.000
368.113;  -14.750; -475.000; -358.000
368.245; -153.425; -960.000; -841.000
368.376;  -46.650; -254.000; -302.000
368.508;  -68.175; -188.000; -263.000
368.639; -149.800;-1166.000;-1034.000
368.770;  -91.700; -670.000; -589.000
368.902; -119.375; -836.000; -926.000
369.033; -120.200; -906.000; -855.000
369.164;  -29.850; -720.000; -653.000
369.296;  -89.025; -452.000; -601.000
369.427;  -43.000; -209.000; -144.000
369.558;  -68.175; -593.000; -377.000
369.689;  -86.950; -721.000; -569.000
369.821; -124.000; -951.000; -845.000
369.952;  -36.700;   42.000; -108.000
370.083;  -58.525; -229.000; -108.000
370.214; -105.525; -735.000; -650.000
370.345;  -27.850;   65.000;   81.000
370.477; -107.250; -810.000; -790.000
370.608;   16.300; -328.000; -264.000
370.739; -134.275;-1233.000;-1292.000
370.870; -132.275;-1102.000; -923.000
371.001;  -25.425; -378.000; -467.000
371.132; -100.625; -754.000; -735.000
371.263;  -44.650;  -42.000; -148.000
371.394; -138.225; -841.000; -748.000
371.525;   15.150;  345.000;  225.000
371.657; -114.650; -808.000; -670.000
371.788;   25.325;  103.000;  199.000
371.919;    3.900; -384.000; -304.000
372.050; 1145.425;  -91.000; -156.000
372.181;  335.800; -188.000; -294.000
372.311;   85.075;   42.000; -127.000
372.442;  -51.025; -457.000; -451.000
372.573;  -61.850; -444.000; -340.000
372.704; -151.500;-1008.000; -980.000
372.835;  -27.850; -228.000; -289.000
372.966;  -74.775; -646.000; -554.000
373.097; -112.400; -575.000; -711.000
373.228;  -84.850; -717.000; -542.000
373.359;  -51.750; -824.000; -536.000
373.490;  138.825; -881.000; -727.000
373.620;  198.150;-1001.000; -803.000
373.751;  450.725; -332.000; -396.000
373.882;  166.350; -663.000; -733.000
374.013;  -35.450; -449.000; -262.000
374.143;  -85.350; -581.000; -659.000
374.274; -109.000; -987.000; -908.000
374.405;   45.300; -388.000; -276.000
374.536;   82.250; -526.000; -387.000
374.666;  228.175; -759.000; -807.000
374.797;  -16.900; -817.000; -868.000
374.928;  126.350; -710.000; -560.000
375.058;  150.875; -535.000; -500.000
375.189;    4.800;  -59.000;  -93.000
375.320; -129.400; -928.000;-1034.000
375.450;  -75.575; -625.000; -616.000
375.581;  -48.425; -526.000; -436.000
375.712;  -47.950; -574.000; -250.000
375.842;    8.625; -438.000; -415.000
375.973;  -35.075; -554.000; -513.000
376.103;  -99.250; -665.000; -648.000
376.234;  -97.300; -531.000; -552.000
376.364; -118.225; -944.000; -867.000
376.495;  140.425;  925.000;  529.000
376.625;  -79.375; -472.000; -485.000
376.756;  -77.350; -709.000; -678.000
376.886; -133.850;-1178.000;-1026.000
377.017;  147.850;-1048.000;-1061.000
377.147;  668.050; -786.000; -782.000
377.278;   77.175;  174.000;  228.000
377.408; -121.600; -801.000; -815.000
377.538;  -92.350; -707.000; -693.000
377.669;  -81.250; -537.000; -613.000
377.799; -100.675; -645.000; -635.000
377.929;  -81.350; -610.000; -428.000
378.060; -132.725; -781.000; -847.000
378.190;  -37.300; -726.000; -531.000
378.320;  -53.025; -401.000; -406.000
378.451;   -7.875; -131.000;  -22.000
378.581;  -30.825;  -67.000; -110.000
378.711;   88.900; 1035.000;  866.000
378.841;  -94.275; -533.000; -675.000
378.972; -120.700; -871.000; -751.000
379.102;  -87.000; -652.000; -579.000
379.232;  -50.200; -126.000;  -73.000
379.362; -135.050;-1001.000; -885.000
379.492;  -56.875; -373.000; -424.000
379.623;   26.700;    0.000;  111.000
379.753; -119.125;-1107.000; -974.000
379.883;   66.850;   59.000;  156.000
380.013;  -98.850;-1081.000;-1017.000
380.143; -115.500;-1097.000;-1056.000
380.273; -127.150; -985.000; -861.000
380.403;  -14.175; -344.000; -257.000
380.533;  -55.675; -651.000; -664.000
380.663;   13.750;  173.000;  128.000
380.793; -141.900;-1027.000;-1074.000
380.923;  -41.950; -103.000;  -34.000
381.053;  -96.625; -613.000; -623.000
381.183;  -49.050; -106.000; -248.000
381.313;  -69.950; -656.000; -470.000
381.443;  -58.750; -692.000; -473.000
381.573;  -35.175; -402.000; -409.000
381.703; -105.375;-1249.000;-1095.000
381.833; -181.575;-1454.000;-1336.000
381.963;   25.275; -134.000;  -87.000
382.093;  353.425; -925.000; -909.000
382.223;   59.875; -713.000; -602.000
382.353;  -79.075; -801.000; -608.000
382.482;  -11.275;-1091.000; -964.000
382.612;  159.375; -872.000; -644.000
382.742;   63.600; -695.000; -622.000
382.872;  -18.400; -565.000; -551.000
383.002;   17.450;  347.000; -132.000
383.131;  -35.850; -226.000; -160.000
383.261;  -51.750; -706.000; -768.000
383.391;  313.225; -552.000; -377.000
383.521; 5130.275;  451.000;  263.000
383.650; 1582.675; -947.000; -904.000
383.780;   64.200; -783.000; -656.000
383.910;   97.225;  880.000;  802.000
384.039;  -86.975; -794.000; -656.000
384.169;  -91.600;-1205.000;-1017.000
384.299;  -94.100; -650.000; -662.000
384.428; -115.975; -764.000; -680.000
384.558;  -71.050; -308.000; -275.000
384.687;  -64.375; -414.000; -334.000
384.817;  -14.975;   75.000;   -2.000
384.947;  -40.300; -234.000; -141.000
385.076;  143.375;  982.000;  912.000
385.206;   44.450;  369.000;  480.000
385.335;  -61.175; -549.000; -417.000
385.465;  -99.550; -655.000; -663.000
385.594;    9.600;  -53.000;  -44.000
385.724;   29.475; -868.000; -838.000
385.853;  -12.750; -296.000; -270.000
385.982;  295.300; -743.000; -787.000
386.112;  570.775;-1052.000; -871.000
386.241;    4.275; -307.000; -312.000
386.371;  -21.750; -174.000;  -87.000
386.500;  -52.525; -825.000; -789.000
386.629;  -30.800; -874.000; -817.000
386.759;   71.850;  -43.000;   68.000
386.888;  -28.825; -170.000; -250.000
387.017; -101.150; -648.000; -620.000
387.147; -126.850; -771.000; -798.000
387.276;  -59.800; -410.000; -397.000
387.405;  -56.325; -398.000; -342.000
387.535;  -75.175; -452.000; -361.000
387.664;  -61.925; -692.000; -620.000
387.793;  -15.650; -198.000; -113.000
387.922;  117.225;  255.000;  200.000
388.052;  -71.725; -576.000; -423.000
388.181;  -61.950; -342.000; -472.000
388.310; -105.025; -889.000; -710.000
388.439; -123.425; -749.000; -742.000
388.568;   39.500;  365.000;  244.000
388.697;  232.975; -756.000; -653.000
388.826;   -8.200; -768.000; -666.000
388.956;  -39.025; -285.000; -307.000
389.085;  -47.525; -347.000; -287.000
389.214; -109.425; -842.000; -872.000
389.343;  -64.900; -645.000; -413.000
389.472;  550.400;  126.000;  149.000
389.601;  644.800;   91.000;    0.000
389.730;  -15.475; -568.000; -687.000
389.859;   18.050;  226.000;   46.000
389.988;   16.675; -423.000; -408.000
390.117;   40.375; -168.000; -146.000
390.246;  -71.700; -331.000; -320.000
390.375;  -72.425; -673.000; -626.000
390.504;  -86.700; -703.000; -621.000
390.633; -131.075; -672.000; -726.000
390.761;  -99.525; -732.000; -645.000
390.890;  -28.850;   -4.000; -130.000
391.019;  -79.125; -421.000; -441.000
391.148; -130.050; -826.000; -855.000
391.277;  -84.725; -576.000; -493.000
391.406; -121.200; -821.000; -805.000
391.534;   -6.175;  574.000; -301.000
391.663;  -88.675; -583.000; -645.000
391.792; -115.000; -673.000; -701.000
391.921;   -4.950;   -3.000;   15.000
392.050;   -6.750; -287.000; -228.000
392.178; -130.275;-1206.000;-1061.000
392.307;  -49.300; -758.000; -712.000
392.436;  -53.125; -427.000; -641.000
392.564;   -4.550;  166.000;   -6.000
392.693; -106.350; -860.000; -682.000
392.822;  -28.600; -529.000; -534.000
392.950;  -65.500; -880.000; -714.000
393.079;   53.225; -188.000; -328.000
393.208;  -56.550; -488.000; -511.000
393.336;  -27.700; -170.000; -145.000
393.465;  -45.725; -317.000; -199.000
393.593;  -21.775;   62.000;   79.000
393.722; -148.650;-1121.000; -916.000
393.850;  -42.725; -188.000;  -61.000
393.979; -142.575; -926.000; -805.000
394.107;  -62.100; -517.000; -537.000
394.236;  -34.625; -570.000; -507.000
394.364;   82.450;  383.000;  206.000
394.493;   42.450; -911.000; -767.000
394.621;   -7.975; -955.000; -916.000
394.750; 1172.575; -873.000; -923.000
394.878; 4477.050; -247.000; -149.000
395.007; 6605.175; -721.000; -807.000
395.135;  574.775; -790.000; -721.000
395.263;  -52.075;-1038.000;-1040.000
395.392;   -8.000;  -25.000; -107.000
395.520; -113.600; -818.000; -679.000
395.648; -129.950; -865.000; -915.000
395.777;  -67.450; -366.000; -405.000
395.905;  -77.550; -449.000; -564.000
396.033;   -5.000;  217.000;  172.000
396.162;   64.975; -399.000; -453.000
396.290;   94.150;  -17.000;   -2.000
396.418;  -59.150; -555.000; -514.000
396.546;  -89.950; -571.000; -466.000
396.674; -134.825; -850.000; -878.000
396.803;  -19.150;  -72.000;  -23.000
396.931;  -24.725; -179.000; -199.000
397.059; -126.450;-1026.000; -989.000
397.187; -132.450;-1026.000; -975.000
397.315; -141.850; -884.000; -649.000
397.443;  -96.325; -592.000; -443.000
397.572;  -89.975; -578.000; -424.000
397.700;  -98.575; -607.000; -614.000
397.828;  -31.950;  120.000;  -90.000
397.956;  -45.525; -508.000; -478.000
398.084;  -26.025; -767.000; -626.000
398.212;   -5.050;  137.000;  124.000
398.340;  -30.625;  -56.000;  159.000
398.468;  -64.450; -390.000; -169.000
398.596; -150.850; -993.000; -953.000
398.724; -130.225; -762.000; -767.000
398.852; -145.250;-1024.000; -976.000
398.980;  -87.400; -560.000; -560.000
399.108; -102.400; -982.000; -735.000
399.236;  -25.175;   13.000;    8.000
399.363;  -12.675;  222.000;  196.000
399.491;  -72.900; -404.000; -398.000
399.619; -114.900; -829.000; -800.000
399.747; -117.550; -859.000; -771.000
399.875;   34.925;  220.000;  234.000
400.003;  -79.075; -359.000; -284.000
400.130;  -87.075; -421.000; -341.000
400.258;  -41.250;  -83.000;   38.000
400.386;  -75.325; -352.000; -168.000
400.514;  -99.400; -526.000; -587.000
400.641; -134.475; -928.000; -802.000
400.769; -158.125; -979.000; -888.000
400.897; -126.300; -838.000; -793.000
401.025;  -40.875; -166.000; -152.000
401.152;  -10.300;  220.000;   38.000
401.280; -104.250; -430.000; -429.000
401.408; -113.300; -712.000; -576.000
401.535; -118.725; -735.000; -758.000
401.663; -180.150;-1134.000;-1054.000
401.790;  -91.775; -514.000; -525.000
401.918;   33.025;  436.000;  405.000
402.046;  -28.600;  134.000;  122.000
402.173;  -34.125;  -18.000;    7.000
402.301;  -83.325; -519.000; -397.000
402.428;   18.275;  528.000;  383.000
402.556; -156.950;-1188.000; -913.000
402.683;  -47.125;  -20.000;   -1.000
402.811;  -27.050;  -37.000; -206.000
402.938;  -21.725;   20.000;   27.000
403.066;  -35.100; -574.000; -558.000
403.193;   84.600;  299.000;  239.000
403.321;   31.500; -396.000; -574.000
403.448;  108.725;   83.000;   27.000
403.575;   30.575;  -90.000;  -46.000
403.703;  -97.500; -732.000; -557.000
403.830;  -64.775; -531.000; -496.000
403.957; -128.325;-1117.000;-1023.000
404.085;   26.625;  -61.000; -172.000
404.212;  110.325;  -50.000;   63.000
404.339;  429.900; -566.000; -306.000
404.467; 9079.200; -612.000; -524.000
404.594; 5555.100; -287.000; -227.000
404.721;  958.750; -869.000; -764.000
404.848;  114.475; -113.000; -202.000
404.976;  -96.150; -856.000; -783.000
405.103;  -10.875;  -14.000;  -82.000
405.230;    5.775;  190.000;  226.000
405.357;   38.550;  117.000;   44.000
405.484;  418.550;  -49.000;    5.000
405.612;  114.650; -548.000; -563.000
405.739;  -58.725; -488.000; -243.000
405.866;   52.600;  669.000;  385.000
405.993;  -73.500; -398.000; -102.000
406.120; -143.300; -801.000; -887.000
406.247;  -92.725; -323.000; -342.000
406.374;  118.650;  540.000;  629.000
406.501;  -74.200; -632.000; -702.000
406.628; -106.325; -621.000; -589.000
406.755; -120.000; -803.000; -620.000
406.882;  -71.600; -228.000; -277.000
407.009; -120.450; -719.000; -628.000
407.136;  -53.200; -480.000; -401.000
407.263;  -58.675; -939.000; -829.000
407.390; -108.650; -692.000; -614.000
407.517; -173.100;-1139.000;-1187.000
407.644;  -67.300; -332.000; -256.000
407.771;  -83.800; -249.000; -287.000
407.898;  -12.200;  168.000;  328.000
408.025;  -74.550; -421.000; -313.000
408.151;  -29.525;   82.000;  153.000
408.278;  -68.525; -267.000; -216.000
408.405; -140.300; -931.000; -899.000
408.532;  -94.975; -549.000; -542.000
408.659; -129.025; -677.000; -648.000
408.785; -173.100;-1298.000;-1170.000
408.912;  -79.450; -412.000; -296.000
409.039; -113.875; -610.000; -686.000
409.166; -112.275; -591.000; -555.000
409.292;  -96.650; -571.000; -534.000
409.419; -120.475; -665.000; -649.000
409.546;  -82.750; -431.000; -192.000
409.672; -116.625; -713.000; -545.000
409.799;  -38.125;  -36.000;   34.000
409.926;  -63.675; -180.000; -179.000
410.052; -188.775;-1127.000;-1091.000
410.179;  -86.175; -368.000; -392.000
410.305;  -85.100; -375.000; -493.000
410.432;  -42.650; -220.000; -333.000
410.558;  -85.200; -305.000; -380.000
410.685; -107.375; -688.000; -431.000
410.812;  -98.600; -409.000; -588.000
410.938; -153.750; -964.000; -808.000
411.065; -121.825; -671.000; -645.000
411.191;  -43.125; -189.000; -174.000
411.317; -123.600; -823.000; -742.000
411.444;  -91.375; -317.000; -246.000
411.570;  -78.650; -339.000; -294.000
411.697; -119.300; -758.000; -752.000
411.823; -162.750; -989.000; -999.000
411.949;  -56.300;  -56.000;   17.000
412.076; -103.500; -539.000; -519.000
412.202; -131.725; -758.000; -757.000
412.329; -123.225; -798.000; -752.000
412.455; -123.000; -821.000; -657.000
412.581;  -29.150;  -15.000;  172.000
412.707;  -92.350; -540.000; -457.000
412.834;   -1.850;  156.000;  219.000
412.960; -109.575; -785.000; -784.000
413.086; -105.475; -743.000; -701.000
413.212;   98.500;  604.000;  578.000
413.339; -100.675; -685.000; -701.000
413.465;  -57.500; -364.000; -310.000
413.591; -100.650; -757.000; -474.000
413.717;  -73.425; -358.000; -366.000
413.843; -130.550; -839.000; -861.000
413.969;  -58.200;  -47.000; -292.000
414.096;  -92.900; -679.000; -679.000
414.222;  -27.975;  -33.000;   85.000
414.348;  -75.175; -652.000; -385.000
414.474;   -1.275;   38.000;  -52.000
414.600;   -6.525; -126.000; -144.000
414.726;  -17.175;  -96.000;  -55.000
414.852;  -34.300; -365.000; -342.000
414.978;   27.900;  104.000;  -18.000
415.104;   57.225;   38.000;   80.000
415.230;   50.275; -329.000; -330.000
415.356;   49.875; -409.000; -514.000
415.482;  226.350;   13.000;  -35.000
415.608;  396.200; -247.000; -323.000
415.734; 1325.600;   67.000;   38.000
415.860;27492.225; -875.000; -767.000
415.986;22965.425; -685.000; -607.000
416.111; 2200.000; -798.000; -652.000
416.237;  462.250; -424.000; -571.000
416.363; 1654.750; -765.000; -733.000
416.489; 6834.275; -324.000; -251.000
416.615;  974.200; -707.000; -742.000
416.741;   68.275; -677.000; -784.000
416.866;  -51.025; -673.000; -736.000
416.992; -108.050; -801.000; -818.000
417.118;  -18.475;  -41.000;  -80.000
417.244;  -86.900; -798.000; -531.000
417.369;  -71.750; -801.000; -612.000
417.495;   -7.875; -325.000; -254.000
417.621;  -84.125;-1015.000; -803.000
417.746;    7.300; -579.000; -572.000
417.872;   60.450; -254.000; -144.000
417.998;  125.450; -515.000; -530.000
418.123; 1559.925;-1073.000; -845.000
418.249; 8592.350; -512.000; -601.000
418.374; 1523.525; -916.000; -824.000
418.500;  224.050; -383.000; -482.000
418.626;  185.725;   70.000;  -59.000
418.751;  160.250; -549.000; -448.000
418.877;  325.650; -637.000; -643.000
419.002; 2582.050; -688.000; -560.000
419.128;19626.725; -930.000; -721.000
419.253; 5687.650; -967.000; -837.000
419.379;  780.150; -391.000; -338.000
419.504;  591.200;  325.000;  415.000
419.629;  847.750; -393.000; -212.000
419.755; 5350.425; -317.000; -254.000
419.880;35169.800;  -98.000;   67.000
420.006;17718.150; -280.000; -221.000
420.131;44016.500; -662.000; -775.000
420.256; 7195.925; -315.000; -316.000
420.382;  989.875; -665.000; -687.000
420.507;  173.925; -649.000; -778.000
420.632;   54.125; -337.000; -339.000
420.758;   36.900; -251.000; -425.000
420.883;  -94.975; -876.000; -672.000
421.008; -120.625; -775.000; -619.000
421.133;  -74.525; -509.000; -467.000
421.259;  -54.450; -325.000; -259.000
421.384; -132.975; -834.000; -693.000
421.509; -124.900;-1052.000; -862.000
421.634;  119.300; -936.000; -820.000
421.759;   57.950; -359.000; -327.000
421.885;  -76.475; -717.000; -656.000
422.010;  -95.475; -673.000; -542.000
422.135; -131.650; -695.000; -727.000
422.260;   10.850;  340.000;  280.000
422.385;  -42.650;   12.000;  -98.000
422.510;  -22.550;  151.000;  -26.000
422.635;  -20.400;  -87.000;  -43.000
422.760;  -30.775; -766.000; -791.000
422.885;   17.525;  -57.000;  -80.000
423.010;  -36.300; -112.000; -169.000
423.135;  -85.375; -481.000; -561.000
423.260;  -48.300; -150.000; -245.000
423.385;   28.700;  476.000;  222.000
423.510;  -11.850;   71.000;  -22.000
423.635;   -3.750;  133.000;   45.000
423.760;   39.725;  383.000;  328.000
423.885;   25.775;  336.000;  391.000
424.010;  -26.850;  -68.000;  -13.000
424.135;  -25.150;    5.000;  -33.000
424.259;  -66.750; -654.000; -457.000
424.384;  -50.100; -279.000; -272.000
424.509;  -27.500; -260.000; -186.000
424.634;  -81.425; -761.000; -623.000
424.759;  -31.600; -688.000; -544.000
424.883;    1.400; -506.000; -527.000
425.008;  199.900; -502.000; -410.000
425.133; 2866.075; -679.000; -653.000
425.258; 1588.825; -517.000; -381.000
425.382;  453.300; -867.000; -774.000
425.507; 1036.150; -487.000; -543.000
425.632;  371.075; -802.000; -663.000
425.756;  701.875; -256.000; -146.000
425.881;10152.450; -831.000; -857.000
426.006;31708.750; -604.000; -355.000
426.130; 5304.400; -696.000; -508.000
426.255;  703.600; -611.000; -491.000
426.379;  284.650; -189.000; -577.000
426.504;  512.300;  660.000;  544.000
426.629; 5707.375; -519.000; -466.000
426.753; 4493.875;   64.000;  -46.000
426.878;  572.425; -252.000; -288.000
427.002;  320.550; -651.000; -668.000
427.127; 2097.750;  -35.000; -158.000
427.251;17404.725;  372.000;  401.000
427.375; 5755.975; -191.000; -173.000
427.500; 1224.475; -616.000; -610.000
427.624;  380.300; -234.000; -400.000
427.749;   77.150; -216.000; -225.000
427.873;  -12.775; -499.000; -412.000
427.997;  -43.150; -222.000; -230.000
428.122;   69.850;  795.000;  703.000
428.246;   31.700;  433.000;  434.000
428.371; -131.600; -869.000; -773.000
428.495; -109.150; -624.000; -646.000
428.619;  -24.200; -186.000; -117.000
428.743;    6.800;   65.000;  132.000
428.868;  -76.175; -732.000; -643.000
428.992;  413.175; -219.000; -326.000
429.116;  159.250; -329.000; -357.000
429.240;   99.575;  419.000;  426.000
429.365;  -51.725; -454.000; -574.000
429.489;  -70.000; -638.000; -647.000
429.613;   49.825; -236.000; -177.000
429.737;   85.400; -563.000; -432.000
429.861;  376.375; -247.000; -133.000
429.985; 7881.425; -425.000; -305.000
430.109;10272.775; -770.000; -908.000
430.234; 1254.050;   76.000;  -50.000
430.358;  171.775; -250.000; -160.000
430.482;  -43.800; -672.000; -564.000
430.606;  -63.400; -655.000; -375.000
430.730;  -60.475; -437.000; -388.000
430.854;  -76.700; -909.000; -835.000
430.978;  -98.400; -795.000; -764.000
431.102;  -95.650; -499.000; -422.000
431.226; -114.025; -874.000; -815.000
431.350;   14.250;  345.000;  422.000
431.474;  -94.725; -661.000; -373.000
431.597; -146.425;-1060.000; -848.000
431.721;  -86.750; -276.000; -267.000
431.845; -112.650; -704.000; -472.000
431.969;  -82.875; -304.000; -349.000
432.093;  -89.500; -395.000; -317.000
432.217;  -20.875;   32.000;   82.000
432.341;  -82.850; -523.000; -518.000
432.464;  -23.700;   96.000;   40.000
432.588;  -36.625; -401.000; -329.000
432.712;   10.775;  -52.000;  -52.000
432.836;   84.075;  213.000;  263.000
432.959;   11.600; -372.000; -311.000
433.083;  158.950;   11.000;    2.000
433.207;  563.600;  285.000;  930.000
433.330; 7677.150; -391.000; -200.000
433.454;10740.625; -654.000; -638.000
433.578; 5879.500;  583.000;  278.000
433.701; 1280.725; -623.000; -675.000
433.825;  164.175; -292.000; -299.000
433.949;   44.950;   28.000;  -72.000
434.072;  -26.500; -410.000; -323.000
434.196;   -6.600; -309.000; -117.000
434.319; 3554.500;25482.000;25124.000
434.443;  863.125; -656.000; -603.000
434.566; 4178.525;  281.000;   62.000
434.690;  911.275; -637.000; -383.000
434.813;  147.050; -251.000; -173.000
434.937;  -48.750; -569.000; -696.000
435.060;  -61.225; -423.000; -332.000
435.184;  -26.525; -492.000; -217.000
435.307;    6.900;  159.000;  102.000
435.431;  -33.550;  -40.000;   24.000
435.554;  -74.675; -399.000; -240.000
435.677;  -80.450; -350.000; -258.000
435.801;  -49.825;  -25.000;   49.000
435.924;  -51.050;    1.000;  -67.000
436.048; -146.200;-1019.000; -732.000
436.171;  -73.900; -240.000;  -66.000
436.294;  -17.750; -248.000; -229.000
436.417;  215.450; -963.000; -849.000
436.541;  -32.300; -814.000; -840.000
436.664;  -52.175; -242.000; -316.000
436.787;  -30.175;   13.000;  113.000
436.910; -125.750; -792.000; -422.000
437.034;    1.850;  142.000;  143.000
437.157;   -2.750;  -11.000;    0.000
437.280;  -89.425; -392.000; -292.000
437.403; -156.850; -982.000; -869.000
437.526;  -26.625; -903.000; -865.000
437.649;  362.750; -505.000; -332.000
437.772;  -26.350; -692.000; -540.000
437.896;   49.150;  700.000;  544.000
438.019; -106.200; -758.000; -503.000
438.142; -102.650; -596.000; -506.000
438.265; -125.100; -639.000; -670.000
438.388;   -3.225; -520.000; -410.000
438.511;  -84.775; -597.000; -394.000
438.634;  -85.300; -247.000; -125.000
438.757; -141.400; -693.000; -619.000
438.880;  -59.050;  -34.000;  -57.000
439.003;  -99.800; -417.000; -437.000
439.126;  -80.275; -287.000; -167.000
439.248;  -75.450;  -98.000; -139.000
439.371;  -66.800;    9.000;  -53.000
439.494;   13.875;  510.000;  439.000
439.617;  -58.575;   65.000;  -88.000
439.740; -174.925; -968.000; -816.000
439.863; -153.950; -755.000; -595.000
439.986; -117.475; -476.000; -431.000
440.108;  -51.425; -161.000; -112.000
440.231; -158.825; -950.000; -836.000
440.354;  -70.300;  -64.000; -150.000
440.477; -110.800; -566.000; -542.000
440.599;  -94.600; -200.000; -225.000
440.722; -133.000; -709.000; -586.000
440.845;   53.075;  751.000;  928.000
440.968;  -88.450; -415.000; -311.000
441.090;  -85.250; -199.000;  -33.000
441.213; -165.375;-1021.000; -825.000
441.336;  -69.875; -159.000;   -5.000
441.458;  -87.825; -549.000; -396.000
441.581; -129.900; -628.000; -629.000
441.703;  -79.050; -152.000;   13.000
441.826; -125.000; -557.000; -400.000
441.948;  -37.350;   56.000;   51.000
442.071;   19.375;  555.000;  424.000
442.193; -120.450; -531.000; -485.000
442.316;   -3.750;  152.000;   97.000
442.438;   78.725; -233.000;  -10.000
442.561;   50.150;  272.000;  262.000
442.683;   24.250; -809.000; -522.000
442.806;  212.075;   -8.000;   74.000
442.928; -100.975; -859.000; -604.000
443.051;  -80.100; -577.000; -373.000
443.173;  -81.175; -341.000; -339.000
443.295;  -95.900; -263.000; -371.000
443.418;  -78.450; -321.000;  -29.000
443.540;  -52.350; -106.000;   -4.000
443.662; -134.100; -563.000; -465.000
443.785;  -37.475;  335.000;  199.000
443.907;  -84.150; -362.000; -208.000
444.029; -134.050; -767.000; -494.000
444.152; -127.825; -644.000; -554.000
444.274;  -43.400;  -18.000;  -24.000
444.396; -117.225; -461.000; -221.000
444.518; -137.350; -691.000; -454.000
444.640;  -88.900; -268.000; -111.000
444.763;  -25.500;  388.000;  249.000
444.885; -117.200; -432.000; -392.000
445.007;  -48.725;   35.000;   86.000
445.129; -117.600; -610.000; -515.000
445.251; -118.625; -372.000; -439.000
445.373; -144.800; -537.000; -386.000
445.495;  -20.975;  242.000;  350.000
445.617;   44.225;  853.000;  753.000
445.739;  -87.725; -215.000;  -97.000
445.861;  -60.450; -245.000; -112.000
445.984;  -70.400; -267.000; -101.000
446.105;  -30.700; -418.000; -251.000
446.227;   61.650; -176.000;  -19.000
446.349;  -77.850; -358.000; -249.000
446.471; -115.450; -615.000; -448.000
446.593;  -92.300; -316.000;   19.000
446.715;  -56.375;  -67.000;   41.000
446.837;   36.750;  697.000;  832.000
446.959; -119.875; -457.000; -478.000
447.081; -133.275; -628.000; -518.000
447.203;   39.550;  862.000;  834.000
447.325;  -85.850; -270.000;   42.000
447.446;  -15.100;  286.000;  530.000
447.568; -160.950; -921.000; -803.000
447.690;  -90.000; -236.000; -245.000
447.812; -152.100; -798.000; -519.000
447.933;  -21.500;  155.000;  127.000
448.055;  -77.375; -306.000; -261.000
448.177;    9.650;   31.000;   79.000
448.299;  -97.850; -935.000; -727.000
448.420;  -27.350;  -25.000;  159.000
448.542;  -46.875;   -3.000;   33.000
448.664;  -37.400;  109.000;  322.000
448.785;  -31.375;  265.000;   83.000
448.907; -114.625; -614.000; -353.000
449.028; -102.000; -771.000; -471.000
449.150;   28.525;  492.000;  589.000
449.272; -177.850;-1044.000; -913.000
449.393;   21.350;  612.000;  694.000
449.515; -136.300; -634.000; -581.000
449.636;  -84.600; -264.000; -155.000
449.758;   37.350;  763.000;  622.000
449.879;  -89.475; -498.000; -396.000
450.001;  -73.775; -149.000;  -49.000
450.122;  -23.300;  -95.000;  162.000
450.244;    4.100;   37.000;  364.000
450.365;  -63.775; -495.000; -301.000
450.486;   -8.200;   80.000;  268.000
450.608;   40.825;  393.000;  326.000
450.729;  118.575;  578.000;  645.000
450.850;   97.825; -574.000; -466.000
450.972; 1250.050; -552.000; -389.000
451.093; 8063.150;  190.000;  588.000
451.214; 4224.825; -516.000; -337.000
451.336;  726.525;  773.000;  579.000
451.457;  121.575;  264.000;  393.000
451.578;  -27.125; -118.000;  -74.000
451.699;  -91.800; -546.000; -540.000
451.821;  -55.675; -284.000;  -50.000
451.942;   14.575;  278.000;  285.000
452.063;   47.075;  228.000;  419.000
452.184;  833.775;  -54.000;  -49.000
452.305; 1742.475;  103.000;  170.000
452.427;  351.300; -549.000; -301.000
452.548;    8.700;   23.000;   79.000
452.669;  -65.075; -257.000;  -89.000
452.790;  -64.025;    3.000;  -18.000
452.911;   -9.175;  195.000;  259.000
453.032;  -80.125; -289.000;  -60.000
453.153;  -79.200;  -29.000;   81.000
453.274;   53.450;  737.000;  868.000
453.395;  -59.800;  -51.000;  175.000
453.516;   95.850; 1317.000; 1388.000
453.637;  -91.075; -205.000; -150.000
453.758;  -72.450;   15.000;   69.000
453.879; -105.900; -462.000; -250.000
454.000;   56.200; 1086.000;  948.000
454.121; -135.625; -554.000; -326.000
454.242; -114.475; -599.000; -383.000
454.362;  -47.325;  -99.000;  114.000
454.483;  -23.225; -309.000; -229.000
454.604;   68.750;  512.000;  580.000
454.725; -136.800; -627.000; -555.000
454.846; -118.700; -474.000; -406.000
454.967;  -43.275;  230.000;  539.000
455.087;  -35.525;  179.000;  153.000
455.208;    1.600;  554.000;  856.000
455.329;  -64.000;  -22.000;   82.000
455.450;   63.600;  473.000;  633.000
455.570;  -47.175; -234.000; -211.000
455.691;  -50.675;  201.000;  407.000
455.812;  -89.875; -270.000;  -92.000
455.932;  -45.600;  107.000;  -97.000
456.053;  -83.575;   36.000;   24.000
456.173; -117.375; -433.000; -355.000
456.294; -136.525; -476.000; -303.000
456.415;  -74.525;  -73.000;   70.000
456.535;  -36.900;  297.000;  273.000
456.656;  -44.650;  132.000;  240.000
456.776;  -63.925;    3.000;  298.000
456.897;   -3.100;  308.000;  513.000
457.017;  -75.975; -153.000;   -3.000
457.138; -115.475; -402.000; -249.000
457.258;  -25.975;  263.000;  224.000
457.379;  -23.250;  509.000;  521.000
457.499;  -23.325;  443.000;  432.000
457.620; -123.750; -407.000; -231.000
457.740;  -82.975; -132.000;  -11.000
457.860;  -62.975;   87.000;   44.000
457.981;  -54.575;  132.000;  124.000
458.101;  -64.450;  -89.000;   40.000
458.221;  -12.475;  336.000;  402.000
458.342;  -50.450;   -4.000;  -37.000
458.462;   35.275;  617.000;  352.000
458.582;   29.000; -302.000; -294.000
458.703;   56.000;  303.000;  154.000
458.823;    2.275;   22.000;  163.000
458.943;   53.675;  341.000;  467.000
459.063;   18.225; 1124.000;  192.000
459.183;  -13.525;  328.000;  313.000
459.304;    2.500;  315.000;  517.000
459.424;  -32.000; -246.000;  -89.000
459.544;  474.575;  388.000;  764.000
459.664; 1329.325;  499.000;  506.000
459.784;  510.525; 1004.000; 1175.000
459.904;   81.475;  867.000;  744.000
460.024;   48.150;  867.000;  684.000
460.144;  -18.200;  449.000;  554.000
460.264;  -14.100;  515.000;  327.000
460.385;  -78.575; -145.000; -119.000
460.505;   23.825;  905.000;  858.000
460.625;  -85.475;  -17.000;  -68.000
460.745;  -27.400;  396.000;  541.000
460.864;  -46.150;  153.000;  469.000
460.984;   30.250;  499.000;  573.000
461.104;  150.875; 1656.000; 1775.000
461.224;   12.650;  657.000;  650.000
461.344;  -33.150;  431.000;  360.000
461.464;  -40.925;  258.000;  513.000
461.584;  -35.725;  283.000;  466.000
461.704;  -70.150;   58.000;  108.000
461.824;  -64.400;  238.000;  259.000
461.943;  -66.250;  191.000;  130.000
462.063;  -66.725;    2.000;  324.000
462.183;   15.875;  639.000;  717.000
462.303;   94.225; 1678.000; 1230.000
462.422;   19.150;  781.000;  840.000
462.542;  -32.950;  271.000;  391.000
462.662;   39.300;  353.000;  380.000
462.782;  332.525;  833.000;  572.000
462.901;  735.600;  545.000;  717.000
463.021;  388.725; 1702.000; 1638.000
463.141;    2.750;  337.000;  770.000
463.260;   -5.275;  614.000;  474.000
463.380;    2.200;  902.000;  884.000
463.499;  -20.675;  342.000;  332.000
463.619;  -31.850;  581.000;  559.000
463.738;  106.325; 1644.000;  903.000
463.858;   12.975;  657.000;  811.000
463.978;  -39.600;  542.000;  396.000
464.097;   53.825;  921.000; 1114.000
464.217;  162.425; 1196.000; 1143.000
464.336;  164.425; 1068.000; 1130.000
464.455;  -18.025;  328.000;  659.000
464.575;    5.550;  597.000;  602.000
464.694;  130.525; 1204.000; 1179.000
464.814;  143.850; 1190.000; 1138.000
464.933;   90.675; 1095.000; 1027.000
465.052;   98.750; 1412.000; 1054.000
465.172;  103.275;  922.000;  799.000
465.291;  113.000; 1376.000; 1320.000
465.410;   25.125;  462.000;  735.000
465.530;   68.225; 1355.000; 1310.000
465.649;   51.275; 1209.000; 1273.000
465.768;  144.800; 1673.000; 1508.000
465.888;   65.375;  941.000; 1174.000
466.007;   85.350; 1335.000; 1440.000
466.126;    1.925;  721.000;  641.000
466.245;   49.550; 1176.000; 1187.000
466.364;   22.675;  950.000; 1060.000
466.484;   43.225; 1024.000; 1213.000
466.603;   36.450; 1101.000; 1222.000
466.722;  103.325; 1490.000; 1769.000
466.841;   49.400; 1151.000; 1401.000
466.960;   34.550; 1069.000;  972.000
467.079;  125.700; 1971.000; 1786.000
467.198;   32.850; 1238.000; 1181.000
467.317;   92.000; 1768.000; 1162.000
467.436;   59.250; 1709.000; 1261.000
467.555;  113.625; 1796.000; 1746.000
467.674;   66.450; 1227.000; 1329.000
467.793;   42.675; 1376.000; 1374.000
467.912;   84.450; 1658.000; 1539.000
468.031;  121.175; 2038.000; 1930.000
468.150;  127.025; 1842.000; 1837.000
468.269;  195.675; 2313.000; 2090.000
468.388;  198.300; 2168.000; 2339.000
468.507;  247.450; 2884.000; 2903.000
468.626;  228.500; 2555.000; 2541.000
468.744;  140.275; 2018.000; 2174.000
468.863;  165.900; 2312.000; 2523.000
468.982;   92.325; 1503.000; 1555.000
469.101;  199.275; 2788.000; 2692.000
469.220;  166.800; 2333.000; 2176.000
469.338;  244.425; 2935.000; 3051.000
469.457;  199.625; 2719.000; 2545.000
469.576;  342.225; 3953.000; 3784.000
469.695;  248.475; 2877.000; 3066.000
469.813;  406.475; 4148.000; 4192.000
469.932;  404.600; 4255.000; 4485.000
470.051;  449.075; 4075.000; 4161.000
470.169; 1043.125; 4470.000; 4338.000
470.288; 2027.625; 4700.000; 4809.000
470.406; 1184.475; 5059.000; 5194.000
470.525;  671.200; 6101.000; 5787.000
470.644;  658.625; 6847.000; 6794.000
470.762;  783.575; 8397.000; 7873.000
470.881;  921.425; 8651.000; 8464.000
470.999; 1066.650; 9685.000; 9151.000
471.118; 1119.825;11174.000;10711.000

