
Integration time [ms]: 100.000
Averaging Nr. [scans]: 40
Smoothing Nr. [pixels]: 0
Data measured with spectrometer [name]: 2101012U2
Wave   ;Sample   ;Dark     ;Reference
[nm]   ;[counts] ;[counts] ;[counts] 

197.733;   37.100;  516.000;  404.000
197.879;  -75.825; -610.000; -634.000
198.025;  -49.375; -475.000; -420.000
198.171;  -70.725; -602.000; -612.000
198.317;  -37.325; -401.000; -316.000
198.463;  -50.125; -655.000; -404.000
198.609;   36.200;  181.000; -137.000
198.755;  -76.350; -644.000; -410.000
198.901;  -65.375; -505.000; -424.000
199.047;  -64.350; -615.000; -488.000
199.193;  -45.100; -230.000; -468.000
199.339;  -34.875; -222.000; -369.000
199.485;   36.050;  330.000;  271.000
199.631;   18.175;  227.000;  310.000
199.777;  -54.925; -466.000; -398.000
199.923;  -56.125; -610.000; -424.000
200.069;  -12.950; -141.000;  -58.000
200.215;   51.725;  128.000;  453.000
200.361;   41.375;  243.000;  477.000
200.507;  -74.275; -600.000; -373.000
200.653;  -23.875; -371.000; -194.000
200.798;  -35.300; -215.000; -125.000
200.944;   -5.150; -146.000;  -41.000
201.090;   27.125;   61.000;  222.000
201.236;   -8.175; -116.000; -158.000
201.382;  118.275;  874.000;  903.000
201.528;   -2.425;  -58.000;  -48.000
201.674;  -53.650; -386.000; -293.000
201.819;  -73.750; -540.000; -439.000
201.965;  -93.775; -699.000; -447.000
202.111;  -31.575; -273.000; -226.000
202.257;  -36.900; -250.000; -238.000
202.402;    3.525;   13.000;  -36.000
202.548;  -32.150; -169.000; -116.000
202.694;   72.075;  410.000; -183.000
202.840;  -73.675; -603.000; -531.000
202.985;  -67.175; -681.000; -639.000
203.131; -113.825; -832.000; -666.000
203.277;  -24.600; -199.000; -262.000
203.423;  -32.950; -434.000; -520.000
203.568;  -39.725; -462.000; -237.000
203.714;  -53.425; -535.000; -542.000
203.860;  -66.475; -682.000; -641.000
204.005;   18.875;  112.000;  167.000
204.151;   64.500;  561.000;  556.000
204.296;  -40.150; -354.000; -221.000
204.442;  -67.750; -600.000; -547.000
204.588;  -61.225; -592.000; -579.000
204.733;   13.975;  178.000;  168.000
204.879; -132.975;-1018.000; -822.000
205.025;    6.450;  -99.000;  126.000
205.170;   -0.050;  -17.000;   94.000
205.316;   74.500;  438.000;  661.000
205.461;  -88.250; -698.000; -554.000
205.607;   77.075;  609.000;  665.000
205.752;  -78.225; -626.000; -551.000
205.898;  -53.450; -501.000; -391.000
206.043;  -58.750; -578.000; -506.000
206.189;  -38.900; -243.000; -285.000
206.334;   66.600;  554.000;  606.000
206.480;   86.250;  409.000;  239.000
206.625;  -88.275; -529.000; -552.000
206.771;  -43.275; -451.000; -373.000
206.916;  -38.875; -210.000; -537.000
207.062;  -68.700; -545.000; -591.000
207.207;  -69.950; -546.000; -443.000
207.353;   51.750;  185.000;  460.000
207.498;    2.625;  196.000;   85.000
207.643;  -60.800; -501.000; -370.000
207.789; -123.425;-1069.000; -910.000
207.934;  -93.700; -665.000; -713.000
208.080;  -28.875; -154.000;   66.000
208.225;   -0.500;  -22.000;  -57.000
208.370;  -82.225; -727.000; -619.000
208.516;  -75.550; -741.000; -487.000
208.661;  -27.950; -127.000;  -69.000
208.806;  -20.850; -165.000; -171.000
208.952; -119.825;-1044.000; -731.000
209.097;   70.025;  378.000;  349.000
209.242;  -47.375; -307.000; -382.000
209.387;   77.300;  392.000;  350.000
209.533;  -67.400; -321.000; -350.000
209.678;   69.175;  472.000;  543.000
209.823;  -56.875; -408.000; -310.000
209.969;  -97.600; -860.000; -757.000
210.114; -104.475; -907.000; -719.000
210.259; -103.250; -939.000; -889.000
210.404;   -7.775; -171.000;  103.000
210.549;    3.500;  108.000;    3.000
210.695;   -9.825;   -3.000;  -95.000
210.840;   27.225;   94.000;   67.000
210.985;  -60.825; -484.000; -303.000
211.130;   69.800;  268.000;  406.000
211.275;    1.625;  207.000;  199.000
211.420;  -51.750; -300.000; -289.000
211.566;  -67.825; -536.000; -489.000
211.711;   15.400;  218.000;  157.000
211.856;  -72.750; -545.000; -519.000
212.001;   11.300;  151.000;   44.000
212.146;   16.025;  153.000;   49.000
212.291;  -21.200; -210.000; -186.000
212.436;  -34.475; -280.000;   -6.000
212.581;  -81.000; -685.000; -653.000
212.726;  -74.575; -487.000; -538.000
212.871;  -38.925; -552.000; -217.000
213.016; -157.375;-1172.000;-1029.000
213.161;   46.225;  406.000;  291.000
213.306;  -79.100; -435.000; -577.000
213.451;  -86.650; -778.000; -689.000
213.596;  -51.375; -455.000; -347.000
213.741;  -58.800; -448.000; -538.000
213.886;  -84.975; -498.000; -517.000
214.031;  -24.475; -294.000; -124.000
214.176;  -49.475; -408.000; -341.000
214.321;  -20.950; -296.000; -157.000
214.466;  -17.650; -163.000;  -43.000
214.611;   -9.100;  -61.000;  -10.000
214.756; -107.875; -948.000; -858.000
214.901;  -29.400; -388.000; -226.000
215.046; -110.100; -797.000; -825.000
215.191;   16.650;  128.000;   35.000
215.336;  -21.375; -157.000;  -19.000
215.480;  -55.375; -684.000; -505.000
215.625;  -15.825; -175.000;  -19.000
215.770;  -80.200; -757.000; -662.000
215.915;   -4.575;   -5.000;  -97.000
216.060;   11.025; -113.000;  -21.000
216.205; -104.625; -731.000; -779.000
216.349;  -72.175; -470.000; -533.000
216.494; -117.125; -939.000; -867.000
216.639;  -96.500; -823.000; -888.000
216.784;  -87.200; -577.000; -525.000
216.929;   23.325;  392.000;  281.000
217.073;  -16.675; -244.000;  -31.000
217.218;    9.075;   78.000;  -47.000
217.363;  -83.875; -656.000; -618.000
217.507;  -78.100; -623.000; -588.000
217.652; -123.725; -845.000; -874.000
217.797;  -83.750; -708.000; -659.000
217.942; -115.225; -856.000; -720.000
218.086;   72.525;  608.000;  539.000
218.231;  -28.800; -174.000;  -26.000
218.376;  -33.750; -337.000; -229.000
218.520;  -12.025;  -41.000;   96.000
218.665;  -25.700; -338.000; -204.000
218.810;  -39.825; -275.000; -233.000
218.954;    5.250;  201.000;   35.000
219.099; -116.350; -713.000; -963.000
219.243;  -64.675; -589.000; -554.000
219.388;  -24.375; -264.000; -136.000
219.532;  -14.475; -116.000; -116.000
219.677;  -74.750; -564.000; -521.000
219.822;    2.500;   33.000;   89.000
219.966;   -3.625;   17.000;  -99.000
220.111;  -39.875; -328.000;  -40.000
220.255;  -83.125; -797.000; -750.000
220.400;  -23.500; -180.000; -146.000
220.544;  -68.200; -516.000; -450.000
220.689;  -51.500; -422.000; -451.000
220.833;  -17.800; -123.000;  -58.000
220.978;  -49.500; -393.000; -563.000
221.122;   23.025;  319.000;  307.000
221.267; -106.075; -906.000; -837.000
221.411;  -67.150; -478.000; -394.000
221.555;  -14.400; -104.000;  -23.000
221.700;  -49.650; -329.000; -222.000
221.844;   35.875;  255.000;  272.000
221.989;  -47.675; -328.000; -311.000
222.133;  -47.950; -289.000; -307.000
222.277;  -11.250;    5.000;   78.000
222.422;    5.675;  227.000;  113.000
222.566;  -53.225; -381.000; -214.000
222.711;  -62.400; -414.000; -479.000
222.855;  -83.375; -643.000; -586.000
222.999;  -75.650; -642.000; -717.000
223.144;  -29.250; -195.000; -194.000
223.288;   53.050;  423.000;  251.000
223.432;   29.575;  184.000;  230.000
223.576;   18.400;  152.000;  -21.000
223.721;   29.875;  364.000;  273.000
223.865;  -54.900; -472.000; -475.000
224.009;  233.050; 1673.000; 1631.000
224.153;  -91.075; -660.000; -671.000
224.298;  -60.975; -531.000; -489.000
224.442;  -10.000;  -74.000;  -33.000
224.586;  -25.350; -169.000; -106.000
224.730;  -91.250; -858.000; -670.000
224.875; -104.875; -739.000; -688.000
225.019;   -0.150;  102.000;  188.000
225.163;   51.425;  208.000;  341.000
225.307;    7.375;   97.000;  -91.000
225.451;   34.475;  360.000;  481.000
225.595;   22.825;  264.000;  176.000
225.739;  -28.625; -170.000;  -94.000
225.884;   -8.675;   86.000;    5.000
226.028;  -96.350; -760.000; -626.000
226.172;  -39.300; -260.000; -273.000
226.316; -114.150; -941.000; -902.000
226.460;  -82.000; -645.000; -493.000
226.604;  -57.875; -406.000; -400.000
226.748; -102.725; -836.000; -733.000
226.892;  -42.925; -227.000; -181.000
227.036;  -55.500; -537.000; -447.000
227.180;  -44.700; -551.000; -375.000
227.324;  -57.225; -561.000; -580.000
227.468; -114.075; -819.000; -717.000
227.612;   10.075;  242.000;  -28.000
227.756;  -95.675; -845.000; -698.000
227.900;   42.850;  342.000;  441.000
228.044;  -63.525; -509.000; -290.000
228.188;   37.975;  448.000;  568.000
228.332;  -83.475; -546.000; -472.000
228.476;  -19.175; -223.000; -149.000
228.620;  -35.925; -210.000; -150.000
228.764;   58.025;  431.000;  349.000
228.908;  -20.450; -155.000;   30.000
229.052;  -63.225; -615.000; -528.000
229.195;  -19.675; -172.000;   13.000
229.339;  -28.200; -235.000; -305.000
229.483;  -26.125;    5.000; -162.000
229.627;   -2.175; -156.000;  139.000
229.771;  -45.625; -218.000; -294.000
229.915;    3.850;  230.000;   79.000
230.059;  -94.525; -648.000; -663.000
230.202;  -41.350; -370.000; -317.000
230.346;  -22.275; -107.000;  107.000
230.490;  -78.025; -489.000; -521.000
230.634; -109.825; -736.000; -553.000
230.777;   67.950;  478.000;  509.000
230.921;  -58.750; -450.000; -359.000
231.065;  -46.050; -246.000; -286.000
231.209;   21.050;  261.000;  265.000
231.352;   19.175;   54.000;   40.000
231.496;    3.625;  568.000;  188.000
231.640;  -75.375; -693.000; -621.000
231.783;   58.950;  546.000;  525.000
231.927;  -44.625; -294.000; -365.000
232.071; -120.525; -962.000; -736.000
232.214;  -94.975; -980.000; -764.000
232.358;  -91.150; -683.000; -599.000
232.502;    3.025;  -19.000;    7.000
232.645; -131.650;-1090.000; -927.000
232.789;  -26.475; -257.000; -218.000
232.933;  -39.375; -407.000; -224.000
233.076; -120.650;-1038.000; -897.000
233.220; -104.600; -752.000; -777.000
233.363;  -77.350; -669.000; -477.000
233.507;   39.225;  371.000;  129.000
233.650;  -92.775; -764.000; -834.000
233.794;   43.125;  438.000;  461.000
233.938;  -56.450; -530.000; -362.000
234.081;  -28.425;  -93.000;   31.000
234.225;  -69.800; -631.000; -539.000
234.368; -126.350; -773.000; -723.000
234.512;  -36.950; -385.000; -299.000
234.655;  -84.275; -582.000; -555.000
234.798;  -61.650; -493.000; -466.000
234.942; -127.225; -884.000;-1002.000
235.085;  -69.175; -651.000; -443.000
235.229;  -78.250; -405.000; -410.000
235.372;  -46.500; -247.000; -191.000
235.516;  -54.775; -397.000; -321.000
235.659;   18.425;   92.000;  121.000
235.802;  -11.375;  -38.000;  -22.000
235.946;   24.800;  335.000;  215.000
236.089;   28.750;  126.000;  250.000
236.233;   55.275;  275.000;  298.000
236.376;  -54.825; -235.000; -378.000
236.519;  -50.350; -297.000; -319.000
236.663;   -5.825; -215.000; -117.000
236.806; -128.750;-1029.000; -999.000
236.949;   36.525;  543.000;  431.000
237.092;   46.950;  412.000;  391.000
237.236;  -95.650; -589.000; -502.000
237.379;   61.550;  352.000;  428.000
237.522; -126.000; -879.000; -768.000
237.666;  -17.500; -271.000;   18.000
237.809; -123.125; -851.000; -823.000
237.952;   30.975;  469.000;  271.000
238.095;  -65.125; -447.000; -442.000
238.238;   83.575;  688.000;  700.000
238.382;    2.600;  166.000;  103.000
238.525;  -79.000; -598.000; -511.000
238.668; -140.800;-1060.000; -985.000
238.811;  -73.750; -638.000; -643.000
238.954;  -64.225; -483.000; -334.000
239.097;   92.700;  617.000;  664.000
239.241;   12.325;  394.000;  326.000
239.384;  -31.825; -254.000; -214.000
239.527;  -55.025; -424.000; -224.000
239.670; -139.225; -994.000;-1091.000
239.813; -107.150; -696.000; -658.000
239.956;   67.850;  579.000;  473.000
240.099; -107.875; -778.000; -725.000
240.242;   59.050;  428.000;  432.000
240.385;   38.950;  466.000;  450.000
240.528;  -74.950; -706.000; -473.000
240.671;   10.600;  189.000;  134.000
240.814;  -52.125; -441.000; -158.000
240.957;  -97.875; -767.000; -578.000
241.100;  -94.550; -779.000; -755.000
241.243; -138.475;-1234.000; -893.000
241.386;  -53.725; -508.000; -379.000
241.529;  -81.775; -735.000; -547.000
241.672;  -56.750; -566.000; -495.000
241.815; -112.625; -832.000; -808.000
241.958;  -26.475; -125.000; -182.000
242.101;  -80.025; -545.000; -390.000
242.244;  -43.875; -270.000; -325.000
242.387;  -44.875; -304.000; -246.000
242.530;   58.125;  470.000;  134.000
242.673;  -38.475; -381.000; -309.000
242.815; -116.025; -925.000; -899.000
242.958;  -77.175; -482.000; -381.000
243.101;    4.500;  132.000;  187.000
243.244;  -71.100; -564.000; -521.000
243.387;  -44.025; -313.000; -316.000
243.530;  -90.000; -657.000; -674.000
243.672;  -17.000;   43.000;  -92.000
243.815;  -53.200; -355.000; -283.000
243.958;   -3.000;   98.000;  -26.000
244.101;   -7.375;   59.000;  -16.000
244.243;  -23.075;  -47.000;  101.000
244.386;  -93.600; -761.000; -630.000
244.529;  -20.275; -132.000; -139.000
244.672; -141.725;-1154.000; -951.000
244.814;  -91.900; -621.000; -794.000
244.957;  -38.100; -380.000; -304.000
245.100;  -78.825; -489.000; -489.000
245.242;  -60.225; -387.000; -374.000
245.385;   -0.975;  -59.000;  -39.000
245.528; -124.300; -871.000; -705.000
245.670;   81.175;  612.000;  634.000
245.813;  -91.850; -599.000; -547.000
245.956;  -28.325; -324.000; -275.000
246.098;  -75.600; -508.000; -650.000
246.241;    4.700;  194.000;   48.000
246.383;  -29.825; -119.000;  -73.000
246.526;  -90.775; -454.000; -525.000
246.669; -121.550; -889.000; -780.000
246.811;   20.625;  172.000;   -1.000
246.954;  -51.025; -512.000; -426.000
247.096;  -16.925;  -84.000;   -6.000
247.239;  -67.175; -482.000; -445.000
247.381;  -77.950; -647.000; -488.000
247.524;   65.400;  645.000;  679.000
247.666;   -6.675;   58.000;   11.000
247.809; -121.550; -887.000; -691.000
247.951;  -16.075;  -75.000;  138.000
248.094;   21.175;  432.000;  308.000
248.236; -153.775;-1262.000;-1238.000
248.378;  -26.725; -356.000;  -81.000
248.521;  -37.050; -334.000; -337.000
248.663;  -38.925; -236.000; -267.000
248.806;  -41.475; -300.000; -266.000
248.948; -107.625; -886.000; -763.000
249.090;  -66.900; -428.000; -398.000
249.233;  -64.125; -344.000; -381.000
249.375;  -71.175; -474.000; -451.000
249.518;  -40.900;  -83.000; -133.000
249.660;  -10.900; -103.000;    3.000
249.802; -171.600;-1303.000;-1189.000
249.945;  -84.325; -612.000; -540.000
250.087; -113.800; -834.000; -768.000
250.229;  -51.500; -362.000; -480.000
250.371;  -61.550; -494.000; -439.000
250.514;  -51.400; -310.000; -244.000
250.656;  -63.025;   69.000;  102.000
250.798; -120.425; -849.000; -800.000
250.940;  -61.200; -322.000; -322.000
251.083;  -34.050; -335.000; -111.000
251.225;   42.000;  338.000;  310.000
251.367;  -50.250; -274.000; -373.000
251.509;  -38.500; -265.000; -210.000
251.651;  -95.500; -731.000; -671.000
251.794;   46.600;  538.000;  632.000
251.936; -125.175; -821.000; -747.000
252.078;  -77.275; -540.000; -461.000
252.220;  -75.250; -645.000; -477.000
252.362;   49.700;  344.000;  462.000
252.504;  -77.475; -677.000; -584.000
252.646; -106.500; -875.000; -722.000
252.788;  -11.450;   14.000; -128.000
252.931;  -51.225; -257.000; -253.000
253.073;  -41.250; -376.000; -317.000
253.215;   -4.500;  141.000;  122.000
253.357;  -31.575;   82.000; -153.000
253.499;  -47.475; -374.000; -234.000
253.641;  -95.125; -749.000; -594.000
253.783;  -99.075; -609.000; -527.000
253.925;  -86.050; -586.000; -591.000
254.067; -118.050; -744.000; -667.000
254.209;  -42.950; -391.000; -259.000
254.351; -143.025; -865.000; -883.000
254.493;  -69.325; -441.000; -417.000
254.635; -121.300; -936.000; -818.000
254.777;  -89.175; -752.000; -687.000
254.918;  -73.450; -512.000; -430.000
255.060;  -64.150; -551.000; -395.000
255.202;  -73.775; -473.000; -261.000
255.344;  -72.225; -658.000; -455.000
255.486;  -73.125; -471.000; -406.000
255.628; -128.725; -780.000; -781.000
255.770;  -85.350; -676.000; -536.000
255.912;  -68.575; -559.000; -468.000
256.053;  -91.400; -730.000; -508.000
256.195;  142.175; 1008.000;  903.000
256.337;  -98.000; -861.000; -595.000
256.479;   49.375;  532.000;  416.000
256.621;  -52.375; -394.000; -212.000
256.762;  -96.800; -789.000; -742.000
256.904;   32.650;  485.000;  487.000
257.046;  -45.400; -381.000; -271.000
257.188;  -62.675; -351.000; -264.000
257.329;  -85.750; -525.000; -464.000
257.471; -109.525; -939.000; -807.000
257.613;  -78.150; -584.000; -498.000
257.755; -147.150;-1073.000; -982.000
257.896;   31.025;  286.000;  392.000
258.038;  -66.825; -403.000; -352.000
258.180;  -34.575; -354.000; -279.000
258.321;  -80.850; -581.000; -457.000
258.463;   -9.650;  -71.000;  133.000
258.605;  -97.225; -562.000; -570.000
258.746;  -93.475; -886.000; -772.000
258.888; -151.975;-1026.000;-1020.000
259.029;    6.825;  121.000;   -8.000
259.171;  -93.025; -614.000; -550.000
259.313;   -0.250;  -49.000;  -47.000
259.454;  -67.625; -536.000; -414.000
259.596;  -65.200; -483.000; -390.000
259.737;  -67.500; -590.000; -474.000
259.879;   30.225;  217.000;  311.000
260.020;   71.825;  901.000;  636.000
260.162;  -38.050; -146.000; -253.000
260.303; -120.375; -768.000; -687.000
260.445;  -85.875; -609.000; -613.000
260.586;    2.275;  392.000;  157.000
260.728;  -52.400; -360.000; -248.000
260.869;  -57.100; -350.000; -343.000
261.011;   66.825;  706.000;  537.000
261.152;  -64.825; -479.000; -319.000
261.293;  -75.350; -576.000; -595.000
261.435;  -37.725; -219.000; -184.000
261.576;  -50.150; -455.000; -325.000
261.718;   50.000;  420.000;  470.000
261.859; -127.450; -940.000; -949.000
262.000; -138.475; -951.000;-1016.000
262.142;  -31.575;  -52.000;  -60.000
262.283; -105.850; -808.000; -691.000
262.424;  -90.650; -666.000; -625.000
262.566; -158.800;-1161.000; -983.000
262.707; -126.750; -840.000; -830.000
262.848; -126.600; -769.000; -726.000
262.990;  -60.225; -362.000; -345.000
263.131;   74.975;  650.000;  681.000
263.272;  -17.825;  -61.000;  -41.000
263.413;  -92.150; -589.000; -561.000
263.555;  -56.475; -669.000; -143.000
263.696;  -88.175; -550.000; -641.000
263.837;  -59.450; -449.000; -551.000
263.978;  -18.075;   -5.000;  -77.000
264.119;  -48.475; -283.000; -264.000
264.261; -120.025; -847.000; -630.000
264.402;   -5.625;   33.000;   40.000
264.543;  -75.700; -509.000; -524.000
264.684;  -15.450;   61.000;  -50.000
264.825;  -89.800; -816.000; -538.000
264.966;   -3.800;  -84.000;  -67.000
265.107; -113.875; -646.000; -670.000
265.248; -106.750; -825.000; -812.000
265.390;  -16.550;  152.000;   -9.000
265.531;  -28.900; -238.000; -107.000
265.672;  -86.025; -557.000; -630.000
265.813;   55.175;  563.000;  439.000
265.954; -133.550; -959.000; -940.000
266.095;  -39.300; -372.000; -322.000
266.236;  -95.975; -686.000; -548.000
266.377;  -39.450; -243.000; -297.000
266.518;  -66.075; -619.000; -547.000
266.659;   22.125;  170.000;  268.000
266.800;   -6.850;   83.000;   85.000
266.941;  -88.675; -487.000; -478.000
267.082;    3.650;  354.000;   99.000
267.223;  -41.475; -344.000; -273.000
267.364; -122.075; -892.000; -686.000
267.504;  -25.725;    3.000;  135.000
267.645;   -5.675;  160.000;   67.000
267.786;  -34.250; -147.000;  -86.000
267.927;  -72.575; -473.000; -379.000
268.068;  -21.025; -186.000;  -61.000
268.209;  -51.675; -175.000; -413.000
268.350;  -69.075; -388.000; -532.000
268.490;  -96.400; -648.000; -521.000
268.631;   20.900;  127.000;  225.000
268.772; -104.125; -874.000; -647.000
268.913;  -59.350; -328.000; -476.000
269.054;  -33.150; -117.000;   12.000
269.194;  -66.850; -418.000; -402.000
269.335; -153.600;-1137.000;-1074.000
269.476;  -20.525;   33.000;  -35.000
269.617;  -53.775; -347.000; -392.000
269.757;  -95.025; -713.000; -646.000
269.898;  -97.550; -856.000; -613.000
270.039;  -64.575; -415.000; -405.000
270.180; -132.775; -952.000; -816.000
270.320;  -19.300; -190.000; -250.000
270.461;  -41.650; -277.000; -249.000
270.602;  -24.550; -186.000; -156.000
270.742; -126.100; -868.000; -943.000
270.883;  -56.000; -442.000; -390.000
271.023;  -62.700; -358.000; -357.000
271.164;  -81.925; -607.000; -528.000
271.305;  -92.225; -666.000; -654.000
271.445;  -90.225; -722.000; -683.000
271.586;  -85.175; -462.000; -283.000
271.726;  -49.500; -397.000; -322.000
271.867;  -79.250; -594.000; -534.000
272.008;   39.675; -473.000; -285.000
272.148;   68.300;  462.000;  468.000
272.289;   -2.650; -113.000; -181.000
272.429;   -6.750;   19.000;  185.000
272.570;  -98.300; -633.000; -737.000
272.710; -102.875; -825.000; -775.000
272.851;  -29.200;  113.000; -130.000
272.991; -156.025;-1173.000;-1077.000
273.131;  -72.075; -419.000; -459.000
273.272; -109.800; -683.000; -723.000
273.412;  -18.175; -143.000;  -31.000
273.553;  -76.925; -488.000; -507.000
273.693;   93.150;  913.000;  858.000
273.834; -112.350; -894.000; -692.000
273.974;  -87.925; -664.000; -615.000
274.114;  -97.750; -772.000; -560.000
274.255;   38.300;  414.000;  373.000
274.395;  -26.125; -180.000; -125.000
274.535;   12.450;  199.000;  350.000
274.676;   -1.400;  225.000;   94.000
274.816;  -13.350;  110.000;   34.000
274.956; -100.425; -624.000; -690.000
275.097; -104.425;-1014.000; -922.000
275.237; -124.450; -913.000; -803.000
275.377; -102.425; -778.000; -689.000
275.517; -158.625; -878.000; -937.000
275.658;  -73.925; -590.000; -555.000
275.798;  -77.225; -606.000; -413.000
275.938;    5.275;  215.000;  323.000
276.078;  -93.525; -626.000; -395.000
276.218;    4.675;   99.000;  104.000
276.359; -132.500;-1026.000;-1024.000
276.499;  -73.225; -605.000; -446.000
276.639;  -37.300; -305.000; -151.000
276.779;  -63.025; -475.000; -357.000
276.919; -113.525; -783.000; -624.000
277.059;  -32.275; -261.000; -212.000
277.199;  -46.250; -357.000; -259.000
277.340;   14.575;  287.000;  175.000
277.480; -112.900; -840.000; -693.000
277.620;   24.825;  192.000;   16.000
277.760; -206.150;-1533.000;-1294.000
277.900;   -1.900;  113.000;   33.000
278.040;  -11.725;  137.000;  159.000
278.180;   20.650;  270.000;  170.000
278.320;  -15.650;   21.000;   56.000
278.460;  -81.525; -443.000; -469.000
278.600;  -97.300; -708.000; -598.000
278.740;   44.350;  448.000;  224.000
278.880; -118.700; -768.000; -791.000
279.020;  -36.275; -194.000; -144.000
279.160;  -91.300; -672.000; -595.000
279.300; -122.025; -926.000; -873.000
279.440;  -94.525; -709.000; -622.000
279.579;  -83.175;-1014.000; -929.000
279.719;  -74.175; -410.000; -394.000
279.859;   29.150;   -4.000;   41.000
279.999;   -7.800; -208.000;  101.000
280.139;  -46.700; -435.000; -387.000
280.279;  -94.575; -708.000; -745.000
280.419;  -29.875; -229.000; -147.000
280.559;  -56.775; -259.000; -180.000
280.698;  -91.550; -790.000; -639.000
280.838; -110.875; -778.000; -800.000
280.978; -107.375; -846.000; -790.000
281.118; -122.400; -811.000; -704.000
281.257;   -8.825;   24.000;    6.000
281.397; -140.250;-1094.000; -960.000
281.537; -103.725; -599.000; -712.000
281.677;  -26.400; -150.000; -101.000
281.816;  -98.025; -700.000; -630.000
281.956;  -29.225; -193.000; -257.000
282.096;  -69.300; -539.000; -396.000
282.235;  -97.000; -672.000; -638.000
282.375;  -39.300; -243.000;  -98.000
282.515; -102.700; -715.000; -707.000
282.654;    2.650;   29.000;  106.000
282.794;   11.300;  388.000;  244.000
282.934;  -63.250; -530.000; -491.000
283.073; -130.625;-1030.000; -857.000
283.213;  -69.250; -460.000; -467.000
283.353;  -48.775; -408.000; -349.000
283.492;  -34.600; -264.000; -296.000
283.632;  -61.875; -254.000; -168.000
283.771; -109.950; -859.000; -730.000
283.911;  -60.500; -369.000; -260.000
284.050; -115.025; -794.000; -748.000
284.190; -156.300;-1229.000;-1096.000
284.329; -136.125;-1055.000; -964.000
284.469;  -95.825; -516.000; -591.000
284.608;  -59.200; -559.000; -598.000
284.748;  -92.325; -614.000; -570.000
284.887;  -14.100;  -87.000;  -20.000
285.027; -128.350; -844.000; -892.000
285.166;  -50.625; -192.000; -249.000
285.306;  -17.025; -116.000;  -33.000
285.445;  -49.700; -229.000; -343.000
285.584;  -99.950; -630.000; -494.000
285.724;  -52.275; -282.000; -322.000
285.863; -108.350; -857.000; -507.000
286.002;  -66.875; -366.000; -276.000
286.142; -100.825; -715.000; -622.000
286.281;  -76.175; -525.000; -493.000
286.420;  -74.375; -554.000; -417.000
286.560;   86.250;  653.000;  623.000
286.699; -141.725; -958.000; -912.000
286.838;  -80.850; -590.000; -591.000
286.978;  -95.550; -533.000; -537.000
287.117; -137.875;-1085.000; -950.000
287.256;  -48.300; -228.000; -211.000
287.395;  -55.850; -197.000; -378.000
287.535;  -49.450; -370.000; -298.000
287.674;  -93.025; -509.000; -484.000
287.813;   51.000;  661.000;  533.000
287.952; -145.450;-1010.000; -871.000
288.091; -155.350;-1049.000; -915.000
288.231;  -11.375;   13.000;   15.000
288.370; -183.225;-1217.000;-1200.000
288.509;  -90.025; -728.000; -645.000
288.648;  -94.675; -770.000; -548.000
288.787;  -49.675; -243.000;  -87.000
288.926;  -78.950; -454.000; -475.000
289.065;  103.250;  859.000;  672.000
289.204;  -72.000; -377.000; -217.000
289.344;  -98.900; -791.000; -690.000
289.483;    7.350;  416.000;  304.000
289.622;  -43.800; -291.000; -149.000
289.761;  -24.150; -309.000; -166.000
289.900; -115.000; -785.000; -626.000
290.039;  -21.150;  -12.000;  -95.000
290.178;  -42.125; -274.000; -180.000
290.317;  -96.250; -618.000; -479.000
290.456;  -80.725; -463.000; -451.000
290.595; -136.625; -961.000; -833.000
290.734; -145.550; -904.000; -891.000
290.873;  -89.050; -456.000; -420.000
291.011; -115.775; -833.000; -843.000
291.150; -114.925; -770.000; -682.000
291.289;  -37.700; -343.000; -110.000
291.428;  -97.425; -599.000; -480.000
291.567;  -60.500; -370.000; -442.000
291.706;   -4.350;  109.000;  154.000
291.845;  -96.875; -597.000; -505.000
291.984; -163.325;-1234.000;-1061.000
292.122;   56.850;  602.000;  582.000
292.261;   37.375;  620.000;  463.000
292.400;  -11.425; -144.000;  211.000
292.539; -128.550; -959.000; -813.000
292.678;  -39.125; -325.000; -300.000
292.816; -170.100;-1136.000; -965.000
292.955; -104.575; -844.000; -684.000
293.094;  -51.000; -173.000; -337.000
293.233;  -57.300; -556.000; -400.000
293.371;  -42.250; -225.000;  -84.000
293.510; -102.450; -866.000; -780.000
293.649; -137.000; -959.000; -924.000
293.787; -123.675;-1083.000;-1012.000
293.926;  -29.425; -113.000;  -32.000
294.065;  -62.975; -379.000; -290.000
294.203;   41.475;  298.000;  406.000
294.342;   16.875;   74.000;  156.000
294.481; 5841.000;51180.000; -836.000
294.619;  -37.550; -425.000; -582.000
294.758; -154.350;-1230.000;-1137.000
294.896;   13.125; -125.000;    5.000
295.035; -144.075;-1040.000;-1006.000
295.174; -139.925;-1082.000; -954.000
295.312;  -51.700; -323.000; -203.000
295.451;  -41.075; -307.000; -428.000
295.589;  -79.000; -389.000; -518.000
295.728;    3.875; -292.000; -165.000
295.866;  -24.275;  -36.000;  -51.000
296.005;  -72.850; -584.000; -341.000
296.143;  -87.175; -558.000; -596.000
296.282; -110.975; -957.000; -881.000
296.420;  -80.625; -657.000; -557.000
296.559; -106.575; -892.000; -633.000
296.697;  -67.750; -847.000; -665.000
296.835;  -97.700;-1141.000;-1002.000
296.974;   15.975;  -23.000;   39.000
297.112;  -61.250; -443.000; -504.000
297.251;  -95.350; -815.000; -755.000
297.389;  -38.475; -576.000; -438.000
297.527;  -20.525; -145.000;  -83.000
297.666;  -56.750; -486.000; -438.000
297.804;  -63.425; -404.000; -264.000
297.942;   -8.100; -136.000; -161.000
298.081;   -9.325; -183.000;   63.000
298.219;   -3.400;  -17.000;  -19.000
298.357;  -15.575; -144.000;  -71.000
298.495;  -67.775; -810.000; -812.000
298.634;   17.725;  245.000;  219.000
298.772;  -38.000; -220.000; -338.000
298.910;  -60.500; -309.000; -182.000
299.048;  -32.725; -130.000; -153.000
299.187;  -51.700; -350.000; -250.000
299.325;   -5.275;   52.000;  122.000
299.463;  -38.225; -389.000; -299.000
299.601;  -10.325; -327.000; -271.000
299.739; -135.775; -908.000; -883.000
299.877;  -74.400; -791.000; -703.000
300.016; -109.200;-1095.000; -935.000
300.154;   27.625;  -19.000; -161.000
300.292;  -37.500; -428.000; -348.000
300.430;  -30.825; -408.000; -291.000
300.568; -121.525; -940.000; -874.000
300.706;  -66.925; -366.000; -469.000
300.844; -135.800;-1108.000; -979.000
300.982;   47.900;  246.000;  282.000
301.120; -126.625; -965.000; -866.000
301.258;  -96.250; -812.000; -705.000
301.396;    8.475;  104.000;  -41.000
301.534;  -29.775; -218.000; -293.000
301.672;  -86.275; -664.000; -521.000
301.810;  -57.050; -613.000; -545.000
301.948;  -11.775;   53.000;  149.000
302.086;  187.325; -250.000;  -32.000
302.224;  201.550; -610.000; -585.000
302.362;  -69.000; -558.000; -622.000
302.500; -108.750; -923.000; -893.000
302.638;   12.900;  128.000;  245.000
302.776;  -41.800; -352.000; -408.000
302.913;   14.750;  447.000;  236.000
303.051;  -38.925;  -86.000;  -23.000
303.189;   17.225;   90.000;  118.000
303.327;  -59.300; -341.000; -256.000
303.465;  -79.550; -832.000; -588.000
303.603; -100.150; -805.000; -604.000
303.740;   50.050;  417.000;  241.000
303.878;  -91.625; -800.000; -759.000
304.016; -100.000; -915.000; -790.000
304.154; -154.600;-1123.000;-1152.000
304.291;  -75.275; -505.000; -554.000
304.429;   -8.125;  102.000;   74.000
304.567; -136.625; -908.000; -893.000
304.705;  -61.775; -408.000; -515.000
304.842;  -23.750; -616.000; -540.000
304.980;   14.700;  215.000;   35.000
305.118;  -36.675; -367.000; -365.000
305.255; -127.150; -945.000; -927.000
305.393;   27.750;  178.000;  239.000
305.531; -138.975;-1173.000; -956.000
305.668;  -81.425; -663.000; -582.000
305.806;  -12.300; -358.000; -439.000
305.943;  -16.125; -629.000; -637.000
306.081;  -19.175; -378.000; -267.000
306.219; -111.300; -863.000; -748.000
306.356;   14.200;  158.000;   27.000
306.494;  116.600;  981.000;  761.000
306.631;  -26.875;  -11.000;  -55.000
306.769;  -29.725; -613.000; -485.000
306.906;  -41.175; -284.000; -258.000
307.044;  -73.325; -473.000; -488.000
307.181;  -79.400; -410.000; -332.000
307.319;  -15.375;  112.000;   87.000
307.456; -165.075;-1191.000;-1153.000
307.594; -124.200; -980.000; -727.000
307.731;  -38.000; -371.000; -164.000
307.868;  -22.300;  -15.000;   20.000
308.006; -143.575; -961.000; -847.000
308.143;  -76.225; -618.000; -330.000
308.281;   30.250;  -37.000; -254.000
308.418;  -73.475; -748.000; -640.000
308.555;  -79.800; -400.000; -250.000
308.693;  -60.600; -577.000; -573.000
308.830; -103.050; -712.000; -657.000
308.967;  -22.325; -215.000;  -95.000
309.105;  -31.700; -507.000; -396.000
309.242;  -24.575; -468.000; -367.000
309.379;   17.125; -577.000; -655.000
309.517; -106.900; -936.000; -948.000
309.654; -108.925; -910.000; -734.000
309.791;  -82.650; -662.000; -580.000
309.928; -109.925; -977.000; -914.000
310.065;  114.625;  819.000;  697.000
310.203;  -87.025; -825.000; -850.000
310.340;  -58.725; -465.000; -321.000
310.477;  -81.400; -412.000; -516.000
310.614;  -60.075; -383.000; -473.000
310.751;  -63.975; -427.000; -518.000
310.889;  -37.650;    1.000;   11.000
311.026; -145.225;-1161.000; -939.000
311.163;  -47.950; -386.000; -380.000
311.300;  -74.150; -512.000; -479.000
311.437;  -82.925; -658.000; -619.000
311.574; -155.375;-1226.000; -985.000
311.711;  -67.875; -595.000; -433.000
311.848;  -50.125; -380.000; -388.000
311.985;   -3.150;  270.000;   93.000
312.122; -126.750; -932.000; -762.000
312.259; -124.050; -941.000; -994.000
312.396;  -86.550; -508.000; -551.000
312.533;  -92.875; -812.000; -790.000
312.670; -140.300;-1070.000; -898.000
312.807;  -51.000; -352.000; -367.000
312.944;  -77.525; -513.000; -611.000
313.081;  -15.675; -150.000; -415.000
313.218;  -93.875;-1111.000; -867.000
313.355;  -23.375; -531.000; -449.000
313.492;  -25.925; -455.000; -292.000
313.629;  116.925;  815.000;  735.000
313.766; -153.800;-1176.000;-1008.000
313.902;  -25.275; -186.000;   21.000
314.039;  -52.400; -372.000; -289.000
314.176;   14.250;  286.000;  192.000
314.313;  -83.700; -569.000; -473.000
314.450;  -88.475; -788.000; -684.000
314.587;  -66.925; -468.000; -480.000
314.723;    2.050;  -78.000;  130.000
314.860;   25.750;  318.000;  332.000
314.997;   28.450;  223.000;  142.000
315.134;  -46.275; -385.000; -368.000
315.270;  -36.050; -480.000; -496.000
315.407; -120.500;-1094.000; -967.000
315.544;  -54.050; -657.000; -538.000
315.681;  -69.150; -681.000; -565.000
315.817;   23.725; -133.000; -176.000
315.954;   22.050; -613.000; -392.000
316.091; -120.700;-1045.000;-1023.000
316.227;  -24.425;  -71.000; -179.000
316.364;   -8.375;   23.000;    6.000
316.500;  -52.900; -113.000; -300.000
316.637;  -39.575; -181.000; -302.000
316.774;  -93.975; -625.000; -358.000
316.910;  -91.825; -598.000; -629.000
317.047;  -71.625; -487.000; -351.000
317.183;  -66.475; -435.000; -566.000
317.320;   30.025; -367.000; -321.000
317.456;  -34.000; -733.000; -805.000
317.593; -104.875; -598.000; -641.000
317.729;  -14.575;  168.000;  -67.000
317.866; -204.425;-1434.000;-1285.000
318.002;  -99.500; -708.000; -948.000
318.139; -125.075; -883.000; -867.000
318.275; -122.075;-1003.000; -738.000
318.412;  -84.150; -517.000; -336.000
318.548;  -92.200; -751.000; -720.000
318.685; -109.250; -985.000; -888.000
318.821;  -90.950; -762.000; -735.000
318.957;  -24.550;   34.000;  -23.000
319.094;   22.425;  297.000;  154.000
319.230;  -98.500; -756.000; -742.000
319.367;  -12.150; -471.000; -520.000
319.503;  -36.550; -538.000; -436.000
319.639; -119.375; -877.000; -793.000
319.775;  -91.950; -750.000; -685.000
319.912;  -54.500; -424.000; -519.000
320.048;  -99.100;-1184.000;-1184.000
320.184;   76.375;   59.000;   70.000
320.321;  -55.700; -497.000; -467.000
320.457;   62.100;  475.000;  662.000
320.593;  -67.650; -375.000; -382.000
320.729; -110.025; -732.000; -734.000
320.866;  -69.725; -577.000; -635.000
321.002; -112.850; -759.000; -809.000
321.138;  -45.000; -135.000; -211.000
321.274;    9.025; -148.000; -115.000
321.410;  -75.500; -585.000; -353.000
321.546; -111.250;-1011.000; -911.000
321.683;   16.125;  400.000;  185.000
321.819;  -22.525;  -48.000; -117.000
321.955; -132.650; -743.000; -722.000
322.091;  -74.800; -585.000; -540.000
322.227;  -50.300; -382.000; -202.000
322.363;  -56.925; -320.000; -215.000
322.499;  -60.125; -343.000; -331.000
322.635;   84.800;  636.000;  443.000
322.771;  -12.800; -139.000;   12.000
322.907;   43.925;  129.000;  327.000
323.043;  -42.175; -115.000; -206.000
323.179;  -65.650; -394.000; -363.000
323.315;  -45.650; -401.000; -371.000
323.451;    7.925; -328.000; -236.000
323.587;   38.175;  -60.000;  -77.000
323.723;  -54.300; -682.000; -601.000
323.859;  -39.275; -258.000;  -76.000
323.995;  -60.825; -467.000; -409.000
324.131; -135.275; -967.000; -892.000
324.267;  -52.625; -254.000; -276.000
324.402; -133.350; -960.000; -983.000
324.538;  -51.425; -279.000; -104.000
324.674;  -15.700;  164.000;   77.000
324.810;   33.900;  226.000;  308.000
324.946;  -65.200; -810.000; -658.000
325.082;  -80.100; -568.000; -475.000
325.217;  -25.375;  -62.000;   16.000
325.353; -113.200; -764.000; -659.000
325.489; -101.075; -540.000; -506.000
325.625;  -79.425; -579.000; -525.000
325.760;   74.225;  517.000;  376.000
325.896;    8.075; -515.000; -702.000
326.032;  -69.025; -403.000; -352.000
326.168;  -64.525; -462.000; -369.000
326.303;  -65.725; -352.000; -461.000
326.439;  -20.175; -336.000; -276.000
326.575;  -22.375; -190.000;  -29.000
326.710;  -19.975; -156.000;  -30.000
326.846;   -5.350;  146.000;  103.000
326.982;  -94.325; -530.000; -548.000
327.117;  -68.075; -481.000; -442.000
327.253;  -93.075; -745.000; -742.000
327.388; -158.125;-1137.000;-1153.000
327.524;  -86.825; -811.000; -578.000
327.659;  -25.425;  -58.000;  -22.000
327.795;  -28.675;   69.000;   45.000
327.931;  -74.925; -723.000; -499.000
328.066;  -31.775; -417.000; -276.000
328.202;  -29.075;   12.000; -129.000
328.337;   78.475;  957.000;  713.000
328.473;   31.725;  -12.000;  -74.000
328.608;  -24.425; -256.000; -267.000
328.743; -119.625; -799.000; -664.000
328.879;   -2.075;  214.000;  114.000
329.014;  -46.300; -102.000; -122.000
329.150;  -73.175; -358.000; -483.000
329.285;  -95.400; -465.000; -466.000
329.421;  -53.075; -548.000; -246.000
329.556;  -28.450;  -36.000;   85.000
329.691; -107.975; -633.000; -615.000
329.827;  -89.425; -626.000; -480.000
329.962;  -49.325;  131.000; -301.000
330.097;  -65.500; -673.000; -585.000
330.233;  -46.150; -410.000; -223.000
330.368; -123.300; -839.000; -628.000
330.503;  -24.475;    3.000;   98.000
330.638;  -20.600;  -93.000; -125.000
330.774; -101.425; -609.000; -530.000
330.909;  -51.300; -434.000; -244.000
331.044;  -96.425; -714.000; -708.000
331.179; -176.200;-1217.000;-1109.000
331.315;   -7.125;   77.000;   20.000
331.450;    4.300;  157.000;  285.000
331.585;  -93.475; -805.000; -706.000
331.720; -106.700; -510.000; -460.000
331.855;  -10.725;  -35.000; -102.000
331.990;  415.275;   62.000;  138.000
332.126;  219.525; -110.000;   71.000
332.261;   17.375; -379.000; -265.000
332.396;   16.600; -135.000; -242.000
332.531;  -51.125;-1074.000;-1031.000
332.666;   81.100; -519.000; -363.000
332.801;  -99.000; -726.000; -807.000
332.936;  -38.050; -192.000; -122.000
333.071; -134.725; -870.000; -817.000
333.206;   -1.550;  307.000;  379.000
333.341;   22.875;  344.000;  418.000
333.476;  -97.450; -627.000; -623.000
333.611;  -56.050; -251.000; -173.000
333.746;  -65.350; -381.000; -464.000
333.881; -136.775; -973.000; -935.000
334.016; -131.500; -936.000; -917.000
334.151; -133.225; -746.000; -702.000
334.286;    6.050;  152.000;  186.000
334.421;  -31.125; -125.000; -178.000
334.556; -100.950; -611.000; -567.000
334.690;  -97.475; -631.000; -577.000
334.825;   36.500;  381.000;   83.000
334.960;  -65.200; -285.000; -413.000
335.095;    0.550;  135.000;  -91.000
335.230; -111.150; -722.000; -738.000
335.365; -136.150;-1084.000; -990.000
335.499; -136.250;-1108.000;-1037.000
335.634;    8.550;    9.000;  534.000
335.769; -102.800; -755.000; -720.000
335.904;  -69.800; -603.000; -561.000
336.038;  -53.125; -735.000; -657.000
336.173; -126.025;-1206.000;-1194.000
336.308;   12.925; -116.000; -189.000
336.443;   55.300; -544.000; -634.000
336.577;  -59.650; -936.000; -787.000
336.712;   70.500;   -4.000;  -12.000
336.847;  -19.025; -724.000; -607.000
336.981;   49.275; -272.000; -208.000
337.116;  270.125;  615.000;  501.000
337.250;  110.400; -434.000; -421.000
337.385;  470.375; -297.000; -208.000
337.520;  224.550; -632.000; -603.000
337.654;  -42.675; -215.000; -126.000
337.789; -134.700; -989.000; -933.000
337.923;  -55.700; -104.000; -205.000
338.058; -115.700; -673.000; -738.000
338.192;  -66.850; -611.000; -488.000
338.327;  -27.975;  -18.000; -155.000
338.461;  -82.800; -299.000; -469.000
338.596;  -96.525; -780.000; -638.000
338.730;  -84.450; -767.000; -803.000
338.865;  154.925;  -46.000; -140.000
338.999;   11.675; -846.000; -702.000
339.134;  -14.900; -634.000; -536.000
339.268;   21.125; -741.000; -603.000
339.403;  557.250; -740.000; -775.000
339.537;  279.975; -894.000; -820.000
339.671; -112.650; -829.000; -813.000
339.806;  -15.425; -556.000; -512.000
339.940;   37.750; -261.000; -235.000
340.074; -109.575; -685.000; -510.000
340.209;  -58.900; -351.000; -230.000
340.343; -104.900; -517.000; -573.000
340.477;  132.150;  998.000; 1036.000
340.612;    5.625;-1033.000; -900.000
340.746;  240.650; -199.000; -243.000
340.880; -101.300; -924.000; -785.000
341.014;  -45.000;  -45.000; -154.000
341.149; -113.700; -756.000; -718.000
341.283; -120.350; -839.000; -754.000
341.417; -146.300;-1124.000; -938.000
341.551;  -45.150; -768.000; -708.000
341.685;  -74.375; -633.000; -611.000
341.820;  -51.100; -562.000; -493.000
341.954;  -65.850; -218.000; -349.000
342.088; -154.525;-1102.000;-1019.000
342.222;   36.050;  565.000;  618.000
342.356;  -81.450; -395.000; -335.000
342.490; -120.575; -880.000; -841.000
342.624;  -53.100; -339.000; -242.000
342.758;  -60.175; -364.000; -312.000
342.892;  -98.150; -710.000; -585.000
343.026;  -45.425;  -58.000; -116.000
343.160;  -62.950; -426.000; -376.000
343.294;  -79.200; -474.000; -337.000
343.428;  -80.400; -488.000; -448.000
343.562;  -42.975; -172.000;  -23.000
343.696;  -45.025; -385.000; -314.000
343.830;  -59.200; -362.000; -356.000
343.964;  -32.250; -231.000; -168.000
344.098;  278.200;  199.000;   70.000
344.232;  234.275; -266.000; -127.000
344.366;   72.550; -567.000; -453.000
344.500;  -55.225; -665.000; -744.000
344.634;  -49.975; -324.000; -164.000
344.768;  -68.775; -531.000; -341.000
344.902;    7.150;  278.000;  256.000
345.035;  -85.825; -556.000; -496.000
345.169; -140.050; -933.000; -656.000
345.303;  -59.225; -308.000; -482.000
345.437; -110.600; -826.000; -717.000
345.571;  -83.625; -675.000; -594.000
345.704;  -72.275; -309.000; -532.000
345.838;  -22.600; -331.000; -284.000
345.972;  -59.675; -543.000; -495.000
346.106;  240.350; -179.000; -190.000
346.239;  464.750; -312.000; -243.000
346.373;  -13.350; -343.000; -302.000
346.507; -152.075; -950.000; -962.000
346.640;    5.250;  -30.000;   13.000
346.774; -103.400; -650.000; -797.000
346.908;  -33.750; -138.000;  -11.000
347.041; -109.625; -646.000; -593.000
347.175;   -5.400;  259.000;   27.000
347.309; -107.700; -698.000; -628.000
347.442; -118.750; -883.000; -732.000
347.576;  109.400;  670.000;  668.000
347.709;   38.650; -123.000;  -52.000
347.843; -134.825; -933.000; -825.000
347.976;   15.575;  235.000;  294.000
348.110; -185.825;-1268.000;-1186.000
348.243; -110.700; -679.000; -772.000
348.377;   -7.725;  -26.000;   60.000
348.510;   43.950;  403.000;  540.000
348.644;  -49.250;  -37.000; -159.000
348.777;  -13.825;  180.000;  191.000
348.911;  -55.450; -142.000; -112.000
349.044;   74.800;  471.000;  448.000
349.178;  -30.950;-1069.000;-1006.000
349.311;   95.300;  141.000;  255.000
349.444;   27.825; -927.000; -813.000
349.578;  -33.375; -347.000; -200.000
349.711; -135.900; -959.000; -862.000
349.845;  -73.200; -661.000; -591.000
349.978; -168.525;-1224.000;-1137.000
350.111;  -97.125; -546.000; -612.000
350.244; -113.450; -596.000; -700.000
350.378;  -68.700; -392.000; -393.000
350.511;  -78.950; -393.000; -426.000
350.644; -100.175; -808.000; -806.000
350.778;    3.275;  168.000;  104.000
350.911;  -12.950;  134.000;  140.000
351.044; -109.475; -685.000; -615.000
351.177;  -48.500; -321.000; -281.000
351.310;  -39.750;    3.000; -131.000
351.444; -120.300; -888.000; -788.000
351.577;   18.200;  140.000;   90.000
351.710;   66.975;  593.000;  417.000
351.843;  -56.700; -165.000;  -77.000
351.976;  -27.025;  149.000;  -79.000
352.109; -104.425; -621.000; -612.000
352.242;  -52.875; -464.000; -419.000
352.376; -113.325; -580.000; -636.000
352.509;    0.350; -437.000; -356.000
352.642;  -91.000; -654.000; -604.000
352.775;    2.800; -141.000;  -98.000
352.908; -131.450; -933.000; -904.000
353.041; -122.450; -814.000; -824.000
353.174;  -81.650; -551.000; -424.000
353.307; -107.850; -753.000; -764.000
353.440;   49.275;  541.000;  453.000
353.573; -117.900; -957.000;-1008.000
353.706;  -50.475; -384.000; -558.000
353.839;  -47.325; -264.000; -220.000
353.971; -102.150; -657.000; -512.000
354.104; -110.900; -896.000; -835.000
354.237;  -81.800; -627.000; -662.000
354.370; -107.750; -846.000; -879.000
354.503; -187.050;-1231.000;-1308.000
354.636;  -35.850; -529.000; -348.000
354.769; -119.700; -937.000; -860.000
354.902;  -29.500; -230.000; -139.000
355.034;  -24.650; -164.000; -220.000
355.167;  -20.700; -262.000; -162.000
355.300;  -83.550;-1061.000; -880.000
355.433; 1424.850;  -71.000;  -14.000
355.565; 2218.875; -402.000; -384.000
355.698;  565.850; -356.000; -296.000
355.831;  -14.850; -882.000; -801.000
355.964;    2.025; -285.000; -170.000
356.096;  -87.200; -856.000; -843.000
356.229;   -5.475; -523.000; -530.000
356.362;  507.525; -373.000; -266.000
356.494;  920.375; -229.000; -162.000
356.627;  303.425;  269.000;  377.000
356.760;  873.625;  120.000;   53.000
356.892; 1519.850; -286.000; -601.000
357.025;  329.950;  403.000;  389.000
357.157;  217.475; -167.000; -179.000
357.290; 1264.875; -856.000; -713.000
357.423;  373.300; -667.000; -556.000
357.555;   98.325; -217.000; -228.000
357.688;  107.950; -483.000; -364.000
357.820;  143.125; -870.000; -877.000
357.953; 1465.450; -563.000; -589.000
358.085;  223.225; -632.000; -612.000
358.218;  102.900;-1131.000; -932.000
358.350;   32.725;  -58.000;  312.000
358.483; -168.025;-1300.000;-1187.000
358.615; -144.875;-1182.000;-1078.000
358.747; -154.850;-1187.000;-1058.000
358.880;  -73.725; -810.000; -744.000
359.012;  -40.750; -376.000; -202.000
359.145;  -54.750; -480.000; -511.000
359.277;  -49.750; -962.000; -913.000
359.409; 1245.350;  536.000;  231.000
359.542;  252.900; -738.000; -688.000
359.674;   11.425;   46.000;   13.000
359.806;  -86.475; -565.000; -438.000
359.939;  -39.000; -617.000; -516.000
360.071;   38.850; -583.000; -579.000
360.203;  -23.450; -411.000; -364.000
360.335;   22.850;  164.000;  -16.000
360.468;   77.725; -249.000; -307.000
360.600; 1314.575; -547.000; -454.000
360.732; 4305.100; -546.000; -423.000
360.864;  655.475;-1216.000;-1044.000
360.996;   53.000; -516.000; -554.000
361.129;  -43.675; -389.000; -598.000
361.261;   -5.500;  110.000; -113.000
361.393;  -57.800; -252.000; -214.000
361.525;    8.000;   94.000;  244.000
361.657; -115.675; -821.000; -703.000
361.789;  -34.375; -139.000; -155.000
361.921;  -44.575; -642.000; -593.000
362.053;   81.425;  524.000;  541.000
362.185;   -5.125;  288.000;   72.000
362.318; -113.475; -709.000; -705.000
362.450;   36.750;  294.000;  444.000
362.582;  -87.300; -913.000; -870.000
362.714;  -65.175; -353.000; -332.000
362.846;  -78.875; -606.000; -490.000
362.978; -151.075; -941.000; -811.000
363.109;  -33.900; -161.000; -260.000
363.241;  146.200; -739.000; -749.000
363.373;  608.600; -649.000; -564.000
363.505; 1026.725; -186.000;  -91.000
363.637;  239.825; -787.000; -601.000
363.769; -135.650;-1067.000;-1080.000
363.901; -103.750; -596.000; -654.000
364.033; -152.625;-1103.000;-1062.000
364.165;  -48.000; -283.000; -283.000
364.296;   86.200; -316.000; -177.000
364.428;  194.500;-1344.000;-1220.000
364.560;  -59.725; -679.000; -661.000
364.692;  -80.250; -738.000; -835.000
364.824;   -9.075; -588.000; -456.000
364.955;  512.525; -402.000; -564.000
365.087; 1726.750;-1097.000; -852.000
365.219;  121.875; -686.000; -816.000
365.351;  -85.825; -526.000; -572.000
365.482;   23.350;  300.000;  240.000
365.614;  -62.750; -402.000; -314.000
365.746; -113.150; -729.000; -752.000
365.877;  -97.925; -706.000; -672.000
366.009;  418.050;  -35.000;  -62.000
366.141;  -25.525;-1249.000;-1134.000
366.272; -107.900; -803.000; -719.000
366.404; -121.225;-1005.000; -874.000
366.535;  -30.100; -139.000;  -12.000
366.667; -110.250; -644.000; -649.000
366.799;   23.500;  353.000;  203.000
366.930; -140.050; -862.000; -996.000
367.062;  181.425; -639.000; -613.000
367.193;  339.350; -872.000; -842.000
367.325;  -40.550; -580.000; -684.000
367.456;  -10.225; -246.000;   31.000
367.588;  271.525; -371.000; -318.000
367.719;   30.125;  -44.000;  -45.000
367.851;  -59.325; -222.000; -241.000
367.982; -118.750; -875.000; -732.000
368.113;  -18.475; -475.000; -358.000
368.245; -145.150; -960.000; -841.000
368.376;  -47.925; -254.000; -302.000
368.508;  -66.575; -188.000; -263.000
368.639; -173.450;-1166.000;-1034.000
368.770; -105.925; -670.000; -589.000
368.902; -123.075; -836.000; -926.000
369.033; -130.275; -906.000; -855.000
369.164;  -50.000; -720.000; -653.000
369.296; -124.175; -452.000; -601.000
369.427;  -40.700; -209.000; -144.000
369.558;  -86.750; -593.000; -377.000
369.689;  -99.200; -721.000; -569.000
369.821; -154.400; -951.000; -845.000
369.952;  -34.550;   42.000; -108.000
370.083;  -54.900; -229.000; -108.000
370.214; -113.275; -735.000; -650.000
370.345;  -32.800;   65.000;   81.000
370.477; -117.300; -810.000; -790.000
370.608;   12.275; -328.000; -264.000
370.739; -134.225;-1233.000;-1292.000
370.870; -130.325;-1102.000; -923.000
371.001;  -39.725; -378.000; -467.000
371.132; -104.075; -754.000; -735.000
371.263;  -27.600;  -42.000; -148.000
371.394; -144.500; -841.000; -748.000
371.525;   17.875;  345.000;  225.000
371.657; -124.300; -808.000; -670.000
371.788;    2.075;  103.000;  199.000
371.919;    1.625; -384.000; -304.000
372.050; 1242.800;  -91.000; -156.000
372.181;  363.000; -188.000; -294.000
372.311;   85.400;   42.000; -127.000
372.442;  -59.800; -457.000; -451.000
372.573;  -58.250; -444.000; -340.000
372.704; -153.300;-1008.000; -980.000
372.835;  -32.675; -228.000; -289.000
372.966;  -93.500; -646.000; -554.000
373.097; -103.750; -575.000; -711.000
373.228; -106.300; -717.000; -542.000
373.359;  -64.225; -824.000; -536.000
373.490;  158.900; -881.000; -727.000
373.620;  241.300;-1001.000; -803.000
373.751;  492.975; -332.000; -396.000
373.882;  196.475; -663.000; -733.000
374.013;  -29.150; -449.000; -262.000
374.143;  -72.700; -581.000; -659.000
374.274; -134.975; -987.000; -908.000
374.405;   41.325; -388.000; -276.000
374.536;   90.300; -526.000; -387.000
374.666;  257.650; -759.000; -807.000
374.797;  -33.000; -817.000; -868.000
374.928;  151.675; -710.000; -560.000
375.058;  175.175; -535.000; -500.000
375.189;   -7.300;  -59.000;  -93.000
375.320; -132.750; -928.000;-1034.000
375.450;  -56.625; -625.000; -616.000
375.581;  -56.650; -526.000; -436.000
375.712;  -63.200; -574.000; -250.000
375.842;    7.500; -438.000; -415.000
375.973;  -20.225; -554.000; -513.000
376.103; -118.675; -665.000; -648.000
376.234; -103.600; -531.000; -552.000
376.364; -130.500; -944.000; -867.000
376.495;  129.525;  925.000;  529.000
376.625;  -58.950; -472.000; -485.000
376.756;  -83.450; -709.000; -678.000
376.886; -144.850;-1178.000;-1026.000
377.017;  136.300;-1048.000;-1061.000
377.147;  647.200; -786.000; -782.000
377.278;   76.500;  174.000;  228.000
377.408; -138.950; -801.000; -815.000
377.538; -115.350; -707.000; -693.000
377.669;  -89.325; -537.000; -613.000
377.799; -114.500; -645.000; -635.000
377.929;  -87.575; -610.000; -428.000
378.060; -127.475; -781.000; -847.000
378.190;  -50.125; -726.000; -531.000
378.320;  -59.175; -401.000; -406.000
378.451;  -36.750; -131.000;  -22.000
378.581;  -27.875;  -67.000; -110.000
378.711;   75.275; 1035.000;  866.000
378.841;  -76.450; -533.000; -675.000
378.972; -117.225; -871.000; -751.000
379.102;  -67.975; -652.000; -579.000
379.232;  -52.575; -126.000;  -73.000
379.362; -128.675;-1001.000; -885.000
379.492;  -64.550; -373.000; -424.000
379.623;   20.325;    0.000;  111.000
379.753; -140.125;-1107.000; -974.000
379.883;   73.625;   59.000;  156.000
380.013;  -96.200;-1081.000;-1017.000
380.143; -125.125;-1097.000;-1056.000
380.273; -105.950; -985.000; -861.000
380.403;   -5.925; -344.000; -257.000
380.533;  -56.325; -651.000; -664.000
380.663;   -3.425;  173.000;  128.000
380.793; -160.675;-1027.000;-1074.000
380.923;  -41.125; -103.000;  -34.000
381.053; -109.825; -613.000; -623.000
381.183;  -55.675; -106.000; -248.000
381.313;  -77.525; -656.000; -470.000
381.443;  -55.275; -692.000; -473.000
381.573;  -50.050; -402.000; -409.000
381.703;  -98.325;-1249.000;-1095.000
381.833; -191.500;-1454.000;-1336.000
381.963;    5.875; -134.000;  -87.000
382.093;  385.275; -925.000; -909.000
382.223;   89.225; -713.000; -602.000
382.353;  -87.925; -801.000; -608.000
382.482;   -7.675;-1091.000; -964.000
382.612;  159.350; -872.000; -644.000
382.742;   64.850; -695.000; -622.000
382.872;  -25.475; -565.000; -551.000
383.002;    4.175;  347.000; -132.000
383.131;  -34.375; -226.000; -160.000
383.261;  -42.650; -706.000; -768.000
383.391;  315.050; -552.000; -377.000
383.521; 5096.500;  451.000;  263.000
383.650; 1525.050; -947.000; -904.000
383.780;   41.325; -783.000; -656.000
383.910;   80.500;  880.000;  802.000
384.039;  -90.475; -794.000; -656.000
384.169; -107.200;-1205.000;-1017.000
384.299;  -97.075; -650.000; -662.000
384.428; -123.325; -764.000; -680.000
384.558;  -57.475; -308.000; -275.000
384.687;  -93.475; -414.000; -334.000
384.817;  -16.400;   75.000;   -2.000
384.947;  -43.350; -234.000; -141.000
385.076;  140.600;  982.000;  912.000
385.206;   47.500;  369.000;  480.000
385.335;  -79.025; -549.000; -417.000
385.465; -126.375; -655.000; -663.000
385.594;    5.950;  -53.000;  -44.000
385.724;   20.700; -868.000; -838.000
385.853;  -10.250; -296.000; -270.000
385.982;  323.175; -743.000; -787.000
386.112;  642.250;-1052.000; -871.000
386.241;   -8.825; -307.000; -312.000
386.371;  -30.700; -174.000;  -87.000
386.500;  -71.400; -825.000; -789.000
386.629;  -18.950; -874.000; -817.000
386.759;   64.500;  -43.000;   68.000
386.888;  -53.500; -170.000; -250.000
387.017; -112.125; -648.000; -620.000
387.147; -130.250; -771.000; -798.000
387.276;  -75.850; -410.000; -397.000
387.405;  -48.950; -398.000; -342.000
387.535;  -93.200; -452.000; -361.000
387.664;  -72.900; -692.000; -620.000
387.793;  -18.325; -198.000; -113.000
387.922;  141.100;  255.000;  200.000
388.052;  -69.500; -576.000; -423.000
388.181;  -66.800; -342.000; -472.000
388.310; -110.275; -889.000; -710.000
388.439; -107.275; -749.000; -742.000
388.568;   29.675;  365.000;  244.000
388.697;  241.900; -756.000; -653.000
388.826;  -23.175; -768.000; -666.000
388.956;  -47.225; -285.000; -307.000
389.085;  -60.175; -347.000; -287.000
389.214; -123.250; -842.000; -872.000
389.343;  -72.050; -645.000; -413.000
389.472;  527.750;  126.000;  149.000
389.601;  625.350;   91.000;    0.000
389.730;  -32.175; -568.000; -687.000
389.859;   15.025;  226.000;   46.000
389.988;    3.725; -423.000; -408.000
390.117;   26.950; -168.000; -146.000
390.246;  -67.900; -331.000; -320.000
390.375;  -73.550; -673.000; -626.000
390.504; -101.525; -703.000; -621.000
390.633; -127.175; -672.000; -726.000
390.761; -109.725; -732.000; -645.000
390.890;  -45.600;   -4.000; -130.000
391.019;  -78.050; -421.000; -441.000
391.148; -138.475; -826.000; -855.000
391.277; -104.650; -576.000; -493.000
391.406; -115.825; -821.000; -805.000
391.534;   -6.500;  574.000; -301.000
391.663;  -96.750; -583.000; -645.000
391.792; -115.725; -673.000; -701.000
391.921;  -24.075;   -3.000;   15.000
392.050;  -10.650; -287.000; -228.000
392.178; -138.925;-1206.000;-1061.000
392.307;  -46.350; -758.000; -712.000
392.436;  -56.100; -427.000; -641.000
392.564;   -4.900;  166.000;   -6.000
392.693; -118.425; -860.000; -682.000
392.822;   -8.550; -529.000; -534.000
392.950;  -53.325; -880.000; -714.000
393.079;   46.500; -188.000; -328.000
393.208;  -58.575; -488.000; -511.000
393.336;  -44.450; -170.000; -145.000
393.465;  -48.925; -317.000; -199.000
393.593;  -18.200;   62.000;   79.000
393.722; -158.675;-1121.000; -916.000
393.850;  -35.000; -188.000;  -61.000
393.979; -154.700; -926.000; -805.000
394.107;  -74.675; -517.000; -537.000
394.236;  -64.725; -570.000; -507.000
394.364;   93.950;  383.000;  206.000
394.493;   51.250; -911.000; -767.000
394.621;  -21.675; -955.000; -916.000
394.750; 1130.625; -873.000; -923.000
394.878; 4429.875; -247.000; -149.000
395.007; 6416.150; -721.000; -807.000
395.135;  572.750; -790.000; -721.000
395.263;  -61.900;-1038.000;-1040.000
395.392;   -9.900;  -25.000; -107.000
395.520; -138.275; -818.000; -679.000
395.648; -136.125; -865.000; -915.000
395.777;  -76.075; -366.000; -405.000
395.905;  -84.300; -449.000; -564.000
396.033;  -27.125;  217.000;  172.000
396.162;  108.650; -399.000; -453.000
396.290;  104.175;  -17.000;   -2.000
396.418;  -66.250; -555.000; -514.000
396.546;  -99.025; -571.000; -466.000
396.674; -134.450; -850.000; -878.000
396.803;  -22.900;  -72.000;  -23.000
396.931;  -34.175; -179.000; -199.000
397.059; -139.275;-1026.000; -989.000
397.187; -149.925;-1026.000; -975.000
397.315; -152.925; -884.000; -649.000
397.443; -103.475; -592.000; -443.000
397.572; -111.125; -578.000; -424.000
397.700; -112.200; -607.000; -614.000
397.828;  -36.475;  120.000;  -90.000
397.956;  -43.800; -508.000; -478.000
398.084;  -41.525; -767.000; -626.000
398.212;  -10.775;  137.000;  124.000
398.340;  -27.375;  -56.000;  159.000
398.468;  -66.550; -390.000; -169.000
398.596; -159.225; -993.000; -953.000
398.724; -131.000; -762.000; -767.000
398.852; -165.300;-1024.000; -976.000
398.980;  -95.950; -560.000; -560.000
399.108; -106.225; -982.000; -735.000
399.236;  -33.200;   13.000;    8.000
399.363;    0.525;  222.000;  196.000
399.491;  -67.200; -404.000; -398.000
399.619; -127.650; -829.000; -800.000
399.747; -116.775; -859.000; -771.000
399.875;   25.275;  220.000;  234.000
400.003;  -76.700; -359.000; -284.000
400.130;  -92.250; -421.000; -341.000
400.258;  -38.025;  -83.000;   38.000
400.386;  -70.000; -352.000; -168.000
400.514;  -99.600; -526.000; -587.000
400.641; -162.400; -928.000; -802.000
400.769; -167.350; -979.000; -888.000
400.897; -138.125; -838.000; -793.000
401.025;  -38.925; -166.000; -152.000
401.152;  -38.275;  220.000;   38.000
401.280;  -99.700; -430.000; -429.000
401.408; -121.450; -712.000; -576.000
401.535; -113.950; -735.000; -758.000
401.663; -206.900;-1134.000;-1054.000
401.790;  -98.400; -514.000; -525.000
401.918;   17.025;  436.000;  405.000
402.046;  -20.375;  134.000;  122.000
402.173;  -37.375;  -18.000;    7.000
402.301;  -93.850; -519.000; -397.000
402.428;   28.350;  528.000;  383.000
402.556; -166.275;-1188.000; -913.000
402.683;  -66.825;  -20.000;   -1.000
402.811;  -44.925;  -37.000; -206.000
402.938;  -25.925;   20.000;   27.000
403.066;  -16.975; -574.000; -558.000
403.193;   92.950;  299.000;  239.000
403.321;   33.225; -396.000; -574.000
403.448;  116.125;   83.000;   27.000
403.575;   32.775;  -90.000;  -46.000
403.703; -110.175; -732.000; -557.000
403.830;  -55.350; -531.000; -496.000
403.957; -137.925;-1117.000;-1023.000
404.085;   21.600;  -61.000; -172.000
404.212;  108.425;  -50.000;   63.000
404.339;  417.050; -566.000; -306.000
404.467; 8893.550; -612.000; -524.000
404.594; 5423.075; -287.000; -227.000
404.721;  919.475; -869.000; -764.000
404.848;   87.700; -113.000; -202.000
404.976; -112.325; -856.000; -783.000
405.103;  -20.300;  -14.000;  -82.000
405.230;   -7.575;  190.000;  226.000
405.357;   31.875;  117.000;   44.000
405.484;  406.525;  -49.000;    5.000
405.612;  104.450; -548.000; -563.000
405.739;  -62.900; -488.000; -243.000
405.866;   63.675;  669.000;  385.000
405.993;  -58.375; -398.000; -102.000
406.120; -137.775; -801.000; -887.000
406.247;  -79.300; -323.000; -342.000
406.374;   91.000;  540.000;  629.000
406.501;  -89.600; -632.000; -702.000
406.628; -108.800; -621.000; -589.000
406.755; -130.600; -803.000; -620.000
406.882;  -76.150; -228.000; -277.000
407.009; -117.475; -719.000; -628.000
407.136;  -46.650; -480.000; -401.000
407.263;  -83.600; -939.000; -829.000
407.390;  -92.825; -692.000; -614.000
407.517; -192.875;-1139.000;-1187.000
407.644;  -66.775; -332.000; -256.000
407.771; -146.850; -249.000; -287.000
407.898;  -20.350;  168.000;  328.000
408.025;  -82.425; -421.000; -313.000
408.151;  -29.425;   82.000;  153.000
408.278;  -83.625; -267.000; -216.000
408.405; -141.350; -931.000; -899.000
408.532;  -93.925; -549.000; -542.000
408.659; -120.125; -677.000; -648.000
408.785; -196.675;-1298.000;-1170.000
408.912;  -80.250; -412.000; -296.000
409.039; -117.475; -610.000; -686.000
409.166; -116.500; -591.000; -555.000
409.292; -118.325; -571.000; -534.000
409.419; -128.425; -665.000; -649.000
409.546;  -90.350; -431.000; -192.000
409.672; -109.475; -713.000; -545.000
409.799;  -40.725;  -36.000;   34.000
409.926;  -69.475; -180.000; -179.000
410.052; -181.500;-1127.000;-1091.000
410.179;  -93.075; -368.000; -392.000
410.305; -107.975; -375.000; -493.000
410.432;  -52.600; -220.000; -333.000
410.558;  -96.225; -305.000; -380.000
410.685; -109.300; -688.000; -431.000
410.812; -116.450; -409.000; -588.000
410.938; -150.150; -964.000; -808.000
411.065; -106.275; -671.000; -645.000
411.191;  -44.600; -189.000; -174.000
411.317; -136.950; -823.000; -742.000
411.444;  -78.425; -317.000; -246.000
411.570;  -88.775; -339.000; -294.000
411.697; -116.400; -758.000; -752.000
411.823; -185.450; -989.000; -999.000
411.949;  -50.800;  -56.000;   17.000
412.076; -109.325; -539.000; -519.000
412.202; -134.125; -758.000; -757.000
412.329; -155.850; -798.000; -752.000
412.455; -124.875; -821.000; -657.000
412.581;  -39.050;  -15.000;  172.000
412.707;  -91.500; -540.000; -457.000
412.834;  -17.875;  156.000;  219.000
412.960; -124.725; -785.000; -784.000
413.086; -116.500; -743.000; -701.000
413.212;  110.575;  604.000;  578.000
413.339; -112.900; -685.000; -701.000
413.465;  -57.300; -364.000; -310.000
413.591; -120.800; -757.000; -474.000
413.717;  -74.600; -358.000; -366.000
413.843; -147.775; -839.000; -861.000
413.969;  -61.325;  -47.000; -292.000
414.096; -102.350; -679.000; -679.000
414.222;   -4.025;  -33.000;   85.000
414.348;  -85.475; -652.000; -385.000
414.474;    9.375;   38.000;  -52.000
414.600;  -17.825; -126.000; -144.000
414.726;  -18.500;  -96.000;  -55.000
414.852;  -59.275; -365.000; -342.000
414.978;   21.600;  104.000;  -18.000
415.104;   55.350;   38.000;   80.000
415.230;   36.275; -329.000; -330.000
415.356;   59.025; -409.000; -514.000
415.482;  216.125;   13.000;  -35.000
415.608;  412.850; -247.000; -323.000
415.734; 1303.700;   67.000;   38.000
415.860;26930.900; -875.000; -767.000
415.986;22288.725; -685.000; -607.000
416.111; 2084.575; -798.000; -652.000
416.237;  451.175; -424.000; -571.000
416.363; 1628.925; -765.000; -733.000
416.489; 6696.575; -324.000; -251.000
416.615;  909.475; -707.000; -742.000
416.741;   41.450; -677.000; -784.000
416.866;  -46.850; -673.000; -736.000
416.992; -107.425; -801.000; -818.000
417.118;  -22.250;  -41.000;  -80.000
417.244;  -85.750; -798.000; -531.000
417.369;  -92.050; -801.000; -612.000
417.495;  -30.450; -325.000; -254.000
417.621;  -97.350;-1015.000; -803.000
417.746;   -1.250; -579.000; -572.000
417.872;   61.850; -254.000; -144.000
417.998;  119.475; -515.000; -530.000
418.123; 1534.125;-1073.000; -845.000
418.249; 8436.100; -512.000; -601.000
418.374; 1414.725; -916.000; -824.000
418.500;  229.700; -383.000; -482.000
418.626;  170.575;   70.000;  -59.000
418.751;  145.850; -549.000; -448.000
418.877;  298.675; -637.000; -643.000
419.002; 2524.700; -688.000; -560.000
419.128;19240.300; -930.000; -721.000
419.253; 5451.775; -967.000; -837.000
419.379;  740.100; -391.000; -338.000
419.504;  586.400;  325.000;  415.000
419.629;  805.975; -393.000; -212.000
419.755; 5330.225; -317.000; -254.000
419.880;34676.350;  -98.000;   67.000
420.006;17289.325; -280.000; -221.000
420.131;42968.925; -662.000; -775.000
420.256; 6975.125; -315.000; -316.000
420.382;  947.950; -665.000; -687.000
420.507;  144.825; -649.000; -778.000
420.632;   37.600; -337.000; -339.000
420.758;   23.150; -251.000; -425.000
420.883; -100.175; -876.000; -672.000
421.008; -121.475; -775.000; -619.000
421.133; -106.200; -509.000; -467.000
421.259;  -57.500; -325.000; -259.000
421.384; -131.325; -834.000; -693.000
421.509; -132.200;-1052.000; -862.000
421.634;  133.675; -936.000; -820.000
421.759;   53.700; -359.000; -327.000
421.885; -105.000; -717.000; -656.000
422.010;  -96.475; -673.000; -542.000
422.135; -153.250; -695.000; -727.000
422.260;    1.875;  340.000;  280.000
422.385;  -58.000;   12.000;  -98.000
422.510;  -24.350;  151.000;  -26.000
422.635;  -32.950;  -87.000;  -43.000
422.760;  -29.225; -766.000; -791.000
422.885;   17.950;  -57.000;  -80.000
423.010;  -46.450; -112.000; -169.000
423.135; -105.175; -481.000; -561.000
423.260;  -49.325; -150.000; -245.000
423.385;   26.525;  476.000;  222.000
423.510;   -1.775;   71.000;  -22.000
423.635;    6.950;  133.000;   45.000
423.760;   39.300;  383.000;  328.000
423.885;   30.550;  336.000;  391.000
424.010;    4.600;  -68.000;  -13.000
424.135;  -38.100;    5.000;  -33.000
424.259;  -95.675; -654.000; -457.000
424.384;  -57.925; -279.000; -272.000
424.509;  -28.250; -260.000; -186.000
424.634;  -79.200; -761.000; -623.000
424.759;  -38.375; -688.000; -544.000
424.883;   -2.000; -506.000; -527.000
425.008;  184.350; -502.000; -410.000
425.133; 2815.675; -679.000; -653.000
425.258; 1517.625; -517.000; -381.000
425.382;  488.575; -867.000; -774.000
425.507; 1127.900; -487.000; -543.000
425.632;  377.200; -802.000; -663.000
425.756;  699.575; -256.000; -146.000
425.881;10125.800; -831.000; -857.000
426.006;31132.550; -604.000; -355.000
426.130; 5106.675; -696.000; -508.000
426.255;  685.875; -611.000; -491.000
426.379;  289.325; -189.000; -577.000
426.504;  483.300;  660.000;  544.000
426.629; 5580.675; -519.000; -466.000
426.753; 4311.325;   64.000;  -46.000
426.878;  528.650; -252.000; -288.000
427.002;  297.200; -651.000; -668.000
427.127; 2094.525;  -35.000; -158.000
427.251;17120.925;  372.000;  401.000
427.375; 5532.275; -191.000; -173.000
427.500; 1297.575; -616.000; -610.000
427.624;  394.050; -234.000; -400.000
427.749;   79.175; -216.000; -225.000
427.873;  -28.300; -499.000; -412.000
427.997;  -47.400; -222.000; -230.000
428.122;   49.875;  795.000;  703.000
428.246;   18.200;  433.000;  434.000
428.371; -150.075; -869.000; -773.000
428.495; -105.725; -624.000; -646.000
428.619;  -52.850; -186.000; -117.000
428.743;   -2.725;   65.000;  132.000
428.868;  -85.200; -732.000; -643.000
428.992;  458.350; -219.000; -326.000
429.116;  172.575; -329.000; -357.000
429.240;   95.150;  419.000;  426.000
429.365;  -49.100; -454.000; -574.000
429.489;  -65.375; -638.000; -647.000
429.613;   15.300; -236.000; -177.000
429.737;   88.450; -563.000; -432.000
429.861;  359.100; -247.000; -133.000
429.985; 7800.400; -425.000; -305.000
430.109; 9967.875; -770.000; -908.000
430.234; 1211.675;   76.000;  -50.000
430.358;  137.575; -250.000; -160.000
430.482;  -46.975; -672.000; -564.000
430.606;  -78.025; -655.000; -375.000
430.730;  -65.925; -437.000; -388.000
430.854; -104.000; -909.000; -835.000
430.978; -110.175; -795.000; -764.000
431.102; -102.975; -499.000; -422.000
431.226; -131.975; -874.000; -815.000
431.350;   14.700;  345.000;  422.000
431.474; -100.425; -661.000; -373.000
431.597; -158.575;-1060.000; -848.000
431.721;  -74.275; -276.000; -267.000
431.845; -130.100; -704.000; -472.000
431.969;  -73.175; -304.000; -349.000
432.093;  -77.850; -395.000; -317.000
432.217;  -31.925;   32.000;   82.000
432.341;  -89.050; -523.000; -518.000
432.464;  -17.175;   96.000;   40.000
432.588;  -38.825; -401.000; -329.000
432.712;   14.725;  -52.000;  -52.000
432.836;   57.325;  213.000;  263.000
432.959;    7.700; -372.000; -311.000
433.083;  142.675;   11.000;    2.000
433.207;  557.825;  285.000;  930.000
433.330; 7512.500; -391.000; -200.000
433.454;10473.475; -654.000; -638.000
433.578; 5761.625;  583.000;  278.000
433.701; 1236.875; -623.000; -675.000
433.825;  137.650; -292.000; -299.000
433.949;   53.600;   28.000;  -72.000
434.072;  -34.925; -410.000; -323.000
434.196;  -19.925; -309.000; -117.000
434.319; 3470.950;25482.000;25124.000
434.443;  849.650; -656.000; -603.000
434.566; 4069.875;  281.000;   62.000
434.690;  878.325; -637.000; -383.000
434.813;  131.125; -251.000; -173.000
434.937;  -52.950; -569.000; -696.000
435.060;  -90.225; -423.000; -332.000
435.184;  -26.000; -492.000; -217.000
435.307;    0.950;  159.000;  102.000
435.431;  -38.200;  -40.000;   24.000
435.554;  -95.000; -399.000; -240.000
435.677;  -92.750; -350.000; -258.000
435.801;  -60.050;  -25.000;   49.000
435.924;  -47.775;    1.000;  -67.000
436.048; -141.950;-1019.000; -732.000
436.171;  -76.225; -240.000;  -66.000
436.294;  -18.950; -248.000; -229.000
436.417;  207.550; -963.000; -849.000
436.541;  -24.475; -814.000; -840.000
436.664;  -53.850; -242.000; -316.000
436.787;  -43.650;   13.000;  113.000
436.910; -134.600; -792.000; -422.000
437.034;  -25.150;  142.000;  143.000
437.157;  -15.200;  -11.000;    0.000
437.280;  -92.900; -392.000; -292.000
437.403; -144.400; -982.000; -869.000
437.526;  -17.675; -903.000; -865.000
437.649;  395.900; -505.000; -332.000
437.772;  -17.000; -692.000; -540.000
437.896;   48.150;  700.000;  544.000
438.019; -111.850; -758.000; -503.000
438.142; -106.700; -596.000; -506.000
438.265; -125.350; -639.000; -670.000
438.388;    0.725; -520.000; -410.000
438.511;  -77.900; -597.000; -394.000
438.634;  -91.800; -247.000; -125.000
438.757; -145.300; -693.000; -619.000
438.880;  -61.600;  -34.000;  -57.000
439.003; -116.725; -417.000; -437.000
439.126;  -78.325; -287.000; -167.000
439.248;  -67.900;  -98.000; -139.000
439.371;  -56.275;    9.000;  -53.000
439.494;   14.050;  510.000;  439.000
439.617;  -62.650;   65.000;  -88.000
439.740; -191.450; -968.000; -816.000
439.863; -143.175; -755.000; -595.000
439.986; -121.000; -476.000; -431.000
440.108;  -50.125; -161.000; -112.000
440.231; -186.475; -950.000; -836.000
440.354;  -70.775;  -64.000; -150.000
440.477; -113.750; -566.000; -542.000
440.599;  -91.500; -200.000; -225.000
440.722; -130.400; -709.000; -586.000
440.845;   47.775;  751.000;  928.000
440.968; -113.700; -415.000; -311.000
441.090;  -63.450; -199.000;  -33.000
441.213; -177.350;-1021.000; -825.000
441.336;  -68.875; -159.000;   -5.000
441.458; -102.625; -549.000; -396.000
441.581; -130.775; -628.000; -629.000
441.703;  -85.625; -152.000;   13.000
441.826; -127.750; -557.000; -400.000
441.948;  -60.250;   56.000;   51.000
442.071;   10.225;  555.000;  424.000
442.193; -118.125; -531.000; -485.000
442.316;  -17.875;  152.000;   97.000
442.438;   65.925; -233.000;  -10.000
442.561;   58.150;  272.000;  262.000
442.683;   26.850; -809.000; -522.000
442.806;  212.150;   -8.000;   74.000
442.928; -112.400; -859.000; -604.000
443.051;  -93.250; -577.000; -373.000
443.173; -104.425; -341.000; -339.000
443.295;  -96.750; -263.000; -371.000
443.418;  -82.475; -321.000;  -29.000
443.540;  -56.400; -106.000;   -4.000
443.662; -136.750; -563.000; -465.000
443.785;  -16.625;  335.000;  199.000
443.907;  -95.175; -362.000; -208.000
444.029; -138.250; -767.000; -494.000
444.152; -157.075; -644.000; -554.000
444.274;  -54.550;  -18.000;  -24.000
444.396; -127.250; -461.000; -221.000
444.518; -154.050; -691.000; -454.000
444.640; -100.375; -268.000; -111.000
444.763;  -38.925;  388.000;  249.000
444.885; -123.725; -432.000; -392.000
445.007;  -43.500;   35.000;   86.000
445.129; -125.350; -610.000; -515.000
445.251; -133.400; -372.000; -439.000
445.373; -141.175; -537.000; -386.000
445.495;  -18.850;  242.000;  350.000
445.617;   32.400;  853.000;  753.000
445.739; -102.275; -215.000;  -97.000
445.861;  -64.675; -245.000; -112.000
445.984;  -70.275; -267.000; -101.000
446.105;  -30.575; -418.000; -251.000
446.227;   84.750; -176.000;  -19.000
446.349;  -92.250; -358.000; -249.000
446.471; -127.325; -615.000; -448.000
446.593;  -89.325; -316.000;   19.000
446.715;  -42.675;  -67.000;   41.000
446.837;   49.200;  697.000;  832.000
446.959; -115.750; -457.000; -478.000
447.081; -144.300; -628.000; -518.000
447.203;   19.850;  862.000;  834.000
447.325;  -97.575; -270.000;   42.000
447.446;  -27.150;  286.000;  530.000
447.568; -159.725; -921.000; -803.000
447.690;  -90.150; -236.000; -245.000
447.812; -154.475; -798.000; -519.000
447.933;  -36.300;  155.000;  127.000
448.055;  -75.775; -306.000; -261.000
448.177;   15.075;   31.000;   79.000
448.299; -114.900; -935.000; -727.000
448.420;  -20.825;  -25.000;  159.000
448.542;  -71.975;   -3.000;   33.000
448.664;  -38.900;  109.000;  322.000
448.785;  -42.100;  265.000;   83.000
448.907; -117.600; -614.000; -353.000
449.028; -112.125; -771.000; -471.000
449.150;   31.675;  492.000;  589.000
449.272; -184.125;-1044.000; -913.000
449.393;   23.750;  612.000;  694.000
449.515; -147.825; -634.000; -581.000
449.636;  -85.850; -264.000; -155.000
449.758;   24.875;  763.000;  622.000
449.879; -103.475; -498.000; -396.000
450.001;  -76.675; -149.000;  -49.000
450.122;  -50.725;  -95.000;  162.000
450.244;  -22.625;   37.000;  364.000
450.365;  -76.100; -495.000; -301.000
450.486;  -20.075;   80.000;  268.000
450.608;   37.750;  393.000;  326.000
450.729;  107.275;  578.000;  645.000
450.850;   85.375; -574.000; -466.000
450.972; 1222.750; -552.000; -389.000
451.093; 7861.225;  190.000;  588.000
451.214; 4086.600; -516.000; -337.000
451.336;  695.525;  773.000;  579.000
451.457;  104.325;  264.000;  393.000
451.578;  -32.250; -118.000;  -74.000
451.699; -115.625; -546.000; -540.000
451.821;  -67.650; -284.000;  -50.000
451.942;   -4.175;  278.000;  285.000
452.063;   56.150;  228.000;  419.000
452.184;  788.550;  -54.000;  -49.000
452.305; 1690.800;  103.000;  170.000
452.427;  325.175; -549.000; -301.000
452.548;    8.375;   23.000;   79.000
452.669;  -69.675; -257.000;  -89.000
452.790;  -66.375;    3.000;  -18.000
452.911;  -17.350;  195.000;  259.000
453.032;  -80.950; -289.000;  -60.000
453.153;  -64.850;  -29.000;   81.000
453.274;   46.200;  737.000;  868.000
453.395;  -76.475;  -51.000;  175.000
453.516;   89.725; 1317.000; 1388.000
453.637;  -99.600; -205.000; -150.000
453.758;  -56.375;   15.000;   69.000
453.879; -120.925; -462.000; -250.000
454.000;   53.950; 1086.000;  948.000
454.121; -126.700; -554.000; -326.000
454.242; -124.425; -599.000; -383.000
454.362;  -51.800;  -99.000;  114.000
454.483;  -27.800; -309.000; -229.000
454.604;   50.125;  512.000;  580.000
454.725; -134.400; -627.000; -555.000
454.846; -121.300; -474.000; -406.000
454.967;  -43.500;  230.000;  539.000
455.087;  -50.725;  179.000;  153.000
455.208;    4.750;  554.000;  856.000
455.329;  -57.475;  -22.000;   82.000
455.450;   64.125;  473.000;  633.000
455.570;  -60.575; -234.000; -211.000
455.691;  -44.500;  201.000;  407.000
455.812; -112.175; -270.000;  -92.000
455.932;  -72.375;  107.000;  -97.000
456.053;  -74.775;   36.000;   24.000
456.173; -109.750; -433.000; -355.000
456.294; -134.650; -476.000; -303.000
456.415;  -89.375;  -73.000;   70.000
456.535;  -40.000;  297.000;  273.000
456.656;  -46.075;  132.000;  240.000
456.776;  -72.875;    3.000;  298.000
456.897;   -8.075;  308.000;  513.000
457.017;  -67.000; -153.000;   -3.000
457.138; -121.025; -402.000; -249.000
457.258;  -50.100;  263.000;  224.000
457.379;  -32.925;  509.000;  521.000
457.499;  -33.500;  443.000;  432.000
457.620; -120.550; -407.000; -231.000
457.740; -108.625; -132.000;  -11.000
457.860;  -62.275;   87.000;   44.000
457.981;  -48.125;  132.000;  124.000
458.101;  -86.125;  -89.000;   40.000
458.221;  -22.125;  336.000;  402.000
458.342;  -57.150;   -4.000;  -37.000
458.462;   42.150;  617.000;  352.000
458.582;   27.125; -302.000; -294.000
458.703;   52.875;  303.000;  154.000
458.823;   13.950;   22.000;  163.000
458.943;   37.225;  341.000;  467.000
459.063;   14.075; 1124.000;  192.000
459.183;  -27.600;  328.000;  313.000
459.304;    3.150;  315.000;  517.000
459.424;  -50.200; -246.000;  -89.000
459.544;  458.950;  388.000;  764.000
459.664; 1273.625;  499.000;  506.000
459.784;  523.125; 1004.000; 1175.000
459.904;   80.475;  867.000;  744.000
460.024;   46.600;  867.000;  684.000
460.144;  -10.525;  449.000;  554.000
460.264;  -14.325;  515.000;  327.000
460.385; -107.350; -145.000; -119.000
460.505;   21.000;  905.000;  858.000
460.625;  -83.775;  -17.000;  -68.000
460.745;  -21.475;  396.000;  541.000
460.864;  -49.300;  153.000;  469.000
460.984;   23.600;  499.000;  573.000
461.104;  130.125; 1656.000; 1775.000
461.224;   16.975;  657.000;  650.000
461.344;  -38.925;  431.000;  360.000
461.464;  -45.725;  258.000;  513.000
461.584;  -27.100;  283.000;  466.000
461.704;  -65.925;   58.000;  108.000
461.824;  -44.300;  238.000;  259.000
461.943;  -58.900;  191.000;  130.000
462.063;  -82.675;    2.000;  324.000
462.183;    8.525;  639.000;  717.000
462.303;   77.875; 1678.000; 1230.000
462.422;   27.250;  781.000;  840.000
462.542;  -37.125;  271.000;  391.000
462.662;   30.650;  353.000;  380.000
462.782;  330.500;  833.000;  572.000
462.901;  735.125;  545.000;  717.000
463.021;  377.050; 1702.000; 1638.000
463.141;    9.850;  337.000;  770.000
463.260;  -16.400;  614.000;  474.000
463.380;   11.950;  902.000;  884.000
463.499;  -49.600;  342.000;  332.000
463.619;  -34.750;  581.000;  559.000
463.738;   93.400; 1644.000;  903.000
463.858;   14.400;  657.000;  811.000
463.978;  -38.375;  542.000;  396.000
464.097;   48.525;  921.000; 1114.000
464.217;  154.675; 1196.000; 1143.000
464.336;  142.575; 1068.000; 1130.000
464.455;  -35.325;  328.000;  659.000
464.575;   20.625;  597.000;  602.000
464.694;  117.450; 1204.000; 1179.000
464.814;  145.100; 1190.000; 1138.000
464.933;   85.075; 1095.000; 1027.000
465.052;   75.950; 1412.000; 1054.000
465.172;   60.950;  922.000;  799.000
465.291;  121.950; 1376.000; 1320.000
465.410;    0.750;  462.000;  735.000
465.530;   79.475; 1355.000; 1310.000
465.649;   44.300; 1209.000; 1273.000
465.768;  133.475; 1673.000; 1508.000
465.888;   56.175;  941.000; 1174.000
466.007;   83.275; 1335.000; 1440.000
466.126;   -1.650;  721.000;  641.000
466.245;   33.075; 1176.000; 1187.000
466.364;   -2.300;  950.000; 1060.000
466.484;   44.325; 1024.000; 1213.000
466.603;   20.875; 1101.000; 1222.000
466.722;   86.950; 1490.000; 1769.000
466.841;   54.325; 1151.000; 1401.000
466.960;   35.925; 1069.000;  972.000
467.079;  133.700; 1971.000; 1786.000
467.198;   47.125; 1238.000; 1181.000
467.317;   94.825; 1768.000; 1162.000
467.436;   52.750; 1709.000; 1261.000
467.555;  122.150; 1796.000; 1746.000
467.674;   64.875; 1227.000; 1329.000
467.793;   42.850; 1376.000; 1374.000
467.912;   85.350; 1658.000; 1539.000
468.031;  112.900; 2038.000; 1930.000
468.150;  130.100; 1842.000; 1837.000
468.269;  180.200; 2313.000; 2090.000
468.388;  184.950; 2168.000; 2339.000
468.507;  253.850; 2884.000; 2903.000
468.626;  270.700; 2555.000; 2541.000
468.744;  136.475; 2018.000; 2174.000
468.863;  181.275; 2312.000; 2523.000
468.982;  100.475; 1503.000; 1555.000
469.101;  216.650; 2788.000; 2692.000
469.220;  150.600; 2333.000; 2176.000
469.338;  253.675; 2935.000; 3051.000
469.457;  195.850; 2719.000; 2545.000
469.576;  332.425; 3953.000; 3784.000
469.695;  236.800; 2877.000; 3066.000
469.813;  404.075; 4148.000; 4192.000
469.932;  386.700; 4255.000; 4485.000
470.051;  431.825; 4075.000; 4161.000
470.169; 1037.575; 4470.000; 4338.000
470.288; 1977.975; 4700.000; 4809.000
470.406; 1160.100; 5059.000; 5194.000
470.525;  676.225; 6101.000; 5787.000
470.644;  643.225; 6847.000; 6794.000
470.762;  784.775; 8397.000; 7873.000
470.881;  917.250; 8651.000; 8464.000
470.999; 1086.325; 9685.000; 9151.000
471.118; 1114.150;11174.000;10711.000

