
Integration time [ms]: 100.000
Averaging Nr. [scans]: 40
Smoothing Nr. [pixels]: 0
Data measured with spectrometer [name]: 2101012U2
Wave   ;Sample   ;Dark     ;Reference
[nm]   ;[counts] ;[counts] ;[counts] 

197.733;   73.825;  516.000;  404.000
197.879;  -81.375; -610.000; -634.000
198.025;  -46.425; -475.000; -420.000
198.171;  -75.975; -602.000; -612.000
198.317;  -21.450; -401.000; -316.000
198.463;  -51.225; -655.000; -404.000
198.609;   33.200;  181.000; -137.000
198.755;  -78.800; -644.000; -410.000
198.901;  -70.450; -505.000; -424.000
199.047;  -65.500; -615.000; -488.000
199.193;  -22.650; -230.000; -468.000
199.339;  -34.025; -222.000; -369.000
199.485;   49.575;  330.000;  271.000
199.631;   19.450;  227.000;  310.000
199.777;  -46.700; -466.000; -398.000
199.923;  -67.700; -610.000; -424.000
200.069;   -8.625; -141.000;  -58.000
200.215;   64.375;  128.000;  453.000
200.361;   46.200;  243.000;  477.000
200.507;  -59.825; -600.000; -373.000
200.653;  -20.150; -371.000; -194.000
200.798;  -26.400; -215.000; -125.000
200.944;    4.725; -146.000;  -41.000
201.090;   33.100;   61.000;  222.000
201.236;    5.050; -116.000; -158.000
201.382;  124.700;  874.000;  903.000
201.528;    8.325;  -58.000;  -48.000
201.674;  -46.950; -386.000; -293.000
201.819;  -63.025; -540.000; -439.000
201.965;  -78.200; -699.000; -447.000
202.111;  -29.725; -273.000; -226.000
202.257;  -41.400; -250.000; -238.000
202.402;   14.300;   13.000;  -36.000
202.548;  -35.925; -169.000; -116.000
202.694;   86.925;  410.000; -183.000
202.840;  -67.250; -603.000; -531.000
202.985;  -71.225; -681.000; -639.000
203.131; -108.625; -832.000; -666.000
203.277;  -20.925; -199.000; -262.000
203.423;  -45.625; -434.000; -520.000
203.568;  -34.900; -462.000; -237.000
203.714;  -65.500; -535.000; -542.000
203.860;  -82.525; -682.000; -641.000
204.005;   15.500;  112.000;  167.000
204.151;   79.650;  561.000;  556.000
204.296;  -47.750; -354.000; -221.000
204.442;  -72.400; -600.000; -547.000
204.588;  -80.975; -592.000; -579.000
204.733;   18.925;  178.000;  168.000
204.879; -131.950;-1018.000; -822.000
205.025;   17.075;  -99.000;  126.000
205.170;   -2.875;  -17.000;   94.000
205.316;   85.825;  438.000;  661.000
205.461;  -83.875; -698.000; -554.000
205.607;   99.150;  609.000;  665.000
205.752;  -82.650; -626.000; -551.000
205.898;  -48.725; -501.000; -391.000
206.043;  -60.050; -578.000; -506.000
206.189;  -43.450; -243.000; -285.000
206.334;   73.100;  554.000;  606.000
206.480;   80.075;  409.000;  239.000
206.625;  -85.000; -529.000; -552.000
206.771;  -49.325; -451.000; -373.000
206.916;  -34.675; -210.000; -537.000
207.062;  -77.500; -545.000; -591.000
207.207;  -64.500; -546.000; -443.000
207.353;   66.450;  185.000;  460.000
207.498;   14.225;  196.000;   85.000
207.643;  -44.450; -501.000; -370.000
207.789; -134.375;-1069.000; -910.000
207.934;  -92.175; -665.000; -713.000
208.080;  -24.800; -154.000;   66.000
208.225;   -0.050;  -22.000;  -57.000
208.370;  -99.150; -727.000; -619.000
208.516;  -75.275; -741.000; -487.000
208.661;  -34.450; -127.000;  -69.000
208.806;  -24.325; -165.000; -171.000
208.952; -125.675;-1044.000; -731.000
209.097;   79.650;  378.000;  349.000
209.242;  -51.100; -307.000; -382.000
209.387;   66.600;  392.000;  350.000
209.533;  -60.175; -321.000; -350.000
209.678;   83.425;  472.000;  543.000
209.823;  -50.150; -408.000; -310.000
209.969; -103.125; -860.000; -757.000
210.114; -110.900; -907.000; -719.000
210.259; -113.000; -939.000; -889.000
210.404;   -6.775; -171.000;  103.000
210.549;    9.025;  108.000;    3.000
210.695;  -16.375;   -3.000;  -95.000
210.840;   43.250;   94.000;   67.000
210.985;  -76.275; -484.000; -303.000
211.130;   77.500;  268.000;  406.000
211.275;   23.550;  207.000;  199.000
211.420;  -68.125; -300.000; -289.000
211.566;  -72.025; -536.000; -489.000
211.711;   19.175;  218.000;  157.000
211.856;  -66.950; -545.000; -519.000
212.001;    1.025;  151.000;   44.000
212.146;   23.100;  153.000;   49.000
212.291;  -19.900; -210.000; -186.000
212.436;  -34.625; -280.000;   -6.000
212.581;  -92.575; -685.000; -653.000
212.726;  -81.175; -487.000; -538.000
212.871;  -45.275; -552.000; -217.000
213.016; -144.500;-1172.000;-1029.000
213.161;   72.100;  406.000;  291.000
213.306;  -82.375; -435.000; -577.000
213.451;  -98.000; -778.000; -689.000
213.596;  -48.100; -455.000; -347.000
213.741;  -52.475; -448.000; -538.000
213.886;  -72.475; -498.000; -517.000
214.031;  -25.375; -294.000; -124.000
214.176;  -59.450; -408.000; -341.000
214.321;   -8.825; -296.000; -157.000
214.466;  -25.100; -163.000;  -43.000
214.611;    7.500;  -61.000;  -10.000
214.756; -120.775; -948.000; -858.000
214.901;  -29.375; -388.000; -226.000
215.046; -127.875; -797.000; -825.000
215.191;   12.450;  128.000;   35.000
215.336;  -22.075; -157.000;  -19.000
215.480;  -67.250; -684.000; -505.000
215.625;  -16.450; -175.000;  -19.000
215.770;  -88.225; -757.000; -662.000
215.915;   -7.125;   -5.000;  -97.000
216.060;    0.900; -113.000;  -21.000
216.205; -106.975; -731.000; -779.000
216.349;  -70.775; -470.000; -533.000
216.494; -122.300; -939.000; -867.000
216.639; -111.800; -823.000; -888.000
216.784;  -90.450; -577.000; -525.000
216.929;   48.500;  392.000;  281.000
217.073;  -10.325; -244.000;  -31.000
217.218;    3.375;   78.000;  -47.000
217.363;  -81.425; -656.000; -618.000
217.507;  -82.950; -623.000; -588.000
217.652; -130.025; -845.000; -874.000
217.797;  -79.700; -708.000; -659.000
217.942; -103.450; -856.000; -720.000
218.086;   88.975;  608.000;  539.000
218.231;  -26.575; -174.000;  -26.000
218.376;  -27.725; -337.000; -229.000
218.520;    8.750;  -41.000;   96.000
218.665;  -34.475; -338.000; -204.000
218.810;  -41.700; -275.000; -233.000
218.954;   38.850;  201.000;   35.000
219.099; -118.775; -713.000; -963.000
219.243;  -77.150; -589.000; -554.000
219.388;  -23.100; -264.000; -136.000
219.532;  -17.600; -116.000; -116.000
219.677;  -78.650; -564.000; -521.000
219.822;    2.875;   33.000;   89.000
219.966;    1.175;   17.000;  -99.000
220.111;  -33.800; -328.000;  -40.000
220.255;  -92.875; -797.000; -750.000
220.400;  -13.125; -180.000; -146.000
220.544;  -67.875; -516.000; -450.000
220.689;  -53.375; -422.000; -451.000
220.833;  -11.450; -123.000;  -58.000
220.978;  -46.675; -393.000; -563.000
221.122;   26.950;  319.000;  307.000
221.267; -104.500; -906.000; -837.000
221.411;  -65.475; -478.000; -394.000
221.555;   -7.525; -104.000;  -23.000
221.700;  -47.225; -329.000; -222.000
221.844;   38.650;  255.000;  272.000
221.989;  -51.575; -328.000; -311.000
222.133;  -37.750; -289.000; -307.000
222.277;    4.300;    5.000;   78.000
222.422;   14.000;  227.000;  113.000
222.566;  -47.500; -381.000; -214.000
222.711;  -62.825; -414.000; -479.000
222.855;  -88.850; -643.000; -586.000
222.999;  -83.575; -642.000; -717.000
223.144;  -29.625; -195.000; -194.000
223.288;   51.950;  423.000;  251.000
223.432;   22.750;  184.000;  230.000
223.576;   20.650;  152.000;  -21.000
223.721;   46.325;  364.000;  273.000
223.865;  -54.400; -472.000; -475.000
224.009;  257.475; 1673.000; 1631.000
224.153;  -83.300; -660.000; -671.000
224.298;  -67.575; -531.000; -489.000
224.442;  -20.850;  -74.000;  -33.000
224.586;  -16.500; -169.000; -106.000
224.730;  -96.475; -858.000; -670.000
224.875; -105.375; -739.000; -688.000
225.019;   20.425;  102.000;  188.000
225.163;   54.550;  208.000;  341.000
225.307;   18.925;   97.000;  -91.000
225.451;   38.450;  360.000;  481.000
225.595;   28.625;  264.000;  176.000
225.739;  -20.600; -170.000;  -94.000
225.884;    5.325;   86.000;    5.000
226.028; -101.800; -760.000; -626.000
226.172;  -39.375; -260.000; -273.000
226.316; -118.850; -941.000; -902.000
226.460;  -75.650; -645.000; -493.000
226.604;  -64.525; -406.000; -400.000
226.748; -102.725; -836.000; -733.000
226.892;  -38.225; -227.000; -181.000
227.036;  -47.250; -537.000; -447.000
227.180;  -65.025; -551.000; -375.000
227.324;  -71.075; -561.000; -580.000
227.468; -117.425; -819.000; -717.000
227.612;    9.825;  242.000;  -28.000
227.756; -109.550; -845.000; -698.000
227.900;   48.000;  342.000;  441.000
228.044;  -56.225; -509.000; -290.000
228.188;   63.825;  448.000;  568.000
228.332;  -81.125; -546.000; -472.000
228.476;  -26.550; -223.000; -149.000
228.620;  -36.125; -210.000; -150.000
228.764;   77.575;  431.000;  349.000
228.908;  -19.225; -155.000;   30.000
229.052;  -64.925; -615.000; -528.000
229.195;   -8.525; -172.000;   13.000
229.339;  -16.275; -235.000; -305.000
229.483;  -25.575;    5.000; -162.000
229.627;   -9.050; -156.000;  139.000
229.771;  -43.350; -218.000; -294.000
229.915;   15.775;  230.000;   79.000
230.059;  -87.175; -648.000; -663.000
230.202;  -35.425; -370.000; -317.000
230.346;  -20.800; -107.000;  107.000
230.490;  -65.050; -489.000; -521.000
230.634; -105.675; -736.000; -553.000
230.777;   94.200;  478.000;  509.000
230.921;  -69.375; -450.000; -359.000
231.065;  -34.125; -246.000; -286.000
231.209;   25.500;  261.000;  265.000
231.352;    9.525;   54.000;   40.000
231.496;   18.225;  568.000;  188.000
231.640;  -79.225; -693.000; -621.000
231.783;   62.300;  546.000;  525.000
231.927;  -49.650; -294.000; -365.000
232.071; -114.875; -962.000; -736.000
232.214; -108.150; -980.000; -764.000
232.358; -102.200; -683.000; -599.000
232.502;   11.950;  -19.000;    7.000
232.645; -144.150;-1090.000; -927.000
232.789;   -8.775; -257.000; -218.000
232.933;  -30.525; -407.000; -224.000
233.076; -116.000;-1038.000; -897.000
233.220;  -90.575; -752.000; -777.000
233.363;  -79.125; -669.000; -477.000
233.507;   49.575;  371.000;  129.000
233.650;  -95.525; -764.000; -834.000
233.794;   42.900;  438.000;  461.000
233.938;  -62.050; -530.000; -362.000
234.081;  -25.775;  -93.000;   31.000
234.225;  -65.500; -631.000; -539.000
234.368; -117.050; -773.000; -723.000
234.512;  -34.450; -385.000; -299.000
234.655;  -96.150; -582.000; -555.000
234.798;  -71.825; -493.000; -466.000
234.942; -124.925; -884.000;-1002.000
235.085;  -73.525; -651.000; -443.000
235.229;  -85.000; -405.000; -410.000
235.372;  -52.550; -247.000; -191.000
235.516;  -63.250; -397.000; -321.000
235.659;   30.625;   92.000;  121.000
235.802;  -14.300;  -38.000;  -22.000
235.946;   25.925;  335.000;  215.000
236.089;   26.225;  126.000;  250.000
236.233;   35.750;  275.000;  298.000
236.376;  -43.450; -235.000; -378.000
236.519;  -40.350; -297.000; -319.000
236.663;  -21.275; -215.000; -117.000
236.806; -126.100;-1029.000; -999.000
236.949;   47.825;  543.000;  431.000
237.092;   58.825;  412.000;  391.000
237.236;  -85.300; -589.000; -502.000
237.379;   62.250;  352.000;  428.000
237.522; -115.350; -879.000; -768.000
237.666;   -7.525; -271.000;   18.000
237.809; -124.050; -851.000; -823.000
237.952;   26.825;  469.000;  271.000
238.095;  -63.925; -447.000; -442.000
238.238;   88.925;  688.000;  700.000
238.382;    8.025;  166.000;  103.000
238.525;  -71.575; -598.000; -511.000
238.668; -134.275;-1060.000; -985.000
238.811;  -92.925; -638.000; -643.000
238.954;  -62.300; -483.000; -334.000
239.097;  103.825;  617.000;  664.000
239.241;   27.900;  394.000;  326.000
239.384;  -42.350; -254.000; -214.000
239.527;  -58.525; -424.000; -224.000
239.670; -152.625; -994.000;-1091.000
239.813; -108.125; -696.000; -658.000
239.956;   84.800;  579.000;  473.000
240.099; -112.675; -778.000; -725.000
240.242;   65.700;  428.000;  432.000
240.385;   49.750;  466.000;  450.000
240.528;  -71.125; -706.000; -473.000
240.671;   14.175;  189.000;  134.000
240.814;  -45.575; -441.000; -158.000
240.957; -107.200; -767.000; -578.000
241.100;  -89.125; -779.000; -755.000
241.243; -142.100;-1234.000; -893.000
241.386;  -60.275; -508.000; -379.000
241.529;  -81.850; -735.000; -547.000
241.672;  -67.850; -566.000; -495.000
241.815; -132.250; -832.000; -808.000
241.958;  -21.650; -125.000; -182.000
242.101;  -79.225; -545.000; -390.000
242.244;  -33.750; -270.000; -325.000
242.387;  -40.475; -304.000; -246.000
242.530;   70.500;  470.000;  134.000
242.673;  -46.900; -381.000; -309.000
242.815; -113.625; -925.000; -899.000
242.958;  -78.275; -482.000; -381.000
243.101;   20.625;  132.000;  187.000
243.244;  -82.600; -564.000; -521.000
243.387;  -45.975; -313.000; -316.000
243.530;  -89.000; -657.000; -674.000
243.672;   -2.200;   43.000;  -92.000
243.815;  -51.925; -355.000; -283.000
243.958;   -9.025;   98.000;  -26.000
244.101;  -10.225;   59.000;  -16.000
244.243;  -14.300;  -47.000;  101.000
244.386; -108.325; -761.000; -630.000
244.529;  -20.625; -132.000; -139.000
244.672; -161.325;-1154.000; -951.000
244.814;  -92.250; -621.000; -794.000
244.957;  -58.075; -380.000; -304.000
245.100;  -78.850; -489.000; -489.000
245.242;  -67.425; -387.000; -374.000
245.385;   -9.950;  -59.000;  -39.000
245.528; -117.425; -871.000; -705.000
245.670;   92.525;  612.000;  634.000
245.813;  -87.000; -599.000; -547.000
245.956;  -22.500; -324.000; -275.000
246.098;  -72.425; -508.000; -650.000
246.241;    7.075;  194.000;   48.000
246.383;  -13.075; -119.000;  -73.000
246.526;  -77.850; -454.000; -525.000
246.669; -122.925; -889.000; -780.000
246.811;    6.850;  172.000;   -1.000
246.954;  -71.650; -512.000; -426.000
247.096;  -28.775;  -84.000;   -6.000
247.239;  -63.875; -482.000; -445.000
247.381;  -78.025; -647.000; -488.000
247.524;   82.400;  645.000;  679.000
247.666;   -8.700;   58.000;   11.000
247.809; -118.575; -887.000; -691.000
247.951;   -3.175;  -75.000;  138.000
248.094;   23.350;  432.000;  308.000
248.236; -154.875;-1262.000;-1238.000
248.378;    4.125; -356.000;  -81.000
248.521;  -25.125; -334.000; -337.000
248.663;  -43.225; -236.000; -267.000
248.806;  -27.600; -300.000; -266.000
248.948; -115.750; -886.000; -763.000
249.090;  -51.575; -428.000; -398.000
249.233;  -44.900; -344.000; -381.000
249.375;  -63.675; -474.000; -451.000
249.518;  -29.675;  -83.000; -133.000
249.660;   -6.275; -103.000;    3.000
249.802; -180.200;-1303.000;-1189.000
249.945;  -93.575; -612.000; -540.000
250.087; -120.400; -834.000; -768.000
250.229;  -49.850; -362.000; -480.000
250.371;  -74.125; -494.000; -439.000
250.514;  -47.025; -310.000; -244.000
250.656;  -39.075;   69.000;  102.000
250.798; -117.925; -849.000; -800.000
250.940;  -60.350; -322.000; -322.000
251.083;  -30.575; -335.000; -111.000
251.225;   71.250;  338.000;  310.000
251.367;  -43.100; -274.000; -373.000
251.509;  -29.750; -265.000; -210.000
251.651;  -95.275; -731.000; -671.000
251.794;   58.150;  538.000;  632.000
251.936; -108.525; -821.000; -747.000
252.078;  -90.925; -540.000; -461.000
252.220;  -65.700; -645.000; -477.000
252.362;   85.550;  344.000;  462.000
252.504;  -68.225; -677.000; -584.000
252.646; -119.400; -875.000; -722.000
252.788;   -1.975;   14.000; -128.000
252.931;  -54.925; -257.000; -253.000
253.073;  -51.350; -376.000; -317.000
253.215;  -15.775;  141.000;  122.000
253.357;  -16.000;   82.000; -153.000
253.499;  -59.050; -374.000; -234.000
253.641;  -79.875; -749.000; -594.000
253.783;  -91.225; -609.000; -527.000
253.925;  -96.000; -586.000; -591.000
254.067; -112.175; -744.000; -667.000
254.209;  -28.650; -391.000; -259.000
254.351; -127.575; -865.000; -883.000
254.493;  -58.700; -441.000; -417.000
254.635; -146.875; -936.000; -818.000
254.777;  -92.275; -752.000; -687.000
254.918;  -75.650; -512.000; -430.000
255.060;  -59.825; -551.000; -395.000
255.202;  -68.500; -473.000; -261.000
255.344;  -74.250; -658.000; -455.000
255.486;  -74.125; -471.000; -406.000
255.628; -109.050; -780.000; -781.000
255.770;  -92.750; -676.000; -536.000
255.912;  -71.425; -559.000; -468.000
256.053;  -93.000; -730.000; -508.000
256.195;  148.750; 1008.000;  903.000
256.337; -107.750; -861.000; -595.000
256.479;   65.925;  532.000;  416.000
256.621;  -44.950; -394.000; -212.000
256.762; -107.950; -789.000; -742.000
256.904;   52.075;  485.000;  487.000
257.046;  -48.450; -381.000; -271.000
257.188;  -62.400; -351.000; -264.000
257.329;  -74.825; -525.000; -464.000
257.471; -113.125; -939.000; -807.000
257.613;  -76.225; -584.000; -498.000
257.755; -141.725;-1073.000; -982.000
257.896;   43.700;  286.000;  392.000
258.038;  -75.600; -403.000; -352.000
258.180;  -40.850; -354.000; -279.000
258.321;  -88.575; -581.000; -457.000
258.463;   -9.150;  -71.000;  133.000
258.605;  -88.050; -562.000; -570.000
258.746; -101.650; -886.000; -772.000
258.888; -143.250;-1026.000;-1020.000
259.029;   16.000;  121.000;   -8.000
259.171;  -85.450; -614.000; -550.000
259.313;    5.600;  -49.000;  -47.000
259.454;  -72.475; -536.000; -414.000
259.596;  -52.425; -483.000; -390.000
259.737;  -80.150; -590.000; -474.000
259.879;   32.700;  217.000;  311.000
260.020;   83.700;  901.000;  636.000
260.162;  -26.900; -146.000; -253.000
260.303; -119.450; -768.000; -687.000
260.445;  -74.750; -609.000; -613.000
260.586;   21.725;  392.000;  157.000
260.728;  -53.025; -360.000; -248.000
260.869; -116.550; -350.000; -343.000
261.011;   70.475;  706.000;  537.000
261.152;  -61.675; -479.000; -319.000
261.293;  -85.125; -576.000; -595.000
261.435;  -37.025; -219.000; -184.000
261.576;  -57.850; -455.000; -325.000
261.718;   66.450;  420.000;  470.000
261.859; -124.175; -940.000; -949.000
262.000; -134.500; -951.000;-1016.000
262.142;  -23.850;  -52.000;  -60.000
262.283; -119.600; -808.000; -691.000
262.424;  -92.600; -666.000; -625.000
262.566; -160.175;-1161.000; -983.000
262.707; -118.725; -840.000; -830.000
262.848; -122.300; -769.000; -726.000
262.990;  -36.025; -362.000; -345.000
263.131;   79.075;  650.000;  681.000
263.272;  -12.650;  -61.000;  -41.000
263.413;  -90.150; -589.000; -561.000
263.555;  -81.100; -669.000; -143.000
263.696;  -92.575; -550.000; -641.000
263.837;  -56.275; -449.000; -551.000
263.978;    4.900;   -5.000;  -77.000
264.119;  -57.500; -283.000; -264.000
264.261; -118.250; -847.000; -630.000
264.402;    8.775;   33.000;   40.000
264.543;  -87.400; -509.000; -524.000
264.684;   -6.725;   61.000;  -50.000
264.825;  -76.525; -816.000; -538.000
264.966;   -7.800;  -84.000;  -67.000
265.107; -122.700; -646.000; -670.000
265.248; -116.750; -825.000; -812.000
265.390;  -13.875;  152.000;   -9.000
265.531;  -20.650; -238.000; -107.000
265.672;  -81.575; -557.000; -630.000
265.813;   72.325;  563.000;  439.000
265.954; -161.400; -959.000; -940.000
266.095;  -14.200; -372.000; -322.000
266.236;  -99.550; -686.000; -548.000
266.377;  -42.950; -243.000; -297.000
266.518;  -72.975; -619.000; -547.000
266.659;   25.225;  170.000;  268.000
266.800;   22.775;   83.000;   85.000
266.941;  -71.225; -487.000; -478.000
267.082;   28.450;  354.000;   99.000
267.223;  -56.125; -344.000; -273.000
267.364; -121.775; -892.000; -686.000
267.504;  -10.625;    3.000;  135.000
267.645;    5.000;  160.000;   67.000
267.786;  -44.575; -147.000;  -86.000
267.927;  -86.150; -473.000; -379.000
268.068;  -24.000; -186.000;  -61.000
268.209;  -42.275; -175.000; -413.000
268.350;  -64.325; -388.000; -532.000
268.490;  -83.075; -648.000; -521.000
268.631;   37.450;  127.000;  225.000
268.772; -121.075; -874.000; -647.000
268.913;  -56.250; -328.000; -476.000
269.054;  -22.350; -117.000;   12.000
269.194;  -53.025; -418.000; -402.000
269.335; -142.675;-1137.000;-1074.000
269.476;  -10.650;   33.000;  -35.000
269.617;  -63.625; -347.000; -392.000
269.757;  -95.225; -713.000; -646.000
269.898; -106.275; -856.000; -613.000
270.039;  -64.000; -415.000; -405.000
270.180; -138.975; -952.000; -816.000
270.320;  -40.250; -190.000; -250.000
270.461;  -40.050; -277.000; -249.000
270.602;  -17.375; -186.000; -156.000
270.742; -122.675; -868.000; -943.000
270.883;  -75.750; -442.000; -390.000
271.023;  -62.875; -358.000; -357.000
271.164;  -77.300; -607.000; -528.000
271.305; -105.950; -666.000; -654.000
271.445;  -93.925; -722.000; -683.000
271.586;  -84.625; -462.000; -283.000
271.726;  -43.825; -397.000; -322.000
271.867;  -62.950; -594.000; -534.000
272.008;  144.275; -473.000; -285.000
272.148;  120.450;  462.000;  468.000
272.289;    0.150; -113.000; -181.000
272.429;    3.675;   19.000;  185.000
272.570; -100.500; -633.000; -737.000
272.710; -104.250; -825.000; -775.000
272.851;  -12.250;  113.000; -130.000
272.991; -163.925;-1173.000;-1077.000
273.131;  -63.125; -419.000; -459.000
273.272; -101.450; -683.000; -723.000
273.412;    0.725; -143.000;  -31.000
273.553;  -65.900; -488.000; -507.000
273.693;  130.500;  913.000;  858.000
273.834; -106.075; -894.000; -692.000
273.974;  -81.600; -664.000; -615.000
274.114; -122.350; -772.000; -560.000
274.255;   64.975;  414.000;  373.000
274.395;   -9.200; -180.000; -125.000
274.535;   44.500;  199.000;  350.000
274.676;   20.825;  225.000;   94.000
274.816;   22.425;  110.000;   34.000
274.956;  -89.175; -624.000; -690.000
275.097;  -73.300;-1014.000; -922.000
275.237; -115.625; -913.000; -803.000
275.377;  -86.950; -778.000; -689.000
275.517; -148.500; -878.000; -937.000
275.658;  -65.800; -590.000; -555.000
275.798;  -81.650; -606.000; -413.000
275.938;   20.325;  215.000;  323.000
276.078; -106.925; -626.000; -395.000
276.218;    1.075;   99.000;  104.000
276.359; -132.400;-1026.000;-1024.000
276.499;  -85.900; -605.000; -446.000
276.639;  -34.825; -305.000; -151.000
276.779;  -47.150; -475.000; -357.000
276.919; -111.100; -783.000; -624.000
277.059;  -24.500; -261.000; -212.000
277.199;  -52.750; -357.000; -259.000
277.340;   47.950;  287.000;  175.000
277.480; -113.500; -840.000; -693.000
277.620;   31.950;  192.000;   16.000
277.760; -198.600;-1533.000;-1294.000
277.900;   11.375;  113.000;   33.000
278.040;   -0.975;  137.000;  159.000
278.180;   30.975;  270.000;  170.000
278.320;   -5.650;   21.000;   56.000
278.460;  -68.225; -443.000; -469.000
278.600;  -90.850; -708.000; -598.000
278.740;   46.975;  448.000;  224.000
278.880;  -79.650; -768.000; -791.000
279.020;   -9.375; -194.000; -144.000
279.160;  -91.225; -672.000; -595.000
279.300; -118.675; -926.000; -873.000
279.440;  -94.225; -709.000; -622.000
279.579;  -15.375;-1014.000; -929.000
279.719;  -53.600; -410.000; -394.000
279.859;   58.800;   -4.000;   41.000
279.999;   29.800; -208.000;  101.000
280.139;  -23.225; -435.000; -387.000
280.279;  -85.250; -708.000; -745.000
280.419;  -14.700; -229.000; -147.000
280.559;  -47.550; -259.000; -180.000
280.698;  -85.000; -790.000; -639.000
280.838; -109.000; -778.000; -800.000
280.978; -110.125; -846.000; -790.000
281.118; -121.775; -811.000; -704.000
281.257;   11.425;   24.000;    6.000
281.397; -135.725;-1094.000; -960.000
281.537;  -89.950; -599.000; -712.000
281.677;  -34.525; -150.000; -101.000
281.816;  -98.075; -700.000; -630.000
281.956;  -33.975; -193.000; -257.000
282.096;  -64.825; -539.000; -396.000
282.235; -101.950; -672.000; -638.000
282.375;  -19.075; -243.000;  -98.000
282.515; -106.300; -715.000; -707.000
282.654;   17.950;   29.000;  106.000
282.794;   22.525;  388.000;  244.000
282.934;  -58.375; -530.000; -491.000
283.073; -139.675;-1030.000; -857.000
283.213;  -49.975; -460.000; -467.000
283.353;  -38.700; -408.000; -349.000
283.492;  -40.950; -264.000; -296.000
283.632;  -38.125; -254.000; -168.000
283.771;  -97.750; -859.000; -730.000
283.911;  -51.300; -369.000; -260.000
284.050; -107.175; -794.000; -748.000
284.190; -164.725;-1229.000;-1096.000
284.329; -145.975;-1055.000; -964.000
284.469;  -76.250; -516.000; -591.000
284.608;  -73.075; -559.000; -598.000
284.748; -100.550; -614.000; -570.000
284.887;    4.850;  -87.000;  -20.000
285.027; -137.225; -844.000; -892.000
285.166;  -44.800; -192.000; -249.000
285.306;   -7.475; -116.000;  -33.000
285.445;  -39.650; -229.000; -343.000
285.584; -107.475; -630.000; -494.000
285.724;  -49.100; -282.000; -322.000
285.863; -122.950; -857.000; -507.000
286.002;  -56.625; -366.000; -276.000
286.142; -118.075; -715.000; -622.000
286.281;  -64.850; -525.000; -493.000
286.420;  -74.075; -554.000; -417.000
286.560;   96.825;  653.000;  623.000
286.699; -137.550; -958.000; -912.000
286.838;  -91.600; -590.000; -591.000
286.978;  -98.800; -533.000; -537.000
287.117; -130.400;-1085.000; -950.000
287.256;  -43.325; -228.000; -211.000
287.395;  -64.675; -197.000; -378.000
287.535;  -47.175; -370.000; -298.000
287.674;  -80.600; -509.000; -484.000
287.813;   30.425;  661.000;  533.000
287.952; -133.600;-1010.000; -871.000
288.091; -149.950;-1049.000; -915.000
288.231;    7.750;   13.000;   15.000
288.370; -180.925;-1217.000;-1200.000
288.509;  -89.175; -728.000; -645.000
288.648;  -86.425; -770.000; -548.000
288.787;  -36.625; -243.000;  -87.000
288.926;  -78.300; -454.000; -475.000
289.065;  113.150;  859.000;  672.000
289.204;  -65.425; -377.000; -217.000
289.344;  -81.450; -791.000; -690.000
289.483;   11.150;  416.000;  304.000
289.622;  -31.950; -291.000; -149.000
289.761;  -12.600; -309.000; -166.000
289.900; -116.425; -785.000; -626.000
290.039;  -14.625;  -12.000;  -95.000
290.178;  -41.200; -274.000; -180.000
290.317;  -90.025; -618.000; -479.000
290.456;  -59.675; -463.000; -451.000
290.595; -140.475; -961.000; -833.000
290.734; -133.225; -904.000; -891.000
290.873;  -74.250; -456.000; -420.000
291.011; -112.075; -833.000; -843.000
291.150; -109.600; -770.000; -682.000
291.289;  -28.825; -343.000; -110.000
291.428;  -93.825; -599.000; -480.000
291.567;  -58.525; -370.000; -442.000
291.706;   -1.025;  109.000;  154.000
291.845;  -88.900; -597.000; -505.000
291.984; -158.025;-1234.000;-1061.000
292.122;   74.725;  602.000;  582.000
292.261;   46.000;  620.000;  463.000
292.400;    1.250; -144.000;  211.000
292.539; -127.750; -959.000; -813.000
292.678;  -33.575; -325.000; -300.000
292.816; -162.000;-1136.000; -965.000
292.955;  -96.225; -844.000; -684.000
293.094;  -22.325; -173.000; -337.000
293.233;  -51.650; -556.000; -400.000
293.371;  -36.450; -225.000;  -84.000
293.510; -105.350; -866.000; -780.000
293.649; -138.425; -959.000; -924.000
293.787;  -90.550;-1083.000;-1012.000
293.926;  -10.625; -113.000;  -32.000
294.065;  -40.850; -379.000; -290.000
294.203;   42.925;  298.000;  406.000
294.342;   23.075;   74.000;  156.000
294.481; 7075.800;51180.000; -836.000
294.619;  -29.275; -425.000; -582.000
294.758; -157.500;-1230.000;-1137.000
294.896;   54.525; -125.000;    5.000
295.035; -131.700;-1040.000;-1006.000
295.174; -132.100;-1082.000; -954.000
295.312;  -52.100; -323.000; -203.000
295.451;  -21.475; -307.000; -428.000
295.589;  -59.625; -389.000; -518.000
295.728;   10.475; -292.000; -165.000
295.866;   -1.200;  -36.000;  -51.000
296.005;  -67.575; -584.000; -341.000
296.143;  -62.850; -558.000; -596.000
296.282; -111.250; -957.000; -881.000
296.420;  -98.025; -657.000; -557.000
296.559;  -88.175; -892.000; -633.000
296.697;  -16.375; -847.000; -665.000
296.835;   14.700;-1141.000;-1002.000
296.974;   37.375;  -23.000;   39.000
297.112;  -11.875; -443.000; -504.000
297.251;  -83.425; -815.000; -755.000
297.389;   50.400; -576.000; -438.000
297.527;   32.100; -145.000;  -83.000
297.666;  -61.050; -486.000; -438.000
297.804;  -52.575; -404.000; -264.000
297.942;  -11.125; -136.000; -161.000
298.081;   -3.325; -183.000;   63.000
298.219;   51.200;  -17.000;  -19.000
298.357;   27.725; -144.000;  -71.000
298.495;    8.075; -810.000; -812.000
298.634;   59.325;  245.000;  219.000
298.772;   32.225; -220.000; -338.000
298.910;  -46.075; -309.000; -182.000
299.048;  -16.850; -130.000; -153.000
299.187;  -34.425; -350.000; -250.000
299.325;   10.900;   52.000;  122.000
299.463;   14.100; -389.000; -299.000
299.601;   62.425; -327.000; -271.000
299.739; -116.825; -908.000; -883.000
299.877;  -90.425; -791.000; -703.000
300.016;  -53.500;-1095.000; -935.000
300.154;  111.900;  -19.000; -161.000
300.292;   31.625; -428.000; -348.000
300.430;   11.425; -408.000; -291.000
300.568; -124.475; -940.000; -874.000
300.706;  -69.075; -366.000; -469.000
300.844; -102.425;-1108.000; -979.000
300.982;   94.175;  246.000;  282.000
301.120; -116.325; -965.000; -866.000
301.258;  -81.175; -812.000; -705.000
301.396;   29.950;  104.000;  -41.000
301.534;   56.550; -218.000; -293.000
301.672;  -17.425; -664.000; -521.000
301.810;   -5.450; -613.000; -545.000
301.948;   75.350;   53.000;  149.000
302.086;  513.825; -250.000;  -32.000
302.224;  737.500; -610.000; -585.000
302.362;    0.475; -558.000; -622.000
302.500;  -57.200; -923.000; -893.000
302.638;   85.050;  128.000;  245.000
302.776;  -19.475; -352.000; -408.000
302.913;   31.425;  447.000;  236.000
303.051;  -14.625;  -86.000;  -23.000
303.189;   53.175;   90.000;  118.000
303.327;  -45.650; -341.000; -256.000
303.465;  -88.125; -832.000; -588.000
303.603;  -99.975; -805.000; -604.000
303.740;   95.850;  417.000;  241.000
303.878;  -13.350; -800.000; -759.000
304.016;  -97.550; -915.000; -790.000
304.154; -143.200;-1123.000;-1152.000
304.291;  -33.350; -505.000; -554.000
304.429;   -8.625;  102.000;   74.000
304.567; -132.475; -908.000; -893.000
304.705;  -53.800; -408.000; -515.000
304.842;   48.500; -616.000; -540.000
304.980;   36.100;  215.000;   35.000
305.118;   13.550; -367.000; -365.000
305.255;  -87.200; -945.000; -927.000
305.393;   45.325;  178.000;  239.000
305.531; -120.975;-1173.000; -956.000
305.668;  -70.750; -663.000; -582.000
305.806;   65.050; -358.000; -439.000
305.943;   72.775; -629.000; -637.000
306.081;   50.175; -378.000; -267.000
306.219; -100.650; -863.000; -748.000
306.356;   -1.775;  158.000;   27.000
306.494;   98.900;  981.000;  761.000
306.631;   -7.800;  -11.000;  -55.000
306.769;   -9.250; -613.000; -485.000
306.906;  -24.325; -284.000; -258.000
307.044;  -67.775; -473.000; -488.000
307.181;  -65.750; -410.000; -332.000
307.319;    9.650;  112.000;   87.000
307.456; -177.025;-1191.000;-1153.000
307.594; -111.975; -980.000; -727.000
307.731;  -14.550; -371.000; -164.000
307.868;    8.725;  -15.000;   20.000
308.006; -142.975; -961.000; -847.000
308.143;  -85.200; -618.000; -330.000
308.281;   91.350;  -37.000; -254.000
308.418;  -22.875; -748.000; -640.000
308.555;  -79.275; -400.000; -250.000
308.693;  -86.450; -577.000; -573.000
308.830; -110.375; -712.000; -657.000
308.967;  -12.550; -215.000;  -95.000
309.105;  -64.325; -507.000; -396.000
309.242;    7.050; -468.000; -367.000
309.379;  191.050; -577.000; -655.000
309.517;  -86.475; -936.000; -948.000
309.654; -115.350; -910.000; -734.000
309.791;  -71.625; -662.000; -580.000
309.928; -131.575; -977.000; -914.000
310.065;  173.875;  819.000;  697.000
310.203;  -39.700; -825.000; -850.000
310.340;  -20.775; -465.000; -321.000
310.477;  -94.050; -412.000; -516.000
310.614;  -73.875; -383.000; -473.000
310.751;  -82.750; -427.000; -518.000
310.889;  -22.150;    1.000;   11.000
311.026; -146.450;-1161.000; -939.000
311.163;  -52.300; -386.000; -380.000
311.300;  -88.125; -512.000; -479.000
311.437;  -76.700; -658.000; -619.000
311.574; -153.375;-1226.000; -985.000
311.711;  -57.450; -595.000; -433.000
311.848;  -53.050; -380.000; -388.000
311.985;    8.875;  270.000;   93.000
312.122; -119.375; -932.000; -762.000
312.259; -123.975; -941.000; -994.000
312.396;  -93.500; -508.000; -551.000
312.533; -100.750; -812.000; -790.000
312.670; -136.850;-1070.000; -898.000
312.807;  -35.675; -352.000; -367.000
312.944;  -89.000; -513.000; -611.000
313.081;  -43.775; -150.000; -415.000
313.218; -115.625;-1111.000; -867.000
313.355;  -16.300; -531.000; -449.000
313.492;    0.925; -455.000; -292.000
313.629;  122.475;  815.000;  735.000
313.766; -163.275;-1176.000;-1008.000
313.902;   -4.800; -186.000;   21.000
314.039;  -52.825; -372.000; -289.000
314.176;   17.700;  286.000;  192.000
314.313;  -89.775; -569.000; -473.000
314.450;  -85.700; -788.000; -684.000
314.587;  -71.875; -468.000; -480.000
314.723;  -10.175;  -78.000;  130.000
314.860;   17.100;  318.000;  332.000
314.997;   35.100;  223.000;  142.000
315.134;  -54.975; -385.000; -368.000
315.270;  -30.325; -480.000; -496.000
315.407; -136.625;-1094.000; -967.000
315.544;  -53.475; -657.000; -538.000
315.681;  -64.175; -681.000; -565.000
315.817;   12.975; -133.000; -176.000
315.954;   -2.800; -613.000; -392.000
316.091; -139.425;-1045.000;-1023.000
316.227;  -28.600;  -71.000; -179.000
316.364;    1.000;   23.000;    6.000
316.500;  -43.200; -113.000; -300.000
316.637;  -40.300; -181.000; -302.000
316.774;  -97.775; -625.000; -358.000
316.910;  -87.525; -598.000; -629.000
317.047;  -77.550; -487.000; -351.000
317.183;  -59.875; -435.000; -566.000
317.320;  -12.675; -367.000; -321.000
317.456;  -72.525; -733.000; -805.000
317.593;  -88.725; -598.000; -641.000
317.729;    0.700;  168.000;  -67.000
317.866; -203.100;-1434.000;-1285.000
318.002;  -92.325; -708.000; -948.000
318.139; -114.650; -883.000; -867.000
318.275; -120.425;-1003.000; -738.000
318.412;  -77.025; -517.000; -336.000
318.548;  -53.800; -751.000; -720.000
318.685; -120.300; -985.000; -888.000
318.821;  -93.450; -762.000; -735.000
318.957;  -17.725;   34.000;  -23.000
319.094;   37.850;  297.000;  154.000
319.230;  -82.025; -756.000; -742.000
319.367;   65.950; -471.000; -520.000
319.503;   29.725; -538.000; -436.000
319.639; -102.750; -877.000; -793.000
319.775;  -74.325; -750.000; -685.000
319.912;  -62.525; -424.000; -519.000
320.048;  -79.400;-1184.000;-1184.000
320.184;   76.950;   59.000;   70.000
320.321;  -59.100; -497.000; -467.000
320.457;   71.375;  475.000;  662.000
320.593;  -63.450; -375.000; -382.000
320.729; -114.175; -732.000; -734.000
320.866;  -90.575; -577.000; -635.000
321.002;  -94.850; -759.000; -809.000
321.138;   -9.450; -135.000; -211.000
321.274;   63.075; -148.000; -115.000
321.410;  -51.550; -585.000; -353.000
321.546;  -56.450;-1011.000; -911.000
321.683;   50.025;  400.000;  185.000
321.819;  -16.775;  -48.000; -117.000
321.955; -124.025; -743.000; -722.000
322.091;  -57.950; -585.000; -540.000
322.227;  -21.075; -382.000; -202.000
322.363;  -23.375; -320.000; -215.000
322.499;  -51.025; -343.000; -331.000
322.635;  149.525;  636.000;  443.000
322.771;   17.725; -139.000;   12.000
322.907;   87.300;  129.000;  327.000
323.043;  -31.450; -115.000; -206.000
323.179;  -43.275; -394.000; -363.000
323.315;   -9.775; -401.000; -371.000
323.451;   74.825; -328.000; -236.000
323.587;   45.400;  -60.000;  -77.000
323.723;   -5.275; -682.000; -601.000
323.859;  -25.600; -258.000;  -76.000
323.995;  -45.700; -467.000; -409.000
324.131; -128.625; -967.000; -892.000
324.267;  -45.400; -254.000; -276.000
324.402; -146.850; -960.000; -983.000
324.538;  -25.950; -279.000; -104.000
324.674;    8.700;  164.000;   77.000
324.810;   83.675;  226.000;  308.000
324.946;  -29.125; -810.000; -658.000
325.082;  -79.075; -568.000; -475.000
325.217;  -20.800;  -62.000;   16.000
325.353;  -96.300; -764.000; -659.000
325.489; -102.225; -540.000; -506.000
325.625;  -77.500; -579.000; -525.000
325.760;   43.450;  517.000;  376.000
325.896;  -31.475; -515.000; -702.000
326.032;  -70.175; -403.000; -352.000
326.168;  -66.450; -462.000; -369.000
326.303;  -65.675; -352.000; -461.000
326.439;  -17.275; -336.000; -276.000
326.575;   -5.075; -190.000;  -29.000
326.710;   -5.850; -156.000;  -30.000
326.846;  -26.275;  146.000;  103.000
326.982;  -87.600; -530.000; -548.000
327.117;  -93.000; -481.000; -442.000
327.253;  -91.950; -745.000; -742.000
327.388; -138.400;-1137.000;-1153.000
327.524;  -68.025; -811.000; -578.000
327.659;  -32.300;  -58.000;  -22.000
327.795;   -7.925;   69.000;   45.000
327.931;  -89.625; -723.000; -499.000
328.066;  -47.575; -417.000; -276.000
328.202;  -33.125;   12.000; -129.000
328.337;  109.575;  957.000;  713.000
328.473;   13.300;  -12.000;  -74.000
328.608;  -39.000; -256.000; -267.000
328.743;  -88.850; -799.000; -664.000
328.879;   16.200;  214.000;  114.000
329.014;  -33.225; -102.000; -122.000
329.150;  -99.150; -358.000; -483.000
329.285;  -77.000; -465.000; -466.000
329.421;  -55.550; -548.000; -246.000
329.556;  -38.375;  -36.000;   85.000
329.691;  -96.375; -633.000; -615.000
329.827;  -91.100; -626.000; -480.000
329.962;  -44.575;  131.000; -301.000
330.097; -104.800; -673.000; -585.000
330.233;  -43.975; -410.000; -223.000
330.368; -121.350; -839.000; -628.000
330.503;   -8.675;    3.000;   98.000
330.638;   -1.950;  -93.000; -125.000
330.774;  -65.975; -609.000; -530.000
330.909;  -48.450; -434.000; -244.000
331.044; -112.175; -714.000; -708.000
331.179; -187.850;-1217.000;-1109.000
331.315;   11.900;   77.000;   20.000
331.450;   -2.325;  157.000;  285.000
331.585;  -97.625; -805.000; -706.000
331.720;  -90.975; -510.000; -460.000
331.855;    4.400;  -35.000; -102.000
331.990;  246.625;   62.000;  138.000
332.126;  123.300; -110.000;   71.000
332.261;  -20.700; -379.000; -265.000
332.396;   -1.075; -135.000; -242.000
332.531;  -88.875;-1074.000;-1031.000
332.666;   29.025; -519.000; -363.000
332.801; -107.100; -726.000; -807.000
332.936;  -21.050; -192.000; -122.000
333.071; -140.475; -870.000; -817.000
333.206;    2.125;  307.000;  379.000
333.341;   36.175;  344.000;  418.000
333.476;  -99.025; -627.000; -623.000
333.611;  -37.325; -251.000; -173.000
333.746;  -55.925; -381.000; -464.000
333.881; -126.125; -973.000; -935.000
334.016; -131.525; -936.000; -917.000
334.151; -129.575; -746.000; -702.000
334.286;   29.350;  152.000;  186.000
334.421;  -33.950; -125.000; -178.000
334.556;  -85.825; -611.000; -567.000
334.690;  -90.275; -631.000; -577.000
334.825;   53.475;  381.000;   83.000
334.960;  -64.750; -285.000; -413.000
335.095;   -9.325;  135.000;  -91.000
335.230; -101.500; -722.000; -738.000
335.365; -140.450;-1084.000; -990.000
335.499; -142.225;-1108.000;-1037.000
335.634;   18.225;    9.000;  534.000
335.769; -106.375; -755.000; -720.000
335.904;  -77.625; -603.000; -561.000
336.038;  -72.550; -735.000; -657.000
336.173; -140.325;-1206.000;-1194.000
336.308;    0.275; -116.000; -189.000
336.443;   13.900; -544.000; -634.000
336.577;  -94.950; -936.000; -787.000
336.712;   53.100;   -4.000;  -12.000
336.847;  -53.150; -724.000; -607.000
336.981;   48.900; -272.000; -208.000
337.116;  260.100;  615.000;  501.000
337.250;  113.225; -434.000; -421.000
337.385;  272.975; -297.000; -208.000
337.520;  112.650; -632.000; -603.000
337.654;  -43.475; -215.000; -126.000
337.789; -134.325; -989.000; -933.000
337.923;  -37.675; -104.000; -205.000
338.058;  -96.700; -673.000; -738.000
338.192;  -54.375; -611.000; -488.000
338.327;   -5.250;  -18.000; -155.000
338.461;  -75.800; -299.000; -469.000
338.596; -112.975; -780.000; -638.000
338.730; -104.775; -767.000; -803.000
338.865;   94.500;  -46.000; -140.000
338.999;  -51.275; -846.000; -702.000
339.134;  -30.500; -634.000; -536.000
339.268;  -11.000; -741.000; -603.000
339.403;  378.500; -740.000; -775.000
339.537;  100.375; -894.000; -820.000
339.671; -107.925; -829.000; -813.000
339.806;  -70.750; -556.000; -512.000
339.940;   15.300; -261.000; -235.000
340.074; -104.200; -685.000; -510.000
340.209;  -51.125; -351.000; -230.000
340.343; -110.175; -517.000; -573.000
340.477;  146.850;  998.000; 1036.000
340.612;  -56.350;-1033.000; -900.000
340.746;  133.700; -199.000; -243.000
340.880;  -86.025; -924.000; -785.000
341.014;  -24.425;  -45.000; -154.000
341.149; -116.400; -756.000; -718.000
341.283; -114.825; -839.000; -754.000
341.417; -109.300;-1124.000; -938.000
341.551;   85.300; -768.000; -708.000
341.685;  -50.575; -633.000; -611.000
341.820;  -58.050; -562.000; -493.000
341.954;  -54.200; -218.000; -349.000
342.088; -163.925;-1102.000;-1019.000
342.222;   65.500;  565.000;  618.000
342.356;  -70.125; -395.000; -335.000
342.490; -102.775; -880.000; -841.000
342.624;  -61.025; -339.000; -242.000
342.758;  -16.150; -364.000; -312.000
342.892;  -67.625; -710.000; -585.000
343.026;  -27.625;  -58.000; -116.000
343.160;  -61.725; -426.000; -376.000
343.294;  -80.425; -474.000; -337.000
343.428;  -47.500; -488.000; -448.000
343.562;  -15.875; -172.000;  -23.000
343.696;  -45.625; -385.000; -314.000
343.830;  -34.275; -362.000; -356.000
343.964;   -2.775; -231.000; -168.000
344.098;  721.000;  199.000;   70.000
344.232;  600.150; -266.000; -127.000
344.366;   57.975; -567.000; -453.000
344.500;   33.950; -665.000; -744.000
344.634;    1.800; -324.000; -164.000
344.768;  -25.250; -531.000; -341.000
344.902;   14.300;  278.000;  256.000
345.035;  -77.500; -556.000; -496.000
345.169; -141.600; -933.000; -656.000
345.303;  -73.075; -308.000; -482.000
345.437;  -93.500; -826.000; -717.000
345.571;  -73.975; -675.000; -594.000
345.704;  -81.225; -309.000; -532.000
345.838;  -27.450; -331.000; -284.000
345.972;  -54.800; -543.000; -495.000
346.106;  172.475; -179.000; -190.000
346.239;  392.050; -312.000; -243.000
346.373;   -3.125; -343.000; -302.000
346.507; -147.450; -950.000; -962.000
346.640;   92.950;  -30.000;   13.000
346.774;  -67.575; -650.000; -797.000
346.908;  -28.750; -138.000;  -11.000
347.041;  -91.875; -646.000; -593.000
347.175;  -17.375;  259.000;   27.000
347.309;  -67.650; -698.000; -628.000
347.442; -106.400; -883.000; -732.000
347.576;  235.700;  670.000;  668.000
347.709;  146.425; -123.000;  -52.000
347.843; -106.100; -933.000; -825.000
347.976;   26.950;  235.000;  294.000
348.110; -190.550;-1268.000;-1186.000
348.243;  -99.175; -679.000; -772.000
348.377;   -3.250;  -26.000;   60.000
348.510;   52.925;  403.000;  540.000
348.644;  -29.000;  -37.000; -159.000
348.777;   -2.900;  180.000;  191.000
348.911;  -54.775; -142.000; -112.000
349.044;  137.950;  471.000;  448.000
349.178;   92.350;-1069.000;-1006.000
349.311;   99.125;  141.000;  255.000
349.444;   -3.275; -927.000; -813.000
349.578;  -29.300; -347.000; -200.000
349.711; -120.850; -959.000; -862.000
349.845;  -20.350; -661.000; -591.000
349.978; -150.575;-1224.000;-1137.000
350.111;  -90.450; -546.000; -612.000
350.244;  -92.850; -596.000; -700.000
350.378;   -5.025; -392.000; -393.000
350.511;  -67.975; -393.000; -426.000
350.644;  -98.225; -808.000; -806.000
350.778;    0.400;  168.000;  104.000
350.911;   -2.900;  134.000;  140.000
351.044; -103.275; -685.000; -615.000
351.177;  -30.425; -321.000; -281.000
351.310;  -39.700;    3.000; -131.000
351.444;  -91.025; -888.000; -788.000
351.577;   88.575;  140.000;   90.000
351.710;   94.450;  593.000;  417.000
351.843;  -30.550; -165.000;  -77.000
351.976;   -0.250;  149.000;  -79.000
352.109; -107.900; -621.000; -612.000
352.242;  -43.300; -464.000; -419.000
352.376;  -71.325; -580.000; -636.000
352.509;  127.000; -437.000; -356.000
352.642;  -33.225; -654.000; -604.000
352.775;   30.575; -141.000;  -98.000
352.908; -123.725; -933.000; -904.000
353.041; -115.850; -814.000; -824.000
353.174;  -59.800; -551.000; -424.000
353.307;  -96.050; -753.000; -764.000
353.440;   73.425;  541.000;  453.000
353.573; -129.225; -957.000;-1008.000
353.706;  -61.575; -384.000; -558.000
353.839;  -25.625; -264.000; -220.000
353.971;  -99.050; -657.000; -512.000
354.104;  -88.125; -896.000; -835.000
354.237;  -46.400; -627.000; -662.000
354.370;  -98.300; -846.000; -879.000
354.503; -189.150;-1231.000;-1308.000
354.636;  -40.000; -529.000; -348.000
354.769; -137.425; -937.000; -860.000
354.902;  -22.975; -230.000; -139.000
355.034;  -25.100; -164.000; -220.000
355.167;  -15.500; -262.000; -162.000
355.300;  -98.475;-1061.000; -880.000
355.433;  998.450;  -71.000;  -14.000
355.565; 1529.075; -402.000; -384.000
355.698;  380.000; -356.000; -296.000
355.831;  -10.175; -882.000; -801.000
355.964;   49.625; -285.000; -170.000
356.096; -104.425; -856.000; -843.000
356.229;  -13.825; -523.000; -530.000
356.362;  341.975; -373.000; -266.000
356.494;  604.825; -229.000; -162.000
356.627;  403.275;  269.000;  377.000
356.760;  659.350;  120.000;   53.000
356.892;  971.925; -286.000; -601.000
357.025;  521.650;  403.000;  389.000
357.157;  465.275; -167.000; -179.000
357.290;  740.600; -856.000; -713.000
357.423;  206.775; -667.000; -556.000
357.555;   92.250; -217.000; -228.000
357.688;   91.325; -483.000; -364.000
357.820;  355.675; -870.000; -877.000
357.953; 3123.550; -563.000; -589.000
358.085;  614.525; -632.000; -612.000
358.218;  793.050;-1131.000; -932.000
358.350;  162.250;  -58.000;  312.000
358.483; -137.925;-1300.000;-1187.000
358.615;  -61.025;-1182.000;-1078.000
358.747;  -92.825;-1187.000;-1058.000
358.880;  -12.150; -810.000; -744.000
359.012;  -24.775; -376.000; -202.000
359.145;  -51.850; -480.000; -511.000
359.277;   27.050; -962.000; -913.000
359.409; 2597.050;  536.000;  231.000
359.542;  664.200; -738.000; -688.000
359.674;   66.175;   46.000;   13.000
359.806;  -76.900; -565.000; -438.000
359.939;  -41.575; -617.000; -516.000
360.071;   -7.625; -583.000; -579.000
360.203;  -27.525; -411.000; -364.000
360.335;   36.475;  164.000;  -16.000
360.468;  154.825; -249.000; -307.000
360.600; 2130.675; -547.000; -454.000
360.732; 2910.200; -546.000; -423.000
360.864;  392.550;-1216.000;-1044.000
360.996;  194.750; -516.000; -554.000
361.129;   -0.475; -389.000; -598.000
361.261;   17.800;  110.000; -113.000
361.393;  -36.050; -252.000; -214.000
361.525;   20.675;   94.000;  244.000
361.657;  -61.975; -821.000; -703.000
361.789;  -14.625; -139.000; -155.000
361.921;  150.250; -642.000; -593.000
362.053;  201.425;  524.000;  541.000
362.185;   28.550;  288.000;   72.000
362.318;  -92.575; -709.000; -705.000
362.450;   89.900;  294.000;  444.000
362.582;   14.775; -913.000; -870.000
362.714;  -53.200; -353.000; -332.000
362.846;  -80.225; -606.000; -490.000
362.978; -141.900; -941.000; -811.000
363.109;   34.125; -161.000; -260.000
363.241;  293.450; -739.000; -749.000
363.373;  426.500; -649.000; -564.000
363.505;  699.450; -186.000;  -91.000
363.637;  134.225; -787.000; -601.000
363.769; -133.875;-1067.000;-1080.000
363.901;  -96.075; -596.000; -654.000
364.033; -140.425;-1103.000;-1062.000
364.165;  -14.900; -283.000; -283.000
364.296;   58.450; -316.000; -177.000
364.428;   66.000;-1344.000;-1220.000
364.560;  -82.625; -679.000; -661.000
364.692;  -78.925; -738.000; -835.000
364.824;  172.775; -588.000; -456.000
364.955;  407.100; -402.000; -564.000
365.087; 1031.775;-1097.000; -852.000
365.219;   24.425; -686.000; -816.000
365.351;  -68.575; -526.000; -572.000
365.482;   30.675;  300.000;  240.000
365.614;  -60.375; -402.000; -314.000
365.746;  -96.275; -729.000; -752.000
365.877; -104.675; -706.000; -672.000
366.009;  280.275;  -35.000;  -62.000
366.141;  -94.975;-1249.000;-1134.000
366.272; -103.950; -803.000; -719.000
366.404; -124.825;-1005.000; -874.000
366.535;   -9.525; -139.000;  -12.000
366.667; -116.625; -644.000; -649.000
366.799;   40.125;  353.000;  203.000
366.930; -129.400; -862.000; -996.000
367.062;   94.825; -639.000; -613.000
367.193;  171.525; -872.000; -842.000
367.325;  -55.475; -580.000; -684.000
367.456;   10.975; -246.000;   31.000
367.588;  170.525; -371.000; -318.000
367.719;   32.925;  -44.000;  -45.000
367.851;  -23.775; -222.000; -241.000
367.982;  -76.700; -875.000; -732.000
368.113;   60.800; -475.000; -358.000
368.245; -131.825; -960.000; -841.000
368.376;  -31.450; -254.000; -302.000
368.508;  -38.650; -188.000; -263.000
368.639; -137.400;-1166.000;-1034.000
368.770;  -41.750; -670.000; -589.000
368.902;  -83.300; -836.000; -926.000
369.033; -124.700; -906.000; -855.000
369.164;  -51.475; -720.000; -653.000
369.296; -121.650; -452.000; -601.000
369.427;   -7.100; -209.000; -144.000
369.558;  -59.875; -593.000; -377.000
369.689;  -84.250; -721.000; -569.000
369.821; -137.875; -951.000; -845.000
369.952;  -22.200;   42.000; -108.000
370.083;  -53.900; -229.000; -108.000
370.214;  -92.575; -735.000; -650.000
370.345;  -12.000;   65.000;   81.000
370.477;  -91.800; -810.000; -790.000
370.608;  159.350; -328.000; -264.000
370.739;  -81.750;-1233.000;-1292.000
370.870;  -64.475;-1102.000; -923.000
371.001;   52.325; -378.000; -467.000
371.132; -100.700; -754.000; -735.000
371.263;  -39.150;  -42.000; -148.000
371.394; -131.250; -841.000; -748.000
371.525;   40.125;  345.000;  225.000
371.657; -110.950; -808.000; -670.000
371.788;   58.750;  103.000;  199.000
371.919;  106.800; -384.000; -304.000
372.050; 2968.025;  -91.000; -156.000
372.181;  871.500; -188.000; -294.000
372.311;  269.650;   42.000; -127.000
372.442;    1.050; -457.000; -451.000
372.573;  -35.600; -444.000; -340.000
372.704; -139.975;-1008.000; -980.000
372.835;   41.025; -228.000; -289.000
372.966;  -65.500; -646.000; -554.000
373.097;  -83.550; -575.000; -711.000
373.228;  -63.900; -717.000; -542.000
373.359;   76.200; -824.000; -536.000
373.490;  717.075; -881.000; -727.000
373.620;  873.100;-1001.000; -803.000
373.751; 1406.775; -332.000; -396.000
373.882;  595.275; -663.000; -733.000
374.013;   29.900; -449.000; -262.000
374.143;  -49.025; -581.000; -659.000
374.274; -105.875; -987.000; -908.000
374.405;  125.875; -388.000; -276.000
374.536;  330.800; -526.000; -387.000
374.666;  835.550; -759.000; -807.000
374.797;  128.425; -817.000; -868.000
374.928;  666.325; -710.000; -560.000
375.058;  674.900; -535.000; -500.000
375.189;   46.300;  -59.000;  -93.000
375.320; -119.275; -928.000;-1034.000
375.450;  -46.350; -625.000; -616.000
375.581;  -58.575; -526.000; -436.000
375.712;  -29.925; -574.000; -250.000
375.842;  212.300; -438.000; -415.000
375.973;  137.125; -554.000; -513.000
376.103;  -73.325; -665.000; -648.000
376.234;  -83.150; -531.000; -552.000
376.364;  -75.575; -944.000; -867.000
376.495;  272.600;  925.000;  529.000
376.625;  -41.875; -472.000; -485.000
376.756;   25.750; -709.000; -678.000
376.886; -120.300;-1178.000;-1026.000
377.017;   52.150;-1048.000;-1061.000
377.147;  358.900; -786.000; -782.000
377.278;   58.375;  174.000;  228.000
377.408; -124.625; -801.000; -815.000
377.538; -109.275; -707.000; -693.000
377.669;  -79.800; -537.000; -613.000
377.799; -102.125; -645.000; -635.000
377.929;  -75.600; -610.000; -428.000
378.060; -132.775; -781.000; -847.000
378.190;  -57.050; -726.000; -531.000
378.320;  -64.550; -401.000; -406.000
378.451;  -17.225; -131.000;  -22.000
378.581;  -33.150;  -67.000; -110.000
378.711;  139.850; 1035.000;  866.000
378.841;  -44.150; -533.000; -675.000
378.972;  -83.850; -871.000; -751.000
379.102;  -43.350; -652.000; -579.000
379.232;  -23.550; -126.000;  -73.000
379.362; -108.275;-1001.000; -885.000
379.492;  -30.225; -373.000; -424.000
379.623;   77.775;    0.000;  111.000
379.753; -118.150;-1107.000; -974.000
379.883;  139.175;   59.000;  156.000
380.013;  -32.650;-1081.000;-1017.000
380.143; -124.675;-1097.000;-1056.000
380.273; -121.025; -985.000; -861.000
380.403;  -15.075; -344.000; -257.000
380.533;  -43.875; -651.000; -664.000
380.663;   46.050;  173.000;  128.000
380.793; -120.475;-1027.000;-1074.000
380.923;  -32.225; -103.000;  -34.000
381.053; -106.525; -613.000; -623.000
381.183;  -36.300; -106.000; -248.000
381.313;    2.250; -656.000; -470.000
381.443;    5.350; -692.000; -473.000
381.573;  111.100; -402.000; -409.000
381.703;  144.425;-1249.000;-1095.000
381.833; -164.150;-1454.000;-1336.000
381.963;   99.250; -134.000;  -87.000
382.093; 1137.200; -925.000; -909.000
382.223;  340.825; -713.000; -602.000
382.353;  -47.675; -801.000; -608.000
382.482;  252.325;-1091.000; -964.000
382.612;  606.125; -872.000; -644.000
382.742;  324.450; -695.000; -622.000
382.872;  178.425; -565.000; -551.000
383.002;   37.625;  347.000; -132.000
383.131;  -26.700; -226.000; -160.000
383.261;  -50.325; -706.000; -768.000
383.391;  271.100; -552.000; -377.000
383.521; 3393.025;  451.000;  263.000
383.650;  798.900; -947.000; -904.000
383.780;  -21.800; -783.000; -656.000
383.910;  103.225;  880.000;  802.000
384.039;  -16.875; -794.000; -656.000
384.169;  104.575;-1205.000;-1017.000
384.299;  -43.625; -650.000; -662.000
384.428;  -99.800; -764.000; -680.000
384.558;  -38.875; -308.000; -275.000
384.687;  -60.300; -414.000; -334.000
384.817;    8.000;   75.000;   -2.000
384.947;   -6.675; -234.000; -141.000
385.076;  244.925;  982.000;  912.000
385.206;   71.375;  369.000;  480.000
385.335;  -52.525; -549.000; -417.000
385.465; -101.500; -655.000; -663.000
385.594;  105.325;  -53.000;  -44.000
385.724;  300.500; -868.000; -838.000
385.853;   79.500; -296.000; -270.000
385.982; 1068.400; -743.000; -787.000
386.112; 1694.350;-1052.000; -871.000
386.241;   88.175; -307.000; -312.000
386.371;    1.725; -174.000;  -87.000
386.500;  -38.525; -825.000; -789.000
386.629;    3.850; -874.000; -817.000
386.759;   63.650;  -43.000;   68.000
386.888;  -23.625; -170.000; -250.000
387.017;  -98.525; -648.000; -620.000
387.147; -106.950; -771.000; -798.000
387.276;  -35.025; -410.000; -397.000
387.405;  -22.400; -398.000; -342.000
387.535;  -58.975; -452.000; -361.000
387.664;  -70.450; -692.000; -620.000
387.793;   31.400; -198.000; -113.000
387.922;  405.325;  255.000;  200.000
388.052;  -13.075; -576.000; -423.000
388.181;  -31.250; -342.000; -472.000
388.310;  -59.275; -889.000; -710.000
388.439;  -72.500; -749.000; -742.000
388.568;  132.025;  365.000;  244.000
388.697;  797.100; -756.000; -653.000
388.826;  134.675; -768.000; -666.000
388.956;   27.450; -285.000; -307.000
389.085;  -56.725; -347.000; -287.000
389.214; -117.875; -842.000; -872.000
389.343;  -82.125; -645.000; -413.000
389.472;  414.275;  126.000;  149.000
389.601;  509.775;   91.000;    0.000
389.730;  -11.700; -568.000; -687.000
389.859;   40.375;  226.000;   46.000
389.988;  126.150; -423.000; -408.000
390.117;   88.950; -168.000; -146.000
390.246;  -27.925; -331.000; -320.000
390.375;   37.975; -673.000; -626.000
390.504;  -74.775; -703.000; -621.000
390.633;  -99.050; -672.000; -726.000
390.761;  -98.200; -732.000; -645.000
390.890;    0.625;   -4.000; -130.000
391.019;  -59.700; -421.000; -441.000
391.148; -144.750; -826.000; -855.000
391.277;  -81.675; -576.000; -493.000
391.406; -103.925; -821.000; -805.000
391.534;   22.875;  574.000; -301.000
391.663;  -91.175; -583.000; -645.000
391.792;  -98.225; -673.000; -701.000
391.921;   60.725;   -3.000;   15.000
392.050;  120.900; -287.000; -228.000
392.178;  -85.725;-1206.000;-1061.000
392.307;   75.350; -758.000; -712.000
392.436;   40.950; -427.000; -641.000
392.564;    9.225;  166.000;   -6.000
392.693; -101.200; -860.000; -682.000
392.822;  134.275; -529.000; -534.000
392.950;   34.500; -880.000; -714.000
393.079;  233.800; -188.000; -328.000
393.208;   -8.825; -488.000; -511.000
393.336;  -27.075; -170.000; -145.000
393.465;  -51.475; -317.000; -199.000
393.593;   -4.875;   62.000;   79.000
393.722; -154.650;-1121.000; -916.000
393.850;  -39.300; -188.000;  -61.000
393.979; -153.850; -926.000; -805.000
394.107;  -72.450; -517.000; -537.000
394.236;  -56.525; -570.000; -507.000
394.364;  158.575;  383.000;  206.000
394.493;  200.700; -911.000; -767.000
394.621;  -16.150; -955.000; -916.000
394.750;  728.250; -873.000; -923.000
394.878; 3065.425; -247.000; -149.000
395.007; 4085.850; -721.000; -807.000
395.135;  312.275; -790.000; -721.000
395.263;  -91.700;-1038.000;-1040.000
395.392;  -12.150;  -25.000; -107.000
395.520; -149.400; -818.000; -679.000
395.648; -104.825; -865.000; -915.000
395.777;  -43.825; -366.000; -405.000
395.905;  -66.200; -449.000; -564.000
396.033;   -8.900;  217.000;  172.000
396.162;  362.825; -399.000; -453.000
396.290;  305.825;  -17.000;   -2.000
396.418;   42.350; -555.000; -514.000
396.546; -101.675; -571.000; -466.000
396.674; -116.675; -850.000; -878.000
396.803;   -8.725;  -72.000;  -23.000
396.931;   46.400; -179.000; -199.000
397.059;  -21.275;-1026.000; -989.000
397.187; -122.225;-1026.000; -975.000
397.315; -146.200; -884.000; -649.000
397.443;  -95.225; -592.000; -443.000
397.572; -104.225; -578.000; -424.000
397.700;  -40.875; -607.000; -614.000
397.828;    1.750;  120.000;  -90.000
397.956;  -50.325; -508.000; -478.000
398.084;  -67.375; -767.000; -626.000
398.212;   23.250;  137.000;  124.000
398.340;   -9.925;  -56.000;  159.000
398.468;   -4.425; -390.000; -169.000
398.596; -150.575; -993.000; -953.000
398.724; -130.850; -762.000; -767.000
398.852; -168.375;-1024.000; -976.000
398.980;  -76.750; -560.000; -560.000
399.108;  -75.975; -982.000; -735.000
399.236;   17.200;   13.000;    8.000
399.363;    2.200;  222.000;  196.000
399.491;  -76.800; -404.000; -398.000
399.619; -128.025; -829.000; -800.000
399.747; -108.275; -859.000; -771.000
399.875;   60.500;  220.000;  234.000
400.003;  -54.150; -359.000; -284.000
400.130;  -95.250; -421.000; -341.000
400.258;  -26.950;  -83.000;   38.000
400.386;  -65.050; -352.000; -168.000
400.514;  -65.475; -526.000; -587.000
400.641; -112.425; -928.000; -802.000
400.769; -157.900; -979.000; -888.000
400.897; -124.950; -838.000; -793.000
401.025;  -18.750; -166.000; -152.000
401.152;   -6.550;  220.000;   38.000
401.280;  -88.600; -430.000; -429.000
401.408; -120.325; -712.000; -576.000
401.535; -112.325; -735.000; -758.000
401.663; -202.650;-1134.000;-1054.000
401.790;  -85.275; -514.000; -525.000
401.918;   29.925;  436.000;  405.000
402.046;  -20.925;  134.000;  122.000
402.173;  -49.750;  -18.000;    7.000
402.301;  -73.425; -519.000; -397.000
402.428;   40.925;  528.000;  383.000
402.556; -143.975;-1188.000; -913.000
402.683;  -28.850;  -20.000;   -1.000
402.811;  -32.175;  -37.000; -206.000
402.938;  -11.125;   20.000;   27.000
403.066;  128.850; -574.000; -558.000
403.193;  245.300;  299.000;  239.000
403.321;  186.075; -396.000; -574.000
403.448;  241.075;   83.000;   27.000
403.575;  113.150;  -90.000;  -46.000
403.703; -104.375; -732.000; -557.000
403.830;  -69.975; -531.000; -496.000
403.957; -140.150;-1117.000;-1023.000
404.085;   15.600;  -61.000; -172.000
404.212;   94.925;  -50.000;   63.000
404.339;  271.175; -566.000; -306.000
404.467; 6065.400; -612.000; -524.000
404.594; 3722.950; -287.000; -227.000
404.721;  780.950; -869.000; -764.000
404.848;   69.175; -113.000; -202.000
404.976; -117.425; -856.000; -783.000
405.103;  -22.950;  -14.000;  -82.000
405.230;   -5.650;  190.000;  226.000
405.357;   16.375;  117.000;   44.000
405.484;  278.525;  -49.000;    5.000
405.612;   39.950; -548.000; -563.000
405.739;  -69.800; -488.000; -243.000
405.866;   69.050;  669.000;  385.000
405.993;  -67.775; -398.000; -102.000
406.120; -147.350; -801.000; -887.000
406.247;  -67.775; -323.000; -342.000
406.374;  344.800;  540.000;  629.000
406.501;   33.150; -632.000; -702.000
406.628;  -93.150; -621.000; -589.000
406.755; -119.850; -803.000; -620.000
406.882;  -55.775; -228.000; -277.000
407.009; -111.250; -719.000; -628.000
407.136;    9.175; -480.000; -401.000
407.263;   41.350; -939.000; -829.000
407.390;  -94.825; -692.000; -614.000
407.517; -184.575;-1139.000;-1187.000
407.644;  -68.675; -332.000; -256.000
407.771;  -71.375; -249.000; -287.000
407.898;   -9.300;  168.000;  328.000
408.025;  -70.075; -421.000; -313.000
408.151;  -20.650;   82.000;  153.000
408.278;  -84.475; -267.000; -216.000
408.405; -133.250; -931.000; -899.000
408.532;  -75.775; -549.000; -542.000
408.659; -125.975; -677.000; -648.000
408.785; -199.175;-1298.000;-1170.000
408.912;  -70.350; -412.000; -296.000
409.039; -105.175; -610.000; -686.000
409.166; -103.825; -591.000; -555.000
409.292; -113.600; -571.000; -534.000
409.419; -120.475; -665.000; -649.000
409.546;  -80.650; -431.000; -192.000
409.672; -119.875; -713.000; -545.000
409.799;  -37.100;  -36.000;   34.000
409.926;  -43.675; -180.000; -179.000
410.052; -184.175;-1127.000;-1091.000
410.179;  -81.425; -368.000; -392.000
410.305;  -85.000; -375.000; -493.000
410.432;  -55.675; -220.000; -333.000
410.558;  -90.650; -305.000; -380.000
410.685; -125.675; -688.000; -431.000
410.812; -107.950; -409.000; -588.000
410.938; -140.125; -964.000; -808.000
411.065; -105.675; -671.000; -645.000
411.191;  -24.425; -189.000; -174.000
411.317; -132.225; -823.000; -742.000
411.444;  -75.800; -317.000; -246.000
411.570;  -74.225; -339.000; -294.000
411.697; -131.725; -758.000; -752.000
411.823; -174.800; -989.000; -999.000
411.949;  -41.900;  -56.000;   17.000
412.076; -113.900; -539.000; -519.000
412.202; -132.700; -758.000; -757.000
412.329; -141.875; -798.000; -752.000
412.455; -128.725; -821.000; -657.000
412.581;  -27.875;  -15.000;  172.000
412.707;  -79.875; -540.000; -457.000
412.834;    1.350;  156.000;  219.000
412.960;  -99.125; -785.000; -784.000
413.086; -114.775; -743.000; -701.000
413.212;  129.600;  604.000;  578.000
413.339;  -82.725; -685.000; -701.000
413.465;  -23.825; -364.000; -310.000
413.591; -103.125; -757.000; -474.000
413.717;  -63.475; -358.000; -366.000
413.843; -142.850; -839.000; -861.000
413.969;  -58.475;  -47.000; -292.000
414.096; -107.250; -679.000; -679.000
414.222;   -9.325;  -33.000;   85.000
414.348;  -48.150; -652.000; -385.000
414.474;   53.750;   38.000;  -52.000
414.600;  -21.450; -126.000; -144.000
414.726;  -13.325;  -96.000;  -55.000
414.852;  -58.675; -365.000; -342.000
414.978;   33.750;  104.000;  -18.000
415.104;   33.075;   38.000;   80.000
415.230;    8.225; -329.000; -330.000
415.356;   39.225; -409.000; -514.000
415.482;  184.450;   13.000;  -35.000
415.608;  294.875; -247.000; -323.000
415.734;  982.250;   67.000;   38.000
415.860;20484.350; -875.000; -767.000
415.986;14648.950; -685.000; -607.000
416.111; 1250.100; -798.000; -652.000
416.237;  261.750; -424.000; -571.000
416.363; 1200.425; -765.000; -733.000
416.489; 4368.200; -324.000; -251.000
416.615;  446.425; -707.000; -742.000
416.741;  -24.100; -677.000; -784.000
416.866; -100.675; -673.000; -736.000
416.992; -117.775; -801.000; -818.000
417.118;  -33.175;  -41.000;  -80.000
417.244;  -81.300; -798.000; -531.000
417.369; -103.175; -801.000; -612.000
417.495;  -23.825; -325.000; -254.000
417.621; -108.425;-1015.000; -803.000
417.746;   -4.050; -579.000; -572.000
417.872;   45.000; -254.000; -144.000
417.998;   62.550; -515.000; -530.000
418.123; 1106.725;-1073.000; -845.000
418.249; 5593.125; -512.000; -601.000
418.374;  741.650; -916.000; -824.000
418.500;  107.275; -383.000; -482.000
418.626;   90.550;   70.000;  -59.000
418.751;  114.675; -549.000; -448.000
418.877;  176.850; -637.000; -643.000
419.002; 1894.000; -688.000; -560.000
419.128;13139.325; -930.000; -721.000
419.253; 3149.450; -967.000; -837.000
419.379;  426.575; -391.000; -338.000
419.504;  397.175;  325.000;  415.000
419.629;  527.175; -393.000; -212.000
419.755; 3835.250; -317.000; -254.000
419.880;22434.675;  -98.000;   67.000
420.006;11957.625; -280.000; -221.000
420.131;30371.400; -662.000; -775.000
420.256; 4309.600; -315.000; -316.000
420.382;  544.775; -665.000; -687.000
420.507;   72.075; -649.000; -778.000
420.632;   83.075; -337.000; -339.000
420.758;  145.675; -251.000; -425.000
420.883;  -91.325; -876.000; -672.000
421.008; -106.475; -775.000; -619.000
421.133;  -88.400; -509.000; -467.000
421.259;  -54.700; -325.000; -259.000
421.384; -134.575; -834.000; -693.000
421.509;  -74.425;-1052.000; -862.000
421.634;  819.575; -936.000; -820.000
421.759;  337.500; -359.000; -327.000
421.885;  -88.400; -717.000; -656.000
422.010; -105.800; -673.000; -542.000
422.135; -146.825; -695.000; -727.000
422.260;   25.150;  340.000;  280.000
422.385;  -49.025;   12.000;  -98.000
422.510;   15.775;  151.000;  -26.000
422.635;   -0.950;  -87.000;  -43.000
422.760;   58.350; -766.000; -791.000
422.885;   29.400;  -57.000;  -80.000
423.010;  -47.575; -112.000; -169.000
423.135; -103.050; -481.000; -561.000
423.260;  -18.375; -150.000; -245.000
423.385;   50.575;  476.000;  222.000
423.510;   11.600;   71.000;  -22.000
423.635;   48.200;  133.000;   45.000
423.760;   49.750;  383.000;  328.000
423.885;   42.975;  336.000;  391.000
424.010;    4.725;  -68.000;  -13.000
424.135;  -25.600;    5.000;  -33.000
424.259;  -83.225; -654.000; -457.000
424.384;  -69.825; -279.000; -272.000
424.509;  -34.925; -260.000; -186.000
424.634; -116.175; -761.000; -623.000
424.759;  -42.775; -688.000; -544.000
424.883;  -32.375; -506.000; -527.000
425.008;  146.650; -502.000; -410.000
425.133; 2044.325; -679.000; -653.000
425.258;  939.250; -517.000; -381.000
425.382;  885.200; -867.000; -774.000
425.507; 2124.725; -487.000; -543.000
425.632;  361.975; -802.000; -663.000
425.756;  478.325; -256.000; -146.000
425.881; 7162.950; -831.000; -857.000
426.006;19108.975; -604.000; -355.000
426.130; 2856.750; -696.000; -508.000
426.255;  355.000; -611.000; -491.000
426.379;  161.375; -189.000; -577.000
426.504;  374.675;  660.000;  544.000
426.629; 4108.475; -519.000; -466.000
426.753; 2784.975;   64.000;  -46.000
426.878;  307.100; -252.000; -288.000
427.002;  174.250; -651.000; -668.000
427.127; 1635.750;  -35.000; -158.000
427.251;11904.175;  372.000;  401.000
427.375; 3281.100; -191.000; -173.000
427.500; 1912.600; -616.000; -610.000
427.624;  629.550; -234.000; -400.000
427.749;   68.425; -216.000; -225.000
427.873;  -43.650; -499.000; -412.000
427.997;  -49.475; -222.000; -230.000
428.122;   61.250;  795.000;  703.000
428.246;   42.400;  433.000;  434.000
428.371; -141.325; -869.000; -773.000
428.495; -117.825; -624.000; -646.000
428.619;  -43.375; -186.000; -117.000
428.743;   16.150;   65.000;  132.000
428.868;  -17.025; -732.000; -643.000
428.992; 1146.000; -219.000; -326.000
429.116;  431.200; -329.000; -357.000
429.240;  203.625;  419.000;  426.000
429.365;  -44.625; -454.000; -574.000
429.489;  -69.650; -638.000; -647.000
429.613;    3.825; -236.000; -177.000
429.737;   22.775; -563.000; -432.000
429.861;  272.925; -247.000; -133.000
429.985; 5781.975; -425.000; -305.000
430.109; 6285.850; -770.000; -908.000
430.234;  691.150;   76.000;  -50.000
430.358;   50.275; -250.000; -160.000
430.482;  -77.725; -672.000; -564.000
430.606;  -79.650; -655.000; -375.000
430.730;  -17.825; -437.000; -388.000
430.854;   39.425; -909.000; -835.000
430.978;  -91.450; -795.000; -764.000
431.102;  -91.750; -499.000; -422.000
431.226; -124.875; -874.000; -815.000
431.350;   16.525;  345.000;  422.000
431.474;  -89.125; -661.000; -373.000
431.597; -157.300;-1060.000; -848.000
431.721;  -90.375; -276.000; -267.000
431.845; -137.100; -704.000; -472.000
431.969;  -92.750; -304.000; -349.000
432.093;  -86.925; -395.000; -317.000
432.217;  -19.250;   32.000;   82.000
432.341; -102.050; -523.000; -518.000
432.464;   -4.500;   96.000;   40.000
432.588;  115.325; -401.000; -329.000
432.712;   75.800;  -52.000;  -52.000
432.836;   52.725;  213.000;  263.000
432.959;  -21.625; -372.000; -311.000
433.083;   65.900;   11.000;    2.000
433.207;  394.025;  285.000;  930.000
433.330; 5333.750; -391.000; -200.000
433.454; 6501.700; -654.000; -638.000
433.578; 3733.950;  583.000;  278.000
433.701;  658.300; -623.000; -675.000
433.825;  113.125; -292.000; -299.000
433.949;  115.300;   28.000;  -72.000
434.072;    8.425; -410.000; -323.000
434.196;  -34.575; -309.000; -117.000
434.319; 3762.025;25482.000;25124.000
434.443;  691.750; -656.000; -603.000
434.566; 2739.825;  281.000;   62.000
434.690;  451.350; -637.000; -383.000
434.813;   34.850; -251.000; -173.000
434.937;  -83.350; -569.000; -696.000
435.060;  -68.200; -423.000; -332.000
435.184;  181.975; -492.000; -217.000
435.307;   94.975;  159.000;  102.000
435.431;  -28.050;  -40.000;   24.000
435.554;  -85.925; -399.000; -240.000
435.677;  -85.300; -350.000; -258.000
435.801;  -39.750;  -25.000;   49.000
435.924;  -24.900;    1.000;  -67.000
436.048; -146.075;-1019.000; -732.000
436.171;  -66.150; -240.000;  -66.000
436.294;  -24.325; -248.000; -229.000
436.417;   99.800; -963.000; -849.000
436.541;  -82.875; -814.000; -840.000
436.664;  -49.000; -242.000; -316.000
436.787;  -30.025;   13.000;  113.000
436.910; -116.600; -792.000; -422.000
437.034;  -12.625;  142.000;  143.000
437.157;   14.225;  -11.000;    0.000
437.280;  -59.650; -392.000; -292.000
437.403; -112.025; -982.000; -869.000
437.526;  385.600; -903.000; -865.000
437.649; 1554.775; -505.000; -332.000
437.772;  176.950; -692.000; -540.000
437.896;   92.475;  700.000;  544.000
438.019; -119.275; -758.000; -503.000
438.142;  -85.600; -596.000; -506.000
438.265;  -61.550; -639.000; -670.000
438.388;  373.575; -520.000; -410.000
438.511;   28.800; -597.000; -394.000
438.634;  -63.325; -247.000; -125.000
438.757; -141.825; -693.000; -619.000
438.880;  -41.100;  -34.000;  -57.000
439.003;  -91.925; -417.000; -437.000
439.126;  -75.675; -287.000; -167.000
439.248;  -72.325;  -98.000; -139.000
439.371;  -55.575;    9.000;  -53.000
439.494;   19.725;  510.000;  439.000
439.617;  -57.175;   65.000;  -88.000
439.740; -194.775; -968.000; -816.000
439.863; -149.400; -755.000; -595.000
439.986; -127.300; -476.000; -431.000
440.108;  -52.750; -161.000; -112.000
440.231; -169.525; -950.000; -836.000
440.354;  -42.175;  -64.000; -150.000
440.477;  -28.175; -566.000; -542.000
440.599;  -33.325; -200.000; -225.000
440.722; -136.250; -709.000; -586.000
440.845;   66.700;  751.000;  928.000
440.968; -128.125; -415.000; -311.000
441.090;  -55.450; -199.000;  -33.000
441.213; -173.500;-1021.000; -825.000
441.336;  -54.675; -159.000;   -5.000
441.458;  -86.000; -549.000; -396.000
441.581;  -95.100; -628.000; -629.000
441.703;  -96.450; -152.000;   13.000
441.826; -127.900; -557.000; -400.000
441.948;  -47.375;   56.000;   51.000
442.071;   21.700;  555.000;  424.000
442.193; -113.900; -531.000; -485.000
442.316;   14.150;  152.000;   97.000
442.438;   31.100; -233.000;  -10.000
442.561;   54.775;  272.000;  262.000
442.683;  344.725; -809.000; -522.000
442.806;  806.025;   -8.000;   74.000
442.928;  -37.525; -859.000; -604.000
443.051;  -87.925; -577.000; -373.000
443.173; -106.275; -341.000; -339.000
443.295;  -83.700; -263.000; -371.000
443.418;  -70.025; -321.000;  -29.000
443.540;  -13.125; -106.000;   -4.000
443.662; -125.350; -563.000; -465.000
443.785;  -18.050;  335.000;  199.000
443.907; -118.700; -362.000; -208.000
444.029; -131.900; -767.000; -494.000
444.152; -152.650; -644.000; -554.000
444.274;  -25.700;  -18.000;  -24.000
444.396; -124.325; -461.000; -221.000
444.518; -129.600; -691.000; -454.000
444.640; -105.525; -268.000; -111.000
444.763;  -22.400;  388.000;  249.000
444.885; -126.200; -432.000; -392.000
445.007;  -35.875;   35.000;   86.000
445.129; -130.950; -610.000; -515.000
445.251; -113.425; -372.000; -439.000
445.373; -131.075; -537.000; -386.000
445.495;   -5.025;  242.000;  350.000
445.617;   54.150;  853.000;  753.000
445.739;  -68.250; -215.000;  -97.000
445.861;  -55.150; -245.000; -112.000
445.984;  -58.275; -267.000; -101.000
446.105;  122.350; -418.000; -251.000
446.227;  431.500; -176.000;  -19.000
446.349;  -35.600; -358.000; -249.000
446.471; -117.925; -615.000; -448.000
446.593;  -82.525; -316.000;   19.000
446.715;  -14.100;  -67.000;   41.000
446.837;   51.100;  697.000;  832.000
446.959;  -93.600; -457.000; -478.000
447.081; -138.425; -628.000; -518.000
447.203;   54.000;  862.000;  834.000
447.325; -100.725; -270.000;   42.000
447.446;   -5.375;  286.000;  530.000
447.568; -166.100; -921.000; -803.000
447.690;  -98.500; -236.000; -245.000
447.812; -166.650; -798.000; -519.000
447.933;  -31.175;  155.000;  127.000
448.055;  -78.250; -306.000; -261.000
448.177;   95.275;   31.000;   79.000
448.299;   10.175; -935.000; -727.000
448.420;    6.825;  -25.000;  159.000
448.542;  -50.075;   -3.000;   33.000
448.664;  -30.575;  109.000;  322.000
448.785;  -39.900;  265.000;   83.000
448.907;  -79.200; -614.000; -353.000
449.028;  -63.375; -771.000; -471.000
449.150;   52.125;  492.000;  589.000
449.272; -179.775;-1044.000; -913.000
449.393;   15.100;  612.000;  694.000
449.515; -157.825; -634.000; -581.000
449.636;  -81.575; -264.000; -155.000
449.758;   59.475;  763.000;  622.000
449.879;  -95.200; -498.000; -396.000
450.001;  -92.125; -149.000;  -49.000
450.122;  -38.850;  -95.000;  162.000
450.244;  -36.950;   37.000;  364.000
450.365;  -87.275; -495.000; -301.000
450.486;  -38.975;   80.000;  268.000
450.608;   15.225;  393.000;  326.000
450.729;   63.300;  578.000;  645.000
450.850;    7.375; -574.000; -466.000
450.972;  824.600; -552.000; -389.000
451.093; 5247.825;  190.000;  588.000
451.214; 2250.150; -516.000; -337.000
451.336;  389.050;  773.000;  579.000
451.457;   65.525;  264.000;  393.000
451.578;  -39.925; -118.000;  -74.000
451.699; -120.000; -546.000; -540.000
451.821;  -82.125; -284.000;  -50.000
451.942;   -3.525;  278.000;  285.000
452.063;   32.675;  228.000;  419.000
452.184;  589.700;  -54.000;  -49.000
452.305; 1140.800;  103.000;  170.000
452.427;  123.225; -549.000; -301.000
452.548;  -24.425;   23.000;   79.000
452.669;  -67.850; -257.000;  -89.000
452.790;  -51.075;    3.000;  -18.000
452.911;  -13.200;  195.000;  259.000
453.032;  -94.350; -289.000;  -60.000
453.153;  -49.925;  -29.000;   81.000
453.274;   65.425;  737.000;  868.000
453.395;  -65.975;  -51.000;  175.000
453.516;  114.850; 1317.000; 1388.000
453.637;  -91.525; -205.000; -150.000
453.758;  -72.475;   15.000;   69.000
453.879; -136.425; -462.000; -250.000
454.000;   61.050; 1086.000;  948.000
454.121; -130.750; -554.000; -326.000
454.242; -121.825; -599.000; -383.000
454.362;  -59.000;  -99.000;  114.000
454.483;  -44.600; -309.000; -229.000
454.604;   32.700;  512.000;  580.000
454.725; -139.075; -627.000; -555.000
454.846; -127.275; -474.000; -406.000
454.967;  -29.125;  230.000;  539.000
455.087;  -52.600;  179.000;  153.000
455.208;    4.975;  554.000;  856.000
455.329;  -65.150;  -22.000;   82.000
455.450;   47.950;  473.000;  633.000
455.570;  -90.525; -234.000; -211.000
455.691;  -53.450;  201.000;  407.000
455.812; -110.650; -270.000;  -92.000
455.932;  -63.375;  107.000;  -97.000
456.053;  -83.925;   36.000;   24.000
456.173; -119.325; -433.000; -355.000
456.294; -127.750; -476.000; -303.000
456.415;  -76.650;  -73.000;   70.000
456.535;  -37.775;  297.000;  273.000
456.656;  -36.625;  132.000;  240.000
456.776;  -70.275;    3.000;  298.000
456.897;  -11.950;  308.000;  513.000
457.017;  -93.200; -153.000;   -3.000
457.138; -117.600; -402.000; -249.000
457.258;  -52.675;  263.000;  224.000
457.379;  -20.975;  509.000;  521.000
457.499;  -17.975;  443.000;  432.000
457.620; -136.475; -407.000; -231.000
457.740; -113.375; -132.000;  -11.000
457.860;  -55.700;   87.000;   44.000
457.981;  -58.375;  132.000;  124.000
458.101;  -80.350;  -89.000;   40.000
458.221;  -13.350;  336.000;  402.000
458.342;  -53.600;   -4.000;  -37.000
458.462;   12.550;  617.000;  352.000
458.582;  -51.850; -302.000; -294.000
458.703;    4.525;  303.000;  154.000
458.823;  -21.175;   22.000;  163.000
458.943;   28.225;  341.000;  467.000
459.063;  -15.625; 1124.000;  192.000
459.183;  -40.150;  328.000;  313.000
459.304;    3.875;  315.000;  517.000
459.424;  -74.325; -246.000;  -89.000
459.544;  353.875;  388.000;  764.000
459.664;  870.075;  499.000;  506.000
459.784;  294.625; 1004.000; 1175.000
459.904;   64.125;  867.000;  744.000
460.024;   58.575;  867.000;  684.000
460.144;  -16.525;  449.000;  554.000
460.264;  -15.350;  515.000;  327.000
460.385; -100.550; -145.000; -119.000
460.505;   37.075;  905.000;  858.000
460.625;  -94.150;  -17.000;  -68.000
460.745;  -36.125;  396.000;  541.000
460.864;  -47.450;  153.000;  469.000
460.984;    7.025;  499.000;  573.000
461.104;  144.000; 1656.000; 1775.000
461.224;   22.050;  657.000;  650.000
461.344;  -27.675;  431.000;  360.000
461.464;  -40.725;  258.000;  513.000
461.584;  -37.175;  283.000;  466.000
461.704;  -61.300;   58.000;  108.000
461.824;  -77.175;  238.000;  259.000
461.943;  -59.700;  191.000;  130.000
462.063;  -80.400;    2.000;  324.000
462.183;   17.775;  639.000;  717.000
462.303;  122.600; 1678.000; 1230.000
462.422;   22.950;  781.000;  840.000
462.542;  -42.450;  271.000;  391.000
462.662;   27.500;  353.000;  380.000
462.782;  247.150;  833.000;  572.000
462.901;  489.725;  545.000;  717.000
463.021;  278.325; 1702.000; 1638.000
463.141;   -6.550;  337.000;  770.000
463.260;  -21.900;  614.000;  474.000
463.380;   14.925;  902.000;  884.000
463.499;  -60.925;  342.000;  332.000
463.619;  -43.325;  581.000;  559.000
463.738;  119.625; 1644.000;  903.000
463.858;    1.800;  657.000;  811.000
463.978;  -30.900;  542.000;  396.000
464.097;   48.475;  921.000; 1114.000
464.217;  133.875; 1196.000; 1143.000
464.336;  123.275; 1068.000; 1130.000
464.455;  -29.900;  328.000;  659.000
464.575;   20.725;  597.000;  602.000
464.694;  165.750; 1204.000; 1179.000
464.814;  138.500; 1190.000; 1138.000
464.933;   92.100; 1095.000; 1027.000
465.052;   95.100; 1412.000; 1054.000
465.172;   81.975;  922.000;  799.000
465.291;  128.200; 1376.000; 1320.000
465.410;    7.550;  462.000;  735.000
465.530;   87.525; 1355.000; 1310.000
465.649;   59.575; 1209.000; 1273.000
465.768;  129.150; 1673.000; 1508.000
465.888;   52.925;  941.000; 1174.000
466.007;   92.650; 1335.000; 1440.000
466.126;   -1.075;  721.000;  641.000
466.245;   51.225; 1176.000; 1187.000
466.364;    2.800;  950.000; 1060.000
466.484;   48.875; 1024.000; 1213.000
466.603;   25.775; 1101.000; 1222.000
466.722;  112.900; 1490.000; 1769.000
466.841;   67.225; 1151.000; 1401.000
466.960;   25.625; 1069.000;  972.000
467.079;  134.725; 1971.000; 1786.000
467.198;   54.000; 1238.000; 1181.000
467.317;  102.675; 1768.000; 1162.000
467.436;   56.600; 1709.000; 1261.000
467.555;  121.025; 1796.000; 1746.000
467.674;   61.950; 1227.000; 1329.000
467.793;   40.625; 1376.000; 1374.000
467.912;   87.300; 1658.000; 1539.000
468.031;  133.650; 2038.000; 1930.000
468.150;  126.750; 1842.000; 1837.000
468.269;  194.825; 2313.000; 2090.000
468.388;  183.100; 2168.000; 2339.000
468.507;  259.950; 2884.000; 2903.000
468.626;  233.025; 2555.000; 2541.000
468.744;  128.625; 2018.000; 2174.000
468.863;  193.750; 2312.000; 2523.000
468.982;   87.800; 1503.000; 1555.000
469.101;  227.950; 2788.000; 2692.000
469.220;  141.100; 2333.000; 2176.000
469.338;  267.350; 2935.000; 3051.000
469.457;  188.350; 2719.000; 2545.000
469.576;  341.300; 3953.000; 3784.000
469.695;  258.025; 2877.000; 3066.000
469.813;  425.525; 4148.000; 4192.000
469.932;  422.050; 4255.000; 4485.000
470.051;  408.475; 4075.000; 4161.000
470.169;  879.675; 4470.000; 4338.000
470.288; 1523.375; 4700.000; 4809.000
470.406;  884.725; 5059.000; 5194.000
470.525;  633.075; 6101.000; 5787.000
470.644;  630.950; 6847.000; 6794.000
470.762;  805.225; 8397.000; 7873.000
470.881;  893.375; 8651.000; 8464.000
470.999; 1040.850; 9685.000; 9151.000
471.118; 1128.650;11174.000;10711.000

