
Integration time [ms]: 100.000
Averaging Nr. [scans]: 40
Smoothing Nr. [pixels]: 0
Data measured with spectrometer [name]: 2101012U2
Wave   ;Sample   ;Dark     ;Reference
[nm]   ;[counts] ;[counts] ;[counts] 

197.733;   51.200;  516.000;  404.000
197.879;  -75.075; -610.000; -634.000
198.025;  -53.675; -475.000; -420.000
198.171;  -61.950; -602.000; -612.000
198.317;  -27.675; -401.000; -316.000
198.463;  -64.450; -655.000; -404.000
198.609;   30.750;  181.000; -137.000
198.755;  -71.050; -644.000; -410.000
198.901;  -60.825; -505.000; -424.000
199.047;  -63.375; -615.000; -488.000
199.193;  -33.975; -230.000; -468.000
199.339;  -43.375; -222.000; -369.000
199.485;   45.100;  330.000;  271.000
199.631;   25.475;  227.000;  310.000
199.777;  -51.050; -466.000; -398.000
199.923;  -67.975; -610.000; -424.000
200.069;   -4.975; -141.000;  -58.000
200.215;   55.000;  128.000;  453.000
200.361;   57.725;  243.000;  477.000
200.507;  -51.050; -600.000; -373.000
200.653;  -33.125; -371.000; -194.000
200.798;  -35.800; -215.000; -125.000
200.944;   -2.850; -146.000;  -41.000
201.090;   32.600;   61.000;  222.000
201.236;   -6.675; -116.000; -158.000
201.382;  113.325;  874.000;  903.000
201.528;    4.500;  -58.000;  -48.000
201.674;  -51.400; -386.000; -293.000
201.819;  -59.850; -540.000; -439.000
201.965;  -75.700; -699.000; -447.000
202.111;  -17.325; -273.000; -226.000
202.257;  -41.800; -250.000; -238.000
202.402;    3.125;   13.000;  -36.000
202.548;  -31.825; -169.000; -116.000
202.694;   76.875;  410.000; -183.000
202.840;  -66.225; -603.000; -531.000
202.985;  -54.525; -681.000; -639.000
203.131; -101.850; -832.000; -666.000
203.277;  -14.850; -199.000; -262.000
203.423;  -59.825; -434.000; -520.000
203.568;  -38.800; -462.000; -237.000
203.714;  -67.750; -535.000; -542.000
203.860;  -65.075; -682.000; -641.000
204.005;    9.600;  112.000;  167.000
204.151;   60.500;  561.000;  556.000
204.296;  -44.450; -354.000; -221.000
204.442;  -64.075; -600.000; -547.000
204.588;  -70.250; -592.000; -579.000
204.733;   17.800;  178.000;  168.000
204.879; -127.300;-1018.000; -822.000
205.025;   18.825;  -99.000;  126.000
205.170;   -8.175;  -17.000;   94.000
205.316;   84.225;  438.000;  661.000
205.461;  -77.375; -698.000; -554.000
205.607;   86.075;  609.000;  665.000
205.752;  -74.175; -626.000; -551.000
205.898;  -49.725; -501.000; -391.000
206.043;  -64.725; -578.000; -506.000
206.189;  -32.450; -243.000; -285.000
206.334;   87.200;  554.000;  606.000
206.480;   82.275;  409.000;  239.000
206.625;  -74.575; -529.000; -552.000
206.771;  -51.900; -451.000; -373.000
206.916;  -29.375; -210.000; -537.000
207.062;  -73.250; -545.000; -591.000
207.207;  -53.375; -546.000; -443.000
207.353;   44.550;  185.000;  460.000
207.498;    5.850;  196.000;   85.000
207.643;  -46.575; -501.000; -370.000
207.789; -126.825;-1069.000; -910.000
207.934;  -82.650; -665.000; -713.000
208.080;  -19.250; -154.000;   66.000
208.225;   -0.325;  -22.000;  -57.000
208.370;  -87.550; -727.000; -619.000
208.516;  -54.575; -741.000; -487.000
208.661;  -31.175; -127.000;  -69.000
208.806;  -14.600; -165.000; -171.000
208.952; -123.575;-1044.000; -731.000
209.097;   70.650;  378.000;  349.000
209.242;  -43.925; -307.000; -382.000
209.387;   81.325;  392.000;  350.000
209.533;  -44.300; -321.000; -350.000
209.678;   73.200;  472.000;  543.000
209.823;  -43.200; -408.000; -310.000
209.969;  -91.950; -860.000; -757.000
210.114; -115.525; -907.000; -719.000
210.259; -110.725; -939.000; -889.000
210.404;   -0.050; -171.000;  103.000
210.549;    6.875;  108.000;    3.000
210.695;  -25.475;   -3.000;  -95.000
210.840;   30.600;   94.000;   67.000
210.985;  -56.750; -484.000; -303.000
211.130;   67.000;  268.000;  406.000
211.275;   16.100;  207.000;  199.000
211.420;  -39.850; -300.000; -289.000
211.566;  -68.125; -536.000; -489.000
211.711;   31.825;  218.000;  157.000
211.856;  -57.725; -545.000; -519.000
212.001;   10.650;  151.000;   44.000
212.146;   24.825;  153.000;   49.000
212.291;  -17.775; -210.000; -186.000
212.436;  -29.350; -280.000;   -6.000
212.581;  -96.500; -685.000; -653.000
212.726;  -74.125; -487.000; -538.000
212.871;  -38.975; -552.000; -217.000
213.016; -151.950;-1172.000;-1029.000
213.161;   59.000;  406.000;  291.000
213.306;  -70.500; -435.000; -577.000
213.451;  -87.275; -778.000; -689.000
213.596;  -40.975; -455.000; -347.000
213.741;  -48.700; -448.000; -538.000
213.886;  -72.875; -498.000; -517.000
214.031;  -19.250; -294.000; -124.000
214.176;  -59.200; -408.000; -341.000
214.321;  -26.775; -296.000; -157.000
214.466;  -22.425; -163.000;  -43.000
214.611;   -1.450;  -61.000;  -10.000
214.756; -101.300; -948.000; -858.000
214.901;  -27.875; -388.000; -226.000
215.046; -122.900; -797.000; -825.000
215.191;   26.875;  128.000;   35.000
215.336;  -19.525; -157.000;  -19.000
215.480;  -51.250; -684.000; -505.000
215.625;  -11.975; -175.000;  -19.000
215.770;  -92.525; -757.000; -662.000
215.915;  -12.325;   -5.000;  -97.000
216.060;   -2.775; -113.000;  -21.000
216.205;  -98.775; -731.000; -779.000
216.349;  -65.175; -470.000; -533.000
216.494; -119.300; -939.000; -867.000
216.639;  -94.175; -823.000; -888.000
216.784;  -84.250; -577.000; -525.000
216.929;   42.600;  392.000;  281.000
217.073;  -22.325; -244.000;  -31.000
217.218;    7.975;   78.000;  -47.000
217.363;  -94.425; -656.000; -618.000
217.507;  -76.700; -623.000; -588.000
217.652; -111.850; -845.000; -874.000
217.797;  -85.100; -708.000; -659.000
217.942; -105.100; -856.000; -720.000
218.086;   72.100;  608.000;  539.000
218.231;  -26.075; -174.000;  -26.000
218.376;  -41.325; -337.000; -229.000
218.520;    9.025;  -41.000;   96.000
218.665;  -34.750; -338.000; -204.000
218.810;  -49.525; -275.000; -233.000
218.954;   20.300;  201.000;   35.000
219.099;  -97.700; -713.000; -963.000
219.243;  -70.900; -589.000; -554.000
219.388;  -23.075; -264.000; -136.000
219.532;   -2.450; -116.000; -116.000
219.677;  -76.050; -564.000; -521.000
219.822;   -1.600;   33.000;   89.000
219.966;   -0.150;   17.000;  -99.000
220.111;  -27.600; -328.000;  -40.000
220.255;  -96.425; -797.000; -750.000
220.400;  -19.775; -180.000; -146.000
220.544;  -59.200; -516.000; -450.000
220.689;  -49.375; -422.000; -451.000
220.833;  -29.300; -123.000;  -58.000
220.978;  -53.525; -393.000; -563.000
221.122;   11.725;  319.000;  307.000
221.267; -112.550; -906.000; -837.000
221.411;  -59.150; -478.000; -394.000
221.555;   -3.925; -104.000;  -23.000
221.700;  -37.950; -329.000; -222.000
221.844;   23.025;  255.000;  272.000
221.989;  -44.375; -328.000; -311.000
222.133;  -36.725; -289.000; -307.000
222.277;   -6.425;    5.000;   78.000
222.422;   22.525;  227.000;  113.000
222.566;  -47.500; -381.000; -214.000
222.711;  -55.900; -414.000; -479.000
222.855;  -69.725; -643.000; -586.000
222.999;  -75.125; -642.000; -717.000
223.144;  -30.975; -195.000; -194.000
223.288;   57.700;  423.000;  251.000
223.432;   32.650;  184.000;  230.000
223.576;   30.325;  152.000;  -21.000
223.721;   30.925;  364.000;  273.000
223.865;  -47.650; -472.000; -475.000
224.009;  250.200; 1673.000; 1631.000
224.153;  -62.875; -660.000; -671.000
224.298;  -82.925; -531.000; -489.000
224.442;  -14.300;  -74.000;  -33.000
224.586;   -6.050; -169.000; -106.000
224.730; -100.950; -858.000; -670.000
224.875; -102.775; -739.000; -688.000
225.019;   25.125;  102.000;  188.000
225.163;   52.825;  208.000;  341.000
225.307;   19.425;   97.000;  -91.000
225.451;   45.675;  360.000;  481.000
225.595;   37.700;  264.000;  176.000
225.739;  -26.550; -170.000;  -94.000
225.884;   -6.275;   86.000;    5.000
226.028;  -97.375; -760.000; -626.000
226.172;  -27.075; -260.000; -273.000
226.316; -112.600; -941.000; -902.000
226.460;  -68.375; -645.000; -493.000
226.604;  -44.450; -406.000; -400.000
226.748;  -83.750; -836.000; -733.000
226.892;  -47.700; -227.000; -181.000
227.036;  -48.800; -537.000; -447.000
227.180;  -47.100; -551.000; -375.000
227.324;  -67.650; -561.000; -580.000
227.468; -116.550; -819.000; -717.000
227.612;   26.750;  242.000;  -28.000
227.756;  -99.650; -845.000; -698.000
227.900;   45.775;  342.000;  441.000
228.044;  -69.250; -509.000; -290.000
228.188;   55.675;  448.000;  568.000
228.332;  -89.250; -546.000; -472.000
228.476;  -33.800; -223.000; -149.000
228.620;  -41.225; -210.000; -150.000
228.764;   62.525;  431.000;  349.000
228.908;  -19.300; -155.000;   30.000
229.052;  -59.100; -615.000; -528.000
229.195;  -21.150; -172.000;   13.000
229.339;  -17.375; -235.000; -305.000
229.483;  -28.600;    5.000; -162.000
229.627;    2.550; -156.000;  139.000
229.771;  -51.100; -218.000; -294.000
229.915;    9.700;  230.000;   79.000
230.059;  -82.250; -648.000; -663.000
230.202;  -32.350; -370.000; -317.000
230.346;  -11.275; -107.000;  107.000
230.490;  -56.800; -489.000; -521.000
230.634; -104.575; -736.000; -553.000
230.777;   75.550;  478.000;  509.000
230.921;  -54.125; -450.000; -359.000
231.065;  -36.875; -246.000; -286.000
231.209;   26.075;  261.000;  265.000
231.352;   19.025;   54.000;   40.000
231.496;   10.950;  568.000;  188.000
231.640;  -75.450; -693.000; -621.000
231.783;   53.075;  546.000;  525.000
231.927;  -41.025; -294.000; -365.000
232.071; -128.775; -962.000; -736.000
232.214; -118.075; -980.000; -764.000
232.358;  -92.900; -683.000; -599.000
232.502;    1.575;  -19.000;    7.000
232.645; -137.775;-1090.000; -927.000
232.789;  -13.750; -257.000; -218.000
232.933;  -41.050; -407.000; -224.000
233.076; -119.900;-1038.000; -897.000
233.220; -110.375; -752.000; -777.000
233.363;  -80.650; -669.000; -477.000
233.507;   44.200;  371.000;  129.000
233.650;  -92.400; -764.000; -834.000
233.794;   33.450;  438.000;  461.000
233.938;  -60.875; -530.000; -362.000
234.081;  -15.300;  -93.000;   31.000
234.225;  -71.350; -631.000; -539.000
234.368; -111.250; -773.000; -723.000
234.512;  -44.850; -385.000; -299.000
234.655; -101.950; -582.000; -555.000
234.798;  -64.975; -493.000; -466.000
234.942; -124.675; -884.000;-1002.000
235.085;  -72.025; -651.000; -443.000
235.229;  -81.800; -405.000; -410.000
235.372;  -42.850; -247.000; -191.000
235.516;  -62.050; -397.000; -321.000
235.659;   21.250;   92.000;  121.000
235.802;  -20.425;  -38.000;  -22.000
235.946;   28.850;  335.000;  215.000
236.089;   17.200;  126.000;  250.000
236.233;   51.825;  275.000;  298.000
236.376;  -46.050; -235.000; -378.000
236.519;  -47.700; -297.000; -319.000
236.663;  -42.225; -215.000; -117.000
236.806; -129.275;-1029.000; -999.000
236.949;   47.775;  543.000;  431.000
237.092;   56.775;  412.000;  391.000
237.236;  -72.975; -589.000; -502.000
237.379;   62.500;  352.000;  428.000
237.522; -111.350; -879.000; -768.000
237.666;  -20.950; -271.000;   18.000
237.809; -127.825; -851.000; -823.000
237.952;   46.625;  469.000;  271.000
238.095;  -62.850; -447.000; -442.000
238.238;   75.425;  688.000;  700.000
238.382;   -5.200;  166.000;  103.000
238.525;  -52.575; -598.000; -511.000
238.668; -134.700;-1060.000; -985.000
238.811;  -78.600; -638.000; -643.000
238.954;  -46.700; -483.000; -334.000
239.097;   77.950;  617.000;  664.000
239.241;   18.475;  394.000;  326.000
239.384;  -42.250; -254.000; -214.000
239.527;  -47.225; -424.000; -224.000
239.670; -139.600; -994.000;-1091.000
239.813; -117.725; -696.000; -658.000
239.956;   71.775;  579.000;  473.000
240.099; -115.050; -778.000; -725.000
240.242;   57.400;  428.000;  432.000
240.385;   47.225;  466.000;  450.000
240.528;  -61.375; -706.000; -473.000
240.671;   19.500;  189.000;  134.000
240.814;  -38.225; -441.000; -158.000
240.957;  -92.650; -767.000; -578.000
241.100;  -89.875; -779.000; -755.000
241.243; -143.675;-1234.000; -893.000
241.386;  -66.200; -508.000; -379.000
241.529;  -94.100; -735.000; -547.000
241.672;  -63.025; -566.000; -495.000
241.815; -118.150; -832.000; -808.000
241.958;  -28.750; -125.000; -182.000
242.101;  -86.300; -545.000; -390.000
242.244;  -36.750; -270.000; -325.000
242.387;  -45.800; -304.000; -246.000
242.530;   54.750;  470.000;  134.000
242.673;  -44.100; -381.000; -309.000
242.815; -103.825; -925.000; -899.000
242.958;  -79.400; -482.000; -381.000
243.101;    1.500;  132.000;  187.000
243.244;  -86.625; -564.000; -521.000
243.387;  -42.575; -313.000; -316.000
243.530;  -93.725; -657.000; -674.000
243.672;    1.475;   43.000;  -92.000
243.815;  -52.125; -355.000; -283.000
243.958;    5.300;   98.000;  -26.000
244.101;    7.400;   59.000;  -16.000
244.243;  -16.675;  -47.000;  101.000
244.386; -105.775; -761.000; -630.000
244.529;  -43.500; -132.000; -139.000
244.672; -150.700;-1154.000; -951.000
244.814;  -83.150; -621.000; -794.000
244.957;  -54.475; -380.000; -304.000
245.100;  -82.300; -489.000; -489.000
245.242;  -59.350; -387.000; -374.000
245.385;   -9.800;  -59.000;  -39.000
245.528; -114.475; -871.000; -705.000
245.670;   79.350;  612.000;  634.000
245.813;  -93.525; -599.000; -547.000
245.956;  -20.875; -324.000; -275.000
246.098;  -74.925; -508.000; -650.000
246.241;   -0.950;  194.000;   48.000
246.383;  -19.525; -119.000;  -73.000
246.526;  -68.175; -454.000; -525.000
246.669; -123.150; -889.000; -780.000
246.811;   14.400;  172.000;   -1.000
246.954;  -58.475; -512.000; -426.000
247.096;  -17.575;  -84.000;   -6.000
247.239;  -81.550; -482.000; -445.000
247.381;  -67.200; -647.000; -488.000
247.524;   68.500;  645.000;  679.000
247.666;  -26.700;   58.000;   11.000
247.809; -105.000; -887.000; -691.000
247.951;   -1.875;  -75.000;  138.000
248.094;   15.400;  432.000;  308.000
248.236; -153.750;-1262.000;-1238.000
248.378;  -17.475; -356.000;  -81.000
248.521;  -29.625; -334.000; -337.000
248.663;  -40.450; -236.000; -267.000
248.806;  -33.050; -300.000; -266.000
248.948; -106.600; -886.000; -763.000
249.090;  -51.450; -428.000; -398.000
249.233;  -75.850; -344.000; -381.000
249.375;  -64.775; -474.000; -451.000
249.518;  -24.125;  -83.000; -133.000
249.660;   -8.100; -103.000;    3.000
249.802; -171.225;-1303.000;-1189.000
249.945;  -78.225; -612.000; -540.000
250.087; -113.575; -834.000; -768.000
250.229;  -61.225; -362.000; -480.000
250.371;  -62.125; -494.000; -439.000
250.514;  -47.525; -310.000; -244.000
250.656;   -5.700;   69.000;  102.000
250.798; -109.050; -849.000; -800.000
250.940;  -56.125; -322.000; -322.000
251.083;  -21.725; -335.000; -111.000
251.225;   50.925;  338.000;  310.000
251.367;  -40.950; -274.000; -373.000
251.509;  -34.075; -265.000; -210.000
251.651; -101.175; -731.000; -671.000
251.794;   44.925;  538.000;  632.000
251.936;  -99.475; -821.000; -747.000
252.078;  -80.350; -540.000; -461.000
252.220;  -68.750; -645.000; -477.000
252.362;   55.025;  344.000;  462.000
252.504;  -76.925; -677.000; -584.000
252.646; -118.950; -875.000; -722.000
252.788;   -5.050;   14.000; -128.000
252.931;  -33.775; -257.000; -253.000
253.073;  -52.500; -376.000; -317.000
253.215;  -17.300;  141.000;  122.000
253.357;  -22.150;   82.000; -153.000
253.499;  -53.075; -374.000; -234.000
253.641;  -85.500; -749.000; -594.000
253.783;  -90.450; -609.000; -527.000
253.925;  -83.675; -586.000; -591.000
254.067; -107.275; -744.000; -667.000
254.209;  -24.075; -391.000; -259.000
254.351; -138.250; -865.000; -883.000
254.493;  -68.975; -441.000; -417.000
254.635; -111.425; -936.000; -818.000
254.777;  -87.950; -752.000; -687.000
254.918;  -71.300; -512.000; -430.000
255.060;  -61.250; -551.000; -395.000
255.202;  -58.000; -473.000; -261.000
255.344;  -74.925; -658.000; -455.000
255.486;  -68.425; -471.000; -406.000
255.628; -108.575; -780.000; -781.000
255.770;  -89.075; -676.000; -536.000
255.912;  -55.425; -559.000; -468.000
256.053;  -86.575; -730.000; -508.000
256.195;  152.050; 1008.000;  903.000
256.337; -103.475; -861.000; -595.000
256.479;   61.375;  532.000;  416.000
256.621;  -52.750; -394.000; -212.000
256.762;  -88.500; -789.000; -742.000
256.904;   38.775;  485.000;  487.000
257.046;  -41.700; -381.000; -271.000
257.188;  -44.200; -351.000; -264.000
257.329;  -65.725; -525.000; -464.000
257.471; -107.750; -939.000; -807.000
257.613;  -55.950; -584.000; -498.000
257.755; -147.325;-1073.000; -982.000
257.896;   24.550;  286.000;  392.000
258.038;  -73.550; -403.000; -352.000
258.180;  -38.375; -354.000; -279.000
258.321;  -89.875; -581.000; -457.000
258.463;   -8.275;  -71.000;  133.000
258.605;  -86.000; -562.000; -570.000
258.746;  -99.875; -886.000; -772.000
258.888; -160.025;-1026.000;-1020.000
259.029;   11.400;  121.000;   -8.000
259.171;  -78.225; -614.000; -550.000
259.313;    0.925;  -49.000;  -47.000
259.454;  -79.325; -536.000; -414.000
259.596;  -54.850; -483.000; -390.000
259.737;  -75.325; -590.000; -474.000
259.879;   29.275;  217.000;  311.000
260.020;   81.425;  901.000;  636.000
260.162;  -23.300; -146.000; -253.000
260.303; -110.225; -768.000; -687.000
260.445;  -81.150; -609.000; -613.000
260.586;   30.475;  392.000;  157.000
260.728;  -48.700; -360.000; -248.000
260.869;  -73.925; -350.000; -343.000
261.011;   59.350;  706.000;  537.000
261.152;  -57.375; -479.000; -319.000
261.293;  -79.550; -576.000; -595.000
261.435;  -25.150; -219.000; -184.000
261.576;  -49.975; -455.000; -325.000
261.718;   33.400;  420.000;  470.000
261.859; -132.250; -940.000; -949.000
262.000; -128.175; -951.000;-1016.000
262.142;  -22.000;  -52.000;  -60.000
262.283; -113.575; -808.000; -691.000
262.424;  -81.050; -666.000; -625.000
262.566; -138.450;-1161.000; -983.000
262.707; -119.325; -840.000; -830.000
262.848; -121.075; -769.000; -726.000
262.990;  -34.450; -362.000; -345.000
263.131;   78.050;  650.000;  681.000
263.272;  -12.125;  -61.000;  -41.000
263.413;  -97.775; -589.000; -561.000
263.555;  -56.275; -669.000; -143.000
263.696;  -87.800; -550.000; -641.000
263.837;  -59.275; -449.000; -551.000
263.978;  -12.250;   -5.000;  -77.000
264.119;  -49.825; -283.000; -264.000
264.261; -105.550; -847.000; -630.000
264.402;    7.625;   33.000;   40.000
264.543;  -84.975; -509.000; -524.000
264.684;   -1.000;   61.000;  -50.000
264.825;  -66.325; -816.000; -538.000
264.966;   -9.950;  -84.000;  -67.000
265.107; -113.975; -646.000; -670.000
265.248; -117.200; -825.000; -812.000
265.390;  -10.200;  152.000;   -9.000
265.531;  -21.525; -238.000; -107.000
265.672;  -74.325; -557.000; -630.000
265.813;   48.150;  563.000;  439.000
265.954; -137.550; -959.000; -940.000
266.095;  -16.200; -372.000; -322.000
266.236; -107.500; -686.000; -548.000
266.377;  -39.400; -243.000; -297.000
266.518;  -68.100; -619.000; -547.000
266.659;   18.025;  170.000;  268.000
266.800;   -3.150;   83.000;   85.000
266.941;  -78.100; -487.000; -478.000
267.082;    6.150;  354.000;   99.000
267.223;  -47.525; -344.000; -273.000
267.364; -113.450; -892.000; -686.000
267.504;  -11.525;    3.000;  135.000
267.645;   -8.375;  160.000;   67.000
267.786;  -30.100; -147.000;  -86.000
267.927;  -74.175; -473.000; -379.000
268.068;   -4.075; -186.000;  -61.000
268.209;  -50.000; -175.000; -413.000
268.350;  -55.475; -388.000; -532.000
268.490;  -87.625; -648.000; -521.000
268.631;   32.350;  127.000;  225.000
268.772; -103.700; -874.000; -647.000
268.913;  -56.250; -328.000; -476.000
269.054;   -3.350; -117.000;   12.000
269.194;  -41.225; -418.000; -402.000
269.335; -158.625;-1137.000;-1074.000
269.476;   -8.000;   33.000;  -35.000
269.617;  -51.475; -347.000; -392.000
269.757;  -81.175; -713.000; -646.000
269.898; -104.275; -856.000; -613.000
270.039;  -59.750; -415.000; -405.000
270.180; -143.450; -952.000; -816.000
270.320;  -38.225; -190.000; -250.000
270.461;  -46.325; -277.000; -249.000
270.602;  -15.625; -186.000; -156.000
270.742; -120.375; -868.000; -943.000
270.883;  -46.450; -442.000; -390.000
271.023;  -53.825; -358.000; -357.000
271.164;  -72.450; -607.000; -528.000
271.305; -108.375; -666.000; -654.000
271.445;  -83.050; -722.000; -683.000
271.586;  -68.225; -462.000; -283.000
271.726;  -46.500; -397.000; -322.000
271.867;  -69.050; -594.000; -534.000
272.008;   67.425; -473.000; -285.000
272.148;   88.525;  462.000;  468.000
272.289;   -2.025; -113.000; -181.000
272.429;    2.900;   19.000;  185.000
272.570;  -95.850; -633.000; -737.000
272.710; -110.475; -825.000; -775.000
272.851;  -26.000;  113.000; -130.000
272.991; -154.000;-1173.000;-1077.000
273.131;  -62.975; -419.000; -459.000
273.272;  -99.900; -683.000; -723.000
273.412;   -6.100; -143.000;  -31.000
273.553;  -67.550; -488.000; -507.000
273.693;  110.325;  913.000;  858.000
273.834; -124.875; -894.000; -692.000
273.974;  -76.175; -664.000; -615.000
274.114; -100.975; -772.000; -560.000
274.255;   74.825;  414.000;  373.000
274.395;   -8.500; -180.000; -125.000
274.535;   27.775;  199.000;  350.000
274.676;   14.750;  225.000;   94.000
274.816;    9.275;  110.000;   34.000
274.956;  -89.175; -624.000; -690.000
275.097;  -80.250;-1014.000; -922.000
275.237; -125.250; -913.000; -803.000
275.377;  -92.225; -778.000; -689.000
275.517; -144.350; -878.000; -937.000
275.658;  -65.075; -590.000; -555.000
275.798;  -77.125; -606.000; -413.000
275.938;   23.900;  215.000;  323.000
276.078;  -81.275; -626.000; -395.000
276.218;   -3.550;   99.000;  104.000
276.359; -138.425;-1026.000;-1024.000
276.499;  -66.800; -605.000; -446.000
276.639;  -39.100; -305.000; -151.000
276.779;  -44.275; -475.000; -357.000
276.919;  -95.100; -783.000; -624.000
277.059;  -22.525; -261.000; -212.000
277.199;  -49.775; -357.000; -259.000
277.340;   19.650;  287.000;  175.000
277.480; -105.650; -840.000; -693.000
277.620;   26.800;  192.000;   16.000
277.760; -195.550;-1533.000;-1294.000
277.900;    1.375;  113.000;   33.000
278.040;    8.225;  137.000;  159.000
278.180;   14.300;  270.000;  170.000
278.320;  -20.700;   21.000;   56.000
278.460;  -62.550; -443.000; -469.000
278.600;  -91.325; -708.000; -598.000
278.740;   40.275;  448.000;  224.000
278.880; -101.075; -768.000; -791.000
279.020;  -29.950; -194.000; -144.000
279.160;  -87.225; -672.000; -595.000
279.300; -117.925; -926.000; -873.000
279.440;  -88.400; -709.000; -622.000
279.579;  -71.625;-1014.000; -929.000
279.719;  -79.875; -410.000; -394.000
279.859;   30.550;   -4.000;   41.000
279.999;  -12.825; -208.000;  101.000
280.139;  -36.625; -435.000; -387.000
280.279;  -77.175; -708.000; -745.000
280.419;  -12.450; -229.000; -147.000
280.559;  -37.800; -259.000; -180.000
280.698;  -91.475; -790.000; -639.000
280.838; -102.575; -778.000; -800.000
280.978;  -93.975; -846.000; -790.000
281.118; -109.550; -811.000; -704.000
281.257;    0.650;   24.000;    6.000
281.397; -134.900;-1094.000; -960.000
281.537;  -84.425; -599.000; -712.000
281.677;  -17.050; -150.000; -101.000
281.816;  -96.025; -700.000; -630.000
281.956;  -24.600; -193.000; -257.000
282.096;  -68.075; -539.000; -396.000
282.235; -107.275; -672.000; -638.000
282.375;   -9.850; -243.000;  -98.000
282.515; -105.975; -715.000; -707.000
282.654;   19.850;   29.000;  106.000
282.794;   29.325;  388.000;  244.000
282.934;  -49.450; -530.000; -491.000
283.073; -129.225;-1030.000; -857.000
283.213;  -42.700; -460.000; -467.000
283.353;  -58.900; -408.000; -349.000
283.492;  -22.525; -264.000; -296.000
283.632;  -44.150; -254.000; -168.000
283.771;  -97.200; -859.000; -730.000
283.911;  -59.350; -369.000; -260.000
284.050; -104.825; -794.000; -748.000
284.190; -147.250;-1229.000;-1096.000
284.329; -129.725;-1055.000; -964.000
284.469;  -84.600; -516.000; -591.000
284.608;  -51.275; -559.000; -598.000
284.748;  -83.575; -614.000; -570.000
284.887;   -9.625;  -87.000;  -20.000
285.027; -116.900; -844.000; -892.000
285.166;  -25.075; -192.000; -249.000
285.306;  -11.225; -116.000;  -33.000
285.445;  -44.250; -229.000; -343.000
285.584;  -92.275; -630.000; -494.000
285.724;  -32.675; -282.000; -322.000
285.863; -104.400; -857.000; -507.000
286.002;  -47.175; -366.000; -276.000
286.142;  -98.250; -715.000; -622.000
286.281;  -62.325; -525.000; -493.000
286.420;  -71.625; -554.000; -417.000
286.560;   98.200;  653.000;  623.000
286.699; -136.025; -958.000; -912.000
286.838;  -80.350; -590.000; -591.000
286.978;  -89.250; -533.000; -537.000
287.117; -127.025;-1085.000; -950.000
287.256;  -27.775; -228.000; -211.000
287.395;  -33.475; -197.000; -378.000
287.535;  -59.400; -370.000; -298.000
287.674;  -69.225; -509.000; -484.000
287.813;   60.225;  661.000;  533.000
287.952; -130.175;-1010.000; -871.000
288.091; -145.300;-1049.000; -915.000
288.231;    1.450;   13.000;   15.000
288.370; -158.625;-1217.000;-1200.000
288.509;  -94.800; -728.000; -645.000
288.648;  -80.675; -770.000; -548.000
288.787;  -39.950; -243.000;  -87.000
288.926;  -64.725; -454.000; -475.000
289.065;   99.850;  859.000;  672.000
289.204;  -53.350; -377.000; -217.000
289.344;  -94.925; -791.000; -690.000
289.483;   20.725;  416.000;  304.000
289.622;  -31.650; -291.000; -149.000
289.761;  -17.475; -309.000; -166.000
289.900; -100.525; -785.000; -626.000
290.039;  -16.675;  -12.000;  -95.000
290.178;  -40.350; -274.000; -180.000
290.317;  -77.750; -618.000; -479.000
290.456;  -58.625; -463.000; -451.000
290.595; -124.450; -961.000; -833.000
290.734; -131.150; -904.000; -891.000
290.873;  -69.775; -456.000; -420.000
291.011; -105.175; -833.000; -843.000
291.150; -112.250; -770.000; -682.000
291.289;  -20.575; -343.000; -110.000
291.428;  -83.525; -599.000; -480.000
291.567;  -38.550; -370.000; -442.000
291.706;   -3.150;  109.000;  154.000
291.845;  -91.525; -597.000; -505.000
291.984; -166.650;-1234.000;-1061.000
292.122;   63.525;  602.000;  582.000
292.261;   45.375;  620.000;  463.000
292.400;   13.300; -144.000;  211.000
292.539; -127.200; -959.000; -813.000
292.678;  -33.750; -325.000; -300.000
292.816; -147.025;-1136.000; -965.000
292.955; -100.400; -844.000; -684.000
293.094;  -27.950; -173.000; -337.000
293.233;  -65.275; -556.000; -400.000
293.371;  -37.200; -225.000;  -84.000
293.510; -101.300; -866.000; -780.000
293.649; -132.225; -959.000; -924.000
293.787; -106.850;-1083.000;-1012.000
293.926;  -17.975; -113.000;  -32.000
294.065;  -49.475; -379.000; -290.000
294.203;   29.075;  298.000;  406.000
294.342;   45.600;   74.000;  156.000
294.481; 5977.675;51180.000; -836.000
294.619;  -17.650; -425.000; -582.000
294.758; -133.800;-1230.000;-1137.000
294.896;   41.950; -125.000;    5.000
295.035; -134.925;-1040.000;-1006.000
295.174; -121.025;-1082.000; -954.000
295.312;  -39.275; -323.000; -203.000
295.451;  -28.800; -307.000; -428.000
295.589;  -61.100; -389.000; -518.000
295.728;   24.575; -292.000; -165.000
295.866;    0.800;  -36.000;  -51.000
296.005;  -56.900; -584.000; -341.000
296.143;  -79.775; -558.000; -596.000
296.282;  -92.750; -957.000; -881.000
296.420;  -91.875; -657.000; -557.000
296.559;  -88.050; -892.000; -633.000
296.697;  -36.825; -847.000; -665.000
296.835;  -46.000;-1141.000;-1002.000
296.974;   32.900;  -23.000;   39.000
297.112;  -26.600; -443.000; -504.000
297.251;  -92.850; -815.000; -755.000
297.389;    7.025; -576.000; -438.000
297.527;   12.875; -145.000;  -83.000
297.666;  -52.025; -486.000; -438.000
297.804;  -49.175; -404.000; -264.000
297.942;  -10.375; -136.000; -161.000
298.081;   -7.250; -183.000;   63.000
298.219;   24.225;  -17.000;  -19.000
298.357;    5.400; -144.000;  -71.000
298.495;  -39.925; -810.000; -812.000
298.634;   28.950;  245.000;  219.000
298.772;   -2.100; -220.000; -338.000
298.910;  -52.225; -309.000; -182.000
299.048;  -27.400; -130.000; -153.000
299.187;  -31.525; -350.000; -250.000
299.325;   12.850;   52.000;  122.000
299.463;   -6.800; -389.000; -299.000
299.601;   28.825; -327.000; -271.000
299.739; -110.350; -908.000; -883.000
299.877;  -91.175; -791.000; -703.000
300.016;  -90.825;-1095.000; -935.000
300.154;   71.425;  -19.000; -161.000
300.292;  -25.875; -428.000; -348.000
300.430;  -17.125; -408.000; -291.000
300.568; -114.050; -940.000; -874.000
300.706;  -49.125; -366.000; -469.000
300.844; -114.325;-1108.000; -979.000
300.982;   79.600;  246.000;  282.000
301.120; -117.200; -965.000; -866.000
301.258;  -74.400; -812.000; -705.000
301.396;   18.550;  104.000;  -41.000
301.534;    5.375; -218.000; -293.000
301.672;  -56.100; -664.000; -521.000
301.810;  -40.750; -613.000; -545.000
301.948;   35.675;   53.000;  149.000
302.086;  308.300; -250.000;  -32.000
302.224;  361.950; -610.000; -585.000
302.362;  -28.525; -558.000; -622.000
302.500;  -78.625; -923.000; -893.000
302.638;   56.300;  128.000;  245.000
302.776;  -24.025; -352.000; -408.000
302.913;   30.975;  447.000;  236.000
303.051;  -37.225;  -86.000;  -23.000
303.189;   23.575;   90.000;  118.000
303.327;  -43.175; -341.000; -256.000
303.465;  -75.400; -832.000; -588.000
303.603;  -86.350; -805.000; -604.000
303.740;   73.650;  417.000;  241.000
303.878;  -55.625; -800.000; -759.000
304.016;  -90.600; -915.000; -790.000
304.154; -138.750;-1123.000;-1152.000
304.291;  -59.075; -505.000; -554.000
304.429;    0.375;  102.000;   74.000
304.567; -130.925; -908.000; -893.000
304.705;  -55.175; -408.000; -515.000
304.842;    3.800; -616.000; -540.000
304.980;   18.525;  215.000;   35.000
305.118;  -10.300; -367.000; -365.000
305.255; -108.125; -945.000; -927.000
305.393;   30.600;  178.000;  239.000
305.531; -124.400;-1173.000; -956.000
305.668;  -65.900; -663.000; -582.000
305.806;   28.875; -358.000; -439.000
305.943;   17.150; -629.000; -637.000
306.081;   -1.400; -378.000; -267.000
306.219;  -87.200; -863.000; -748.000
306.356;   21.875;  158.000;   27.000
306.494;  127.325;  981.000;  761.000
306.631;  -11.200;  -11.000;  -55.000
306.769;  -14.875; -613.000; -485.000
306.906;  -23.950; -284.000; -258.000
307.044;  -42.500; -473.000; -488.000
307.181;  -61.675; -410.000; -332.000
307.319;   17.050;  112.000;   87.000
307.456; -151.400;-1191.000;-1153.000
307.594; -100.525; -980.000; -727.000
307.731;  -15.825; -371.000; -164.000
307.868;   -2.675;  -15.000;   20.000
308.006; -131.075; -961.000; -847.000
308.143;  -53.825; -618.000; -330.000
308.281;   74.900;  -37.000; -254.000
308.418;  -34.825; -748.000; -640.000
308.555;  -68.725; -400.000; -250.000
308.693;  -59.825; -577.000; -573.000
308.830; -103.350; -712.000; -657.000
308.967;    9.650; -215.000;  -95.000
309.105;  -29.475; -507.000; -396.000
309.242;   16.525; -468.000; -367.000
309.379;  124.500; -577.000; -655.000
309.517;  -90.725; -936.000; -948.000
309.654;  -93.025; -910.000; -734.000
309.791;  -64.200; -662.000; -580.000
309.928;  -92.300; -977.000; -914.000
310.065;  148.900;  819.000;  697.000
310.203;  -53.725; -825.000; -850.000
310.340;  -17.500; -465.000; -321.000
310.477;  -72.675; -412.000; -516.000
310.614;  -56.300; -383.000; -473.000
310.751;  -64.850; -427.000; -518.000
310.889;   -9.175;    1.000;   11.000
311.026; -132.175;-1161.000; -939.000
311.163;  -43.400; -386.000; -380.000
311.300;  -67.300; -512.000; -479.000
311.437;  -74.800; -658.000; -619.000
311.574; -128.525;-1226.000; -985.000
311.711;  -49.925; -595.000; -433.000
311.848;  -29.000; -380.000; -388.000
311.985;   14.675;  270.000;   93.000
312.122; -106.525; -932.000; -762.000
312.259; -112.125; -941.000; -994.000
312.396;  -70.275; -508.000; -551.000
312.533;  -67.800; -812.000; -790.000
312.670; -115.625;-1070.000; -898.000
312.807;  -16.650; -352.000; -367.000
312.944;  -41.600; -513.000; -611.000
313.081;   -4.375; -150.000; -415.000
313.218;  -84.100;-1111.000; -867.000
313.355;   -1.850; -531.000; -449.000
313.492;   -0.900; -455.000; -292.000
313.629;  153.125;  815.000;  735.000
313.766; -130.375;-1176.000;-1008.000
313.902;    9.200; -186.000;   21.000
314.039;  -42.950; -372.000; -289.000
314.176;   31.850;  286.000;  192.000
314.313;  -72.850; -569.000; -473.000
314.450;  -61.975; -788.000; -684.000
314.587;  -49.800; -468.000; -480.000
314.723;   15.575;  -78.000;  130.000
314.860;   39.875;  318.000;  332.000
314.997;   47.150;  223.000;  142.000
315.134;  -10.325; -385.000; -368.000
315.270;   -8.475; -480.000; -496.000
315.407; -100.125;-1094.000; -967.000
315.544;  -26.525; -657.000; -538.000
315.681;  -42.625; -681.000; -565.000
315.817;   77.175; -133.000; -176.000
315.954;   91.675; -613.000; -392.000
316.091; -100.350;-1045.000;-1023.000
316.227;  -19.975;  -71.000; -179.000
316.364;   -9.850;   23.000;    6.000
316.500;  -42.300; -113.000; -300.000
316.637;  -36.025; -181.000; -302.000
316.774;  -82.750; -625.000; -358.000
316.910;  -84.650; -598.000; -629.000
317.047;  -78.650; -487.000; -351.000
317.183;  -53.525; -435.000; -566.000
317.320;   32.225; -367.000; -321.000
317.456;  -32.925; -733.000; -805.000
317.593;  -80.375; -598.000; -641.000
317.729;   -4.725;  168.000;  -67.000
317.866; -198.125;-1434.000;-1285.000
318.002;  -88.900; -708.000; -948.000
318.139; -106.875; -883.000; -867.000
318.275; -110.150;-1003.000; -738.000
318.412;  -61.750; -517.000; -336.000
318.548;  -44.550; -751.000; -720.000
318.685;  -90.875; -985.000; -888.000
318.821;  -83.700; -762.000; -735.000
318.957;  -25.825;   34.000;  -23.000
319.094;   42.175;  297.000;  154.000
319.230;  -61.375; -756.000; -742.000
319.367;   28.075; -471.000; -520.000
319.503;  -20.225; -538.000; -436.000
319.639;  -87.700; -877.000; -793.000
319.775;  -88.675; -750.000; -685.000
319.912;  -61.500; -424.000; -519.000
320.048;  -95.150;-1184.000;-1184.000
320.184;   83.925;   59.000;   70.000
320.321;  -56.300; -497.000; -467.000
320.457;   73.725;  475.000;  662.000
320.593;  -68.425; -375.000; -382.000
320.729;  -96.350; -732.000; -734.000
320.866;  -65.225; -577.000; -635.000
321.002;  -87.275; -759.000; -809.000
321.138;  -33.575; -135.000; -211.000
321.274;   31.675; -148.000; -115.000
321.410;  -50.025; -585.000; -353.000
321.546;  -81.425;-1011.000; -911.000
321.683;   25.600;  400.000;  185.000
321.819;  -16.150;  -48.000; -117.000
321.955; -115.600; -743.000; -722.000
322.091;  -46.550; -585.000; -540.000
322.227;  -48.900; -382.000; -202.000
322.363;  -42.450; -320.000; -215.000
322.499;  -52.325; -343.000; -331.000
322.635;  114.125;  636.000;  443.000
322.771;  -14.375; -139.000;   12.000
322.907;   62.875;  129.000;  327.000
323.043;  -36.825; -115.000; -206.000
323.179;  -48.200; -394.000; -363.000
323.315;  -40.125; -401.000; -371.000
323.451;   35.825; -328.000; -236.000
323.587;   55.375;  -60.000;  -77.000
323.723;  -40.850; -682.000; -601.000
323.859;  -28.225; -258.000;  -76.000
323.995;  -45.500; -467.000; -409.000
324.131; -126.500; -967.000; -892.000
324.267;  -35.900; -254.000; -276.000
324.402; -138.375; -960.000; -983.000
324.538;  -26.900; -279.000; -104.000
324.674;   -6.550;  164.000;   77.000
324.810;   70.975;  226.000;  308.000
324.946;  -35.300; -810.000; -658.000
325.082;  -62.700; -568.000; -475.000
325.217;  -21.525;  -62.000;   16.000
325.353; -103.200; -764.000; -659.000
325.489;  -79.000; -540.000; -506.000
325.625;  -67.125; -579.000; -525.000
325.760;   66.750;  517.000;  376.000
325.896;   -8.600; -515.000; -702.000
326.032;  -50.075; -403.000; -352.000
326.168;  -54.225; -462.000; -369.000
326.303;  -62.025; -352.000; -461.000
326.439;  -14.000; -336.000; -276.000
326.575;   -3.100; -190.000;  -29.000
326.710;   -1.625; -156.000;  -30.000
326.846;  -11.275;  146.000;  103.000
326.982;  -90.325; -530.000; -548.000
327.117;  -70.175; -481.000; -442.000
327.253;  -82.225; -745.000; -742.000
327.388; -181.550;-1137.000;-1153.000
327.524;  -69.550; -811.000; -578.000
327.659;  -27.425;  -58.000;  -22.000
327.795;  -17.350;   69.000;   45.000
327.931;  -84.975; -723.000; -499.000
328.066;  -31.150; -417.000; -276.000
328.202;  -29.225;   12.000; -129.000
328.337;   95.900;  957.000;  713.000
328.473;   30.825;  -12.000;  -74.000
328.608;  -21.150; -256.000; -267.000
328.743; -100.025; -799.000; -664.000
328.879;    5.350;  214.000;  114.000
329.014;  -23.525; -102.000; -122.000
329.150;  -79.625; -358.000; -483.000
329.285;  -87.400; -465.000; -466.000
329.421;  -50.725; -548.000; -246.000
329.556;  -29.500;  -36.000;   85.000
329.691;  -89.550; -633.000; -615.000
329.827;  -75.950; -626.000; -480.000
329.962;  -35.325;  131.000; -301.000
330.097;  -83.625; -673.000; -585.000
330.233;  -36.800; -410.000; -223.000
330.368; -123.850; -839.000; -628.000
330.503;   -6.975;    3.000;   98.000
330.638;   -6.925;  -93.000; -125.000
330.774;  -67.200; -609.000; -530.000
330.909;  -46.500; -434.000; -244.000
331.044;  -88.825; -714.000; -708.000
331.179; -172.500;-1217.000;-1109.000
331.315;   14.375;   77.000;   20.000
331.450;   15.100;  157.000;  285.000
331.585;  -77.625; -805.000; -706.000
331.720;  -82.700; -510.000; -460.000
331.855;    2.625;  -35.000; -102.000
331.990;  375.700;   62.000;  138.000
332.126;  187.850; -110.000;   71.000
332.261;    9.075; -379.000; -265.000
332.396;   14.600; -135.000; -242.000
332.531;  -66.850;-1074.000;-1031.000
332.666;   96.350; -519.000; -363.000
332.801;  -87.700; -726.000; -807.000
332.936;  -10.475; -192.000; -122.000
333.071; -126.200; -870.000; -817.000
333.206;   27.650;  307.000;  379.000
333.341;   27.950;  344.000;  418.000
333.476;  -66.300; -627.000; -623.000
333.611;  -28.300; -251.000; -173.000
333.746;  -42.700; -381.000; -464.000
333.881; -109.400; -973.000; -935.000
334.016; -109.300; -936.000; -917.000
334.151; -102.975; -746.000; -702.000
334.286;   27.425;  152.000;  186.000
334.421;   -0.350; -125.000; -178.000
334.556;  -65.175; -611.000; -567.000
334.690;  -71.900; -631.000; -577.000
334.825;   62.975;  381.000;   83.000
334.960;  -34.050; -285.000; -413.000
335.095;   40.950;  135.000;  -91.000
335.230;  -76.325; -722.000; -738.000
335.365;  -86.900;-1084.000; -990.000
335.499;  -91.525;-1108.000;-1037.000
335.634;   63.075;    9.000;  534.000
335.769;  -67.925; -755.000; -720.000
335.904;  -21.025; -603.000; -561.000
336.038;    3.025; -735.000; -657.000
336.173;  -61.300;-1206.000;-1194.000
336.308;   80.800; -116.000; -189.000
336.443;  117.650; -544.000; -634.000
336.577;    8.575; -936.000; -787.000
336.712;  138.700;   -4.000;  -12.000
336.847;   46.325; -724.000; -607.000
336.981;  173.500; -272.000; -208.000
337.116;  439.300;  615.000;  501.000
337.250;  229.275; -434.000; -421.000
337.385;  384.475; -297.000; -208.000
337.520;  160.100; -632.000; -603.000
337.654;  -37.150; -215.000; -126.000
337.789; -118.175; -989.000; -933.000
337.923;  -35.650; -104.000; -205.000
338.058;  -89.550; -673.000; -738.000
338.192;  -62.225; -611.000; -488.000
338.327;   -2.750;  -18.000; -155.000
338.461;  -69.300; -299.000; -469.000
338.596;  -90.650; -780.000; -638.000
338.730;  -95.550; -767.000; -803.000
338.865;  145.100;  -46.000; -140.000
338.999;   -7.625; -846.000; -702.000
339.134;   -1.175; -634.000; -536.000
339.268;   16.600; -741.000; -603.000
339.403;  499.725; -740.000; -775.000
339.537;  221.700; -894.000; -820.000
339.671;  -99.550; -829.000; -813.000
339.806;  -52.900; -556.000; -512.000
339.940;   27.025; -261.000; -235.000
340.074; -102.025; -685.000; -510.000
340.209;  -46.150; -351.000; -230.000
340.343;  -77.650; -517.000; -573.000
340.477;  134.850;  998.000; 1036.000
340.612;  -20.700;-1033.000; -900.000
340.746;  189.600; -199.000; -243.000
340.880;  -98.025; -924.000; -785.000
341.014;  -31.400;  -45.000; -154.000
341.149; -120.425; -756.000; -718.000
341.283; -115.050; -839.000; -754.000
341.417; -125.925;-1124.000; -938.000
341.551;   14.675; -768.000; -708.000
341.685;  -59.575; -633.000; -611.000
341.820;  -56.650; -562.000; -493.000
341.954;  -66.950; -218.000; -349.000
342.088; -154.525;-1102.000;-1019.000
342.222;   43.125;  565.000;  618.000
342.356;  -69.300; -395.000; -335.000
342.490; -106.500; -880.000; -841.000
342.624;  -53.750; -339.000; -242.000
342.758;  -45.600; -364.000; -312.000
342.892;  -88.125; -710.000; -585.000
343.026;  -56.050;  -58.000; -116.000
343.160;  -44.050; -426.000; -376.000
343.294;  -96.000; -474.000; -337.000
343.428;  -57.225; -488.000; -448.000
343.562;  -30.825; -172.000;  -23.000
343.696;  -47.800; -385.000; -314.000
343.830;  -54.350; -362.000; -356.000
343.964;  -16.900; -231.000; -168.000
344.098;  463.150;  199.000;   70.000
344.232;  377.525; -266.000; -127.000
344.366;   63.700; -567.000; -453.000
344.500;  -27.250; -665.000; -744.000
344.634;  -25.950; -324.000; -164.000
344.768;  -55.175; -531.000; -341.000
344.902;    0.350;  278.000;  256.000
345.035;  -69.750; -556.000; -496.000
345.169; -131.650; -933.000; -656.000
345.303;  -47.400; -308.000; -482.000
345.437;  -88.550; -826.000; -717.000
345.571;  -63.775; -675.000; -594.000
345.704;  -76.475; -309.000; -532.000
345.838;  -21.775; -331.000; -284.000
345.972;  -61.775; -543.000; -495.000
346.106;  217.200; -179.000; -190.000
346.239;  451.100; -312.000; -243.000
346.373;   -0.475; -343.000; -302.000
346.507; -143.000; -950.000; -962.000
346.640;   72.400;  -30.000;   13.000
346.774;  -76.850; -650.000; -797.000
346.908;   -2.975; -138.000;  -11.000
347.041; -113.525; -646.000; -593.000
347.175;    5.625;  259.000;   27.000
347.309;  -98.475; -698.000; -628.000
347.442; -118.850; -883.000; -732.000
347.576;  150.850;  670.000;  668.000
347.709;   89.825; -123.000;  -52.000
347.843; -105.575; -933.000; -825.000
347.976;   34.350;  235.000;  294.000
348.110; -174.100;-1268.000;-1186.000
348.243; -108.500; -679.000; -772.000
348.377;    5.325;  -26.000;   60.000
348.510;   36.525;  403.000;  540.000
348.644;  -47.250;  -37.000; -159.000
348.777;   16.825;  180.000;  191.000
348.911;  -40.525; -142.000; -112.000
349.044;  113.175;  471.000;  448.000
349.178;   25.100;-1069.000;-1006.000
349.311;   92.950;  141.000;  255.000
349.444;   17.775; -927.000; -813.000
349.578;  -28.200; -347.000; -200.000
349.711; -116.650; -959.000; -862.000
349.845;  -52.475; -661.000; -591.000
349.978; -153.050;-1224.000;-1137.000
350.111;  -69.875; -546.000; -612.000
350.244;  -95.675; -596.000; -700.000
350.378;  -36.675; -392.000; -393.000
350.511;  -73.350; -393.000; -426.000
350.644;  -85.700; -808.000; -806.000
350.778;   14.700;  168.000;  104.000
350.911;   -1.100;  134.000;  140.000
351.044;  -89.900; -685.000; -615.000
351.177;  -32.775; -321.000; -281.000
351.310;  -27.350;    3.000; -131.000
351.444;  -88.925; -888.000; -788.000
351.577;   44.425;  140.000;   90.000
351.710;   88.800;  593.000;  417.000
351.843;  -22.825; -165.000;  -77.000
351.976;   -7.675;  149.000;  -79.000
352.109;  -89.450; -621.000; -612.000
352.242;  -41.625; -464.000; -419.000
352.376;  -73.375; -580.000; -636.000
352.509;   65.450; -437.000; -356.000
352.642;  -69.125; -654.000; -604.000
352.775;   24.200; -141.000;  -98.000
352.908; -112.225; -933.000; -904.000
353.041;  -89.675; -814.000; -824.000
353.174;  -59.975; -551.000; -424.000
353.307;  -73.725; -753.000; -764.000
353.440;   83.450;  541.000;  453.000
353.573;  -91.475; -957.000;-1008.000
353.706;  -21.400; -384.000; -558.000
353.839;  -16.150; -264.000; -220.000
353.971;  -78.925; -657.000; -512.000
354.104; -104.725; -896.000; -835.000
354.237;  -66.425; -627.000; -662.000
354.370;  -80.175; -846.000; -879.000
354.503; -155.325;-1231.000;-1308.000
354.636;  -11.700; -529.000; -348.000
354.769; -110.575; -937.000; -860.000
354.902;    1.500; -230.000; -139.000
355.034;   -9.475; -164.000; -220.000
355.167;   10.200; -262.000; -162.000
355.300;  -55.225;-1061.000; -880.000
355.433; 1351.750;  -71.000;  -14.000
355.565; 2134.375; -402.000; -384.000
355.698;  541.175; -356.000; -296.000
355.831;   11.200; -882.000; -801.000
355.964;   45.300; -285.000; -170.000
356.096;  -49.350; -856.000; -843.000
356.229;   28.700; -523.000; -530.000
356.362;  478.550; -373.000; -266.000
356.494;  828.900; -229.000; -162.000
356.627;  362.500;  269.000;  377.000
356.760;  864.050;  120.000;   53.000
356.892; 1389.875; -286.000; -601.000
357.025;  452.225;  403.000;  389.000
357.157;  346.900; -167.000; -179.000
357.290;  995.650; -856.000; -713.000
357.423;  334.375; -667.000; -556.000
357.555;  170.125; -217.000; -228.000
357.688;  236.625; -483.000; -364.000
357.820;  304.875; -870.000; -877.000
357.953; 2197.800; -563.000; -589.000
358.085;  401.525; -632.000; -612.000
358.218;  320.650;-1131.000; -932.000
358.350;   83.575;  -58.000;  312.000
358.483; -148.150;-1300.000;-1187.000
358.615; -115.500;-1182.000;-1078.000
358.747; -131.625;-1187.000;-1058.000
358.880;  -20.825; -810.000; -744.000
359.012;  -38.700; -376.000; -202.000
359.145;  -49.850; -480.000; -511.000
359.277;  -12.525; -962.000; -913.000
359.409; 1806.050;  536.000;  231.000
359.542;  454.275; -738.000; -688.000
359.674;   38.350;   46.000;   13.000
359.806;  -69.050; -565.000; -438.000
359.939;  -43.975; -617.000; -516.000
360.071;   11.525; -583.000; -579.000
360.203;  -27.625; -411.000; -364.000
360.335;   22.475;  164.000;  -16.000
360.468;  129.025; -249.000; -307.000
360.600; 1651.550; -547.000; -454.000
360.732; 3707.850; -546.000; -423.000
360.864;  540.950;-1216.000;-1044.000
360.996;  113.250; -516.000; -554.000
361.129;  -22.100; -389.000; -598.000
361.261;   -5.775;  110.000; -113.000
361.393;  -44.100; -252.000; -214.000
361.525;    1.600;   94.000;  244.000
361.657;  -90.625; -821.000; -703.000
361.789;  -32.875; -139.000; -155.000
361.921;    3.475; -642.000; -593.000
362.053;  123.225;  524.000;  541.000
362.185;   -4.425;  288.000;   72.000
362.318; -113.200; -709.000; -705.000
362.450;   43.200;  294.000;  444.000
362.582;  -27.225; -913.000; -870.000
362.714;  -65.125; -353.000; -332.000
362.846;  -88.800; -606.000; -490.000
362.978; -150.600; -941.000; -811.000
363.109;  -15.775; -161.000; -260.000
363.241;  207.975; -739.000; -749.000
363.373;  593.100; -649.000; -564.000
363.505;  898.400; -186.000;  -91.000
363.637;  222.475; -787.000; -601.000
363.769; -125.450;-1067.000;-1080.000
363.901;  -89.850; -596.000; -654.000
364.033; -147.375;-1103.000;-1062.000
364.165;  -35.675; -283.000; -283.000
364.296;   65.225; -316.000; -177.000
364.428;  162.450;-1344.000;-1220.000
364.560;  -76.275; -679.000; -661.000
364.692;  -79.125; -738.000; -835.000
364.824;   54.600; -588.000; -456.000
364.955;  425.550; -402.000; -564.000
365.087; 1338.025;-1097.000; -852.000
365.219;   78.625; -686.000; -816.000
365.351;  -69.000; -526.000; -572.000
365.482;   44.850;  300.000;  240.000
365.614;  -66.400; -402.000; -314.000
365.746; -100.650; -729.000; -752.000
365.877;  -90.300; -706.000; -672.000
366.009;  365.000;  -35.000;  -62.000
366.141;  -33.950;-1249.000;-1134.000
366.272; -101.200; -803.000; -719.000
366.404; -123.950;-1005.000; -874.000
366.535;  -18.350; -139.000;  -12.000
366.667; -104.425; -644.000; -649.000
366.799;   21.200;  353.000;  203.000
366.930; -118.575; -862.000; -996.000
367.062;  159.525; -639.000; -613.000
367.193;  268.750; -872.000; -842.000
367.325;  -39.525; -580.000; -684.000
367.456;   21.125; -246.000;   31.000
367.588;  239.250; -371.000; -318.000
367.719;   34.675;  -44.000;  -45.000
367.851;  -36.975; -222.000; -241.000
367.982;  -99.625; -875.000; -732.000
368.113;    6.075; -475.000; -358.000
368.245; -130.925; -960.000; -841.000
368.376;  -38.975; -254.000; -302.000
368.508;  -61.350; -188.000; -263.000
368.639; -145.850;-1166.000;-1034.000
368.770;  -74.925; -670.000; -589.000
368.902;  -94.750; -836.000; -926.000
369.033; -119.775; -906.000; -855.000
369.164;  -38.250; -720.000; -653.000
369.296; -108.225; -452.000; -601.000
369.427;  -22.750; -209.000; -144.000
369.558;  -76.450; -593.000; -377.000
369.689;  -81.450; -721.000; -569.000
369.821; -126.700; -951.000; -845.000
369.952;  -23.250;   42.000; -108.000
370.083;  -50.825; -229.000; -108.000
370.214;  -99.000; -735.000; -650.000
370.345;  -21.075;   65.000;   81.000
370.477; -107.450; -810.000; -790.000
370.608;   87.675; -328.000; -264.000
370.739;  -99.850;-1233.000;-1292.000
370.870; -108.350;-1102.000; -923.000
371.001;   18.100; -378.000; -467.000
371.132;  -85.225; -754.000; -735.000
371.263;  -24.500;  -42.000; -148.000
371.394; -130.200; -841.000; -748.000
371.525;   24.225;  345.000;  225.000
371.657; -111.075; -808.000; -670.000
371.788;   35.150;  103.000;  199.000
371.919;   68.400; -384.000; -304.000
372.050; 1908.925;  -91.000; -156.000
372.181;  597.000; -188.000; -294.000
372.311;  180.325;   42.000; -127.000
372.442;  -30.175; -457.000; -451.000
372.573;  -43.925; -444.000; -340.000
372.704; -146.675;-1008.000; -980.000
372.835;    0.950; -228.000; -289.000
372.966;  -64.150; -646.000; -554.000
373.097;  -94.000; -575.000; -711.000
373.228;  -71.600; -717.000; -542.000
373.359;   14.375; -824.000; -536.000
373.490;  322.150; -881.000; -727.000
373.620;  472.625;-1001.000; -803.000
373.751;  894.575; -332.000; -396.000
373.882;  416.525; -663.000; -733.000
374.013;   -5.950; -449.000; -262.000
374.143;  -69.200; -581.000; -659.000
374.274; -113.575; -987.000; -908.000
374.405;   85.600; -388.000; -276.000
374.536;  205.900; -526.000; -387.000
374.666;  556.450; -759.000; -807.000
374.797;   66.850; -817.000; -868.000
374.928;  379.100; -710.000; -560.000
375.058;  351.325; -535.000; -500.000
375.189;   40.225;  -59.000;  -93.000
375.320; -110.225; -928.000;-1034.000
375.450;  -36.975; -625.000; -616.000
375.581;  -25.475; -526.000; -436.000
375.712;  -28.975; -574.000; -250.000
375.842;   68.200; -438.000; -415.000
375.973;   35.025; -554.000; -513.000
376.103;  -92.525; -665.000; -648.000
376.234;  -90.175; -531.000; -552.000
376.364;  -99.725; -944.000; -867.000
376.495;  188.575;  925.000;  529.000
376.625;  -41.625; -472.000; -485.000
376.756;  -21.925; -709.000; -678.000
376.886; -128.850;-1178.000;-1026.000
377.017;  118.525;-1048.000;-1061.000
377.147;  558.025; -786.000; -782.000
377.278;   92.250;  174.000;  228.000
377.408; -115.375; -801.000; -815.000
377.538;  -92.975; -707.000; -693.000
377.669;  -80.975; -537.000; -613.000
377.799;  -91.200; -645.000; -635.000
377.929;  -88.850; -610.000; -428.000
378.060; -131.175; -781.000; -847.000
378.190;  -27.150; -726.000; -531.000
378.320;  -52.350; -401.000; -406.000
378.451;  -18.975; -131.000;  -22.000
378.581;   -5.000;  -67.000; -110.000
378.711;  105.450; 1035.000;  866.000
378.841;  -50.800; -533.000; -675.000
378.972;  -90.425; -871.000; -751.000
379.102;  -41.225; -652.000; -579.000
379.232;  -19.725; -126.000;  -73.000
379.362; -104.800;-1001.000; -885.000
379.492;  -31.825; -373.000; -424.000
379.623;   65.950;    0.000;  111.000
379.753; -104.650;-1107.000; -974.000
379.883;  121.400;   59.000;  156.000
380.013;  -52.275;-1081.000;-1017.000
380.143;  -94.800;-1097.000;-1056.000
380.273;  -93.325; -985.000; -861.000
380.403;   39.950; -344.000; -257.000
380.533;  -11.100; -651.000; -664.000
380.663;   32.875;  173.000;  128.000
380.793; -138.550;-1027.000;-1074.000
380.923;  -47.000; -103.000;  -34.000
381.053; -103.475; -613.000; -623.000
381.183;  -36.750; -106.000; -248.000
381.313;  -41.675; -656.000; -470.000
381.443;  -33.800; -692.000; -473.000
381.573;    6.275; -402.000; -409.000
381.703;  -28.925;-1249.000;-1095.000
381.833; -165.450;-1454.000;-1336.000
381.963;   33.225; -134.000;  -87.000
382.093;  599.400; -925.000; -909.000
382.223;  169.775; -713.000; -602.000
382.353;  -83.975; -801.000; -608.000
382.482;  119.675;-1091.000; -964.000
382.612;  317.025; -872.000; -644.000
382.742;  168.225; -695.000; -622.000
382.872;   29.450; -565.000; -551.000
383.002;   23.700;  347.000; -132.000
383.131;  -37.100; -226.000; -160.000
383.261;  -51.725; -706.000; -768.000
383.391;  289.625; -552.000; -377.000
383.521; 4325.700;  451.000;  263.000
383.650; 1239.125; -947.000; -904.000
383.780;   16.900; -783.000; -656.000
383.910;   94.675;  880.000;  802.000
384.039;  -56.850; -794.000; -656.000
384.169;  -36.100;-1205.000;-1017.000
384.299;  -77.075; -650.000; -662.000
384.428;  -97.600; -764.000; -680.000
384.558;  -58.250; -308.000; -275.000
384.687;  -62.825; -414.000; -334.000
384.817;  -13.700;   75.000;   -2.000
384.947;  -26.400; -234.000; -141.000
385.076;  191.975;  982.000;  912.000
385.206;   71.825;  369.000;  480.000
385.335;  -51.925; -549.000; -417.000
385.465; -112.775; -655.000; -663.000
385.594;   42.200;  -53.000;  -44.000
385.724;  130.950; -868.000; -838.000
385.853;   47.625; -296.000; -270.000
385.982;  598.250; -743.000; -787.000
386.112; 1064.025;-1052.000; -871.000
386.241;   41.200; -307.000; -312.000
386.371;  -16.800; -174.000;  -87.000
386.500;  -49.775; -825.000; -789.000
386.629;   -1.025; -874.000; -817.000
386.759;   61.900;  -43.000;   68.000
386.888;  -20.825; -170.000; -250.000
387.017;  -93.075; -648.000; -620.000
387.147; -117.750; -771.000; -798.000
387.276;  -46.225; -410.000; -397.000
387.405;  -32.200; -398.000; -342.000
387.535;  -70.925; -452.000; -361.000
387.664;  -81.650; -692.000; -620.000
387.793;  -11.825; -198.000; -113.000
387.922;  255.750;  255.000;  200.000
388.052;  -39.150; -576.000; -423.000
388.181;  -39.175; -342.000; -472.000
388.310;  -68.975; -889.000; -710.000
388.439;  -91.175; -749.000; -742.000
388.568;   68.600;  365.000;  244.000
388.697;  466.000; -756.000; -653.000
388.826;   46.925; -768.000; -666.000
388.956;   -6.475; -285.000; -307.000
389.085;  -53.200; -347.000; -287.000
389.214; -108.150; -842.000; -872.000
389.343;  -74.325; -645.000; -413.000
389.472;  489.875;  126.000;  149.000
389.601;  600.725;   91.000;    0.000
389.730;   -7.350; -568.000; -687.000
389.859;   23.825;  226.000;   46.000
389.988;   80.650; -423.000; -408.000
390.117;   66.325; -168.000; -146.000
390.246;  -43.525; -331.000; -320.000
390.375;  -36.900; -673.000; -626.000
390.504;  -75.925; -703.000; -621.000
390.633; -128.600; -672.000; -726.000
390.761;  -83.525; -732.000; -645.000
390.890;  -21.775;   -4.000; -130.000
391.019;  -54.650; -421.000; -441.000
391.148; -132.450; -826.000; -855.000
391.277;  -76.625; -576.000; -493.000
391.406; -109.550; -821.000; -805.000
391.534;   14.525;  574.000; -301.000
391.663;  -90.375; -583.000; -645.000
391.792; -101.675; -673.000; -701.000
391.921;    9.025;   -3.000;   15.000
392.050;   50.025; -287.000; -228.000
392.178; -106.675;-1206.000;-1061.000
392.307;   16.175; -758.000; -712.000
392.436;  -23.800; -427.000; -641.000
392.564;    2.125;  166.000;   -6.000
392.693; -101.525; -860.000; -682.000
392.822;   67.475; -529.000; -534.000
392.950;  -12.350; -880.000; -714.000
393.079;  149.050; -188.000; -328.000
393.208;  -30.925; -488.000; -511.000
393.336;  -10.750; -170.000; -145.000
393.465;  -49.700; -317.000; -199.000
393.593;   -5.325;   62.000;   79.000
393.722; -136.175;-1121.000; -916.000
393.850;  -34.600; -188.000;  -61.000
393.979; -135.950; -926.000; -805.000
394.107;  -67.400; -517.000; -537.000
394.236;  -43.275; -570.000; -507.000
394.364;  125.575;  383.000;  206.000
394.493;  154.575; -911.000; -767.000
394.621;    8.575; -955.000; -916.000
394.750; 1081.075; -873.000; -923.000
394.878; 4175.950; -247.000; -149.000
395.007; 6091.325; -721.000; -807.000
395.135;  544.600; -790.000; -721.000
395.263;  -60.500;-1038.000;-1040.000
395.392;    7.300;  -25.000; -107.000
395.520; -142.725; -818.000; -679.000
395.648; -110.075; -865.000; -915.000
395.777;  -65.300; -366.000; -405.000
395.905;  -85.825; -449.000; -564.000
396.033;    1.375;  217.000;  172.000
396.162;  253.650; -399.000; -453.000
396.290;  240.525;  -17.000;   -2.000
396.418;   -9.750; -555.000; -514.000
396.546;  -85.600; -571.000; -466.000
396.674; -126.950; -850.000; -878.000
396.803;   -7.550;  -72.000;  -23.000
396.931;  -14.775; -179.000; -199.000
397.059;  -95.500;-1026.000; -989.000
397.187; -137.925;-1026.000; -975.000
397.315; -137.500; -884.000; -649.000
397.443;  -82.850; -592.000; -443.000
397.572;  -88.575; -578.000; -424.000
397.700;  -81.825; -607.000; -614.000
397.828;   -8.425;  120.000;  -90.000
397.956;  -29.225; -508.000; -478.000
398.084;  -47.475; -767.000; -626.000
398.212;   16.375;  137.000;  124.000
398.340;  -25.500;  -56.000;  159.000
398.468;  -37.075; -390.000; -169.000
398.596; -137.825; -993.000; -953.000
398.724; -118.600; -762.000; -767.000
398.852; -157.275;-1024.000; -976.000
398.980;  -73.750; -560.000; -560.000
399.108;  -86.125; -982.000; -735.000
399.236;    0.275;   13.000;    8.000
399.363;    7.075;  222.000;  196.000
399.491;  -43.275; -404.000; -398.000
399.619; -119.325; -829.000; -800.000
399.747;  -82.025; -859.000; -771.000
399.875;   45.375;  220.000;  234.000
400.003;  -49.075; -359.000; -284.000
400.130;  -86.750; -421.000; -341.000
400.258;  -40.900;  -83.000;   38.000
400.386;  -78.625; -352.000; -168.000
400.514;  -84.575; -526.000; -587.000
400.641; -136.950; -928.000; -802.000
400.769; -148.650; -979.000; -888.000
400.897; -122.975; -838.000; -793.000
401.025;  -35.500; -166.000; -152.000
401.152;   -7.300;  220.000;   38.000
401.280;  -82.750; -430.000; -429.000
401.408; -111.725; -712.000; -576.000
401.535; -117.550; -735.000; -758.000
401.663; -184.775;-1134.000;-1054.000
401.790;  -90.375; -514.000; -525.000
401.918;   24.350;  436.000;  405.000
402.046;  -17.850;  134.000;  122.000
402.173;  -41.600;  -18.000;    7.000
402.301;  -74.900; -519.000; -397.000
402.428;   22.125;  528.000;  383.000
402.556; -157.000;-1188.000; -913.000
402.683;  -45.825;  -20.000;   -1.000
402.811;  -27.050;  -37.000; -206.000
402.938;  -27.650;   20.000;   27.000
403.066;   37.825; -574.000; -558.000
403.193;  165.125;  299.000;  239.000
403.321;  121.325; -396.000; -574.000
403.448;  164.525;   83.000;   27.000
403.575;   77.775;  -90.000;  -46.000
403.703; -104.975; -732.000; -557.000
403.830;  -53.650; -531.000; -496.000
403.957; -137.275;-1117.000;-1023.000
404.085;   20.025;  -61.000; -172.000
404.212;  112.750;  -50.000;   63.000
404.339;  406.450; -566.000; -306.000
404.467; 8292.500; -612.000; -524.000
404.594; 5153.650; -287.000; -227.000
404.721;  971.175; -869.000; -764.000
404.848;  112.375; -113.000; -202.000
404.976;  -92.000; -856.000; -783.000
405.103;   -8.200;  -14.000;  -82.000
405.230;    9.200;  190.000;  226.000
405.357;   59.250;  117.000;   44.000
405.484;  375.900;  -49.000;    5.000
405.612;  108.075; -548.000; -563.000
405.739;  -52.275; -488.000; -243.000
405.866;   77.150;  669.000;  385.000
405.993;  -48.700; -398.000; -102.000
406.120; -129.725; -801.000; -887.000
406.247;  -72.275; -323.000; -342.000
406.374;  158.450;  540.000;  629.000
406.501;  -51.175; -632.000; -702.000
406.628;  -84.325; -621.000; -589.000
406.755; -114.925; -803.000; -620.000
406.882;  -75.350; -228.000; -277.000
407.009; -109.275; -719.000; -628.000
407.136;  -30.025; -480.000; -401.000
407.263;   -8.300; -939.000; -829.000
407.390;  -85.350; -692.000; -614.000
407.517; -176.900;-1139.000;-1187.000
407.644;  -77.325; -332.000; -256.000
407.771;  -93.125; -249.000; -287.000
407.898;    0.375;  168.000;  328.000
408.025;  -78.100; -421.000; -313.000
408.151;  -23.000;   82.000;  153.000
408.278;  -73.225; -267.000; -216.000
408.405; -133.425; -931.000; -899.000
408.532;  -78.400; -549.000; -542.000
408.659; -125.200; -677.000; -648.000
408.785; -182.000;-1298.000;-1170.000
408.912;  -68.250; -412.000; -296.000
409.039; -108.950; -610.000; -686.000
409.166; -115.000; -591.000; -555.000
409.292; -109.525; -571.000; -534.000
409.419; -127.350; -665.000; -649.000
409.546;  -99.950; -431.000; -192.000
409.672; -121.825; -713.000; -545.000
409.799;  -51.775;  -36.000;   34.000
409.926;  -62.350; -180.000; -179.000
410.052; -177.325;-1127.000;-1091.000
410.179;  -66.525; -368.000; -392.000
410.305;  -78.600; -375.000; -493.000
410.432;  -45.175; -220.000; -333.000
410.558; -100.950; -305.000; -380.000
410.685; -100.125; -688.000; -431.000
410.812; -104.000; -409.000; -588.000
410.938; -140.925; -964.000; -808.000
411.065; -102.825; -671.000; -645.000
411.191;  -34.925; -189.000; -174.000
411.317; -134.025; -823.000; -742.000
411.444;  -77.375; -317.000; -246.000
411.570;  -77.550; -339.000; -294.000
411.697; -125.000; -758.000; -752.000
411.823; -165.875; -989.000; -999.000
411.949;  -44.650;  -56.000;   17.000
412.076; -118.000; -539.000; -519.000
412.202; -123.250; -758.000; -757.000
412.329; -136.875; -798.000; -752.000
412.455; -110.100; -821.000; -657.000
412.581;  -21.800;  -15.000;  172.000
412.707;  -88.350; -540.000; -457.000
412.834;    0.125;  156.000;  219.000
412.960;  -98.350; -785.000; -784.000
413.086; -109.075; -743.000; -701.000
413.212;  136.050;  604.000;  578.000
413.339;  -72.900; -685.000; -701.000
413.465;  -43.325; -364.000; -310.000
413.591; -114.600; -757.000; -474.000
413.717;  -56.275; -358.000; -366.000
413.843; -145.725; -839.000; -861.000
413.969;  -56.425;  -47.000; -292.000
414.096; -108.025; -679.000; -679.000
414.222;  -14.100;  -33.000;   85.000
414.348;  -76.300; -652.000; -385.000
414.474;    7.425;   38.000;  -52.000
414.600;  -21.275; -126.000; -144.000
414.726;  -15.250;  -96.000;  -55.000
414.852;  -57.475; -365.000; -342.000
414.978;   43.075;  104.000;  -18.000
415.104;   55.000;   38.000;   80.000
415.230;   36.550; -329.000; -330.000
415.356;   67.525; -409.000; -514.000
415.482;  227.375;   13.000;  -35.000
415.608;  393.150; -247.000; -323.000
415.734; 1319.850;   67.000;   38.000
415.860;27026.400; -875.000; -767.000
415.986;22006.125; -685.000; -607.000
416.111; 2033.625; -798.000; -652.000
416.237;  440.650; -424.000; -571.000
416.363; 1575.425; -765.000; -733.000
416.489; 6220.075; -324.000; -251.000
416.615;  819.325; -707.000; -742.000
416.741;   35.725; -677.000; -784.000
416.866;  -66.075; -673.000; -736.000
416.992; -113.225; -801.000; -818.000
417.118;  -34.700;  -41.000;  -80.000
417.244;  -78.150; -798.000; -531.000
417.369;  -80.200; -801.000; -612.000
417.495;  -15.850; -325.000; -254.000
417.621;  -84.825;-1015.000; -803.000
417.746;    8.350; -579.000; -572.000
417.872;   47.675; -254.000; -144.000
417.998;  109.375; -515.000; -530.000
418.123; 1454.175;-1073.000; -845.000
418.249; 8058.125; -512.000; -601.000
418.374; 1342.875; -916.000; -824.000
418.500;  201.825; -383.000; -482.000
418.626;  142.700;   70.000;  -59.000
418.751;  136.625; -549.000; -448.000
418.877;  287.400; -637.000; -643.000
419.002; 2429.150; -688.000; -560.000
419.128;18076.775; -930.000; -721.000
419.253; 5049.500; -967.000; -837.000
419.379;  691.150; -391.000; -338.000
419.504;  533.150;  325.000;  415.000
419.629;  771.075; -393.000; -212.000
419.755; 4910.250; -317.000; -254.000
419.880;31374.850;  -98.000;   67.000
420.006;16189.725; -280.000; -221.000
420.131;40816.700; -662.000; -775.000
420.256; 6588.450; -315.000; -316.000
420.382;  897.000; -665.000; -687.000
420.507;  142.500; -649.000; -778.000
420.632;   56.200; -337.000; -339.000
420.758;  123.750; -251.000; -425.000
420.883; -107.700; -876.000; -672.000
421.008; -101.600; -775.000; -619.000
421.133;  -89.125; -509.000; -467.000
421.259;  -64.600; -325.000; -259.000
421.384; -129.200; -834.000; -693.000
421.509; -109.550;-1052.000; -862.000
421.634;  470.750; -936.000; -820.000
421.759;  234.600; -359.000; -327.000
421.885;  -71.675; -717.000; -656.000
422.010;  -78.500; -673.000; -542.000
422.135; -143.775; -695.000; -727.000
422.260;   14.925;  340.000;  280.000
422.385;  -52.250;   12.000;  -98.000
422.510;   -4.950;  151.000;  -26.000
422.635;  -12.825;  -87.000;  -43.000
422.760;   15.200; -766.000; -791.000
422.885;   21.575;  -57.000;  -80.000
423.010;  -43.400; -112.000; -169.000
423.135;  -91.700; -481.000; -561.000
423.260;  -42.850; -150.000; -245.000
423.385;   30.075;  476.000;  222.000
423.510;    3.450;   71.000;  -22.000
423.635;   10.775;  133.000;   45.000
423.760;   47.750;  383.000;  328.000
423.885;   28.850;  336.000;  391.000
424.010;   -0.300;  -68.000;  -13.000
424.135;  -34.375;    5.000;  -33.000
424.259;  -88.825; -654.000; -457.000
424.384;  -42.275; -279.000; -272.000
424.509;  -18.200; -260.000; -186.000
424.634;  -88.650; -761.000; -623.000
424.759;  -27.050; -688.000; -544.000
424.883;   -5.100; -506.000; -527.000
425.008;  192.700; -502.000; -410.000
425.133; 2692.225; -679.000; -653.000
425.258; 1433.025; -517.000; -381.000
425.382;  652.725; -867.000; -774.000
425.507; 1642.500; -487.000; -543.000
425.632;  416.250; -802.000; -663.000
425.756;  611.575; -256.000; -146.000
425.881; 8786.925; -831.000; -857.000
426.006;26832.375; -604.000; -355.000
426.130; 4403.550; -696.000; -508.000
426.255;  622.350; -611.000; -491.000
426.379;  262.650; -189.000; -577.000
426.504;  476.825;  660.000;  544.000
426.629; 5627.925; -519.000; -466.000
426.753; 4361.775;   64.000;  -46.000
426.878;  526.300; -252.000; -288.000
427.002;  296.625; -651.000; -668.000
427.127; 1936.700;  -35.000; -158.000
427.251;16019.275;  372.000;  401.000
427.375; 5185.750; -191.000; -173.000
427.500; 1645.225; -616.000; -610.000
427.624;  549.175; -234.000; -400.000
427.749;  110.900; -216.000; -225.000
427.873;   -5.500; -499.000; -412.000
427.997;  -39.025; -222.000; -230.000
428.122;   64.900;  795.000;  703.000
428.246;   31.125;  433.000;  434.000
428.371; -138.500; -869.000; -773.000
428.495;  -99.100; -624.000; -646.000
428.619;  -45.450; -186.000; -117.000
428.743;   -3.775;   65.000;  132.000
428.868;  -55.200; -732.000; -643.000
428.992;  786.925; -219.000; -326.000
429.116;  310.250; -329.000; -357.000
429.240;  176.775;  419.000;  426.000
429.365;  -28.900; -454.000; -574.000
429.489;  -55.075; -638.000; -647.000
429.613;   32.950; -236.000; -177.000
429.737;   70.250; -563.000; -432.000
429.861;  364.000; -247.000; -133.000
429.985; 7497.425; -425.000; -305.000
430.109; 9499.450; -770.000; -908.000
430.234; 1163.925;   76.000;  -50.000
430.358;  126.725; -250.000; -160.000
430.482;  -44.900; -672.000; -564.000
430.606;  -74.500; -655.000; -375.000
430.730;  -35.950; -437.000; -388.000
430.854;  -52.975; -909.000; -835.000
430.978;  -98.025; -795.000; -764.000
431.102; -100.150; -499.000; -422.000
431.226; -126.450; -874.000; -815.000
431.350;   36.150;  345.000;  422.000
431.474;  -96.425; -661.000; -373.000
431.597; -168.525;-1060.000; -848.000
431.721;  -69.375; -276.000; -267.000
431.845; -124.950; -704.000; -472.000
431.969;  -72.725; -304.000; -349.000
432.093;  -95.400; -395.000; -317.000
432.217;  -24.025;   32.000;   82.000
432.341; -105.800; -523.000; -518.000
432.464;   -8.600;   96.000;   40.000
432.588;    7.200; -401.000; -329.000
432.712;   33.225;  -52.000;  -52.000
432.836;   49.425;  213.000;  263.000
432.959;   22.275; -372.000; -311.000
433.083;  142.725;   11.000;    2.000
433.207;  528.800;  285.000;  930.000
433.330; 7077.600; -391.000; -200.000
433.454; 9794.475; -654.000; -638.000
433.578; 5425.550;  583.000;  278.000
433.701; 1154.125; -623.000; -675.000
433.825;  158.625; -292.000; -299.000
433.949;   83.675;   28.000;  -72.000
434.072;    0.000; -410.000; -323.000
434.196;   -3.225; -309.000; -117.000
434.319; 3503.850;25482.000;25124.000
434.443;  814.275; -656.000; -603.000
434.566; 3783.200;  281.000;   62.000
434.690;  801.350; -637.000; -383.000
434.813;  125.750; -251.000; -173.000
434.937;  -35.925; -569.000; -696.000
435.060;  -80.150; -423.000; -332.000
435.184;   62.450; -492.000; -217.000
435.307;   50.900;  159.000;  102.000
435.431;  -14.875;  -40.000;   24.000
435.554;  -90.700; -399.000; -240.000
435.677;  -76.275; -350.000; -258.000
435.801;  -55.475;  -25.000;   49.000
435.924;  -32.825;    1.000;  -67.000
436.048; -134.650;-1019.000; -732.000
436.171;  -74.200; -240.000;  -66.000
436.294;  -12.175; -248.000; -229.000
436.417;  197.975; -963.000; -849.000
436.541;  -50.275; -814.000; -840.000
436.664;  -41.175; -242.000; -316.000
436.787;  -29.100;   13.000;  113.000
436.910; -109.550; -792.000; -422.000
437.034;  -19.300;  142.000;  143.000
437.157;   23.175;  -11.000;    0.000
437.280;  -76.850; -392.000; -292.000
437.403; -127.550; -982.000; -869.000
437.526;  190.450; -903.000; -865.000
437.649; 1083.725; -505.000; -332.000
437.772;  124.525; -692.000; -540.000
437.896;   58.900;  700.000;  544.000
438.019;  -93.800; -758.000; -503.000
438.142;  -95.675; -596.000; -506.000
438.265; -115.725; -639.000; -670.000
438.388;  119.575; -520.000; -410.000
438.511;  -24.825; -597.000; -394.000
438.634;  -65.275; -247.000; -125.000
438.757; -133.400; -693.000; -619.000
438.880;  -38.925;  -34.000;  -57.000
439.003;  -94.325; -417.000; -437.000
439.126;  -62.175; -287.000; -167.000
439.248;  -75.500;  -98.000; -139.000
439.371;  -41.450;    9.000;  -53.000
439.494;    8.350;  510.000;  439.000
439.617;  -51.975;   65.000;  -88.000
439.740; -172.050; -968.000; -816.000
439.863; -141.575; -755.000; -595.000
439.986; -116.725; -476.000; -431.000
440.108;  -39.200; -161.000; -112.000
440.231; -176.800; -950.000; -836.000
440.354;  -74.525;  -64.000; -150.000
440.477;  -92.750; -566.000; -542.000
440.599;  -70.150; -200.000; -225.000
440.722; -142.850; -709.000; -586.000
440.845;   42.900;  751.000;  928.000
440.968; -109.050; -415.000; -311.000
441.090;  -69.275; -199.000;  -33.000
441.213; -168.825;-1021.000; -825.000
441.336;  -71.800; -159.000;   -5.000
441.458;  -96.850; -549.000; -396.000
441.581;  -99.000; -628.000; -629.000
441.703;  -84.325; -152.000;   13.000
441.826; -121.675; -557.000; -400.000
441.948;  -57.000;   56.000;   51.000
442.071;    8.225;  555.000;  424.000
442.193; -119.750; -531.000; -485.000
442.316;    5.375;  152.000;   97.000
442.438;   68.525; -233.000;  -10.000
442.561;   70.525;  272.000;  262.000
442.683;  179.675; -809.000; -522.000
442.806;  552.850;   -8.000;   74.000
442.928;  -60.250; -859.000; -604.000
443.051;  -66.300; -577.000; -373.000
443.173; -112.875; -341.000; -339.000
443.295;  -86.100; -263.000; -371.000
443.418;  -82.950; -321.000;  -29.000
443.540;  -27.650; -106.000;   -4.000
443.662; -126.125; -563.000; -465.000
443.785;  -28.725;  335.000;  199.000
443.907; -106.950; -362.000; -208.000
444.029; -114.300; -767.000; -494.000
444.152; -149.200; -644.000; -554.000
444.274;  -42.775;  -18.000;  -24.000
444.396; -113.400; -461.000; -221.000
444.518; -130.625; -691.000; -454.000
444.640; -106.475; -268.000; -111.000
444.763;  -22.150;  388.000;  249.000
444.885; -127.700; -432.000; -392.000
445.007;  -43.975;   35.000;   86.000
445.129; -119.975; -610.000; -515.000
445.251; -119.075; -372.000; -439.000
445.373; -148.575; -537.000; -386.000
445.495;   -4.525;  242.000;  350.000
445.617;   37.600;  853.000;  753.000
445.739;  -86.175; -215.000;  -97.000
445.861;  -68.900; -245.000; -112.000
445.984;  -60.850; -267.000; -101.000
446.105;   17.525; -418.000; -251.000
446.227;  236.025; -176.000;  -19.000
446.349;  -50.750; -358.000; -249.000
446.471; -113.375; -615.000; -448.000
446.593;  -96.275; -316.000;   19.000
446.715;  -50.875;  -67.000;   41.000
446.837;   34.800;  697.000;  832.000
446.959; -105.125; -457.000; -478.000
447.081; -130.425; -628.000; -518.000
447.203;   35.775;  862.000;  834.000
447.325;  -94.425; -270.000;   42.000
447.446;  -17.100;  286.000;  530.000
447.568; -172.200; -921.000; -803.000
447.690;  -85.950; -236.000; -245.000
447.812; -144.800; -798.000; -519.000
447.933;  -34.175;  155.000;  127.000
448.055;  -72.275; -306.000; -261.000
448.177;   42.950;   31.000;   79.000
448.299;  -56.800; -935.000; -727.000
448.420;    8.950;  -25.000;  159.000
448.542;  -63.650;   -3.000;   33.000
448.664;  -35.850;  109.000;  322.000
448.785;  -44.275;  265.000;   83.000
448.907; -104.375; -614.000; -353.000
449.028; -101.225; -771.000; -471.000
449.150;   49.650;  492.000;  589.000
449.272; -171.975;-1044.000; -913.000
449.393;   23.175;  612.000;  694.000
449.515; -153.650; -634.000; -581.000
449.636;  -86.050; -264.000; -155.000
449.758;   41.125;  763.000;  622.000
449.879;  -88.725; -498.000; -396.000
450.001;  -79.925; -149.000;  -49.000
450.122;  -33.625;  -95.000;  162.000
450.244;  -25.450;   37.000;  364.000
450.365;  -74.775; -495.000; -301.000
450.486;  -28.875;   80.000;  268.000
450.608;   46.975;  393.000;  326.000
450.729;   88.850;  578.000;  645.000
450.850;   74.500; -574.000; -466.000
450.972; 1112.050; -552.000; -389.000
451.093; 7229.425;  190.000;  588.000
451.214; 3639.375; -516.000; -337.000
451.336;  630.800;  773.000;  579.000
451.457;   98.700;  264.000;  393.000
451.578;  -27.575; -118.000;  -74.000
451.699; -101.150; -546.000; -540.000
451.821;  -51.925; -284.000;  -50.000
451.942;   -7.725;  278.000;  285.000
452.063;   37.950;  228.000;  419.000
452.184;  749.375;  -54.000;  -49.000
452.305; 1623.725;  103.000;  170.000
452.427;  297.875; -549.000; -301.000
452.548;    2.725;   23.000;   79.000
452.669;  -70.700; -257.000;  -89.000
452.790;  -49.950;    3.000;  -18.000
452.911;  -29.700;  195.000;  259.000
453.032;  -68.600; -289.000;  -60.000
453.153;  -73.325;  -29.000;   81.000
453.274;   56.425;  737.000;  868.000
453.395;  -64.300;  -51.000;  175.000
453.516;   94.625; 1317.000; 1388.000
453.637;  -86.750; -205.000; -150.000
453.758;  -57.125;   15.000;   69.000
453.879; -115.900; -462.000; -250.000
454.000;   70.100; 1086.000;  948.000
454.121; -126.250; -554.000; -326.000
454.242; -113.600; -599.000; -383.000
454.362;  -37.875;  -99.000;  114.000
454.483;  -25.675; -309.000; -229.000
454.604;   68.225;  512.000;  580.000
454.725; -123.800; -627.000; -555.000
454.846; -130.425; -474.000; -406.000
454.967;  -32.550;  230.000;  539.000
455.087;  -49.600;  179.000;  153.000
455.208;   13.900;  554.000;  856.000
455.329;  -63.050;  -22.000;   82.000
455.450;   60.475;  473.000;  633.000
455.570;  -81.700; -234.000; -211.000
455.691;  -44.550;  201.000;  407.000
455.812; -101.150; -270.000;  -92.000
455.932;  -45.925;  107.000;  -97.000
456.053; -101.225;   36.000;   24.000
456.173; -101.850; -433.000; -355.000
456.294; -136.650; -476.000; -303.000
456.415;  -62.825;  -73.000;   70.000
456.535;  -44.600;  297.000;  273.000
456.656;  -52.700;  132.000;  240.000
456.776;  -60.750;    3.000;  298.000
456.897;   -4.900;  308.000;  513.000
457.017;  -84.150; -153.000;   -3.000
457.138; -104.025; -402.000; -249.000
457.258;  -31.800;  263.000;  224.000
457.379;  -25.425;  509.000;  521.000
457.499;  -31.925;  443.000;  432.000
457.620; -125.425; -407.000; -231.000
457.740;  -93.425; -132.000;  -11.000
457.860;  -49.875;   87.000;   44.000
457.981;  -53.125;  132.000;  124.000
458.101;  -75.525;  -89.000;   40.000
458.221;  -25.925;  336.000;  402.000
458.342;  -60.600;   -4.000;  -37.000
458.462;   27.100;  617.000;  352.000
458.582;   -7.875; -302.000; -294.000
458.703;   48.950;  303.000;  154.000
458.823;    1.700;   22.000;  163.000
458.943;   32.850;  341.000;  467.000
459.063;   27.300; 1124.000;  192.000
459.183;  -23.575;  328.000;  313.000
459.304;   26.850;  315.000;  517.000
459.424;  -45.350; -246.000;  -89.000
459.544;  447.300;  388.000;  764.000
459.664; 1220.225;  499.000;  506.000
459.784;  463.075; 1004.000; 1175.000
459.904;   70.175;  867.000;  744.000
460.024;   66.375;  867.000;  684.000
460.144;  -10.825;  449.000;  554.000
460.264;   -1.825;  515.000;  327.000
460.385;  -92.575; -145.000; -119.000
460.505;   23.100;  905.000;  858.000
460.625; -101.625;  -17.000;  -68.000
460.745;  -14.100;  396.000;  541.000
460.864;  -41.475;  153.000;  469.000
460.984;   42.175;  499.000;  573.000
461.104;  143.750; 1656.000; 1775.000
461.224;   17.050;  657.000;  650.000
461.344;  -44.925;  431.000;  360.000
461.464;  -43.000;  258.000;  513.000
461.584;  -25.550;  283.000;  466.000
461.704;  -52.450;   58.000;  108.000
461.824;  -67.500;  238.000;  259.000
461.943;  -48.450;  191.000;  130.000
462.063;  -71.425;    2.000;  324.000
462.183;   23.775;  639.000;  717.000
462.303;   74.000; 1678.000; 1230.000
462.422;   31.675;  781.000;  840.000
462.542;  -24.850;  271.000;  391.000
462.662;   34.450;  353.000;  380.000
462.782;  311.025;  833.000;  572.000
462.901;  697.850;  545.000;  717.000
463.021;  383.675; 1702.000; 1638.000
463.141;    3.925;  337.000;  770.000
463.260;  -22.775;  614.000;  474.000
463.380;   11.425;  902.000;  884.000
463.499;  -38.000;  342.000;  332.000
463.619;  -29.000;  581.000;  559.000
463.738;  101.375; 1644.000;  903.000
463.858;    9.225;  657.000;  811.000
463.978;  -26.725;  542.000;  396.000
464.097;   58.150;  921.000; 1114.000
464.217;  132.675; 1196.000; 1143.000
464.336;  133.625; 1068.000; 1130.000
464.455;  -20.775;  328.000;  659.000
464.575;   15.100;  597.000;  602.000
464.694;  111.600; 1204.000; 1179.000
464.814;  142.675; 1190.000; 1138.000
464.933;   79.675; 1095.000; 1027.000
465.052;   96.700; 1412.000; 1054.000
465.172;   64.500;  922.000;  799.000
465.291;  133.350; 1376.000; 1320.000
465.410;    0.625;  462.000;  735.000
465.530;   97.200; 1355.000; 1310.000
465.649;   54.300; 1209.000; 1273.000
465.768;  147.050; 1673.000; 1508.000
465.888;   61.650;  941.000; 1174.000
466.007;   85.700; 1335.000; 1440.000
466.126;  -18.850;  721.000;  641.000
466.245;   39.325; 1176.000; 1187.000
466.364;   25.175;  950.000; 1060.000
466.484;   48.075; 1024.000; 1213.000
466.603;   33.450; 1101.000; 1222.000
466.722;   97.675; 1490.000; 1769.000
466.841;   61.325; 1151.000; 1401.000
466.960;   44.200; 1069.000;  972.000
467.079;  104.250; 1971.000; 1786.000
467.198;   56.475; 1238.000; 1181.000
467.317;   76.750; 1768.000; 1162.000
467.436;   78.750; 1709.000; 1261.000
467.555;  120.800; 1796.000; 1746.000
467.674;   69.300; 1227.000; 1329.000
467.793;   59.350; 1376.000; 1374.000
467.912;   90.675; 1658.000; 1539.000
468.031;  123.150; 2038.000; 1930.000
468.150;  118.400; 1842.000; 1837.000
468.269;  186.225; 2313.000; 2090.000
468.388;  170.275; 2168.000; 2339.000
468.507;  241.325; 2884.000; 2903.000
468.626;  279.700; 2555.000; 2541.000
468.744;  135.575; 2018.000; 2174.000
468.863;  194.975; 2312.000; 2523.000
468.982;   87.300; 1503.000; 1555.000
469.101;  227.825; 2788.000; 2692.000
469.220;  167.550; 2333.000; 2176.000
469.338;  240.800; 2935.000; 3051.000
469.457;  201.675; 2719.000; 2545.000
469.576;  339.550; 3953.000; 3784.000
469.695;  245.000; 2877.000; 3066.000
469.813;  410.950; 4148.000; 4192.000
469.932;  401.725; 4255.000; 4485.000
470.051;  440.750; 4075.000; 4161.000
470.169;  990.350; 4470.000; 4338.000
470.288; 1896.800; 4700.000; 4809.000
470.406; 1094.825; 5059.000; 5194.000
470.525;  658.175; 6101.000; 5787.000
470.644;  641.475; 6847.000; 6794.000
470.762;  811.850; 8397.000; 7873.000
470.881;  912.975; 8651.000; 8464.000
470.999; 1050.025; 9685.000; 9151.000
471.118; 1128.150;11174.000;10711.000

