
Integration time [ms]: 200.000
Averaging Nr. [scans]: 10
Smoothing Nr. [pixels]: 0
Data measured with spectrometer [name]: 2101012U2
Wave   ;Sample   ;Dark     ;Reference
[nm]   ;[counts] ;[counts] ;[counts] 

197.733;   97.900;  516.000;  404.000
197.879; -179.600; -610.000; -634.000
198.025; -111.300; -475.000; -420.000
198.171; -127.300; -602.000; -612.000
198.317;  -75.100; -401.000; -316.000
198.463; -136.400; -655.000; -404.000
198.609;   50.600;  181.000; -137.000
198.755; -138.300; -644.000; -410.000
198.901; -159.700; -505.000; -424.000
199.047; -128.900; -615.000; -488.000
199.193; -125.800; -230.000; -468.000
199.339;  -96.200; -222.000; -369.000
199.485;   57.600;  330.000;  271.000
199.631;   50.500;  227.000;  310.000
199.777; -134.000; -466.000; -398.000
199.923; -129.500; -610.000; -424.000
200.069;  -34.500; -141.000;  -58.000
200.215;  105.400;  128.000;  453.000
200.361;   72.500;  243.000;  477.000
200.507; -111.600; -600.000; -373.000
200.653;  -56.900; -371.000; -194.000
200.798;  -70.500; -215.000; -125.000
200.944;   -0.400; -146.000;  -41.000
201.090;   74.700;   61.000;  222.000
201.236;  -20.900; -116.000; -158.000
201.382;  268.900;  874.000;  903.000
201.528;   20.200;  -58.000;  -48.000
201.674;  -97.800; -386.000; -293.000
201.819; -121.600; -540.000; -439.000
201.965; -170.100; -699.000; -447.000
202.111;  -62.200; -273.000; -226.000
202.257;  -51.400; -250.000; -238.000
202.402;  -14.200;   13.000;  -36.000
202.548;  -42.800; -169.000; -116.000
202.694;  167.600;  410.000; -183.000
202.840; -109.800; -603.000; -531.000
202.985; -167.300; -681.000; -639.000
203.131; -231.000; -832.000; -666.000
203.277;  -58.100; -199.000; -262.000
203.423; -112.900; -434.000; -520.000
203.568; -103.300; -462.000; -237.000
203.714; -126.400; -535.000; -542.000
203.860; -172.400; -682.000; -641.000
204.005;   15.100;  112.000;  167.000
204.151;  122.100;  561.000;  556.000
204.296;  -99.700; -354.000; -221.000
204.442; -159.300; -600.000; -547.000
204.588; -145.200; -592.000; -579.000
204.733;   15.200;  178.000;  168.000
204.879; -241.600;-1018.000; -822.000
205.025;   -1.000;  -99.000;  126.000
205.170;   -3.000;  -17.000;   94.000
205.316;  184.900;  438.000;  661.000
205.461; -171.500; -698.000; -554.000
205.607;  172.800;  609.000;  665.000
205.752; -147.700; -626.000; -551.000
205.898; -121.700; -501.000; -391.000
206.043; -132.700; -578.000; -506.000
206.189;  -76.000; -243.000; -285.000
206.334;  195.500;  554.000;  606.000
206.480;  185.600;  409.000;  239.000
206.625; -153.100; -529.000; -552.000
206.771; -105.200; -451.000; -373.000
206.916;  -42.000; -210.000; -537.000
207.062; -160.400; -545.000; -591.000
207.207; -106.900; -546.000; -443.000
207.353;  109.200;  185.000;  460.000
207.498;   -3.200;  196.000;   85.000
207.643; -110.300; -501.000; -370.000
207.789; -259.400;-1069.000; -910.000
207.934; -187.400; -665.000; -713.000
208.080;  -48.400; -154.000;   66.000
208.225;  -13.900;  -22.000;  -57.000
208.370; -166.300; -727.000; -619.000
208.516; -152.200; -741.000; -487.000
208.661;  -40.400; -127.000;  -69.000
208.806;  -36.700; -165.000; -171.000
208.952; -267.700;-1044.000; -731.000
209.097;  164.700;  378.000;  349.000
209.242;  -88.800; -307.000; -382.000
209.387;   89.200;  392.000;  350.000
209.533;  -93.100; -321.000; -350.000
209.678;  168.600;  472.000;  543.000
209.823; -119.600; -408.000; -310.000
209.969; -198.000; -860.000; -757.000
210.114; -199.500; -907.000; -719.000
210.259; -245.400; -939.000; -889.000
210.404;  -20.800; -171.000;  103.000
210.549;   28.700;  108.000;    3.000
210.695;  -11.300;   -3.000;  -95.000
210.840;   70.500;   94.000;   67.000
210.985; -122.700; -484.000; -303.000
211.130;  142.700;  268.000;  406.000
211.275;   46.200;  207.000;  199.000
211.420; -101.800; -300.000; -289.000
211.566; -127.000; -536.000; -489.000
211.711;   26.300;  218.000;  157.000
211.856; -127.800; -545.000; -519.000
212.001;   28.500;  151.000;   44.000
212.146;   24.200;  153.000;   49.000
212.291;  -43.200; -210.000; -186.000
212.436;  -37.200; -280.000;   -6.000
212.581; -182.400; -685.000; -653.000
212.726; -124.100; -487.000; -538.000
212.871; -117.100; -552.000; -217.000
213.016; -330.500;-1172.000;-1029.000
213.161;  135.600;  406.000;  291.000
213.306; -127.800; -435.000; -577.000
213.451; -175.500; -778.000; -689.000
213.596;  -78.100; -455.000; -347.000
213.741; -122.500; -448.000; -538.000
213.886; -135.800; -498.000; -517.000
214.031;  -38.600; -294.000; -124.000
214.176;  -97.900; -408.000; -341.000
214.321;  -63.900; -296.000; -157.000
214.466;  -60.200; -163.000;  -43.000
214.611;   -5.400;  -61.000;  -10.000
214.756; -241.800; -948.000; -858.000
214.901;  -62.200; -388.000; -226.000
215.046; -242.100; -797.000; -825.000
215.191;   35.000;  128.000;   35.000
215.336;    3.600; -157.000;  -19.000
215.480; -166.500; -684.000; -505.000
215.625;   -6.000; -175.000;  -19.000
215.770; -189.300; -757.000; -662.000
215.915;    6.000;   -5.000;  -97.000
216.060;  -18.600; -113.000;  -21.000
216.205; -190.800; -731.000; -779.000
216.349; -161.200; -470.000; -533.000
216.494; -271.000; -939.000; -867.000
216.639; -243.300; -823.000; -888.000
216.784; -173.200; -577.000; -525.000
216.929;  126.400;  392.000;  281.000
217.073;  -20.800; -244.000;  -31.000
217.218;   20.400;   78.000;  -47.000
217.363; -178.500; -656.000; -618.000
217.507; -193.200; -623.000; -588.000
217.652; -271.500; -845.000; -874.000
217.797; -181.800; -708.000; -659.000
217.942; -215.600; -856.000; -720.000
218.086;  139.500;  608.000;  539.000
218.231;  -59.400; -174.000;  -26.000
218.376;  -79.900; -337.000; -229.000
218.520;   -5.500;  -41.000;   96.000
218.665;  -88.300; -338.000; -204.000
218.810;  -46.100; -275.000; -233.000
218.954;   21.400;  201.000;   35.000
219.099; -219.800; -713.000; -963.000
219.243; -136.100; -589.000; -554.000
219.388;  -49.200; -264.000; -136.000
219.532;  -37.500; -116.000; -116.000
219.677; -173.500; -564.000; -521.000
219.822;  -12.800;   33.000;   89.000
219.966;   19.100;   17.000;  -99.000
220.111;  -49.100; -328.000;  -40.000
220.255; -181.600; -797.000; -750.000
220.400;  -30.300; -180.000; -146.000
220.544; -152.200; -516.000; -450.000
220.689; -140.900; -422.000; -451.000
220.833;  -42.000; -123.000;  -58.000
220.978;  -71.400; -393.000; -563.000
221.122;   73.100;  319.000;  307.000
221.267; -254.100; -906.000; -837.000
221.411; -133.300; -478.000; -394.000
221.555;  -18.600; -104.000;  -23.000
221.700;  -70.500; -329.000; -222.000
221.844;  104.400;  255.000;  272.000
221.989; -123.700; -328.000; -311.000
222.133;  -91.400; -289.000; -307.000
222.277;  -30.000;    5.000;   78.000
222.422;   29.500;  227.000;  113.000
222.566;  -81.500; -381.000; -214.000
222.711; -111.400; -414.000; -479.000
222.855; -145.100; -643.000; -586.000
222.999; -200.900; -642.000; -717.000
223.144;  -54.900; -195.000; -194.000
223.288;  113.300;  423.000;  251.000
223.432;   31.900;  184.000;  230.000
223.576;   52.300;  152.000;  -21.000
223.721;  118.400;  364.000;  273.000
223.865; -122.600; -472.000; -475.000
224.009;  503.800; 1673.000; 1631.000
224.153; -177.700; -660.000; -671.000
224.298; -147.100; -531.000; -489.000
224.442;  -57.000;  -74.000;  -33.000
224.586;   13.800; -169.000; -106.000
224.730; -195.200; -858.000; -670.000
224.875; -226.300; -739.000; -688.000
225.019;   43.800;  102.000;  188.000
225.163;  125.600;  208.000;  341.000
225.307;   15.400;   97.000;  -91.000
225.451;   94.100;  360.000;  481.000
225.595;   68.500;  264.000;  176.000
225.739;  -17.600; -170.000;  -94.000
225.884;    7.300;   86.000;    5.000
226.028; -200.900; -760.000; -626.000
226.172;  -84.300; -260.000; -273.000
226.316; -255.400; -941.000; -902.000
226.460; -144.500; -645.000; -493.000
226.604;  -68.900; -406.000; -400.000
226.748; -199.100; -836.000; -733.000
226.892;  -50.200; -227.000; -181.000
227.036; -115.200; -537.000; -447.000
227.180; -104.600; -551.000; -375.000
227.324; -139.400; -561.000; -580.000
227.468; -248.000; -819.000; -717.000
227.612;    7.500;  242.000;  -28.000
227.756; -251.800; -845.000; -698.000
227.900;   98.600;  342.000;  441.000
228.044;  -93.600; -509.000; -290.000
228.188;   98.300;  448.000;  568.000
228.332; -195.700; -546.000; -472.000
228.476;  -79.400; -223.000; -149.000
228.620;  -70.000; -210.000; -150.000
228.764;  110.600;  431.000;  349.000
228.908;  -34.100; -155.000;   30.000
229.052; -140.900; -615.000; -528.000
229.195;  -41.900; -172.000;   13.000
229.339;  -38.800; -235.000; -305.000
229.483;  -61.800;    5.000; -162.000
229.627;   -1.900; -156.000;  139.000
229.771; -103.100; -218.000; -294.000
229.915;    8.600;  230.000;   79.000
230.059; -178.000; -648.000; -663.000
230.202;  -81.000; -370.000; -317.000
230.346;  -21.400; -107.000;  107.000
230.490; -119.500; -489.000; -521.000
230.634; -213.300; -736.000; -553.000
230.777;  157.800;  478.000;  509.000
230.921; -109.500; -450.000; -359.000
231.065;  -79.900; -246.000; -286.000
231.209;   60.400;  261.000;  265.000
231.352;   55.600;   54.000;   40.000
231.496;   40.200;  568.000;  188.000
231.640; -157.900; -693.000; -621.000
231.783;  157.200;  546.000;  525.000
231.927;  -96.200; -294.000; -365.000
232.071; -256.400; -962.000; -736.000
232.214; -236.800; -980.000; -764.000
232.358; -194.400; -683.000; -599.000
232.502;    0.200;  -19.000;    7.000
232.645; -265.200;-1090.000; -927.000
232.789;  -73.100; -257.000; -218.000
232.933;  -54.600; -407.000; -224.000
233.076; -269.700;-1038.000; -897.000
233.220; -190.600; -752.000; -777.000
233.363; -164.000; -669.000; -477.000
233.507;  142.700;  371.000;  129.000
233.650; -201.000; -764.000; -834.000
233.794;   85.000;  438.000;  461.000
233.938; -142.900; -530.000; -362.000
234.081;  -33.300;  -93.000;   31.000
234.225; -135.700; -631.000; -539.000
234.368; -211.100; -773.000; -723.000
234.512;  -97.200; -385.000; -299.000
234.655; -193.200; -582.000; -555.000
234.798; -127.200; -493.000; -466.000
234.942; -247.500; -884.000;-1002.000
235.085; -145.100; -651.000; -443.000
235.229; -166.800; -405.000; -410.000
235.372;  -91.500; -247.000; -191.000
235.516; -134.100; -397.000; -321.000
235.659;   31.900;   92.000;  121.000
235.802;  -19.900;  -38.000;  -22.000
235.946;   76.600;  335.000;  215.000
236.089;   83.700;  126.000;  250.000
236.233;  121.200;  275.000;  298.000
236.376; -101.800; -235.000; -378.000
236.519;  -75.100; -297.000; -319.000
236.663;  -39.700; -215.000; -117.000
236.806; -287.100;-1029.000; -999.000
236.949;  153.300;  543.000;  431.000
237.092;  136.100;  412.000;  391.000
237.236; -168.600; -589.000; -502.000
237.379;  161.200;  352.000;  428.000
237.522; -218.300; -879.000; -768.000
237.666;  -30.400; -271.000;   18.000
237.809; -244.600; -851.000; -823.000
237.952;   81.800;  469.000;  271.000
238.095; -121.400; -447.000; -442.000
238.238;  184.000;  688.000;  700.000
238.382;   35.300;  166.000;  103.000
238.525; -151.300; -598.000; -511.000
238.668; -274.100;-1060.000; -985.000
238.811; -154.200; -638.000; -643.000
238.954;  -94.300; -483.000; -334.000
239.097;  191.800;  617.000;  664.000
239.241;   40.300;  394.000;  326.000
239.384;  -75.400; -254.000; -214.000
239.527;  -71.500; -424.000; -224.000
239.670; -312.700; -994.000;-1091.000
239.813; -217.800; -696.000; -658.000
239.956;  168.800;  579.000;  473.000
240.099; -203.100; -778.000; -725.000
240.242;  141.900;  428.000;  432.000
240.385;  131.600;  466.000;  450.000
240.528; -149.000; -706.000; -473.000
240.671;   38.500;  189.000;  134.000
240.814;  -94.100; -441.000; -158.000
240.957; -200.100; -767.000; -578.000
241.100; -172.200; -779.000; -755.000
241.243; -273.300;-1234.000; -893.000
241.386; -137.700; -508.000; -379.000
241.529; -186.200; -735.000; -547.000
241.672; -137.600; -566.000; -495.000
241.815; -230.600; -832.000; -808.000
241.958;  -44.000; -125.000; -182.000
242.101; -148.900; -545.000; -390.000
242.244;  -75.600; -270.000; -325.000
242.387;  -69.400; -304.000; -246.000
242.530;  118.000;  470.000;  134.000
242.673;  -72.600; -381.000; -309.000
242.815; -226.700; -925.000; -899.000
242.958; -154.300; -482.000; -381.000
243.101;   31.000;  132.000;  187.000
243.244; -156.100; -564.000; -521.000
243.387;  -75.200; -313.000; -316.000
243.530; -202.500; -657.000; -674.000
243.672;  -11.200;   43.000;  -92.000
243.815;  -81.500; -355.000; -283.000
243.958;  -30.000;   98.000;  -26.000
244.101;   11.400;   59.000;  -16.000
244.243;  -15.000;  -47.000;  101.000
244.386; -218.100; -761.000; -630.000
244.529;  -45.700; -132.000; -139.000
244.672; -328.500;-1154.000; -951.000
244.814; -244.600; -621.000; -794.000
244.957; -112.800; -380.000; -304.000
245.100; -124.900; -489.000; -489.000
245.242; -122.800; -387.000; -374.000
245.385;  -17.100;  -59.000;  -39.000
245.528; -239.900; -871.000; -705.000
245.670;  187.800;  612.000;  634.000
245.813; -151.500; -599.000; -547.000
245.956;  -68.800; -324.000; -275.000
246.098; -104.600; -508.000; -650.000
246.241;    2.100;  194.000;   48.000
246.383;  -13.100; -119.000;  -73.000
246.526; -143.200; -454.000; -525.000
246.669; -221.000; -889.000; -780.000
246.811;   22.400;  172.000;   -1.000
246.954; -111.800; -512.000; -426.000
247.096;  -40.800;  -84.000;   -6.000
247.239; -137.300; -482.000; -445.000
247.381; -138.600; -647.000; -488.000
247.524;  156.800;  645.000;  679.000
247.666;   -3.800;   58.000;   11.000
247.809; -235.800; -887.000; -691.000
247.951;  -18.400;  -75.000;  138.000
248.094;   93.800;  432.000;  308.000
248.236; -323.900;-1262.000;-1238.000
248.378;    9.100; -356.000;  -81.000
248.521;  -25.000; -334.000; -337.000
248.663;  -68.300; -236.000; -267.000
248.806;  -45.300; -300.000; -266.000
248.948; -185.300; -886.000; -763.000
249.090;  -78.800; -428.000; -398.000
249.233;  -77.300; -344.000; -381.000
249.375;  -98.700; -474.000; -451.000
249.518;  -30.400;  -83.000; -133.000
249.660;   11.300; -103.000;    3.000
249.802; -338.000;-1303.000;-1189.000
249.945; -109.600; -612.000; -540.000
250.087; -225.500; -834.000; -768.000
250.229; -117.700; -362.000; -480.000
250.371; -120.000; -494.000; -439.000
250.514; -103.100; -310.000; -244.000
250.656;   10.900;   69.000;  102.000
250.798; -235.200; -849.000; -800.000
250.940; -120.700; -322.000; -322.000
251.083;  -38.500; -335.000; -111.000
251.225;  150.300;  338.000;  310.000
251.367;  -43.000; -274.000; -373.000
251.509;  -40.000; -265.000; -210.000
251.651; -196.300; -731.000; -671.000
251.794;  162.700;  538.000;  632.000
251.936; -226.900; -821.000; -747.000
252.078; -137.600; -540.000; -461.000
252.220; -144.400; -645.000; -477.000
252.362;  186.300;  344.000;  462.000
252.504; -150.700; -677.000; -584.000
252.646; -221.300; -875.000; -722.000
252.788;   -7.700;   14.000; -128.000
252.931;  -48.600; -257.000; -253.000
253.073;  -66.300; -376.000; -317.000
253.215;   10.500;  141.000;  122.000
253.357;  -28.000;   82.000; -153.000
253.499;  -92.500; -374.000; -234.000
253.641; -152.900; -749.000; -594.000
253.783; -157.100; -609.000; -527.000
253.925; -179.500; -586.000; -591.000
254.067; -207.900; -744.000; -667.000
254.209;  -26.900; -391.000; -259.000
254.351; -276.800; -865.000; -883.000
254.493; -127.400; -441.000; -417.000
254.635; -215.400; -936.000; -818.000
254.777; -147.100; -752.000; -687.000
254.918; -169.800; -512.000; -430.000
255.060;  -99.600; -551.000; -395.000
255.202;  -75.200; -473.000; -261.000
255.344; -128.400; -658.000; -455.000
255.486; -126.100; -471.000; -406.000
255.628; -210.200; -780.000; -781.000
255.770; -190.200; -676.000; -536.000
255.912; -133.100; -559.000; -468.000
256.053; -183.600; -730.000; -508.000
256.195;  334.700; 1008.000;  903.000
256.337; -217.300; -861.000; -595.000
256.479;  147.500;  532.000;  416.000
256.621;  -90.700; -394.000; -212.000
256.762; -197.100; -789.000; -742.000
256.904;  159.200;  485.000;  487.000
257.046;  -76.100; -381.000; -271.000
257.188;  -72.900; -351.000; -264.000
257.329; -129.100; -525.000; -464.000
257.471; -243.000; -939.000; -807.000
257.613; -124.000; -584.000; -498.000
257.755; -268.800;-1073.000; -982.000
257.896;   88.000;  286.000;  392.000
258.038; -137.300; -403.000; -352.000
258.180;  -69.900; -354.000; -279.000
258.321; -145.400; -581.000; -457.000
258.463;    2.500;  -71.000;  133.000
258.605; -131.600; -562.000; -570.000
258.746; -227.700; -886.000; -772.000
258.888; -296.300;-1026.000;-1020.000
259.029;   37.700;  121.000;   -8.000
259.171; -159.900; -614.000; -550.000
259.313;  -10.800;  -49.000;  -47.000
259.454;  -96.900; -536.000; -414.000
259.596;  -99.600; -483.000; -390.000
259.737; -140.100; -590.000; -474.000
259.879;   60.100;  217.000;  311.000
260.020;  224.400;  901.000;  636.000
260.162;  -59.100; -146.000; -253.000
260.303; -204.700; -768.000; -687.000
260.445; -168.200; -609.000; -613.000
260.586;   76.200;  392.000;  157.000
260.728;  -87.600; -360.000; -248.000
260.869; -122.400; -350.000; -343.000
261.011;  191.500;  706.000;  537.000
261.152;  -98.400; -479.000; -319.000
261.293; -155.000; -576.000; -595.000
261.435;  -65.700; -219.000; -184.000
261.576; -126.700; -455.000; -325.000
261.718;  151.000;  420.000;  470.000
261.859; -239.600; -940.000; -949.000
262.000; -240.300; -951.000;-1016.000
262.142;  -37.400;  -52.000;  -60.000
262.283; -229.100; -808.000; -691.000
262.424; -180.600; -666.000; -625.000
262.566; -307.300;-1161.000; -983.000
262.707; -238.000; -840.000; -830.000
262.848; -231.800; -769.000; -726.000
262.990;  -80.700; -362.000; -345.000
263.131;  199.700;  650.000;  681.000
263.272;    3.700;  -61.000;  -41.000
263.413; -170.100; -589.000; -561.000
263.555; -129.700; -669.000; -143.000
263.696; -167.800; -550.000; -641.000
263.837; -121.600; -449.000; -551.000
263.978;    7.100;   -5.000;  -77.000
264.119;  -49.400; -283.000; -264.000
264.261; -213.100; -847.000; -630.000
264.402;   -6.500;   33.000;   40.000
264.543; -166.900; -509.000; -524.000
264.684;    6.200;   61.000;  -50.000
264.825; -126.300; -816.000; -538.000
264.966;  -11.600;  -84.000;  -67.000
265.107; -205.700; -646.000; -670.000
265.248; -236.500; -825.000; -812.000
265.390;    6.400;  152.000;   -9.000
265.531;  -35.400; -238.000; -107.000
265.672; -164.000; -557.000; -630.000
265.813;  162.400;  563.000;  439.000
265.954; -290.100; -959.000; -940.000
266.095;    9.100; -372.000; -322.000
266.236; -184.600; -686.000; -548.000
266.377;  -76.000; -243.000; -297.000
266.518; -118.700; -619.000; -547.000
266.659;  102.700;  170.000;  268.000
266.800;   28.600;   83.000;   85.000
266.941; -159.400; -487.000; -478.000
267.082;   71.100;  354.000;   99.000
267.223;  -78.100; -344.000; -273.000
267.364; -193.400; -892.000; -686.000
267.504;  -16.700;    3.000;  135.000
267.645;   57.200;  160.000;   67.000
267.786;  -45.200; -147.000;  -86.000
267.927;  -91.500; -473.000; -379.000
268.068;    6.400; -186.000;  -61.000
268.209;  -79.800; -175.000; -413.000
268.350; -104.900; -388.000; -532.000
268.490; -172.300; -648.000; -521.000
268.631;   94.000;  127.000;  225.000
268.772; -190.000; -874.000; -647.000
268.913;  -96.700; -328.000; -476.000
269.054;  -35.200; -117.000;   12.000
269.194; -112.800; -418.000; -402.000
269.335; -300.900;-1137.000;-1074.000
269.476;  -34.000;   33.000;  -35.000
269.617;  -92.900; -347.000; -392.000
269.757; -183.000; -713.000; -646.000
269.898; -194.900; -856.000; -613.000
270.039;  -84.400; -415.000; -405.000
270.180; -229.900; -952.000; -816.000
270.320;  -57.400; -190.000; -250.000
270.461;  -27.700; -277.000; -249.000
270.602;  -28.100; -186.000; -156.000
270.742; -217.800; -868.000; -943.000
270.883; -112.100; -442.000; -390.000
271.023;  -96.900; -358.000; -357.000
271.164; -149.300; -607.000; -528.000
271.305; -187.300; -666.000; -654.000
271.445; -203.700; -722.000; -683.000
271.586;  -91.600; -462.000; -283.000
271.726;  -85.300; -397.000; -322.000
271.867; -125.400; -594.000; -534.000
272.008;  314.100; -473.000; -285.000
272.148;  292.700;  462.000;  468.000
272.289;   69.700; -113.000; -181.000
272.429;   63.500;   19.000;  185.000
272.570; -194.700; -633.000; -737.000
272.710; -202.000; -825.000; -775.000
272.851;  -29.000;  113.000; -130.000
272.991; -318.200;-1173.000;-1077.000
273.131; -128.800; -419.000; -459.000
273.272; -212.000; -683.000; -723.000
273.412;   -3.000; -143.000;  -31.000
273.553;  -80.800; -488.000; -507.000
273.693;  315.100;  913.000;  858.000
273.834; -154.100; -894.000; -692.000
273.974; -137.700; -664.000; -615.000
274.114; -165.700; -772.000; -560.000
274.255;  157.000;  414.000;  373.000
274.395;   48.900; -180.000; -125.000
274.535;  106.500;  199.000;  350.000
274.676;   64.400;  225.000;   94.000
274.816;   38.900;  110.000;   34.000
274.956; -129.200; -624.000; -690.000
275.097; -145.000;-1014.000; -922.000
275.237; -210.900; -913.000; -803.000
275.377; -196.000; -778.000; -689.000
275.517; -272.700; -878.000; -937.000
275.658;  -90.500; -590.000; -555.000
275.798; -111.600; -606.000; -413.000
275.938;   43.600;  215.000;  323.000
276.078; -118.000; -626.000; -395.000
276.218;   30.300;   99.000;  104.000
276.359; -263.100;-1026.000;-1024.000
276.499; -121.300; -605.000; -446.000
276.639;   -8.500; -305.000; -151.000
276.779;  -88.200; -475.000; -357.000
276.919; -189.400; -783.000; -624.000
277.059;  -19.800; -261.000; -212.000
277.199;  -60.500; -357.000; -259.000
277.340;  132.400;  287.000;  175.000
277.480; -196.500; -840.000; -693.000
277.620;   79.500;  192.000;   16.000
277.760; -399.900;-1533.000;-1294.000
277.900;  105.500;  113.000;   33.000
278.040;   61.200;  137.000;  159.000
278.180;  109.300;  270.000;  170.000
278.320;   42.100;   21.000;   56.000
278.460; -117.100; -443.000; -469.000
278.600; -157.200; -708.000; -598.000
278.740;  129.900;  448.000;  224.000
278.880;  -77.500; -768.000; -791.000
279.020;   42.200; -194.000; -144.000
279.160; -148.400; -672.000; -595.000
279.300; -209.000; -926.000; -873.000
279.440; -193.600; -709.000; -622.000
279.579;  -90.800;-1014.000; -929.000
279.719;  -94.900; -410.000; -394.000
279.859;  107.800;   -4.000;   41.000
279.999;   87.800; -208.000;  101.000
280.139;  -47.600; -435.000; -387.000
280.279; -166.600; -708.000; -745.000
280.419;  -15.700; -229.000; -147.000
280.559;  -39.000; -259.000; -180.000
280.698; -144.700; -790.000; -639.000
280.838; -157.000; -778.000; -800.000
280.978; -198.700; -846.000; -790.000
281.118; -187.000; -811.000; -704.000
281.257;   29.100;   24.000;    6.000
281.397; -201.300;-1094.000; -960.000
281.537; -129.600; -599.000; -712.000
281.677;  -22.800; -150.000; -101.000
281.816; -154.100; -700.000; -630.000
281.956;  -17.500; -193.000; -257.000
282.096;  -89.300; -539.000; -396.000
282.235; -183.800; -672.000; -638.000
282.375;   -9.800; -243.000;  -98.000
282.515; -154.900; -715.000; -707.000
282.654;   99.500;   29.000;  106.000
282.794;   97.800;  388.000;  244.000
282.934;  -94.300; -530.000; -491.000
283.073; -218.700;-1030.000; -857.000
283.213;  -99.200; -460.000; -467.000
283.353;   -7.700; -408.000; -349.000
283.492;  -50.800; -264.000; -296.000
283.632;  -21.700; -254.000; -168.000
283.771; -173.200; -859.000; -730.000
283.911;  -92.800; -369.000; -260.000
284.050; -194.000; -794.000; -748.000
284.190; -315.800;-1229.000;-1096.000
284.329; -271.000;-1055.000; -964.000
284.469;  -95.700; -516.000; -591.000
284.608;  -87.100; -559.000; -598.000
284.748; -111.000; -614.000; -570.000
284.887;   18.700;  -87.000;  -20.000
285.027; -210.600; -844.000; -892.000
285.166;  -61.600; -192.000; -249.000
285.306;   64.800; -116.000;  -33.000
285.445;  -46.400; -229.000; -343.000
285.584; -144.900; -630.000; -494.000
285.724;  -67.200; -282.000; -322.000
285.863; -174.500; -857.000; -507.000
286.002; -104.500; -366.000; -276.000
286.142; -203.900; -715.000; -622.000
286.281; -114.900; -525.000; -493.000
286.420; -127.100; -554.000; -417.000
286.560;  239.600;  653.000;  623.000
286.699; -233.000; -958.000; -912.000
286.838; -182.400; -590.000; -591.000
286.978; -155.700; -533.000; -537.000
287.117; -236.000;-1085.000; -950.000
287.256;  -52.700; -228.000; -211.000
287.395;  -64.900; -197.000; -378.000
287.535; -106.000; -370.000; -298.000
287.674; -121.200; -509.000; -484.000
287.813;  120.900;  661.000;  533.000
287.952; -229.500;-1010.000; -871.000
288.091; -265.200;-1049.000; -915.000
288.231;   84.300;   13.000;   15.000
288.370; -317.600;-1217.000;-1200.000
288.509; -164.500; -728.000; -645.000
288.648; -145.600; -770.000; -548.000
288.787;    6.100; -243.000;  -87.000
288.926; -109.600; -454.000; -475.000
289.065;  285.700;  859.000;  672.000
289.204;  -86.600; -377.000; -217.000
289.344; -174.100; -791.000; -690.000
289.483;  106.100;  416.000;  304.000
289.622;  -36.600; -291.000; -149.000
289.761;  -13.400; -309.000; -166.000
289.900; -207.400; -785.000; -626.000
290.039;    1.200;  -12.000;  -95.000
290.178;  -44.700; -274.000; -180.000
290.317; -139.000; -618.000; -479.000
290.456;  -99.700; -463.000; -451.000
290.595; -276.900; -961.000; -833.000
290.734; -265.400; -904.000; -891.000
290.873; -120.300; -456.000; -420.000
291.011; -190.000; -833.000; -843.000
291.150; -156.500; -770.000; -682.000
291.289;  -10.900; -343.000; -110.000
291.428; -153.800; -599.000; -480.000
291.567;  -93.400; -370.000; -442.000
291.706;   34.800;  109.000;  154.000
291.845; -140.400; -597.000; -505.000
291.984; -320.200;-1234.000;-1061.000
292.122;  168.000;  602.000;  582.000
292.261;  135.200;  620.000;  463.000
292.400;   53.200; -144.000;  211.000
292.539; -218.900; -959.000; -813.000
292.678;  -16.700; -325.000; -300.000
292.816; -285.000;-1136.000; -965.000
292.955; -142.800; -844.000; -684.000
293.094;   16.300; -173.000; -337.000
293.233;  -94.200; -556.000; -400.000
293.371;  -36.100; -225.000;  -84.000
293.510; -205.000; -866.000; -780.000
293.649; -245.500; -959.000; -924.000
293.787; -115.300;-1083.000;-1012.000
293.926;   36.100; -113.000;  -32.000
294.065;  -58.400; -379.000; -290.000
294.203;  134.800;  298.000;  406.000
294.342;   99.100;   74.000;  156.000
294.481;11346.500;51180.000; -836.000
294.619;  -32.000; -425.000; -582.000
294.758; -272.800;-1230.000;-1137.000
294.896;  164.700; -125.000;    5.000
295.035; -212.300;-1040.000;-1006.000
295.174; -237.700;-1082.000; -954.000
295.312;  -56.700; -323.000; -203.000
295.451;   24.100; -307.000; -428.000
295.589;  -68.400; -389.000; -518.000
295.728;   55.200; -292.000; -165.000
295.866;   52.300;  -36.000;  -51.000
296.005; -121.200; -584.000; -341.000
296.143;  -92.100; -558.000; -596.000
296.282; -177.900; -957.000; -881.000
296.420; -130.200; -657.000; -557.000
296.559; -132.800; -892.000; -633.000
296.697;   80.800; -847.000; -665.000
296.835;  183.900;-1141.000;-1002.000
296.974;  173.200;  -23.000;   39.000
297.112;   71.400; -443.000; -504.000
297.251;  -88.000; -815.000; -755.000
297.389;  234.300; -576.000; -438.000
297.527;  155.200; -145.000;  -83.000
297.666;  -82.900; -486.000; -438.000
297.804;  -73.000; -404.000; -264.000
297.942;   24.300; -136.000; -161.000
298.081;   29.800; -183.000;   63.000
298.219;  187.800;  -17.000;  -19.000
298.357;  136.900; -144.000;  -71.000
298.495;   88.900; -810.000; -812.000
298.634;  233.600;  245.000;  219.000
298.772;  137.400; -220.000; -338.000
298.910;  -42.700; -309.000; -182.000
299.048;   23.300; -130.000; -153.000
299.187;  -53.400; -350.000; -250.000
299.325;   74.500;   52.000;  122.000
299.463;  117.900; -389.000; -299.000
299.601;  236.800; -327.000; -271.000
299.739; -163.000; -908.000; -883.000
299.877; -150.200; -791.000; -703.000
300.016;  -91.500;-1095.000; -935.000
300.154;  348.900;  -19.000; -161.000
300.292;  157.200; -428.000; -348.000
300.430;  120.800; -408.000; -291.000
300.568; -188.300; -940.000; -874.000
300.706;  -56.200; -366.000; -469.000
300.844; -114.000;-1108.000; -979.000
300.982;  246.600;  246.000;  282.000
301.120; -220.000; -965.000; -866.000
301.258; -104.900; -812.000; -705.000
301.396;  102.300;  104.000;  -41.000
301.534;  208.800; -218.000; -293.000
301.672;   42.900; -664.000; -521.000
301.810;   81.600; -613.000; -545.000
301.948;  309.900;   53.000;  149.000
302.086; 1148.800; -250.000;  -32.000
302.224; 1898.700; -610.000; -585.000
302.362;   84.900; -558.000; -622.000
302.500;  -16.100; -923.000; -893.000
302.638;  278.900;  128.000;  245.000
302.776;   84.600; -352.000; -408.000
302.913;  120.400;  447.000;  236.000
303.051;    6.400;  -86.000;  -23.000
303.189;  164.800;   90.000;  118.000
303.327;  -24.100; -341.000; -256.000
303.465; -109.800; -832.000; -588.000
303.603; -160.500; -805.000; -604.000
303.740;  249.900;  417.000;  241.000
303.878;   63.300; -800.000; -759.000
304.016; -134.600; -915.000; -790.000
304.154; -236.100;-1123.000;-1152.000
304.291;  -48.200; -505.000; -554.000
304.429;   77.200;  102.000;   74.000
304.567; -233.300; -908.000; -893.000
304.705;  -84.300; -408.000; -515.000
304.842;  225.400; -616.000; -540.000
304.980;  145.800;  215.000;   35.000
305.118;  156.400; -367.000; -365.000
305.255;  -86.200; -945.000; -927.000
305.393;  155.900;  178.000;  239.000
305.531; -132.800;-1173.000; -956.000
305.668; -117.900; -663.000; -582.000
305.806;  184.600; -358.000; -439.000
305.943;  215.200; -629.000; -637.000
306.081;  148.600; -378.000; -267.000
306.219; -176.500; -863.000; -748.000
306.356;   53.200;  158.000;   27.000
306.494;  286.500;  981.000;  761.000
306.631;   61.000;  -11.000;  -55.000
306.769;   42.700; -613.000; -485.000
306.906;   31.400; -284.000; -258.000
307.044;  -72.000; -473.000; -488.000
307.181;  -48.500; -410.000; -332.000
307.319;   81.200;  112.000;   87.000
307.456; -305.900;-1191.000;-1153.000
307.594; -155.700; -980.000; -727.000
307.731;   29.600; -371.000; -164.000
307.868;   56.900;  -15.000;   20.000
308.006; -228.600; -961.000; -847.000
308.143;  -93.200; -618.000; -330.000
308.281;  446.700;  -37.000; -254.000
308.418;   38.000; -748.000; -640.000
308.555;  -79.300; -400.000; -250.000
308.693; -117.400; -577.000; -573.000
308.830; -153.400; -712.000; -657.000
308.967;   19.900; -215.000;  -95.000
309.105;   26.200; -507.000; -396.000
309.242;  137.600; -468.000; -367.000
309.379;  832.500; -577.000; -655.000
309.517;  -40.400; -936.000; -948.000
309.654; -103.000; -910.000; -734.000
309.791; -115.400; -662.000; -580.000
309.928; -172.200; -977.000; -914.000
310.065;  413.100;  819.000;  697.000
310.203;   33.900; -825.000; -850.000
310.340;   90.100; -465.000; -321.000
310.477;  -99.800; -412.000; -516.000
310.614;  -69.900; -383.000; -473.000
310.751;  -80.900; -427.000; -518.000
310.889;   36.500;    1.000;   11.000
311.026; -248.200;-1161.000; -939.000
311.163;  -65.900; -386.000; -380.000
311.300;  -69.700; -512.000; -479.000
311.437; -134.900; -658.000; -619.000
311.574; -283.200;-1226.000; -985.000
311.711;  -73.600; -595.000; -433.000
311.848;  -13.900; -380.000; -388.000
311.985;   87.700;  270.000;   93.000
312.122; -184.100; -932.000; -762.000
312.259; -196.700; -941.000; -994.000
312.396;  -87.100; -508.000; -551.000
312.533; -129.900; -812.000; -790.000
312.670; -179.700;-1070.000; -898.000
312.807;    6.400; -352.000; -367.000
312.944;  -90.900; -513.000; -611.000
313.081;  -12.600; -150.000; -415.000
313.218; -154.000;-1111.000; -867.000
313.355;   52.600; -531.000; -449.000
313.492;   83.200; -455.000; -292.000
313.629;  334.900;  815.000;  735.000
313.766; -245.700;-1176.000;-1008.000
313.902;   -5.800; -186.000;   21.000
314.039;  -46.800; -372.000; -289.000
314.176;  139.300;  286.000;  192.000
314.313; -100.100; -569.000; -473.000
314.450; -127.200; -788.000; -684.000
314.587;  -67.000; -468.000; -480.000
314.723;   67.800;  -78.000;  130.000
314.860;  151.700;  318.000;  332.000
314.997;  128.600;  223.000;  142.000
315.134;  -25.400; -385.000; -368.000
315.270;  -22.100; -480.000; -496.000
315.407; -213.700;-1094.000; -967.000
315.544;  -67.300; -657.000; -538.000
315.681;  -94.900; -681.000; -565.000
315.817;   98.400; -133.000; -176.000
315.954;   60.900; -613.000; -392.000
316.091; -224.400;-1045.000;-1023.000
316.227;   18.900;  -71.000; -179.000
316.364;   71.800;   23.000;    6.000
316.500;  -21.500; -113.000; -300.000
316.637;  -14.800; -181.000; -302.000
316.774;  -95.000; -625.000; -358.000
316.910; -155.100; -598.000; -629.000
317.047;  -71.000; -487.000; -351.000
317.183;  -59.900; -435.000; -566.000
317.320;  -22.600; -367.000; -321.000
317.456; -111.300; -733.000; -805.000
317.593; -137.400; -598.000; -641.000
317.729;   85.000;  168.000;  -67.000
317.866; -369.400;-1434.000;-1285.000
318.002; -153.100; -708.000; -948.000
318.139; -125.300; -883.000; -867.000
318.275; -168.700;-1003.000; -738.000
318.412;  -63.600; -517.000; -336.000
318.548;  -44.200; -751.000; -720.000
318.685; -146.100; -985.000; -888.000
318.821; -150.200; -762.000; -735.000
318.957;   15.900;   34.000;  -23.000
319.094;  157.200;  297.000;  154.000
319.230;  -64.600; -756.000; -742.000
319.367;  274.200; -471.000; -520.000
319.503;  160.400; -538.000; -436.000
319.639; -171.600; -877.000; -793.000
319.775;  -90.500; -750.000; -685.000
319.912;  -67.100; -424.000; -519.000
320.048; -168.300;-1184.000;-1184.000
320.184;  189.800;   59.000;   70.000
320.321;  -47.600; -497.000; -467.000
320.457;  159.600;  475.000;  662.000
320.593; -109.200; -375.000; -382.000
320.729; -172.700; -732.000; -734.000
320.866;  -78.600; -577.000; -635.000
321.002; -122.400; -759.000; -809.000
321.138;   27.800; -135.000; -211.000
321.274;  169.800; -148.000; -115.000
321.410;   17.000; -585.000; -353.000
321.546;  -23.000;-1011.000; -911.000
321.683;  177.300;  400.000;  185.000
321.819;   49.100;  -48.000; -117.000
321.955; -188.800; -743.000; -722.000
322.091;  -61.800; -585.000; -540.000
322.227;   -5.700; -382.000; -202.000
322.363;  -21.200; -320.000; -215.000
322.499;  -22.100; -343.000; -331.000
322.635;  342.100;  636.000;  443.000
322.771;  118.000; -139.000;   12.000
322.907;  236.600;  129.000;  327.000
323.043;    3.600; -115.000; -206.000
323.179;  -43.800; -394.000; -363.000
323.315;  121.200; -401.000; -371.000
323.451;  289.200; -328.000; -236.000
323.587;  210.700;  -60.000;  -77.000
323.723;   67.400; -682.000; -601.000
323.859;    1.100; -258.000;  -76.000
323.995;  -42.300; -467.000; -409.000
324.131; -229.400; -967.000; -892.000
324.267;  -55.500; -254.000; -276.000
324.402; -205.300; -960.000; -983.000
324.538;   -6.300; -279.000; -104.000
324.674;   93.800;  164.000;   77.000
324.810;  433.600;  226.000;  308.000
324.946;  166.100; -810.000; -658.000
325.082;  -88.800; -568.000; -475.000
325.217;   25.500;  -62.000;   16.000
325.353; -178.500; -764.000; -659.000
325.489;  -89.000; -540.000; -506.000
325.625;  -92.900; -579.000; -525.000
325.760;  121.500;  517.000;  376.000
325.896;  -44.200; -515.000; -702.000
326.032;  -69.000; -403.000; -352.000
326.168;  -85.100; -462.000; -369.000
326.303;  -48.700; -352.000; -461.000
326.439;  -17.500; -336.000; -276.000
326.575;   57.800; -190.000;  -29.000
326.710;   13.100; -156.000;  -30.000
326.846;   19.400;  146.000;  103.000
326.982; -116.100; -530.000; -548.000
327.117;  -88.900; -481.000; -442.000
327.253; -175.500; -745.000; -742.000
327.388; -197.700;-1137.000;-1153.000
327.524;   37.600; -811.000; -578.000
327.659;   18.600;  -58.000;  -22.000
327.795;   11.600;   69.000;   45.000
327.931; -142.900; -723.000; -499.000
328.066;  -12.100; -417.000; -276.000
328.202;   61.400;   12.000; -129.000
328.337;  259.300;  957.000;  713.000
328.473;   46.900;  -12.000;  -74.000
328.608;   11.500; -256.000; -267.000
328.743; -116.900; -799.000; -664.000
328.879;   68.700;  214.000;  114.000
329.014;  -40.000; -102.000; -122.000
329.150; -137.300; -358.000; -483.000
329.285;  -83.800; -465.000; -466.000
329.421;  -63.200; -548.000; -246.000
329.556;    6.200;  -36.000;   85.000
329.691; -135.500; -633.000; -615.000
329.827; -136.800; -626.000; -480.000
329.962;  -47.200;  131.000; -301.000
330.097; -115.900; -673.000; -585.000
330.233;  -62.000; -410.000; -223.000
330.368; -202.100; -839.000; -628.000
330.503;    7.000;    3.000;   98.000
330.638;   76.600;  -93.000; -125.000
330.774;  -58.400; -609.000; -530.000
330.909;  -61.400; -434.000; -244.000
331.044; -157.800; -714.000; -708.000
331.179; -305.300;-1217.000;-1109.000
331.315;   67.900;   77.000;   20.000
331.450;   96.500;  157.000;  285.000
331.585; -147.400; -805.000; -706.000
331.720; -135.900; -510.000; -460.000
331.855;   22.900;  -35.000; -102.000
331.990;  389.800;   62.000;  138.000
332.126;  239.500; -110.000;   71.000
332.261;  -10.000; -379.000; -265.000
332.396;   -7.100; -135.000; -242.000
332.531; -204.600;-1074.000;-1031.000
332.666;   62.800; -519.000; -363.000
332.801; -144.300; -726.000; -807.000
332.936;   -4.900; -192.000; -122.000
333.071; -248.500; -870.000; -817.000
333.206;   89.900;  307.000;  379.000
333.341;  118.600;  344.000;  418.000
333.476; -145.600; -627.000; -623.000
333.611;   -4.700; -251.000; -173.000
333.746;  -51.000; -381.000; -464.000
333.881; -179.900; -973.000; -935.000
334.016; -184.700; -936.000; -917.000
334.151; -185.800; -746.000; -702.000
334.286;  111.000;  152.000;  186.000
334.421;   36.400; -125.000; -178.000
334.556; -126.400; -611.000; -567.000
334.690; -140.300; -631.000; -577.000
334.825;  150.500;  381.000;   83.000
334.960;  -43.900; -285.000; -413.000
335.095;   54.100;  135.000;  -91.000
335.230; -158.800; -722.000; -738.000
335.365; -224.800;-1084.000; -990.000
335.499; -202.800;-1108.000;-1037.000
335.634;  104.700;    9.000;  534.000
335.769; -145.700; -755.000; -720.000
335.904;  -61.800; -603.000; -561.000
336.038;  -38.000; -735.000; -657.000
336.173; -165.300;-1206.000;-1194.000
336.308;   69.600; -116.000; -189.000
336.443;   90.600; -544.000; -634.000
336.577;  -93.100; -936.000; -787.000
336.712;  177.700;   -4.000;  -12.000
336.847;  -46.400; -724.000; -607.000
336.981;  163.700; -272.000; -208.000
337.116;  607.300;  615.000;  501.000
337.250;  340.800; -434.000; -421.000
337.385;  410.400; -297.000; -208.000
337.520;   90.900; -632.000; -603.000
337.654;  -47.400; -215.000; -126.000
337.789; -229.000; -989.000; -933.000
337.923;  -13.800; -104.000; -205.000
338.058; -160.100; -673.000; -738.000
338.192;  -64.000; -611.000; -488.000
338.327;   56.200;  -18.000; -155.000
338.461;  -85.200; -299.000; -469.000
338.596; -151.000; -780.000; -638.000
338.730; -160.200; -767.000; -803.000
338.865;  148.700;  -46.000; -140.000
338.999; -124.800; -846.000; -702.000
339.134;  -68.900; -634.000; -536.000
339.268;   27.300; -741.000; -603.000
339.403;  554.100; -740.000; -775.000
339.537;  137.300; -894.000; -820.000
339.671; -178.000; -829.000; -813.000
339.806; -104.900; -556.000; -512.000
339.940;   44.700; -261.000; -235.000
340.074; -133.300; -685.000; -510.000
340.209;  -49.500; -351.000; -230.000
340.343;  -99.800; -517.000; -573.000
340.477;  348.100;  998.000; 1036.000
340.612;  -81.900;-1033.000; -900.000
340.746;  217.100; -199.000; -243.000
340.880; -103.200; -924.000; -785.000
341.014;   21.800;  -45.000; -154.000
341.149; -188.300; -756.000; -718.000
341.283; -215.300; -839.000; -754.000
341.417; -146.800;-1124.000; -938.000
341.551;  339.500; -768.000; -708.000
341.685;   -7.900; -633.000; -611.000
341.820;  -71.000; -562.000; -493.000
341.954;  -39.500; -218.000; -349.000
342.088; -247.600;-1102.000;-1019.000
342.222;  114.100;  565.000;  618.000
342.356;  -81.200; -395.000; -335.000
342.490; -140.300; -880.000; -841.000
342.624;  -42.400; -339.000; -242.000
342.758;   91.900; -364.000; -312.000
342.892;  -64.500; -710.000; -585.000
343.026;  -14.600;  -58.000; -116.000
343.160;  -68.100; -426.000; -376.000
343.294; -112.600; -474.000; -337.000
343.428;    4.100; -488.000; -448.000
343.562;   52.900; -172.000;  -23.000
343.696;   -5.400; -385.000; -314.000
343.830;   46.000; -362.000; -356.000
343.964;   71.000; -231.000; -168.000
344.098; 1896.900;  199.000;   70.000
344.232; 1591.800; -266.000; -127.000
344.366;  219.700; -567.000; -453.000
344.500;  186.500; -665.000; -744.000
344.634;  132.300; -324.000; -164.000
344.768;   18.900; -531.000; -341.000
344.902;  139.700;  278.000;  256.000
345.035; -114.600; -556.000; -496.000
345.169; -227.200; -933.000; -656.000
345.303;    0.600; -308.000; -482.000
345.437; -112.400; -826.000; -717.000
345.571; -117.800; -675.000; -594.000
345.704; -113.600; -309.000; -532.000
345.838;   43.700; -331.000; -284.000
345.972;  -24.500; -543.000; -495.000
346.106;  281.500; -179.000; -190.000
346.239;  798.200; -312.000; -243.000
346.373;   45.200; -343.000; -302.000
346.507; -230.900; -950.000; -962.000
346.640;  325.500;  -30.000;   13.000
346.774;  -28.000; -650.000; -797.000
346.908;   32.000; -138.000;  -11.000
347.041; -134.200; -646.000; -593.000
347.175;   79.900;  259.000;   27.000
347.309;  -69.800; -698.000; -628.000
347.442; -193.700; -883.000; -732.000
347.576;  675.400;  670.000;  668.000
347.709;  454.900; -123.000;  -52.000
347.843; -104.700; -933.000; -825.000
347.976;  137.800;  235.000;  294.000
348.110; -321.000;-1268.000;-1186.000
348.243; -170.600; -679.000; -772.000
348.377;   63.700;  -26.000;   60.000
348.510;  181.700;  403.000;  540.000
348.644;   11.500;  -37.000; -159.000
348.777;   33.200;  180.000;  191.000
348.911;  -55.600; -142.000; -112.000
349.044;  384.600;  471.000;  448.000
349.178;  380.400;-1069.000;-1006.000
349.311;  259.800;  141.000;  255.000
349.444;   -4.900; -927.000; -813.000
349.578;   30.400; -347.000; -200.000
349.711; -149.100; -959.000; -862.000
349.845;   68.200; -661.000; -591.000
349.978; -243.000;-1224.000;-1137.000
350.111; -104.800; -546.000; -612.000
350.244; -107.100; -596.000; -700.000
350.378;   36.200; -392.000; -393.000
350.511;  -78.600; -393.000; -426.000
350.644; -180.000; -808.000; -806.000
350.778;   85.300;  168.000;  104.000
350.911;   58.500;  134.000;  140.000
351.044; -105.800; -685.000; -615.000
351.177;  -26.800; -321.000; -281.000
351.310;   19.600;    3.000; -131.000
351.444; -115.000; -888.000; -788.000
351.577;  306.800;  140.000;   90.000
351.710;  291.200;  593.000;  417.000
351.843;   -1.200; -165.000;  -77.000
351.976;   38.800;  149.000;  -79.000
352.109; -116.100; -621.000; -612.000
352.242;    2.700; -464.000; -419.000
352.376;  -49.000; -580.000; -636.000
352.509;  420.900; -437.000; -356.000
352.642;   70.000; -654.000; -604.000
352.775;  169.000; -141.000;  -98.000
352.908; -181.500; -933.000; -904.000
353.041; -149.800; -814.000; -824.000
353.174;  -50.000; -551.000; -424.000
353.307; -146.100; -753.000; -764.000
353.440;  211.900;  541.000;  453.000
353.573; -173.000; -957.000;-1008.000
353.706;   24.800; -384.000; -558.000
353.839;    3.000; -264.000; -220.000
353.971; -101.700; -657.000; -512.000
354.104; -107.400; -896.000; -835.000
354.237;  -37.200; -627.000; -662.000
354.370; -130.500; -846.000; -879.000
354.503; -312.900;-1231.000;-1308.000
354.636;  -20.500; -529.000; -348.000
354.769; -221.300; -937.000; -860.000
354.902;   22.300; -230.000; -139.000
355.034;   23.000; -164.000; -220.000
355.167;   25.800; -262.000; -162.000
355.300; -141.300;-1061.000; -880.000
355.433; 1547.500;  -71.000;  -14.000
355.565; 2495.600; -402.000; -384.000
355.698;  618.500; -356.000; -296.000
355.831;   59.900; -882.000; -801.000
355.964;  201.500; -285.000; -170.000
356.096;  -98.100; -856.000; -843.000
356.229;   86.100; -523.000; -530.000
356.362;  511.600; -373.000; -266.000
356.494;  979.700; -229.000; -162.000
356.627; 1035.200;  269.000;  377.000
356.760; 1118.400;  120.000;   53.000
356.892; 1559.000; -286.000; -601.000
357.025; 1391.700;  403.000;  389.000
357.157; 1270.500; -167.000; -179.000
357.290;  953.100; -856.000; -713.000
357.423;  335.800; -667.000; -556.000
357.555;  286.200; -217.000; -228.000
357.688;  294.300; -483.000; -364.000
357.820;  792.500; -870.000; -877.000
357.953; 6732.600; -563.000; -589.000
358.085; 1525.000; -632.000; -612.000
358.218; 2630.300;-1131.000; -932.000
358.350;  547.800;  -58.000;  312.000
358.483; -185.500;-1300.000;-1187.000
358.615;   75.900;-1182.000;-1078.000
358.747;  -29.500;-1187.000;-1058.000
358.880;  133.000; -810.000; -744.000
359.012;   33.900; -376.000; -202.000
359.145;  -29.500; -480.000; -511.000
359.277;  129.000; -962.000; -913.000
359.409; 5674.700;  536.000;  231.000
359.542; 1464.800; -738.000; -688.000
359.674;  212.300;   46.000;   13.000
359.806;  -67.800; -565.000; -438.000
359.939;  -54.200; -617.000; -516.000
360.071;   -2.400; -583.000; -579.000
360.203;    6.200; -411.000; -364.000
360.335;  158.800;  164.000;  -16.000
360.468;  367.800; -249.000; -307.000
360.600; 4394.700; -547.000; -454.000
360.732; 4229.000; -546.000; -423.000
360.864;  565.100;-1216.000;-1044.000
360.996;  671.200; -516.000; -554.000
361.129;  143.900; -389.000; -598.000
361.261;   94.900;  110.000; -113.000
361.393;   -8.400; -252.000; -214.000
361.525;  115.900;   94.000;  244.000
361.657;  -31.200; -821.000; -703.000
361.789;  108.800; -139.000; -155.000
361.921;  579.700; -642.000; -593.000
362.053;  598.900;  524.000;  541.000
362.185;  180.500;  288.000;   72.000
362.318; -110.100; -709.000; -705.000
362.450;  375.400;  294.000;  444.000
362.582;  432.400; -913.000; -870.000
362.714;    9.200; -353.000; -332.000
362.846; -130.500; -606.000; -490.000
362.978; -215.200; -941.000; -811.000
363.109;  121.300; -161.000; -260.000
363.241;  984.300; -739.000; -749.000
363.373;  704.700; -649.000; -564.000
363.505; 1020.400; -186.000;  -91.000
363.637;  310.300; -787.000; -601.000
363.769; -186.000;-1067.000;-1080.000
363.901;  -78.200; -596.000; -654.000
364.033; -201.200;-1103.000;-1062.000
364.165;   67.100; -283.000; -283.000
364.296;  169.900; -316.000; -177.000
364.428;   30.700;-1344.000;-1220.000
364.560;  -80.000; -679.000; -661.000
364.692; -111.500; -738.000; -835.000
364.824;  696.300; -588.000; -456.000
364.955;  763.400; -402.000; -564.000
365.087; 1190.200;-1097.000; -852.000
365.219;   30.900; -686.000; -816.000
365.351;  -58.600; -526.000; -572.000
365.482;  147.000;  300.000;  240.000
365.614;  -57.600; -402.000; -314.000
365.746; -136.600; -729.000; -752.000
365.877; -128.700; -706.000; -672.000
366.009;  423.400;  -35.000;  -62.000
366.141; -168.900;-1249.000;-1134.000
366.272; -146.600; -803.000; -719.000
366.404; -156.400;-1005.000; -874.000
366.535;   34.500; -139.000;  -12.000
366.667; -114.200; -644.000; -649.000
366.799;  134.100;  353.000;  203.000
366.930; -172.200; -862.000; -996.000
367.062;  245.000; -639.000; -613.000
367.193;  222.600; -872.000; -842.000
367.325;  -99.600; -580.000; -684.000
367.456;  247.200; -246.000;   31.000
367.588;  304.900; -371.000; -318.000
367.719;  110.100;  -44.000;  -45.000
367.851;   39.700; -222.000; -241.000
367.982;   -3.000; -875.000; -732.000
368.113;  240.900; -475.000; -358.000
368.245; -157.900; -960.000; -841.000
368.376;   34.300; -254.000; -302.000
368.508;   23.000; -188.000; -263.000
368.639; -240.300;-1166.000;-1034.000
368.770;   26.200; -670.000; -589.000
368.902;  -71.900; -836.000; -926.000
369.033; -167.400; -906.000; -855.000
369.164;  -55.600; -720.000; -653.000
369.296; -171.500; -452.000; -601.000
369.427;   41.100; -209.000; -144.000
369.558;   -6.500; -593.000; -377.000
369.689; -121.400; -721.000; -569.000
369.821; -194.000; -951.000; -845.000
369.952;   16.100;   42.000; -108.000
370.083;  -29.400; -229.000; -108.000
370.214; -131.900; -735.000; -650.000
370.345;   70.100;   65.000;   81.000
370.477; -121.800; -810.000; -790.000
370.608;  511.400; -328.000; -264.000
370.739;  -70.000;-1233.000;-1292.000
370.870;   -7.400;-1102.000; -923.000
371.001;  265.300; -378.000; -467.000
371.132;  -96.900; -754.000; -735.000
371.263;   11.200;  -42.000; -148.000
371.394; -191.200; -841.000; -748.000
371.525;  128.100;  345.000;  225.000
371.657; -136.200; -808.000; -670.000
371.788;  198.400;  103.000;  199.000
371.919;  388.000; -384.000; -304.000
372.050; 7257.900;  -91.000; -156.000
372.181; 2078.700; -188.000; -294.000
372.311;  802.200;   42.000; -127.000
372.442;  127.800; -457.000; -451.000
372.573;    3.400; -444.000; -340.000
372.704; -197.800;-1008.000; -980.000
372.835;  199.100; -228.000; -289.000
372.966;  -27.100; -646.000; -554.000
373.097;  -84.600; -575.000; -711.000
373.228;  -12.700; -717.000; -542.000
373.359;  346.300; -824.000; -536.000
373.490; 2013.600; -881.000; -727.000
373.620; 2441.400;-1001.000; -803.000
373.751; 3717.500; -332.000; -396.000
373.882; 1624.800; -663.000; -733.000
374.013;  196.400; -449.000; -262.000
374.143;  -57.700; -581.000; -659.000
374.274; -129.000; -987.000; -908.000
374.405;  387.300; -388.000; -276.000
374.536;  964.500; -526.000; -387.000
374.666; 2382.300; -759.000; -807.000
374.797;  521.800; -817.000; -868.000
374.928; 1920.000; -710.000; -560.000
375.058; 1845.600; -535.000; -500.000
375.189;  214.100;  -59.000;  -93.000
375.320; -187.200; -928.000;-1034.000
375.450;  -59.600; -625.000; -616.000
375.581;  -27.700; -526.000; -436.000
375.712;  -27.800; -574.000; -250.000
375.842;  713.600; -438.000; -415.000
375.973;  445.300; -554.000; -513.000
376.103;   -6.300; -665.000; -648.000
376.234; -104.100; -531.000; -552.000
376.364;   19.700; -944.000; -867.000
376.495;  723.800;  925.000;  529.000
376.625;   66.700; -472.000; -485.000
376.756;  170.500; -709.000; -678.000
376.886;  -79.100;-1178.000;-1026.000
377.017;   50.300;-1048.000;-1061.000
377.147;  523.100; -786.000; -782.000
377.278;  192.200;  174.000;  228.000
377.408; -220.100; -801.000; -815.000
377.538; -164.000; -707.000; -693.000
377.669; -107.600; -537.000; -613.000
377.799;  -98.600; -645.000; -635.000
377.929;  -53.800; -610.000; -428.000
378.060; -202.000; -781.000; -847.000
378.190;  -75.900; -726.000; -531.000
378.320;  -30.700; -401.000; -406.000
378.451;   75.900; -131.000;  -22.000
378.581;   92.500;  -67.000; -110.000
378.711;  356.900; 1035.000;  866.000
378.841;   33.100; -533.000; -675.000
378.972;  -56.200; -871.000; -751.000
379.102;   71.000; -652.000; -579.000
379.232;   20.500; -126.000;  -73.000
379.362; -172.400;-1001.000; -885.000
379.492;  122.500; -373.000; -424.000
379.623;  277.700;    0.000;  111.000
379.753; -120.400;-1107.000; -974.000
379.883;  537.300;   59.000;  156.000
380.013;   73.300;-1081.000;-1017.000
380.143; -157.800;-1097.000;-1056.000
380.273; -135.300; -985.000; -861.000
380.403;   50.600; -344.000; -257.000
380.533;   38.300; -651.000; -664.000
380.663;  240.400;  173.000;  128.000
380.793; -121.900;-1027.000;-1074.000
380.923;   21.900; -103.000;  -34.000
381.053; -104.400; -613.000; -623.000
381.183;   13.400; -106.000; -248.000
381.313;  134.600; -656.000; -470.000
381.443;  171.100; -692.000; -473.000
381.573;  522.100; -402.000; -409.000
381.703;  697.700;-1249.000;-1095.000
381.833; -168.000;-1454.000;-1336.000
381.963;  265.800; -134.000;  -87.000
382.093; 2809.700; -925.000; -909.000
382.223;  800.500; -713.000; -602.000
382.353;   82.000; -801.000; -608.000
382.482;  878.900;-1091.000; -964.000
382.612; 1580.700; -872.000; -644.000
382.742;  886.700; -695.000; -622.000
382.872;  633.300; -565.000; -551.000
383.002;  218.900;  347.000; -132.000
383.131;   74.100; -226.000; -160.000
383.261;  -25.000; -706.000; -768.000
383.391;  595.600; -552.000; -377.000
383.521; 4896.600;  451.000;  263.000
383.650;  979.600; -947.000; -904.000
383.780;   -6.100; -783.000; -656.000
383.910;  324.900;  880.000;  802.000
384.039;  161.000; -794.000; -656.000
384.169;  511.200;-1205.000;-1017.000
384.299;   27.200; -650.000; -662.000
384.428;  -56.200; -764.000; -680.000
384.558;  -28.400; -308.000; -275.000
384.687;   34.000; -414.000; -334.000
384.817;  127.200;   75.000;   -2.000
384.947;  151.300; -234.000; -141.000
385.076;  724.400;  982.000;  912.000
385.206;  317.100;  369.000;  480.000
385.335;   41.100; -549.000; -417.000
385.465;  -30.900; -655.000; -663.000
385.594;  391.200;  -53.000;  -44.000
385.724;  966.100; -868.000; -838.000
385.853;  322.700; -296.000; -270.000
385.982; 2987.100; -743.000; -787.000
386.112; 4357.000;-1052.000; -871.000
386.241;  400.600; -307.000; -312.000
386.371;  157.400; -174.000;  -87.000
386.500;  150.700; -825.000; -789.000
386.629;   94.000; -874.000; -817.000
386.759;  220.800;  -43.000;   68.000
386.888;  149.700; -170.000; -250.000
387.017;  -19.200; -648.000; -620.000
387.147;  -21.000; -771.000; -798.000
387.276;  141.900; -410.000; -397.000
387.405;  109.900; -398.000; -342.000
387.535;   11.700; -452.000; -361.000
387.664;  -42.900; -692.000; -620.000
387.793;  231.200; -198.000; -113.000
387.922; 1236.100;  255.000;  200.000
388.052;  179.000; -576.000; -423.000
388.181;  235.500; -342.000; -472.000
388.310;  214.000; -889.000; -710.000
388.439;   50.000; -749.000; -742.000
388.568;  468.300;  365.000;  244.000
388.697; 2260.100; -756.000; -653.000
388.826;  468.000; -768.000; -666.000
388.956;  200.000; -285.000; -307.000
389.085;   48.200; -347.000; -287.000
389.214; -147.000; -842.000; -872.000
389.343;  -42.400; -645.000; -413.000
389.472;  739.300;  126.000;  149.000
389.601;  956.100;   91.000;    0.000
389.730;   76.900; -568.000; -687.000
389.859;  189.300;  226.000;   46.000
389.988;  424.500; -423.000; -408.000
390.117;  346.300; -168.000; -146.000
390.246;   75.200; -331.000; -320.000
390.375;  401.800; -673.000; -626.000
390.504;  -59.100; -703.000; -621.000
390.633; -105.600; -672.000; -726.000
390.761;  -52.900; -732.000; -645.000
390.890;  141.400;   -4.000; -130.000
391.019;   28.600; -421.000; -441.000
391.148; -169.800; -826.000; -855.000
391.277;  -84.300; -576.000; -493.000
391.406;  -44.100; -821.000; -805.000
391.534;  121.800;  574.000; -301.000
391.663;  -41.500; -583.000; -645.000
391.792; -128.600; -673.000; -701.000
391.921;  371.600;   -3.000;   15.000
392.050;  514.900; -287.000; -228.000
392.178;   10.700;-1206.000;-1061.000
392.307;  344.200; -758.000; -712.000
392.436;  194.000; -427.000; -641.000
392.564;  107.400;  166.000;   -6.000
392.693; -125.700; -860.000; -682.000
392.822;  528.100; -529.000; -534.000
392.950;  267.300; -880.000; -714.000
393.079;  756.400; -188.000; -328.000
393.208;  136.400; -488.000; -511.000
393.336;   13.900; -170.000; -145.000
393.465;   -6.100; -317.000; -199.000
393.593;   85.000;   62.000;   79.000
393.722; -254.600;-1121.000; -916.000
393.850;    5.900; -188.000;  -61.000
393.979; -251.400; -926.000; -805.000
394.107;  -47.600; -517.000; -537.000
394.236;   34.200; -570.000; -507.000
394.364;  564.100;  383.000;  206.000
394.493;  873.100; -911.000; -767.000
394.621;   -6.000; -955.000; -916.000
394.750; 1218.700; -873.000; -923.000
394.878; 4875.900; -247.000; -149.000
395.007; 6211.400; -721.000; -807.000
395.135;  449.900; -790.000; -721.000
395.263;  -98.000;-1038.000;-1040.000
395.392;   70.600;  -25.000; -107.000
395.520;  -94.800; -818.000; -679.000
395.648; -118.400; -865.000; -915.000
395.777;   -4.800; -366.000; -405.000
395.905;  -81.800; -449.000; -564.000
396.033;   98.400;  217.000;  172.000
396.162; 1458.900; -399.000; -453.000
396.290; 1290.400;  -17.000;   -2.000
396.418;  311.500; -555.000; -514.000
396.546;  -90.600; -571.000; -466.000
396.674; -137.100; -850.000; -878.000
396.803;   88.300;  -72.000;  -23.000
396.931;  276.100; -179.000; -199.000
397.059;  191.000;-1026.000; -989.000
397.187; -164.600;-1026.000; -975.000
397.315; -192.400; -884.000; -649.000
397.443; -131.700; -592.000; -443.000
397.572;  -93.300; -578.000; -424.000
397.700;   11.500; -607.000; -614.000
397.828;   74.500;  120.000;  -90.000
397.956;  -51.700; -508.000; -478.000
398.084; -108.600; -767.000; -626.000
398.212;  146.500;  137.000;  124.000
398.340;  108.000;  -56.000;  159.000
398.468;  150.300; -390.000; -169.000
398.596; -200.500; -993.000; -953.000
398.724; -198.300; -762.000; -767.000
398.852; -289.700;-1024.000; -976.000
398.980;  -38.000; -560.000; -560.000
399.108;  -41.700; -982.000; -735.000
399.236;  119.000;   13.000;    8.000
399.363;  114.000;  222.000;  196.000
399.491;  -72.800; -404.000; -398.000
399.619; -179.700; -829.000; -800.000
399.747; -154.800; -859.000; -771.000
399.875;  271.400;  220.000;  234.000
400.003;  -45.200; -359.000; -284.000
400.130; -125.200; -421.000; -341.000
400.258;   -3.800;  -83.000;   38.000
400.386;  -69.400; -352.000; -168.000
400.514;  -21.200; -526.000; -587.000
400.641;  -94.900; -928.000; -802.000
400.769; -228.900; -979.000; -888.000
400.897;  -89.400; -838.000; -793.000
401.025;   28.500; -166.000; -152.000
401.152;   70.200;  220.000;   38.000
401.280;  -71.400; -430.000; -429.000
401.408; -184.100; -712.000; -576.000
401.535; -160.400; -735.000; -758.000
401.663; -299.700;-1134.000;-1054.000
401.790; -105.600; -514.000; -525.000
401.918;  212.700;  436.000;  405.000
402.046;    4.400;  134.000;  122.000
402.173;   -5.100;  -18.000;    7.000
402.301; -105.000; -519.000; -397.000
402.428;  156.000;  528.000;  383.000
402.556; -229.300;-1188.000; -913.000
402.683;   28.700;  -20.000;   -1.000
402.811;   17.400;  -37.000; -206.000
402.938;   92.300;   20.000;   27.000
403.066;  388.300; -574.000; -558.000
403.193;  638.900;  299.000;  239.000
403.321;  533.300; -396.000; -574.000
403.448;  698.200;   83.000;   27.000
403.575;  337.400;  -90.000;  -46.000
403.703; -125.300; -732.000; -557.000
403.830;  -66.300; -531.000; -496.000
403.957; -213.800;-1117.000;-1023.000
404.085;   96.300;  -61.000; -172.000
404.212;  254.700;  -50.000;   63.000
404.339;  508.900; -566.000; -306.000
404.467; 9492.800; -612.000; -524.000
404.594; 6435.600; -287.000; -227.000
404.721; 1625.800; -869.000; -764.000
404.848;  185.200; -113.000; -202.000
404.976; -167.200; -856.000; -783.000
405.103;   18.200;  -14.000;  -82.000
405.230;   91.100;  190.000;  226.000
405.357;  130.300;  117.000;   44.000
405.484;  511.400;  -49.000;    5.000
405.612;   85.700; -548.000; -563.000
405.739;  -64.100; -488.000; -243.000
405.866;  221.300;  669.000;  385.000
405.993;   -2.800; -398.000; -102.000
406.120; -224.100; -801.000; -887.000
406.247;  -42.800; -323.000; -342.000
406.374; 1027.000;  540.000;  629.000
406.501;  313.100; -632.000; -702.000
406.628;  -91.400; -621.000; -589.000
406.755; -113.900; -803.000; -620.000
406.882;   -8.900; -228.000; -277.000
407.009; -142.100; -719.000; -628.000
407.136;  256.200; -480.000; -401.000
407.263;  433.800; -939.000; -829.000
407.390;  -56.400; -692.000; -614.000
407.517; -245.200;-1139.000;-1187.000
407.644;  -20.100; -332.000; -256.000
407.771;  -65.100; -249.000; -287.000
407.898;   64.300;  168.000;  328.000
408.025;  -32.800; -421.000; -313.000
408.151;   57.000;   82.000;  153.000
408.278;  -66.700; -267.000; -216.000
408.405; -153.500; -931.000; -899.000
408.532;  -74.500; -549.000; -542.000
408.659; -195.200; -677.000; -648.000
408.785; -332.400;-1298.000;-1170.000
408.912;  -53.900; -412.000; -296.000
409.039; -125.600; -610.000; -686.000
409.166; -170.300; -591.000; -555.000
409.292; -166.100; -571.000; -534.000
409.419; -182.100; -665.000; -649.000
409.546;  -93.000; -431.000; -192.000
409.672; -165.100; -713.000; -545.000
409.799;   23.800;  -36.000;   34.000
409.926;  -47.600; -180.000; -179.000
410.052; -260.800;-1127.000;-1091.000
410.179;  -43.000; -368.000; -392.000
410.305;  -92.100; -375.000; -493.000
410.432;   -9.600; -220.000; -333.000
410.558;  -93.800; -305.000; -380.000
410.685; -184.800; -688.000; -431.000
410.812;  -73.600; -409.000; -588.000
410.938; -236.600; -964.000; -808.000
411.065; -110.100; -671.000; -645.000
411.191;    8.400; -189.000; -174.000
411.317; -158.800; -823.000; -742.000
411.444;  -61.200; -317.000; -246.000
411.570;  -94.400; -339.000; -294.000
411.697; -198.100; -758.000; -752.000
411.823; -262.700; -989.000; -999.000
411.949;   12.600;  -56.000;   17.000
412.076; -133.500; -539.000; -519.000
412.202; -176.000; -758.000; -757.000
412.329; -175.200; -798.000; -752.000
412.455; -180.100; -821.000; -657.000
412.581;   44.200;  -15.000;  172.000
412.707;  -65.700; -540.000; -457.000
412.834;  100.800;  156.000;  219.000
412.960; -111.900; -785.000; -784.000
413.086; -124.800; -743.000; -701.000
413.212;  400.900;  604.000;  578.000
413.339;  -46.700; -685.000; -701.000
413.465;   92.600; -364.000; -310.000
413.591; -113.900; -757.000; -474.000
413.717;  -44.900; -358.000; -366.000
413.843; -211.200; -839.000; -861.000
413.969;  -53.500;  -47.000; -292.000
414.096; -146.500; -679.000; -679.000
414.222;   80.000;  -33.000;   85.000
414.348;   31.500; -652.000; -385.000
414.474;  276.600;   38.000;  -52.000
414.600;   -4.200; -126.000; -144.000
414.726;    5.500;  -96.000;  -55.000
414.852;  -54.900; -365.000; -342.000
414.978;  145.600;  104.000;  -18.000
415.104;  157.900;   38.000;   80.000
415.230;   90.100; -329.000; -330.000
415.356;  140.300; -409.000; -514.000
415.482;  391.000;   13.000;  -35.000
415.608;  523.400; -247.000; -323.000
415.734; 1791.000;   67.000;   38.000
415.860;35801.200; -875.000; -767.000
415.986;23475.400; -685.000; -607.000
416.111; 1964.900; -798.000; -652.000
416.237;  386.700; -424.000; -571.000
416.363; 2037.100; -765.000; -733.000
416.489; 6620.500; -324.000; -251.000
416.615;  652.100; -707.000; -742.000
416.741;  -27.900; -677.000; -784.000
416.866; -129.500; -673.000; -736.000
416.992; -184.300; -801.000; -818.000
417.118;   32.500;  -41.000;  -80.000
417.244;  -76.000; -798.000; -531.000
417.369; -133.300; -801.000; -612.000
417.495;   62.300; -325.000; -254.000
417.621; -102.200;-1015.000; -803.000
417.746;   20.900; -579.000; -572.000
417.872;  176.700; -254.000; -144.000
417.998;  118.500; -515.000; -530.000
418.123; 1944.800;-1073.000; -845.000
418.249; 8792.400; -512.000; -601.000
418.374; 1053.800; -916.000; -824.000
418.500;  214.200; -383.000; -482.000
418.626;  258.700;   70.000;  -59.000
418.751;  266.700; -549.000; -448.000
418.877;  313.800; -637.000; -643.000
419.002; 3268.600; -688.000; -560.000
419.128;20730.800; -930.000; -721.000
419.253; 4433.500; -967.000; -837.000
419.379;  639.700; -391.000; -338.000
419.504;  723.700;  325.000;  415.000
419.629;  911.900; -393.000; -212.000
419.755; 6061.300; -317.000; -254.000
419.880;32386.500;  -98.000;   67.000
420.006;19450.200; -280.000; -221.000
420.131;47834.100; -662.000; -775.000
420.256; 6251.900; -315.000; -316.000
420.382;  923.700; -665.000; -687.000
420.507;  155.500; -649.000; -778.000
420.632;  411.900; -337.000; -339.000
420.758;  588.800; -251.000; -425.000
420.883; -114.600; -876.000; -672.000
421.008; -132.000; -775.000; -619.000
421.133;  -47.000; -509.000; -467.000
421.259;  -16.300; -325.000; -259.000
421.384; -160.800; -834.000; -693.000
421.509;   26.400;-1052.000; -862.000
421.634; 2822.700; -936.000; -820.000
421.759; 1084.200; -359.000; -327.000
421.885;   -7.200; -717.000; -656.000
422.010;  -78.000; -673.000; -542.000
422.135; -219.800; -695.000; -727.000
422.260;  129.000;  340.000;  280.000
422.385;   10.700;   12.000;  -98.000
422.510;   94.500;  151.000;  -26.000
422.635;  141.500;  -87.000;  -43.000
422.760;  262.800; -766.000; -791.000
422.885;  126.100;  -57.000;  -80.000
423.010;    7.300; -112.000; -169.000
423.135; -118.800; -481.000; -561.000
423.260;   31.500; -150.000; -245.000
423.385;  201.300;  476.000;  222.000
423.510;  126.600;   71.000;  -22.000
423.635;  240.000;  133.000;   45.000
423.760;  183.600;  383.000;  328.000
423.885;  194.100;  336.000;  391.000
424.010;   66.600;  -68.000;  -13.000
424.135;   62.100;    5.000;  -33.000
424.259; -117.700; -654.000; -457.000
424.384;  -47.300; -279.000; -272.000
424.509;   23.300; -260.000; -186.000
424.634; -111.100; -761.000; -623.000
424.759;   -0.800; -688.000; -544.000
424.883;   21.900; -506.000; -527.000
425.008;  315.100; -502.000; -410.000
425.133; 3408.400; -679.000; -653.000
425.258; 1471.000; -517.000; -381.000
425.382; 2157.000; -867.000; -774.000
425.507; 5025.200; -487.000; -543.000
425.632;  751.100; -802.000; -663.000
425.756;  757.900; -256.000; -146.000
425.881;10524.100; -831.000; -857.000
426.006;25338.300; -604.000; -355.000
426.130; 3799.100; -696.000; -508.000
426.255;  514.300; -611.000; -491.000
426.379;  299.200; -189.000; -577.000
426.504;  689.600;  660.000;  544.000
426.629; 7353.600; -519.000; -466.000
426.753; 4516.100;   64.000;  -46.000
426.878;  597.200; -252.000; -288.000
427.002;  381.500; -651.000; -668.000
427.127; 2978.400;  -35.000; -158.000
427.251;18825.100;  372.000;  401.000
427.375; 4850.700; -191.000; -173.000
427.500; 4587.600; -616.000; -610.000
427.624; 1424.500; -234.000; -400.000
427.749;  267.300; -216.000; -225.000
427.873;    7.100; -499.000; -412.000
427.997;    5.600; -222.000; -230.000
428.122;  245.800;  795.000;  703.000
428.246;  231.900;  433.000;  434.000
428.371; -178.800; -869.000; -773.000
428.495; -125.000; -624.000; -646.000
428.619;   28.200; -186.000; -117.000
428.743;  114.500;   65.000;  132.000
428.868;  104.100; -732.000; -643.000
428.992; 2913.300; -219.000; -326.000
429.116; 1125.400; -329.000; -357.000
429.240;  696.600;  419.000;  426.000
429.365;   46.000; -454.000; -574.000
429.489;   47.800; -638.000; -647.000
429.613;  130.900; -236.000; -177.000
429.737;  153.000; -563.000; -432.000
429.861;  585.400; -247.000; -133.000
429.985; 9947.600; -425.000; -305.000
430.109; 9754.700; -770.000; -908.000
430.234; 1175.300;   76.000;  -50.000
430.358;  172.100; -250.000; -160.000
430.482;  -51.900; -672.000; -564.000
430.606;  -52.800; -655.000; -375.000
430.730;  101.800; -437.000; -388.000
430.854;  397.800; -909.000; -835.000
430.978;  -63.700; -795.000; -764.000
431.102;  -32.100; -499.000; -422.000
431.226;  -69.100; -874.000; -815.000
431.350;  253.600;  345.000;  422.000
431.474;  -41.400; -661.000; -373.000
431.597; -218.400;-1060.000; -848.000
431.721;  -83.400; -276.000; -267.000
431.845; -195.200; -704.000; -472.000
431.969;  -85.200; -304.000; -349.000
432.093; -131.000; -395.000; -317.000
432.217;   38.300;   32.000;   82.000
432.341; -102.400; -523.000; -518.000
432.464;   97.300;   96.000;   40.000
432.588;  569.500; -401.000; -329.000
432.712;  254.400;  -52.000;  -52.000
432.836;  157.000;  213.000;  263.000
432.959;  -26.400; -372.000; -311.000
433.083;  217.800;   11.000;    2.000
433.207;  728.500;  285.000;  930.000
433.330; 8741.800; -391.000; -200.000
433.454; 9697.600; -654.000; -638.000
433.578; 5782.400;  583.000;  278.000
433.701; 1013.000; -623.000; -675.000
433.825;  405.200; -292.000; -299.000
433.949;  534.800;   28.000;  -72.000
434.072;  252.000; -410.000; -323.000
434.196;   46.200; -309.000; -117.000
434.319; 7872.200;25482.000;25124.000
434.443; 1494.300; -656.000; -603.000
434.566; 4448.300;  281.000;   62.000
434.690;  639.500; -637.000; -383.000
434.813;  144.700; -251.000; -173.000
434.937; -101.800; -569.000; -696.000
435.060;   50.300; -423.000; -332.000
435.184;  921.800; -492.000; -217.000
435.307;  492.100;  159.000;  102.000
435.431;   56.500;  -40.000;   24.000
435.554;  -69.600; -399.000; -240.000
435.677;  -64.800; -350.000; -258.000
435.801;   -4.300;  -25.000;   49.000
435.924;   74.400;    1.000;  -67.000
436.048; -104.700;-1019.000; -732.000
436.171;  -30.700; -240.000;  -66.000
436.294;   63.400; -248.000; -229.000
436.417;  169.900; -963.000; -849.000
436.541; -152.300; -814.000; -840.000
436.664;   11.100; -242.000; -316.000
436.787;   89.100;   13.000;  113.000
436.910; -141.500; -792.000; -422.000
437.034;  128.900;  142.000;  143.000
437.157;  261.000;  -11.000;    0.000
437.280;  -41.200; -392.000; -292.000
437.403;  -60.600; -982.000; -869.000
437.526; 1773.300; -903.000; -865.000
437.649; 5341.600; -505.000; -332.000
437.772;  769.700; -692.000; -540.000
437.896;  319.800;  700.000;  544.000
438.019; -123.000; -758.000; -503.000
438.142; -114.700; -596.000; -506.000
438.265;   81.100; -639.000; -670.000
438.388; 1396.800; -520.000; -410.000
438.511;  318.100; -597.000; -394.000
438.634;  -19.100; -247.000; -125.000
438.757; -181.400; -693.000; -619.000
438.880;   14.300;  -34.000;  -57.000
439.003;  -66.500; -417.000; -437.000
439.126;  -57.700; -287.000; -167.000
439.248;  -44.100;  -98.000; -139.000
439.371;  -16.000;    9.000;  -53.000
439.494;  162.700;  510.000;  439.000
439.617;  -32.300;   65.000;  -88.000
439.740; -288.100; -968.000; -816.000
439.863; -201.000; -755.000; -595.000
439.986; -149.600; -476.000; -431.000
440.108;  -13.800; -161.000; -112.000
440.231; -260.600; -950.000; -836.000
440.354;   -0.300;  -64.000; -150.000
440.477;  206.600; -566.000; -542.000
440.599;   95.800; -200.000; -225.000
440.722; -153.100; -709.000; -586.000
440.845;  244.500;  751.000;  928.000
440.968; -148.200; -415.000; -311.000
441.090;  -90.100; -199.000;  -33.000
441.213; -266.100;-1021.000; -825.000
441.336;  -15.100; -159.000;   -5.000
441.458;  -89.500; -549.000; -396.000
441.581; -103.300; -628.000; -629.000
441.703;  -87.100; -152.000;   13.000
441.826; -170.400; -557.000; -400.000
441.948;  -46.500;   56.000;   51.000
442.071;  169.200;  555.000;  424.000
442.193; -152.900; -531.000; -485.000
442.316;  114.500;  152.000;   97.000
442.438;  138.000; -233.000;  -10.000
442.561;  223.600;  272.000;  262.000
442.683; 1503.400; -809.000; -522.000
442.806; 2615.400;   -8.000;   74.000
442.928;  107.900; -859.000; -604.000
443.051;  -80.400; -577.000; -373.000
443.173; -108.100; -341.000; -339.000
443.295; -106.100; -263.000; -371.000
443.418;  -64.300; -321.000;  -29.000
443.540;   64.000; -106.000;   -4.000
443.662; -157.100; -563.000; -465.000
443.785;   59.100;  335.000;  199.000
443.907; -133.300; -362.000; -208.000
444.029; -219.400; -767.000; -494.000
444.152; -244.700; -644.000; -554.000
444.274;   18.500;  -18.000;  -24.000
444.396; -163.900; -461.000; -221.000
444.518; -223.000; -691.000; -454.000
444.640; -130.100; -268.000; -111.000
444.763;   21.000;  388.000;  249.000
444.885; -160.200; -432.000; -392.000
445.007;   -8.900;   35.000;   86.000
445.129; -172.700; -610.000; -515.000
445.251; -180.200; -372.000; -439.000
445.373; -203.400; -537.000; -386.000
445.495;  100.100;  242.000;  350.000
445.617;  208.600;  853.000;  753.000
445.739;  -72.700; -215.000;  -97.000
445.861;   -3.200; -245.000; -112.000
445.984;   -3.300; -267.000; -101.000
446.105;  519.600; -418.000; -251.000
446.227; 1406.000; -176.000;  -19.000
446.349;   83.300; -358.000; -249.000
446.471; -156.300; -615.000; -448.000
446.593;  -42.800; -316.000;   19.000
446.715;   94.000;  -67.000;   41.000
446.837;  211.500;  697.000;  832.000
446.959; -116.300; -457.000; -478.000
447.081; -222.600; -628.000; -518.000
447.203;  163.400;  862.000;  834.000
447.325; -107.300; -270.000;   42.000
447.446;   71.800;  286.000;  530.000
447.568; -228.700; -921.000; -803.000
447.690;  -89.700; -236.000; -245.000
447.812; -218.200; -798.000; -519.000
447.933;    6.100;  155.000;  127.000
448.055;  -52.200; -306.000; -261.000
448.177;  382.900;   31.000;   79.000
448.299;  287.700; -935.000; -727.000
448.420;  115.400;  -25.000;  159.000
448.542;    5.800;   -3.000;   33.000
448.664;   25.000;  109.000;  322.000
448.785;  -12.600;  265.000;   83.000
448.907;  -97.500; -614.000; -353.000
449.028;  -12.100; -771.000; -471.000
449.150;  189.600;  492.000;  589.000
449.272; -301.900;-1044.000; -913.000
449.393;  154.200;  612.000;  694.000
449.515; -193.300; -634.000; -581.000
449.636;  -28.600; -264.000; -155.000
449.758;  270.900;  763.000;  622.000
449.879; -102.400; -498.000; -396.000
450.001;  -93.100; -149.000;  -49.000
450.122;   -4.900;  -95.000;  162.000
450.244;    9.800;   37.000;  364.000
450.365; -110.100; -495.000; -301.000
450.486;   12.300;   80.000;  268.000
450.608;  134.500;  393.000;  326.000
450.729;  238.200;  578.000;  645.000
450.850;   13.000; -574.000; -466.000
450.972; 1273.500; -552.000; -389.000
451.093; 7874.900;  190.000;  588.000
451.214; 2940.000; -516.000; -337.000
451.336;  647.600;  773.000;  579.000
451.457;  148.500;  264.000;  393.000
451.578;  -54.200; -118.000;  -74.000
451.699; -196.400; -546.000; -540.000
451.821;  -63.700; -284.000;  -50.000
451.942;   58.100;  278.000;  285.000
452.063;  122.400;  228.000;  419.000
452.184; 1016.200;  -54.000;  -49.000
452.305; 1778.600;  103.000;  170.000
452.427;  224.200; -549.000; -301.000
452.548;   10.400;   23.000;   79.000
452.669;   13.800; -257.000;  -89.000
452.790;  -11.900;    3.000;  -18.000
452.911;   73.900;  195.000;  259.000
453.032;  -68.300; -289.000;  -60.000
453.153;   19.100;  -29.000;   81.000
453.274;  211.400;  737.000;  868.000
453.395;   -9.200;  -51.000;  175.000
453.516;  360.000; 1317.000; 1388.000
453.637;  -56.300; -205.000; -150.000
453.758;  -42.600;   15.000;   69.000
453.879; -151.500; -462.000; -250.000
454.000;  247.000; 1086.000;  948.000
454.121; -128.100; -554.000; -326.000
454.242; -182.500; -599.000; -383.000
454.362;  -10.100;  -99.000;  114.000
454.483;   25.500; -309.000; -229.000
454.604;  212.800;  512.000;  580.000
454.725; -175.900; -627.000; -555.000
454.846; -171.000; -474.000; -406.000
454.967;    1.000;  230.000;  539.000
455.087;  -19.500;  179.000;  153.000
455.208;  100.300;  554.000;  856.000
455.329;  -33.900;  -22.000;   82.000
455.450;  132.800;  473.000;  633.000
455.570;  -93.000; -234.000; -211.000
455.691;  -16.000;  201.000;  407.000
455.812; -137.300; -270.000;  -92.000
455.932;  -65.400;  107.000;  -97.000
456.053;  -78.400;   36.000;   24.000
456.173; -164.000; -433.000; -355.000
456.294; -139.000; -476.000; -303.000
456.415;  -61.500;  -73.000;   70.000
456.535;   -1.400;  297.000;  273.000
456.656;  -19.400;  132.000;  240.000
456.776;  -48.800;    3.000;  298.000
456.897;   50.500;  308.000;  513.000
457.017;  -70.400; -153.000;   -3.000
457.138; -119.500; -402.000; -249.000
457.258;   35.400;  263.000;  224.000
457.379;   81.100;  509.000;  521.000
457.499;   27.000;  443.000;  432.000
457.620; -184.300; -407.000; -231.000
457.740; -113.300; -132.000;  -11.000
457.860;  -23.400;   87.000;   44.000
457.981;   -7.200;  132.000;  124.000
458.101;  -75.000;  -89.000;   40.000
458.221;   71.000;  336.000;  402.000
458.342;  -51.400;   -4.000;  -37.000
458.462;  145.800;  617.000;  352.000
458.582;  -33.300; -302.000; -294.000
458.703;   76.300;  303.000;  154.000
458.823;  -19.400;   22.000;  163.000
458.943;  134.100;  341.000;  467.000
459.063;   28.400; 1124.000;  192.000
459.183;   47.700;  328.000;  313.000
459.304;   74.500;  315.000;  517.000
459.424;  -53.000; -246.000;  -89.000
459.544;  671.000;  388.000;  764.000
459.664; 1460.700;  499.000;  506.000
459.784;  567.800; 1004.000; 1175.000
459.904;  186.400;  867.000;  744.000
460.024;  203.600;  867.000;  684.000
460.144;  123.400;  449.000;  554.000
460.264;   82.400;  515.000;  327.000
460.385; -118.100; -145.000; -119.000
460.505;  142.700;  905.000;  858.000
460.625; -109.000;  -17.000;  -68.000
460.745;   31.600;  396.000;  541.000
460.864;   29.300;  153.000;  469.000
460.984;  135.300;  499.000;  573.000
461.104;  411.300; 1656.000; 1775.000
461.224;  132.600;  657.000;  650.000
461.344;   74.000;  431.000;  360.000
461.464;  -10.900;  258.000;  513.000
461.584;   50.100;  283.000;  466.000
461.704;   14.200;   58.000;  108.000
461.824;  -24.200;  238.000;  259.000
461.943;  -21.300;  191.000;  130.000
462.063;  -42.900;    2.000;  324.000
462.183;  147.400;  639.000;  717.000
462.303;  296.900; 1678.000; 1230.000
462.422;  166.900;  781.000;  840.000
462.542;   -2.300;  271.000;  391.000
462.662;  142.400;  353.000;  380.000
462.782;  466.700;  833.000;  572.000
462.901;  868.900;  545.000;  717.000
463.021;  578.600; 1702.000; 1638.000
463.141;   -9.200;  337.000;  770.000
463.260;   29.300;  614.000;  474.000
463.380;   99.200;  902.000;  884.000
463.499;   36.300;  342.000;  332.000
463.619;   15.000;  581.000;  559.000
463.738;  336.400; 1644.000;  903.000
463.858;  100.800;  657.000;  811.000
463.978;    0.400;  542.000;  396.000
464.097;  176.500;  921.000; 1114.000
464.217;  282.600; 1196.000; 1143.000
464.336;  252.300; 1068.000; 1130.000
464.455;   23.000;  328.000;  659.000
464.575;  169.900;  597.000;  602.000
464.694;  439.600; 1204.000; 1179.000
464.814;  284.900; 1190.000; 1138.000
464.933;  238.700; 1095.000; 1027.000
465.052;  270.300; 1412.000; 1054.000
465.172;  223.600;  922.000;  799.000
465.291;  347.000; 1376.000; 1320.000
465.410;  103.500;  462.000;  735.000
465.530;  271.700; 1355.000; 1310.000
465.649;  219.700; 1209.000; 1273.000
465.768;  364.600; 1673.000; 1508.000
465.888;  212.300;  941.000; 1174.000
466.007;  265.100; 1335.000; 1440.000
466.126;   78.200;  721.000;  641.000
466.245;  177.800; 1176.000; 1187.000
466.364;  143.900;  950.000; 1060.000
466.484;  201.000; 1024.000; 1213.000
466.603;  135.700; 1101.000; 1222.000
466.722;  301.600; 1490.000; 1769.000
466.841;  243.100; 1151.000; 1401.000
466.960;  155.000; 1069.000;  972.000
467.079;  360.400; 1971.000; 1786.000
467.198;  154.000; 1238.000; 1181.000
467.317;  237.400; 1768.000; 1162.000
467.436;  244.200; 1709.000; 1261.000
467.555;  363.900; 1796.000; 1746.000
467.674;  224.600; 1227.000; 1329.000
467.793;  196.600; 1376.000; 1374.000
467.912;  233.400; 1658.000; 1539.000
468.031;  367.300; 2038.000; 1930.000
468.150;  405.000; 1842.000; 1837.000
468.269;  512.200; 2313.000; 2090.000
468.388;  525.600; 2168.000; 2339.000
468.507;  621.100; 2884.000; 2903.000
468.626;  664.100; 2555.000; 2541.000
468.744;  350.100; 2018.000; 2174.000
468.863;  450.400; 2312.000; 2523.000
468.982;  251.900; 1503.000; 1555.000
469.101;  535.900; 2788.000; 2692.000
469.220;  384.600; 2333.000; 2176.000
469.338;  607.600; 2935.000; 3051.000
469.457;  473.000; 2719.000; 2545.000
469.576;  757.800; 3953.000; 3784.000
469.695;  581.300; 2877.000; 3066.000
469.813;  970.400; 4148.000; 4192.000
469.932;  878.500; 4255.000; 4485.000
470.051;  916.100; 4075.000; 4161.000
470.169; 1675.400; 4470.000; 4338.000
470.288; 2687.100; 4700.000; 4809.000
470.406; 1635.900; 5059.000; 5194.000
470.525; 1314.600; 6101.000; 5787.000
470.644; 1382.000; 6847.000; 6794.000
470.762; 1711.300; 8397.000; 7873.000
470.881; 1917.700; 8651.000; 8464.000
470.999; 2129.200; 9685.000; 9151.000
471.118; 2309.200;11174.000;10711.000

