
Integration time [ms]: 200.000
Averaging Nr. [scans]: 10
Smoothing Nr. [pixels]: 0
Data measured with spectrometer [name]: 2101012U2
Wave   ;Sample   ;Dark     ;Reference
[nm]   ;[counts] ;[counts] ;[counts] 

197.733;  112.300;  516.000;  404.000
197.879; -148.300; -610.000; -634.000
198.025; -104.000; -475.000; -420.000
198.171; -146.600; -602.000; -612.000
198.317;  -64.600; -401.000; -316.000
198.463; -126.100; -655.000; -404.000
198.609;   78.800;  181.000; -137.000
198.755; -154.800; -644.000; -410.000
198.901; -145.700; -505.000; -424.000
199.047; -139.300; -615.000; -488.000
199.193;  -81.100; -230.000; -468.000
199.339;  -91.400; -222.000; -369.000
199.485;   74.100;  330.000;  271.000
199.631;   25.300;  227.000;  310.000
199.777; -123.100; -466.000; -398.000
199.923; -130.300; -610.000; -424.000
200.069;   -1.700; -141.000;  -58.000
200.215;   88.700;  128.000;  453.000
200.361;   66.700;  243.000;  477.000
200.507; -138.100; -600.000; -373.000
200.653;  -60.400; -371.000; -194.000
200.798;  -85.100; -215.000; -125.000
200.944;  -13.500; -146.000;  -41.000
201.090;   61.200;   61.000;  222.000
201.236;    8.700; -116.000; -158.000
201.382;  261.500;  874.000;  903.000
201.528;  -17.900;  -58.000;  -48.000
201.674;  -65.900; -386.000; -293.000
201.819; -119.800; -540.000; -439.000
201.965; -190.800; -699.000; -447.000
202.111;  -54.200; -273.000; -226.000
202.257;  -52.100; -250.000; -238.000
202.402;   16.500;   13.000;  -36.000
202.548;  -65.500; -169.000; -116.000
202.694;  154.000;  410.000; -183.000
202.840; -174.600; -603.000; -531.000
202.985; -125.100; -681.000; -639.000
203.131; -210.400; -832.000; -666.000
203.277;  -19.200; -199.000; -262.000
203.423;  -97.200; -434.000; -520.000
203.568;  -73.400; -462.000; -237.000
203.714; -127.800; -535.000; -542.000
203.860; -199.300; -682.000; -641.000
204.005;   22.400;  112.000;  167.000
204.151;  133.600;  561.000;  556.000
204.296;  -96.400; -354.000; -221.000
204.442; -149.000; -600.000; -547.000
204.588; -186.000; -592.000; -579.000
204.733;   32.300;  178.000;  168.000
204.879; -273.200;-1018.000; -822.000
205.025;    2.300;  -99.000;  126.000
205.170;    7.100;  -17.000;   94.000
205.316;  178.300;  438.000;  661.000
205.461; -181.500; -698.000; -554.000
205.607;  149.300;  609.000;  665.000
205.752; -161.300; -626.000; -551.000
205.898; -123.100; -501.000; -391.000
206.043; -116.500; -578.000; -506.000
206.189;  -77.000; -243.000; -285.000
206.334;  202.400;  554.000;  606.000
206.480;  160.600;  409.000;  239.000
206.625; -171.500; -529.000; -552.000
206.771;  -61.400; -451.000; -373.000
206.916;  -42.600; -210.000; -537.000
207.062; -135.900; -545.000; -591.000
207.207; -148.000; -546.000; -443.000
207.353;  104.200;  185.000;  460.000
207.498;   53.700;  196.000;   85.000
207.643; -113.000; -501.000; -370.000
207.789; -268.400;-1069.000; -910.000
207.934; -205.100; -665.000; -713.000
208.080;  -58.000; -154.000;   66.000
208.225;    2.900;  -22.000;  -57.000
208.370; -136.600; -727.000; -619.000
208.516; -143.100; -741.000; -487.000
208.661;  -52.600; -127.000;  -69.000
208.806;  -72.400; -165.000; -171.000
208.952; -246.800;-1044.000; -731.000
209.097;  168.000;  378.000;  349.000
209.242;  -94.400; -307.000; -382.000
209.387;  115.900;  392.000;  350.000
209.533; -137.700; -321.000; -350.000
209.678;  185.700;  472.000;  543.000
209.823; -114.300; -408.000; -310.000
209.969; -231.200; -860.000; -757.000
210.114; -223.200; -907.000; -719.000
210.259; -254.600; -939.000; -889.000
210.404;   11.600; -171.000;  103.000
210.549;   13.400;  108.000;    3.000
210.695;  -15.400;   -3.000;  -95.000
210.840;   77.400;   94.000;   67.000
210.985; -147.600; -484.000; -303.000
211.130;  154.800;  268.000;  406.000
211.275;   43.200;  207.000;  199.000
211.420;  -96.500; -300.000; -289.000
211.566; -158.900; -536.000; -489.000
211.711;   63.100;  218.000;  157.000
211.856; -127.300; -545.000; -519.000
212.001;   12.800;  151.000;   44.000
212.146;   21.300;  153.000;   49.000
212.291;  -29.000; -210.000; -186.000
212.436;  -44.000; -280.000;   -6.000
212.581; -165.900; -685.000; -653.000
212.726; -164.100; -487.000; -538.000
212.871; -121.300; -552.000; -217.000
213.016; -289.600;-1172.000;-1029.000
213.161;  123.300;  406.000;  291.000
213.306; -142.300; -435.000; -577.000
213.451; -190.900; -778.000; -689.000
213.596; -123.600; -455.000; -347.000
213.741; -101.800; -448.000; -538.000
213.886; -164.400; -498.000; -517.000
214.031;   -3.600; -294.000; -124.000
214.176;  -96.800; -408.000; -341.000
214.321;  -30.200; -296.000; -157.000
214.466;  -77.000; -163.000;  -43.000
214.611;    1.900;  -61.000;  -10.000
214.756; -235.100; -948.000; -858.000
214.901;  -45.300; -388.000; -226.000
215.046; -270.800; -797.000; -825.000
215.191;   45.300;  128.000;   35.000
215.336;  -27.400; -157.000;  -19.000
215.480; -142.500; -684.000; -505.000
215.625;  -15.200; -175.000;  -19.000
215.770; -195.400; -757.000; -662.000
215.915;   -3.100;   -5.000;  -97.000
216.060;   12.300; -113.000;  -21.000
216.205; -235.300; -731.000; -779.000
216.349; -138.400; -470.000; -533.000
216.494; -289.600; -939.000; -867.000
216.639; -249.300; -823.000; -888.000
216.784; -168.300; -577.000; -525.000
216.929;  146.500;  392.000;  281.000
217.073;  -14.900; -244.000;  -31.000
217.218;   20.400;   78.000;  -47.000
217.363; -179.400; -656.000; -618.000
217.507; -146.600; -623.000; -588.000
217.652; -259.400; -845.000; -874.000
217.797; -190.900; -708.000; -659.000
217.942; -227.100; -856.000; -720.000
218.086;  185.300;  608.000;  539.000
218.231;  -49.300; -174.000;  -26.000
218.376;  -88.600; -337.000; -229.000
218.520;   47.700;  -41.000;   96.000
218.665;  -56.100; -338.000; -204.000
218.810;  -83.100; -275.000; -233.000
218.954;   65.800;  201.000;   35.000
219.099; -234.800; -713.000; -963.000
219.243; -122.500; -589.000; -554.000
219.388;  -70.700; -264.000; -136.000
219.532;  -42.700; -116.000; -116.000
219.677; -150.300; -564.000; -521.000
219.822;   31.200;   33.000;   89.000
219.966;   16.300;   17.000;  -99.000
220.111;  -46.500; -328.000;  -40.000
220.255; -192.000; -797.000; -750.000
220.400;  -38.500; -180.000; -146.000
220.544; -144.900; -516.000; -450.000
220.689; -120.500; -422.000; -451.000
220.833;  -39.000; -123.000;  -58.000
220.978;  -95.500; -393.000; -563.000
221.122;   56.300;  319.000;  307.000
221.267; -221.300; -906.000; -837.000
221.411; -129.400; -478.000; -394.000
221.555;   11.100; -104.000;  -23.000
221.700; -122.000; -329.000; -222.000
221.844;   58.200;  255.000;  272.000
221.989;  -76.900; -328.000; -311.000
222.133;  -53.900; -289.000; -307.000
222.277;    3.500;    5.000;   78.000
222.422;   31.000;  227.000;  113.000
222.566;  -47.500; -381.000; -214.000
222.711;  -99.300; -414.000; -479.000
222.855; -174.400; -643.000; -586.000
222.999; -163.900; -642.000; -717.000
223.144;  -50.000; -195.000; -194.000
223.288;  131.800;  423.000;  251.000
223.432;   20.600;  184.000;  230.000
223.576;   33.600;  152.000;  -21.000
223.721;   83.400;  364.000;  273.000
223.865;  -94.700; -472.000; -475.000
224.009;  576.500; 1673.000; 1631.000
224.153; -168.800; -660.000; -671.000
224.298; -141.600; -531.000; -489.000
224.442;  -30.700;  -74.000;  -33.000
224.586;  -30.500; -169.000; -106.000
224.730; -194.600; -858.000; -670.000
224.875; -217.300; -739.000; -688.000
225.019;   29.200;  102.000;  188.000
225.163;  100.400;  208.000;  341.000
225.307;   53.500;   97.000;  -91.000
225.451;  107.900;  360.000;  481.000
225.595;   91.100;  264.000;  176.000
225.739;  -62.400; -170.000;  -94.000
225.884;    7.400;   86.000;    5.000
226.028; -206.600; -760.000; -626.000
226.172;  -71.800; -260.000; -273.000
226.316; -254.100; -941.000; -902.000
226.460;  -93.600; -645.000; -493.000
226.604; -110.300; -406.000; -400.000
226.748; -187.200; -836.000; -733.000
226.892;  -73.800; -227.000; -181.000
227.036;  -77.900; -537.000; -447.000
227.180; -126.100; -551.000; -375.000
227.324; -108.600; -561.000; -580.000
227.468; -231.100; -819.000; -717.000
227.612;   38.000;  242.000;  -28.000
227.756; -211.100; -845.000; -698.000
227.900;  114.600;  342.000;  441.000
228.044; -135.800; -509.000; -290.000
228.188;  143.700;  448.000;  568.000
228.332; -208.600; -546.000; -472.000
228.476;  -31.400; -223.000; -149.000
228.620;  -58.700; -210.000; -150.000
228.764;  160.900;  431.000;  349.000
228.908;  -70.700; -155.000;   30.000
229.052; -121.500; -615.000; -528.000
229.195;    0.300; -172.000;   13.000
229.339;  -69.000; -235.000; -305.000
229.483;  -57.900;    5.000; -162.000
229.627;   11.800; -156.000;  139.000
229.771;  -82.100; -218.000; -294.000
229.915;   18.300;  230.000;   79.000
230.059; -176.200; -648.000; -663.000
230.202;  -61.200; -370.000; -317.000
230.346;   -0.700; -107.000;  107.000
230.490; -101.600; -489.000; -521.000
230.634; -204.600; -736.000; -553.000
230.777;  171.500;  478.000;  509.000
230.921;  -76.500; -450.000; -359.000
231.065;  -80.900; -246.000; -286.000
231.209;   63.200;  261.000;  265.000
231.352;   73.400;   54.000;   40.000
231.496;   57.600;  568.000;  188.000
231.640; -156.000; -693.000; -621.000
231.783;  137.800;  546.000;  525.000
231.927;  -82.900; -294.000; -365.000
232.071; -261.500; -962.000; -736.000
232.214; -216.400; -980.000; -764.000
232.358; -198.400; -683.000; -599.000
232.502;   41.500;  -19.000;    7.000
232.645; -307.000;-1090.000; -927.000
232.789;  -10.100; -257.000; -218.000
232.933;  -84.100; -407.000; -224.000
233.076; -240.400;-1038.000; -897.000
233.220; -207.000; -752.000; -777.000
233.363; -165.300; -669.000; -477.000
233.507;  134.600;  371.000;  129.000
233.650; -201.800; -764.000; -834.000
233.794;   95.200;  438.000;  461.000
233.938; -136.200; -530.000; -362.000
234.081;  -40.700;  -93.000;   31.000
234.225; -133.700; -631.000; -539.000
234.368; -192.900; -773.000; -723.000
234.512;  -66.500; -385.000; -299.000
234.655; -174.300; -582.000; -555.000
234.798; -119.400; -493.000; -466.000
234.942; -273.600; -884.000;-1002.000
235.085; -115.900; -651.000; -443.000
235.229; -140.700; -405.000; -410.000
235.372; -104.200; -247.000; -191.000
235.516;  -97.500; -397.000; -321.000
235.659;   34.400;   92.000;  121.000
235.802;   -4.800;  -38.000;  -22.000
235.946;   57.700;  335.000;  215.000
236.089;   76.200;  126.000;  250.000
236.233;  111.600;  275.000;  298.000
236.376;  -83.500; -235.000; -378.000
236.519;  -52.600; -297.000; -319.000
236.663;  -26.800; -215.000; -117.000
236.806; -311.400;-1029.000; -999.000
236.949;  154.900;  543.000;  431.000
237.092;  143.400;  412.000;  391.000
237.236; -153.700; -589.000; -502.000
237.379;  148.500;  352.000;  428.000
237.522; -233.900; -879.000; -768.000
237.666;  -11.600; -271.000;   18.000
237.809; -218.600; -851.000; -823.000
237.952;   99.700;  469.000;  271.000
238.095; -121.300; -447.000; -442.000
238.238;  182.400;  688.000;  700.000
238.382;   18.900;  166.000;  103.000
238.525; -127.400; -598.000; -511.000
238.668; -271.800;-1060.000; -985.000
238.811; -148.500; -638.000; -643.000
238.954; -108.000; -483.000; -334.000
239.097;  209.400;  617.000;  664.000
239.241;   78.800;  394.000;  326.000
239.384;  -72.400; -254.000; -214.000
239.527; -134.000; -424.000; -224.000
239.670; -299.200; -994.000;-1091.000
239.813; -230.800; -696.000; -658.000
239.956;  169.700;  579.000;  473.000
240.099; -216.700; -778.000; -725.000
240.242;  167.600;  428.000;  432.000
240.385;  113.900;  466.000;  450.000
240.528; -125.200; -706.000; -473.000
240.671;   49.900;  189.000;  134.000
240.814;  -83.100; -441.000; -158.000
240.957; -215.500; -767.000; -578.000
241.100; -169.600; -779.000; -755.000
241.243; -293.300;-1234.000; -893.000
241.386; -103.600; -508.000; -379.000
241.529; -174.200; -735.000; -547.000
241.672; -105.900; -566.000; -495.000
241.815; -224.200; -832.000; -808.000
241.958;  -40.800; -125.000; -182.000
242.101; -154.200; -545.000; -390.000
242.244;  -57.800; -270.000; -325.000
242.387;  -41.300; -304.000; -246.000
242.530;  149.000;  470.000;  134.000
242.673;  -82.000; -381.000; -309.000
242.815; -231.400; -925.000; -899.000
242.958; -108.600; -482.000; -381.000
243.101;   38.900;  132.000;  187.000
243.244; -160.700; -564.000; -521.000
243.387;  -71.200; -313.000; -316.000
243.530; -183.000; -657.000; -674.000
243.672;   33.500;   43.000;  -92.000
243.815;  -90.300; -355.000; -283.000
243.958;    3.400;   98.000;  -26.000
244.101;   20.500;   59.000;  -16.000
244.243;  -11.900;  -47.000;  101.000
244.386; -236.600; -761.000; -630.000
244.529;  -45.500; -132.000; -139.000
244.672; -307.800;-1154.000; -951.000
244.814; -210.400; -621.000; -794.000
244.957;  -77.600; -380.000; -304.000
245.100; -146.800; -489.000; -489.000
245.242; -132.500; -387.000; -374.000
245.385;   52.800;  -59.000;  -39.000
245.528; -287.900; -871.000; -705.000
245.670;  208.000;  612.000;  634.000
245.813; -132.600; -599.000; -547.000
245.956;  -43.100; -324.000; -275.000
246.098; -163.400; -508.000; -650.000
246.241;   15.300;  194.000;   48.000
246.383;  -54.300; -119.000;  -73.000
246.526; -158.200; -454.000; -525.000
246.669; -239.700; -889.000; -780.000
246.811;   44.000;  172.000;   -1.000
246.954; -127.500; -512.000; -426.000
247.096;  -28.400;  -84.000;   -6.000
247.239; -123.200; -482.000; -445.000
247.381; -119.000; -647.000; -488.000
247.524;  192.400;  645.000;  679.000
247.666;   -5.400;   58.000;   11.000
247.809; -229.100; -887.000; -691.000
247.951;   -7.600;  -75.000;  138.000
248.094;   73.500;  432.000;  308.000
248.236; -294.000;-1262.000;-1238.000
248.378;  -20.100; -356.000;  -81.000
248.521;  -25.200; -334.000; -337.000
248.663;  -47.100; -236.000; -267.000
248.806;  -40.500; -300.000; -266.000
248.948; -202.000; -886.000; -763.000
249.090;  -98.600; -428.000; -398.000
249.233; -100.400; -344.000; -381.000
249.375; -115.900; -474.000; -451.000
249.518;  -36.400;  -83.000; -133.000
249.660;    6.200; -103.000;    3.000
249.802; -338.000;-1303.000;-1189.000
249.945; -127.500; -612.000; -540.000
250.087; -240.700; -834.000; -768.000
250.229;  -88.300; -362.000; -480.000
250.371; -134.200; -494.000; -439.000
250.514;  -92.100; -310.000; -244.000
250.656;   31.000;   69.000;  102.000
250.798; -219.000; -849.000; -800.000
250.940; -113.100; -322.000; -322.000
251.083;  -29.600; -335.000; -111.000
251.225;  162.100;  338.000;  310.000
251.367;  -73.500; -274.000; -373.000
251.509;  -35.700; -265.000; -210.000
251.651; -187.700; -731.000; -671.000
251.794;  154.300;  538.000;  632.000
251.936; -236.800; -821.000; -747.000
252.078; -128.800; -540.000; -461.000
252.220; -141.300; -645.000; -477.000
252.362;  156.700;  344.000;  462.000
252.504; -153.700; -677.000; -584.000
252.646; -213.800; -875.000; -722.000
252.788;    5.200;   14.000; -128.000
252.931;  -72.300; -257.000; -253.000
253.073;  -51.100; -376.000; -317.000
253.215;   -6.500;  141.000;  122.000
253.357;   -3.500;   82.000; -153.000
253.499;  -69.500; -374.000; -234.000
253.641; -139.200; -749.000; -594.000
253.783; -198.700; -609.000; -527.000
253.925; -148.000; -586.000; -591.000
254.067; -209.200; -744.000; -667.000
254.209;  -46.600; -391.000; -259.000
254.351; -255.300; -865.000; -883.000
254.493; -113.000; -441.000; -417.000
254.635; -220.700; -936.000; -818.000
254.777; -178.800; -752.000; -687.000
254.918; -161.800; -512.000; -430.000
255.060; -129.300; -551.000; -395.000
255.202; -107.100; -473.000; -261.000
255.344; -151.800; -658.000; -455.000
255.486; -178.700; -471.000; -406.000
255.628; -209.700; -780.000; -781.000
255.770; -165.700; -676.000; -536.000
255.912; -131.300; -559.000; -468.000
256.053; -151.200; -730.000; -508.000
256.195;  372.500; 1008.000;  903.000
256.337; -193.500; -861.000; -595.000
256.479;  143.000;  532.000;  416.000
256.621;  -84.400; -394.000; -212.000
256.762; -185.100; -789.000; -742.000
256.904;  121.200;  485.000;  487.000
257.046;  -91.100; -381.000; -271.000
257.188;  -67.600; -351.000; -264.000
257.329; -117.300; -525.000; -464.000
257.471; -245.100; -939.000; -807.000
257.613; -131.200; -584.000; -498.000
257.755; -294.300;-1073.000; -982.000
257.896;   84.900;  286.000;  392.000
258.038; -110.000; -403.000; -352.000
258.180;  -62.600; -354.000; -279.000
258.321; -160.700; -581.000; -457.000
258.463;   15.800;  -71.000;  133.000
258.605; -161.000; -562.000; -570.000
258.746; -204.200; -886.000; -772.000
258.888; -295.100;-1026.000;-1020.000
259.029;   39.600;  121.000;   -8.000
259.171; -164.300; -614.000; -550.000
259.313;   18.600;  -49.000;  -47.000
259.454; -133.200; -536.000; -414.000
259.596;  -95.400; -483.000; -390.000
259.737; -135.700; -590.000; -474.000
259.879;  118.600;  217.000;  311.000
260.020;  210.200;  901.000;  636.000
260.162;  -15.100; -146.000; -253.000
260.303; -229.500; -768.000; -687.000
260.445; -190.500; -609.000; -613.000
260.586;   55.200;  392.000;  157.000
260.728;  -81.400; -360.000; -248.000
260.869; -124.000; -350.000; -343.000
261.011;  164.800;  706.000;  537.000
261.152; -124.800; -479.000; -319.000
261.293; -134.700; -576.000; -595.000
261.435;  -48.800; -219.000; -184.000
261.576;  -61.200; -455.000; -325.000
261.718;  110.400;  420.000;  470.000
261.859; -250.500; -940.000; -949.000
262.000; -262.100; -951.000;-1016.000
262.142;  -19.400;  -52.000;  -60.000
262.283; -224.700; -808.000; -691.000
262.424; -172.700; -666.000; -625.000
262.566; -313.200;-1161.000; -983.000
262.707; -218.700; -840.000; -830.000
262.848; -226.500; -769.000; -726.000
262.990;  -65.600; -362.000; -345.000
263.131;  165.400;  650.000;  681.000
263.272;    4.800;  -61.000;  -41.000
263.413; -163.500; -589.000; -561.000
263.555;  -99.100; -669.000; -143.000
263.696; -139.900; -550.000; -641.000
263.837; -109.300; -449.000; -551.000
263.978;    2.300;   -5.000;  -77.000
264.119;  -84.200; -283.000; -264.000
264.261; -212.600; -847.000; -630.000
264.402;   45.500;   33.000;   40.000
264.543; -159.800; -509.000; -524.000
264.684;    3.800;   61.000;  -50.000
264.825; -145.700; -816.000; -538.000
264.966;  -15.700;  -84.000;  -67.000
265.107; -234.300; -646.000; -670.000
265.248; -232.000; -825.000; -812.000
265.390;    7.600;  152.000;   -9.000
265.531;  -33.200; -238.000; -107.000
265.672; -167.200; -557.000; -630.000
265.813;  127.000;  563.000;  439.000
265.954; -299.800; -959.000; -940.000
266.095;   -7.400; -372.000; -322.000
266.236; -173.500; -686.000; -548.000
266.377;  -60.300; -243.000; -297.000
266.518; -129.300; -619.000; -547.000
266.659;   95.900;  170.000;  268.000
266.800;   34.300;   83.000;   85.000
266.941; -151.400; -487.000; -478.000
267.082;   27.800;  354.000;   99.000
267.223;  -95.100; -344.000; -273.000
267.364; -238.100; -892.000; -686.000
267.504;   17.600;    3.000;  135.000
267.645;   28.400;  160.000;   67.000
267.786;  -67.600; -147.000;  -86.000
267.927; -111.600; -473.000; -379.000
268.068;  -34.900; -186.000;  -61.000
268.209; -102.700; -175.000; -413.000
268.350; -108.700; -388.000; -532.000
268.490; -167.700; -648.000; -521.000
268.631;  106.100;  127.000;  225.000
268.772; -228.200; -874.000; -647.000
268.913;  -98.200; -328.000; -476.000
269.054;   12.800; -117.000;   12.000
269.194;  -79.000; -418.000; -402.000
269.335; -299.500;-1137.000;-1074.000
269.476;  -14.900;   33.000;  -35.000
269.617;  -77.500; -347.000; -392.000
269.757; -174.400; -713.000; -646.000
269.898; -193.000; -856.000; -613.000
270.039; -109.500; -415.000; -405.000
270.180; -265.900; -952.000; -816.000
270.320;  -28.200; -190.000; -250.000
270.461;  -66.300; -277.000; -249.000
270.602;  -14.000; -186.000; -156.000
270.742; -235.100; -868.000; -943.000
270.883; -111.300; -442.000; -390.000
271.023; -101.600; -358.000; -357.000
271.164; -128.900; -607.000; -528.000
271.305; -183.500; -666.000; -654.000
271.445; -173.500; -722.000; -683.000
271.586; -143.000; -462.000; -283.000
271.726;  -98.600; -397.000; -322.000
271.867; -119.900; -594.000; -534.000
272.008;  308.900; -473.000; -285.000
272.148;  261.300;  462.000;  468.000
272.289;   13.600; -113.000; -181.000
272.429;   40.300;   19.000;  185.000
272.570; -186.900; -633.000; -737.000
272.710; -189.500; -825.000; -775.000
272.851;  -19.500;  113.000; -130.000
272.991; -331.300;-1173.000;-1077.000
273.131; -110.800; -419.000; -459.000
273.272; -197.100; -683.000; -723.000
273.412;   10.800; -143.000;  -31.000
273.553; -117.400; -488.000; -507.000
273.693;  278.100;  913.000;  858.000
273.834; -215.500; -894.000; -692.000
273.974; -139.600; -664.000; -615.000
274.114; -206.200; -772.000; -560.000
274.255;  184.000;  414.000;  373.000
274.395;    9.400; -180.000; -125.000
274.535;   93.700;  199.000;  350.000
274.676;   90.100;  225.000;   94.000
274.816;   26.500;  110.000;   34.000
274.956; -158.800; -624.000; -690.000
275.097; -142.900;-1014.000; -922.000
275.237; -217.900; -913.000; -803.000
275.377; -164.700; -778.000; -689.000
275.517; -293.600; -878.000; -937.000
275.658;  -62.400; -590.000; -555.000
275.798; -147.500; -606.000; -413.000
275.938;   79.000;  215.000;  323.000
276.078; -165.600; -626.000; -395.000
276.218;    9.500;   99.000;  104.000
276.359; -266.400;-1026.000;-1024.000
276.499; -120.900; -605.000; -446.000
276.639;  -36.400; -305.000; -151.000
276.779;  -35.000; -475.000; -357.000
276.919; -200.900; -783.000; -624.000
277.059;  -16.000; -261.000; -212.000
277.199; -105.500; -357.000; -259.000
277.340;  117.500;  287.000;  175.000
277.480; -194.000; -840.000; -693.000
277.620;   78.900;  192.000;   16.000
277.760; -396.500;-1533.000;-1294.000
277.900;   68.300;  113.000;   33.000
278.040;   45.100;  137.000;  159.000
278.180;  114.600;  270.000;  170.000
278.320;   20.800;   21.000;   56.000
278.460; -132.300; -443.000; -469.000
278.600; -163.500; -708.000; -598.000
278.740;  129.300;  448.000;  224.000
278.880; -124.600; -768.000; -791.000
279.020;   54.000; -194.000; -144.000
279.160; -158.200; -672.000; -595.000
279.300; -237.000; -926.000; -873.000
279.440; -179.000; -709.000; -622.000
279.579;  -67.900;-1014.000; -929.000
279.719; -100.300; -410.000; -394.000
279.859;  162.600;   -4.000;   41.000
279.999;   30.000; -208.000;  101.000
280.139;  -55.000; -435.000; -387.000
280.279; -127.300; -708.000; -745.000
280.419;  -11.000; -229.000; -147.000
280.559;  -35.000; -259.000; -180.000
280.698; -162.000; -790.000; -639.000
280.838; -200.200; -778.000; -800.000
280.978; -191.900; -846.000; -790.000
281.118; -217.600; -811.000; -704.000
281.257;   21.300;   24.000;    6.000
281.397; -224.700;-1094.000; -960.000
281.537; -184.400; -599.000; -712.000
281.677;   16.500; -150.000; -101.000
281.816; -163.300; -700.000; -630.000
281.956;  -37.300; -193.000; -257.000
282.096;  -98.900; -539.000; -396.000
282.235; -203.100; -672.000; -638.000
282.375;  -30.600; -243.000;  -98.000
282.515; -185.400; -715.000; -707.000
282.654;   79.700;   29.000;  106.000
282.794;   63.500;  388.000;  244.000
282.934;  -83.400; -530.000; -491.000
283.073; -257.100;-1030.000; -857.000
283.213; -110.700; -460.000; -467.000
283.353;  -60.100; -408.000; -349.000
283.492;  -11.000; -264.000; -296.000
283.632;  -72.600; -254.000; -168.000
283.771; -181.300; -859.000; -730.000
283.911;  -74.800; -369.000; -260.000
284.050; -193.100; -794.000; -748.000
284.190; -316.000;-1229.000;-1096.000
284.329; -290.700;-1055.000; -964.000
284.469; -136.600; -516.000; -591.000
284.608; -112.600; -559.000; -598.000
284.748; -152.800; -614.000; -570.000
284.887;   43.600;  -87.000;  -20.000
285.027; -227.900; -844.000; -892.000
285.166;  -38.000; -192.000; -249.000
285.306;   26.800; -116.000;  -33.000
285.445;  -69.100; -229.000; -343.000
285.584; -172.300; -630.000; -494.000
285.724;  -68.400; -282.000; -322.000
285.863; -196.500; -857.000; -507.000
286.002;  -67.400; -366.000; -276.000
286.142; -214.800; -715.000; -622.000
286.281; -120.400; -525.000; -493.000
286.420; -135.300; -554.000; -417.000
286.560;  213.300;  653.000;  623.000
286.699; -266.900; -958.000; -912.000
286.838; -137.200; -590.000; -591.000
286.978; -178.400; -533.000; -537.000
287.117; -263.500;-1085.000; -950.000
287.256;  -50.700; -228.000; -211.000
287.395;  -62.700; -197.000; -378.000
287.535;  -62.700; -370.000; -298.000
287.674; -143.000; -509.000; -484.000
287.813;  137.300;  661.000;  533.000
287.952; -215.000;-1010.000; -871.000
288.091; -276.300;-1049.000; -915.000
288.231;   77.600;   13.000;   15.000
288.370; -317.800;-1217.000;-1200.000
288.509; -183.600; -728.000; -645.000
288.648; -154.100; -770.000; -548.000
288.787;  -47.600; -243.000;  -87.000
288.926;  -91.000; -454.000; -475.000
289.065;  272.900;  859.000;  672.000
289.204;  -72.200; -377.000; -217.000
289.344; -182.900; -791.000; -690.000
289.483;   80.100;  416.000;  304.000
289.622;  -59.900; -291.000; -149.000
289.761;  -18.100; -309.000; -166.000
289.900; -182.700; -785.000; -626.000
290.039;  -17.700;  -12.000;  -95.000
290.178;  -55.200; -274.000; -180.000
290.317; -139.100; -618.000; -479.000
290.456; -107.100; -463.000; -451.000
290.595; -271.600; -961.000; -833.000
290.734; -257.500; -904.000; -891.000
290.873; -110.600; -456.000; -420.000
291.011; -206.100; -833.000; -843.000
291.150; -221.900; -770.000; -682.000
291.289;  -24.100; -343.000; -110.000
291.428; -147.200; -599.000; -480.000
291.567;  -82.900; -370.000; -442.000
291.706;    1.900;  109.000;  154.000
291.845; -138.200; -597.000; -505.000
291.984; -328.000;-1234.000;-1061.000
292.122;  183.800;  602.000;  582.000
292.261;  104.200;  620.000;  463.000
292.400;   39.100; -144.000;  211.000
292.539; -232.400; -959.000; -813.000
292.678;  -55.300; -325.000; -300.000
292.816; -311.800;-1136.000; -965.000
292.955; -157.800; -844.000; -684.000
293.094;  -42.400; -173.000; -337.000
293.233;  -87.500; -556.000; -400.000
293.371;  -41.400; -225.000;  -84.000
293.510; -187.000; -866.000; -780.000
293.649; -249.000; -959.000; -924.000
293.787; -137.000;-1083.000;-1012.000
293.926;  -19.300; -113.000;  -32.000
294.065;  -61.900; -379.000; -290.000
294.203;  107.800;  298.000;  406.000
294.342;  118.700;   74.000;  156.000
294.481;13735.900;51180.000; -836.000
294.619;    0.800; -425.000; -582.000
294.758; -287.400;-1230.000;-1137.000
294.896;  107.000; -125.000;    5.000
295.035; -281.100;-1040.000;-1006.000
295.174; -204.700;-1082.000; -954.000
295.312;  -83.800; -323.000; -203.000
295.451;  -25.900; -307.000; -428.000
295.589; -116.000; -389.000; -518.000
295.728;   80.900; -292.000; -165.000
295.866;   -6.500;  -36.000;  -51.000
296.005; -114.800; -584.000; -341.000
296.143; -106.300; -558.000; -596.000
296.282; -197.700; -957.000; -881.000
296.420; -140.000; -657.000; -557.000
296.559; -156.200; -892.000; -633.000
296.697;    7.100; -847.000; -665.000
296.835;   36.200;-1141.000;-1002.000
296.974;  137.500;  -23.000;   39.000
297.112;   20.100; -443.000; -504.000
297.251; -173.200; -815.000; -755.000
297.389;  141.200; -576.000; -438.000
297.527;   76.800; -145.000;  -83.000
297.666;  -90.000; -486.000; -438.000
297.804;  -66.900; -404.000; -264.000
297.942;   17.100; -136.000; -161.000
298.081;    7.100; -183.000;   63.000
298.219;  127.100;  -17.000;  -19.000
298.357;   58.200; -144.000;  -71.000
298.495;   18.600; -810.000; -812.000
298.634;  175.100;  245.000;  219.000
298.772;  100.700; -220.000; -338.000
298.910;  -43.400; -309.000; -182.000
299.048;   -3.600; -130.000; -153.000
299.187;  -34.600; -350.000; -250.000
299.325;   86.200;   52.000;  122.000
299.463;   66.400; -389.000; -299.000
299.601;  196.700; -327.000; -271.000
299.739; -222.200; -908.000; -883.000
299.877; -175.400; -791.000; -703.000
300.016; -162.500;-1095.000; -935.000
300.154;  294.000;  -19.000; -161.000
300.292;   49.000; -428.000; -348.000
300.430;   39.500; -408.000; -291.000
300.568; -198.700; -940.000; -874.000
300.706;  -93.800; -366.000; -469.000
300.844; -200.300;-1108.000; -979.000
300.982;  239.500;  246.000;  282.000
301.120; -241.900; -965.000; -866.000
301.258; -156.600; -812.000; -705.000
301.396;   80.100;  104.000;  -41.000
301.534;  122.900; -218.000; -293.000
301.672;  -46.600; -664.000; -521.000
301.810;    6.700; -613.000; -545.000
301.948;  224.000;   53.000;  149.000
302.086;  962.100; -250.000;  -32.000
302.224; 1560.700; -610.000; -585.000
302.362;   39.400; -558.000; -622.000
302.500;  -67.200; -923.000; -893.000
302.638;  135.100;  128.000;  245.000
302.776;   12.000; -352.000; -408.000
302.913;  127.400;  447.000;  236.000
303.051;   -3.200;  -86.000;  -23.000
303.189;  100.800;   90.000;  118.000
303.327;  -73.400; -341.000; -256.000
303.465; -127.600; -832.000; -588.000
303.603; -151.900; -805.000; -604.000
303.740;  229.000;  417.000;  241.000
303.878;   20.000; -800.000; -759.000
304.016; -184.200; -915.000; -790.000
304.154; -247.300;-1123.000;-1152.000
304.291;  -65.300; -505.000; -554.000
304.429;   67.200;  102.000;   74.000
304.567; -230.000; -908.000; -893.000
304.705;  -94.200; -408.000; -515.000
304.842;  139.800; -616.000; -540.000
304.980;  128.700;  215.000;   35.000
305.118;   44.300; -367.000; -365.000
305.255; -154.400; -945.000; -927.000
305.393;  146.200;  178.000;  239.000
305.531; -201.100;-1173.000; -956.000
305.668; -132.600; -663.000; -582.000
305.806;  156.200; -358.000; -439.000
305.943;  195.400; -629.000; -637.000
306.081;  110.500; -378.000; -267.000
306.219; -223.400; -863.000; -748.000
306.356;   50.600;  158.000;   27.000
306.494;  281.600;  981.000;  761.000
306.631;   53.700;  -11.000;  -55.000
306.769;   23.800; -613.000; -485.000
306.906;   12.000; -284.000; -258.000
307.044; -111.700; -473.000; -488.000
307.181;  -89.500; -410.000; -332.000
307.319;  138.700;  112.000;   87.000
307.456; -318.000;-1191.000;-1153.000
307.594; -182.300; -980.000; -727.000
307.731;    7.700; -371.000; -164.000
307.868;   50.800;  -15.000;   20.000
308.006; -248.900; -961.000; -847.000
308.143; -110.700; -618.000; -330.000
308.281;  382.000;  -37.000; -254.000
308.418;   20.500; -748.000; -640.000
308.555; -109.800; -400.000; -250.000
308.693; -123.800; -577.000; -573.000
308.830; -199.200; -712.000; -657.000
308.967;   16.900; -215.000;  -95.000
309.105;  -46.700; -507.000; -396.000
309.242;  109.800; -468.000; -367.000
309.379;  721.000; -577.000; -655.000
309.517; -142.900; -936.000; -948.000
309.654; -176.100; -910.000; -734.000
309.791; -111.200; -662.000; -580.000
309.928; -219.800; -977.000; -914.000
310.065;  349.600;  819.000;  697.000
310.203;  -33.500; -825.000; -850.000
310.340;   11.500; -465.000; -321.000
310.477; -155.500; -412.000; -516.000
310.614; -110.600; -383.000; -473.000
310.751;  -98.800; -427.000; -518.000
310.889;    9.800;    1.000;   11.000
311.026; -295.200;-1161.000; -939.000
311.163;  -10.000; -386.000; -380.000
311.300; -124.000; -512.000; -479.000
311.437; -102.000; -658.000; -619.000
311.574; -307.900;-1226.000; -985.000
311.711; -100.400; -595.000; -433.000
311.848;  -56.300; -380.000; -388.000
311.985;   63.700;  270.000;   93.000
312.122; -225.700; -932.000; -762.000
312.259; -238.600; -941.000; -994.000
312.396; -143.500; -508.000; -551.000
312.533; -148.200; -812.000; -790.000
312.670; -258.900;-1070.000; -898.000
312.807;  -12.800; -352.000; -367.000
312.944; -135.700; -513.000; -611.000
313.081;  -28.500; -150.000; -415.000
313.218; -204.100;-1111.000; -867.000
313.355;   33.300; -531.000; -449.000
313.492;   13.700; -455.000; -292.000
313.629;  319.700;  815.000;  735.000
313.766; -284.500;-1176.000;-1008.000
313.902;   29.300; -186.000;   21.000
314.039;  -90.800; -372.000; -289.000
314.176;  104.800;  286.000;  192.000
314.313; -116.400; -569.000; -473.000
314.450; -110.200; -788.000; -684.000
314.587; -111.300; -468.000; -480.000
314.723;   42.400;  -78.000;  130.000
314.860;  103.700;  318.000;  332.000
314.997;  120.200;  223.000;  142.000
315.134;  -62.900; -385.000; -368.000
315.270;  -29.700; -480.000; -496.000
315.407; -273.400;-1094.000; -967.000
315.544;  -83.300; -657.000; -538.000
315.681; -115.100; -681.000; -565.000
315.817;   83.300; -133.000; -176.000
315.954;   39.900; -613.000; -392.000
316.091; -241.800;-1045.000;-1023.000
316.227;  -27.100;  -71.000; -179.000
316.364;   20.800;   23.000;    6.000
316.500;  -51.600; -113.000; -300.000
316.637;  -41.000; -181.000; -302.000
316.774; -146.800; -625.000; -358.000
316.910; -170.200; -598.000; -629.000
317.047; -111.500; -487.000; -351.000
317.183;  -67.100; -435.000; -566.000
317.320;  -12.500; -367.000; -321.000
317.456;  -96.800; -733.000; -805.000
317.593; -167.100; -598.000; -641.000
317.729;   53.000;  168.000;  -67.000
317.866; -373.300;-1434.000;-1285.000
318.002; -150.300; -708.000; -948.000
318.139; -192.100; -883.000; -867.000
318.275; -200.800;-1003.000; -738.000
318.412;  -92.200; -517.000; -336.000
318.548;  -82.200; -751.000; -720.000
318.685; -192.200; -985.000; -888.000
318.821; -175.100; -762.000; -735.000
318.957;   -5.200;   34.000;  -23.000
319.094;  112.700;  297.000;  154.000
319.230; -131.600; -756.000; -742.000
319.367;  173.900; -471.000; -520.000
319.503;   99.200; -538.000; -436.000
319.639; -169.100; -877.000; -793.000
319.775;  -93.000; -750.000; -685.000
319.912;  -83.600; -424.000; -519.000
320.048; -195.700;-1184.000;-1184.000
320.184;  156.900;   59.000;   70.000
320.321; -108.100; -497.000; -467.000
320.457;  175.100;  475.000;  662.000
320.593; -104.000; -375.000; -382.000
320.729; -174.100; -732.000; -734.000
320.866; -104.100; -577.000; -635.000
321.002; -139.200; -759.000; -809.000
321.138;   12.700; -135.000; -211.000
321.274;  163.900; -148.000; -115.000
321.410;  -47.700; -585.000; -353.000
321.546;  -54.100;-1011.000; -911.000
321.683;  150.400;  400.000;  185.000
321.819;   54.900;  -48.000; -117.000
321.955; -188.800; -743.000; -722.000
322.091; -110.100; -585.000; -540.000
322.227;  -19.100; -382.000; -202.000
322.363;  -12.300; -320.000; -215.000
322.499;  -80.700; -343.000; -331.000
322.635;  310.100;  636.000;  443.000
322.771;   36.100; -139.000;   12.000
322.907;  203.000;  129.000;  327.000
323.043;  -25.400; -115.000; -206.000
323.179;  -21.100; -394.000; -363.000
323.315;   15.900; -401.000; -371.000
323.451;  143.200; -328.000; -236.000
323.587;  130.700;  -60.000;  -77.000
323.723;   13.800; -682.000; -601.000
323.859;  -26.800; -258.000;  -76.000
323.995;  -30.400; -467.000; -409.000
324.131; -226.600; -967.000; -892.000
324.267;  -44.800; -254.000; -276.000
324.402; -229.500; -960.000; -983.000
324.538;  -35.000; -279.000; -104.000
324.674;   62.100;  164.000;   77.000
324.810;  280.600;  226.000;  308.000
324.946;   27.500; -810.000; -658.000
325.082; -101.500; -568.000; -475.000
325.217;   11.000;  -62.000;   16.000
325.353; -170.500; -764.000; -659.000
325.489; -150.000; -540.000; -506.000
325.625;  -83.200; -579.000; -525.000
325.760;  176.000;  517.000;  376.000
325.896;  -15.300; -515.000; -702.000
326.032;  -71.500; -403.000; -352.000
326.168; -100.200; -462.000; -369.000
326.303;  -79.300; -352.000; -461.000
326.439;  -21.200; -336.000; -276.000
326.575;   37.600; -190.000;  -29.000
326.710;   43.900; -156.000;  -30.000
326.846;    6.000;  146.000;  103.000
326.982; -162.300; -530.000; -548.000
327.117;  -94.200; -481.000; -442.000
327.253; -167.800; -745.000; -742.000
327.388; -350.100;-1137.000;-1153.000
327.524;  -72.400; -811.000; -578.000
327.659;  -39.500;  -58.000;  -22.000
327.795;   18.300;   69.000;   45.000
327.931; -147.900; -723.000; -499.000
328.066;  -18.200; -417.000; -276.000
328.202;   10.800;   12.000; -129.000
328.337;  245.400;  957.000;  713.000
328.473;   54.100;  -12.000;  -74.000
328.608;   -3.800; -256.000; -267.000
328.743; -153.900; -799.000; -664.000
328.879;   94.500;  214.000;  114.000
329.014;  -97.500; -102.000; -122.000
329.150;  -89.800; -358.000; -483.000
329.285; -115.400; -465.000; -466.000
329.421;  -68.900; -548.000; -246.000
329.556;    8.000;  -36.000;   85.000
329.691; -162.600; -633.000; -615.000
329.827; -180.000; -626.000; -480.000
329.962;  -32.500;  131.000; -301.000
330.097; -146.700; -673.000; -585.000
330.233;  -54.200; -410.000; -223.000
330.368; -225.000; -839.000; -628.000
330.503;    7.600;    3.000;   98.000
330.638;   55.500;  -93.000; -125.000
330.774;  -89.000; -609.000; -530.000
330.909;  -78.300; -434.000; -244.000
331.044; -211.300; -714.000; -708.000
331.179; -346.300;-1217.000;-1109.000
331.315;   56.500;   77.000;   20.000
331.450;   78.300;  157.000;  285.000
331.585; -146.400; -805.000; -706.000
331.720; -136.700; -510.000; -460.000
331.855;   13.200;  -35.000; -102.000
331.990;  501.100;   62.000;  138.000
332.126;  309.300; -110.000;   71.000
332.261;   -8.500; -379.000; -265.000
332.396;   32.800; -135.000; -242.000
332.531; -188.600;-1074.000;-1031.000
332.666;   65.200; -519.000; -363.000
332.801; -181.500; -726.000; -807.000
332.936;   -0.900; -192.000; -122.000
333.071; -253.500; -870.000; -817.000
333.206;   61.200;  307.000;  379.000
333.341;  105.300;  344.000;  418.000
333.476; -160.900; -627.000; -623.000
333.611;  -51.900; -251.000; -173.000
333.746;  -31.400; -381.000; -464.000
333.881; -226.300; -973.000; -935.000
334.016; -233.200; -936.000; -917.000
334.151; -228.300; -746.000; -702.000
334.286;   76.600;  152.000;  186.000
334.421;   24.600; -125.000; -178.000
334.556; -150.900; -611.000; -567.000
334.690; -130.000; -631.000; -577.000
334.825;  172.100;  381.000;   83.000
334.960;  -70.500; -285.000; -413.000
335.095;   28.600;  135.000;  -91.000
335.230; -151.100; -722.000; -738.000
335.365; -254.300;-1084.000; -990.000
335.499; -257.700;-1108.000;-1037.000
335.634;   77.900;    9.000;  534.000
335.769; -194.300; -755.000; -720.000
335.904; -137.700; -603.000; -561.000
336.038;  -97.100; -735.000; -657.000
336.173; -231.300;-1206.000;-1194.000
336.308;   24.400; -116.000; -189.000
336.443;   49.600; -544.000; -634.000
336.577; -137.500; -936.000; -787.000
336.712;  149.100;   -4.000;  -12.000
336.847; -104.200; -724.000; -607.000
336.981;   74.300; -272.000; -208.000
337.116;  513.300;  615.000;  501.000
337.250;  217.900; -434.000; -421.000
337.385;  514.000; -297.000; -208.000
337.520;  213.400; -632.000; -603.000
337.654;  -36.800; -215.000; -126.000
337.789; -244.100; -989.000; -933.000
337.923;  -30.200; -104.000; -205.000
338.058; -174.400; -673.000; -738.000
338.192;  -37.000; -611.000; -488.000
338.327;   36.400;  -18.000; -155.000
338.461; -109.300; -299.000; -469.000
338.596; -129.800; -780.000; -638.000
338.730; -177.600; -767.000; -803.000
338.865;  219.000;  -46.000; -140.000
338.999;  -74.800; -846.000; -702.000
339.134;  -43.000; -634.000; -536.000
339.268;   34.100; -741.000; -603.000
339.403;  699.700; -740.000; -775.000
339.537;  255.600; -894.000; -820.000
339.671; -187.500; -829.000; -813.000
339.806; -126.800; -556.000; -512.000
339.940;   53.200; -261.000; -235.000
340.074; -124.600; -685.000; -510.000
340.209;  -62.700; -351.000; -230.000
340.343; -153.100; -517.000; -573.000
340.477;  377.700;  998.000; 1036.000
340.612;  -69.100;-1033.000; -900.000
340.746;  308.900; -199.000; -243.000
340.880; -139.400; -924.000; -785.000
341.014;    3.400;  -45.000; -154.000
341.149; -194.300; -756.000; -718.000
341.283; -180.200; -839.000; -754.000
341.417; -175.900;-1124.000; -938.000
341.551;  189.200; -768.000; -708.000
341.685;  -60.400; -633.000; -611.000
341.820;  -90.500; -562.000; -493.000
341.954;  -72.200; -218.000; -349.000
342.088; -250.600;-1102.000;-1019.000
342.222;  101.700;  565.000;  618.000
342.356; -103.100; -395.000; -335.000
342.490; -169.800; -880.000; -841.000
342.624;  -84.800; -339.000; -242.000
342.758;   -6.500; -364.000; -312.000
342.892; -141.600; -710.000; -585.000
343.026;  -39.700;  -58.000; -116.000
343.160;  -63.100; -426.000; -376.000
343.294; -134.900; -474.000; -337.000
343.428;  -14.100; -488.000; -448.000
343.562;   -6.000; -172.000;  -23.000
343.696;  -23.200; -385.000; -314.000
343.830;   13.500; -362.000; -356.000
343.964;   41.900; -231.000; -168.000
344.098; 1431.000;  199.000;   70.000
344.232; 1203.000; -266.000; -127.000
344.366;  144.300; -567.000; -453.000
344.500;   49.900; -665.000; -744.000
344.634;   57.800; -324.000; -164.000
344.768;  -25.000; -531.000; -341.000
344.902;   78.800;  278.000;  256.000
345.035; -143.600; -556.000; -496.000
345.169; -221.800; -933.000; -656.000
345.303;  -35.900; -308.000; -482.000
345.437; -135.600; -826.000; -717.000
345.571; -100.900; -675.000; -594.000
345.704;  -89.400; -309.000; -532.000
345.838;  -12.800; -331.000; -284.000
345.972;  -76.900; -543.000; -495.000
346.106;  299.200; -179.000; -190.000
346.239;  791.500; -312.000; -243.000
346.373;   27.400; -343.000; -302.000
346.507; -245.100; -950.000; -962.000
346.640;  240.700;  -30.000;   13.000
346.774; -108.800; -650.000; -797.000
346.908;   22.100; -138.000;  -11.000
347.041; -164.400; -646.000; -593.000
347.175;   33.500;  259.000;   27.000
347.309; -112.800; -698.000; -628.000
347.442; -183.700; -883.000; -732.000
347.576;  523.800;  670.000;  668.000
347.709;  345.500; -123.000;  -52.000
347.843; -168.300; -933.000; -825.000
347.976;  137.400;  235.000;  294.000
348.110; -334.800;-1268.000;-1186.000
348.243; -158.300; -679.000; -772.000
348.377;   35.400;  -26.000;   60.000
348.510;  145.300;  403.000;  540.000
348.644;  -45.700;  -37.000; -159.000
348.777;   55.200;  180.000;  191.000
348.911;  -25.000; -142.000; -112.000
349.044;  356.600;  471.000;  448.000
349.178;  204.700;-1069.000;-1006.000
349.311;  229.100;  141.000;  255.000
349.444;    3.300; -927.000; -813.000
349.578;    7.200; -347.000; -200.000
349.711; -199.800; -959.000; -862.000
349.845;  -28.600; -661.000; -591.000
349.978; -297.100;-1224.000;-1137.000
350.111; -166.900; -546.000; -612.000
350.244; -107.700; -596.000; -700.000
350.378;    6.100; -392.000; -393.000
350.511; -111.500; -393.000; -426.000
350.644; -158.100; -808.000; -806.000
350.778;   49.800;  168.000;  104.000
350.911;   57.600;  134.000;  140.000
351.044; -154.500; -685.000; -615.000
351.177;  -40.600; -321.000; -281.000
351.310;   11.200;    3.000; -131.000
351.444; -165.900; -888.000; -788.000
351.577;  223.800;  140.000;   90.000
351.710;  246.400;  593.000;  417.000
351.843;  -32.500; -165.000;  -77.000
351.976;   51.700;  149.000;  -79.000
352.109; -156.300; -621.000; -612.000
352.242;  -28.700; -464.000; -419.000
352.376; -126.100; -580.000; -636.000
352.509;  227.100; -437.000; -356.000
352.642;    0.500; -654.000; -604.000
352.775;  112.700; -141.000;  -98.000
352.908; -213.300; -933.000; -904.000
353.041; -180.300; -814.000; -824.000
353.174;  -78.900; -551.000; -424.000
353.307; -146.400; -753.000; -764.000
353.440;  172.200;  541.000;  453.000
353.573; -208.400; -957.000;-1008.000
353.706;  -90.500; -384.000; -558.000
353.839;    5.500; -264.000; -220.000
353.971; -168.000; -657.000; -512.000
354.104; -150.600; -896.000; -835.000
354.237;  -76.800; -627.000; -662.000
354.370; -155.800; -846.000; -879.000
354.503; -337.600;-1231.000;-1308.000
354.636;  -45.400; -529.000; -348.000
354.769; -227.800; -937.000; -860.000
354.902;   20.700; -230.000; -139.000
355.034;   -3.100; -164.000; -220.000
355.167;   19.800; -262.000; -162.000
355.300; -170.800;-1061.000; -880.000
355.433; 1867.200;  -71.000;  -14.000
355.565; 2882.000; -402.000; -384.000
355.698;  750.200; -356.000; -296.000
355.831;   -8.000; -882.000; -801.000
355.964;  142.000; -285.000; -170.000
356.096; -160.200; -856.000; -843.000
356.229;   14.700; -523.000; -530.000
356.362;  631.100; -373.000; -266.000
356.494; 1130.900; -229.000; -162.000
356.627;  840.100;  269.000;  377.000
356.760; 1278.500;  120.000;   53.000
356.892; 1870.600; -286.000; -601.000
357.025; 1126.700;  403.000;  389.000
357.157;  959.900; -167.000; -179.000
357.290; 1286.600; -856.000; -713.000
357.423;  320.400; -667.000; -556.000
357.555;  239.000; -217.000; -228.000
357.688;  175.000; -483.000; -364.000
357.820;  678.100; -870.000; -877.000
357.953; 5846.900; -563.000; -589.000
358.085; 1222.000; -632.000; -612.000
358.218; 1726.900;-1131.000; -932.000
358.350;  359.300;  -58.000;  312.000
358.483; -250.600;-1300.000;-1187.000
358.615;  -66.600;-1182.000;-1078.000
358.747; -108.600;-1187.000;-1058.000
358.880;   15.000; -810.000; -744.000
359.012;   32.000; -376.000; -202.000
359.145;  -36.300; -480.000; -511.000
359.277;   19.900; -962.000; -913.000
359.409; 5034.700;  536.000;  231.000
359.542; 1182.800; -738.000; -688.000
359.674;  148.400;   46.000;   13.000
359.806;  -85.900; -565.000; -438.000
359.939;  -55.400; -617.000; -516.000
360.071;   -5.200; -583.000; -579.000
360.203;   -3.800; -411.000; -364.000
360.335;  146.900;  164.000;  -16.000
360.468;  354.500; -249.000; -307.000
360.600; 3971.400; -547.000; -454.000
360.732; 5402.500; -546.000; -423.000
360.864;  687.900;-1216.000;-1044.000
360.996;  453.200; -516.000; -554.000
361.129;   75.400; -389.000; -598.000
361.261;   83.800;  110.000; -113.000
361.393;  -51.800; -252.000; -214.000
361.525;   72.500;   94.000;  244.000
361.657;  -99.900; -821.000; -703.000
361.789;   46.200; -139.000; -155.000
361.921;  375.600; -642.000; -593.000
362.053;  487.700;  524.000;  541.000
362.185;  123.100;  288.000;   72.000
362.318; -118.900; -709.000; -705.000
362.450;  222.100;  294.000;  444.000
362.582;  132.100; -913.000; -870.000
362.714;  -74.000; -353.000; -332.000
362.846; -123.400; -606.000; -490.000
362.978; -238.200; -941.000; -811.000
363.109;   91.900; -161.000; -260.000
363.241;  715.100; -739.000; -749.000
363.373;  887.500; -649.000; -564.000
363.505; 1297.400; -186.000;  -91.000
363.637;  296.800; -787.000; -601.000
363.769; -244.600;-1067.000;-1080.000
363.901; -100.000; -596.000; -654.000
364.033; -244.300;-1103.000;-1062.000
364.165;   45.300; -283.000; -283.000
364.296;  179.800; -316.000; -177.000
364.428;  129.300;-1344.000;-1220.000
364.560; -109.100; -679.000; -661.000
364.692;  -79.200; -738.000; -835.000
364.824;  423.100; -588.000; -456.000
364.955;  795.200; -402.000; -564.000
365.087; 1763.700;-1097.000; -852.000
365.219;   66.900; -686.000; -816.000
365.351; -104.200; -526.000; -572.000
365.482;  152.200;  300.000;  240.000
365.614;  -72.300; -402.000; -314.000
365.746; -143.100; -729.000; -752.000
365.877; -171.100; -706.000; -672.000
366.009;  520.700;  -35.000;  -62.000
366.141; -187.700;-1249.000;-1134.000
366.272; -189.100; -803.000; -719.000
366.404; -209.300;-1005.000; -874.000
366.535;   10.100; -139.000;  -12.000
366.667; -158.700; -644.000; -649.000
366.799;  135.600;  353.000;  203.000
366.930; -188.100; -862.000; -996.000
367.062;  309.300; -639.000; -613.000
367.193;  307.800; -872.000; -842.000
367.325;  -79.400; -580.000; -684.000
367.456;  117.400; -246.000;   31.000
367.588;  313.400; -371.000; -318.000
367.719;   71.200;  -44.000;  -45.000
367.851;  -18.500; -222.000; -241.000
367.982;  -84.100; -875.000; -732.000
368.113;  183.200; -475.000; -358.000
368.245; -229.600; -960.000; -841.000
368.376;  -12.500; -254.000; -302.000
368.508;  -26.400; -188.000; -263.000
368.639; -274.700;-1166.000;-1034.000
368.770;  -24.700; -670.000; -589.000
368.902; -150.400; -836.000; -926.000
369.033; -202.600; -906.000; -855.000
369.164;  -48.600; -720.000; -653.000
369.296; -159.600; -452.000; -601.000
369.427;   13.600; -209.000; -144.000
369.558;  -49.200; -593.000; -377.000
369.689; -118.700; -721.000; -569.000
369.821; -227.200; -951.000; -845.000
369.952;   20.600;   42.000; -108.000
370.083;  -64.200; -229.000; -108.000
370.214; -131.500; -735.000; -650.000
370.345;   17.100;   65.000;   81.000
370.477; -164.800; -810.000; -790.000
370.608;  351.200; -328.000; -264.000
370.739; -160.700;-1233.000;-1292.000
370.870;  -96.500;-1102.000; -923.000
371.001;  171.200; -378.000; -467.000
371.132; -142.100; -754.000; -735.000
371.263;   10.200;  -42.000; -148.000
371.394; -255.400; -841.000; -748.000
371.525;   93.900;  345.000;  225.000
371.657; -178.400; -808.000; -670.000
371.788;  169.000;  103.000;  199.000
371.919;  255.700; -384.000; -304.000
372.050; 5800.700;  -91.000; -156.000
372.181; 1631.800; -188.000; -294.000
372.311;  579.000;   42.000; -127.000
372.442;   62.000; -457.000; -451.000
372.573;  -28.900; -444.000; -340.000
372.704; -235.200;-1008.000; -980.000
372.835;  129.200; -228.000; -289.000
372.966; -114.100; -646.000; -554.000
373.097; -123.300; -575.000; -711.000
373.228;  -76.700; -717.000; -542.000
373.359;  171.200; -824.000; -536.000
373.490; 1452.500; -881.000; -727.000
373.620; 1735.800;-1001.000; -803.000
373.751; 2771.900; -332.000; -396.000
373.882; 1181.400; -663.000; -733.000
374.013;   87.600; -449.000; -262.000
374.143;  -54.300; -581.000; -659.000
374.274; -177.200; -987.000; -908.000
374.405;  354.400; -388.000; -276.000
374.536;  721.000; -526.000; -387.000
374.666; 1681.400; -759.000; -807.000
374.797;  311.800; -817.000; -868.000
374.928; 1369.500; -710.000; -560.000
375.058; 1322.600; -535.000; -500.000
375.189;  141.100;  -59.000;  -93.000
375.320; -174.900; -928.000;-1034.000
375.450;  -40.100; -625.000; -616.000
375.581;  -74.600; -526.000; -436.000
375.712;  -39.800; -574.000; -250.000
375.842;  455.200; -438.000; -415.000
375.973;  335.300; -554.000; -513.000
376.103;  -77.700; -665.000; -648.000
376.234; -103.300; -531.000; -552.000
376.364;  -76.800; -944.000; -867.000
376.495;  631.500;  925.000;  529.000
376.625;    1.700; -472.000; -485.000
376.756;  127.300; -709.000; -678.000
376.886; -161.600;-1178.000;-1026.000
377.017;  134.800;-1048.000;-1061.000
377.147;  694.600; -786.000; -782.000
377.278;  178.400;  174.000;  228.000
377.408; -203.900; -801.000; -815.000
377.538; -184.400; -707.000; -693.000
377.669; -114.800; -537.000; -613.000
377.799; -168.500; -645.000; -635.000
377.929; -105.800; -610.000; -428.000
378.060; -175.900; -781.000; -847.000
378.190;  -56.800; -726.000; -531.000
378.320;  -69.100; -401.000; -406.000
378.451;   23.100; -131.000;  -22.000
378.581;   52.300;  -67.000; -110.000
378.711;  328.900; 1035.000;  866.000
378.841;  -37.100; -533.000; -675.000
378.972; -128.100; -871.000; -751.000
379.102;  -38.300; -652.000; -579.000
379.232;  -28.900; -126.000;  -73.000
379.362; -204.600;-1001.000; -885.000
379.492;   43.200; -373.000; -424.000
379.623;  211.700;    0.000;  111.000
379.753; -186.700;-1107.000; -974.000
379.883;  386.100;   59.000;  156.000
380.013;  -13.700;-1081.000;-1017.000
380.143; -181.600;-1097.000;-1056.000
380.273; -187.700; -985.000; -861.000
380.403;   40.000; -344.000; -257.000
380.533;  -49.000; -651.000; -664.000
380.663;  154.200;  173.000;  128.000
380.793; -167.000;-1027.000;-1074.000
380.923;   14.700; -103.000;  -34.000
381.053; -139.500; -613.000; -623.000
381.183;   -9.500; -106.000; -248.000
381.313;   73.800; -656.000; -470.000
381.443;   64.900; -692.000; -473.000
381.573;  344.600; -402.000; -409.000
381.703;  392.200;-1249.000;-1095.000
381.833; -209.600;-1454.000;-1336.000
381.963;  220.600; -134.000;  -87.000
382.093; 2276.800; -925.000; -909.000
382.223;  610.300; -713.000; -602.000
382.353;  -29.700; -801.000; -608.000
382.482;  581.600;-1091.000; -964.000
382.612; 1144.700; -872.000; -644.000
382.742;  653.700; -695.000; -622.000
382.872;  434.800; -565.000; -551.000
383.002;  170.700;  347.000; -132.000
383.131;   15.600; -226.000; -160.000
383.261;  -35.100; -706.000; -768.000
383.391;  564.800; -552.000; -377.000
383.521; 6245.500;  451.000;  263.000
383.650; 1377.200; -947.000; -904.000
383.780;    4.900; -783.000; -656.000
383.910;  280.900;  880.000;  802.000
384.039;   44.900; -794.000; -656.000
384.169;  281.300;-1205.000;-1017.000
384.299;  -27.800; -650.000; -662.000
384.428; -162.900; -764.000; -680.000
384.558;  -46.800; -308.000; -275.000
384.687;  -46.100; -414.000; -334.000
384.817;   89.800;   75.000;   -2.000
384.947;   46.000; -234.000; -141.000
385.076;  520.900;  982.000;  912.000
385.206;  190.900;  369.000;  480.000
385.335;  -34.800; -549.000; -417.000
385.465; -135.800; -655.000; -663.000
385.594;  255.400;  -53.000;  -44.000
385.724;  644.600; -868.000; -838.000
385.853;  199.000; -296.000; -270.000
385.982; 2224.300; -743.000; -787.000
386.112; 3236.500;-1052.000; -871.000
386.241;  237.900; -307.000; -312.000
386.371;   -5.300; -174.000;  -87.000
386.500;   17.100; -825.000; -789.000
386.629;   43.300; -874.000; -817.000
386.759;  177.800;  -43.000;   68.000
386.888;   60.900; -170.000; -250.000
387.017; -125.000; -648.000; -620.000
387.147; -139.900; -771.000; -798.000
387.276;   57.000; -410.000; -397.000
387.405;   45.300; -398.000; -342.000
387.535;  -82.100; -452.000; -361.000
387.664;  -70.500; -692.000; -620.000
387.793;  128.800; -198.000; -113.000
387.922;  860.400;  255.000;  200.000
388.052;   34.500; -576.000; -423.000
388.181;   23.400; -342.000; -472.000
388.310;  -28.100; -889.000; -710.000
388.439;  -66.500; -749.000; -742.000
388.568;  361.000;  365.000;  244.000
388.697; 1604.200; -756.000; -653.000
388.826;  298.700; -768.000; -666.000
388.956;  106.100; -285.000; -307.000
389.085;  -22.900; -347.000; -287.000
389.214; -183.000; -842.000; -872.000
389.343;  -84.200; -645.000; -413.000
389.472;  818.400;  126.000;  149.000
389.601; 1000.300;   91.000;    0.000
389.730;   38.600; -568.000; -687.000
389.859;  157.700;  226.000;   46.000
389.988;  314.900; -423.000; -408.000
390.117;  240.700; -168.000; -146.000
390.246;   10.100; -331.000; -320.000
390.375;  137.000; -673.000; -626.000
390.504;  -67.100; -703.000; -621.000
390.633; -151.900; -672.000; -726.000
390.761; -114.700; -732.000; -645.000
390.890;   71.600;   -4.000; -130.000
391.019;  -51.400; -421.000; -441.000
391.148; -234.100; -826.000; -855.000
391.277;  -99.000; -576.000; -493.000
391.406; -148.200; -821.000; -805.000
391.534;   65.500;  574.000; -301.000
391.663;  -90.400; -583.000; -645.000
391.792; -135.700; -673.000; -701.000
391.921;  186.300;   -3.000;   15.000
392.050;  282.100; -287.000; -228.000
392.178;  -92.100;-1206.000;-1061.000
392.307;  213.700; -758.000; -712.000
392.436;  114.500; -427.000; -641.000
392.564;   71.400;  166.000;   -6.000
392.693; -144.700; -860.000; -682.000
392.822;  349.800; -529.000; -534.000
392.950;   92.700; -880.000; -714.000
393.079;  538.600; -188.000; -328.000
393.208;   19.900; -488.000; -511.000
393.336;   16.000; -170.000; -145.000
393.465;  -38.600; -317.000; -199.000
393.593;   92.300;   62.000;   79.000
393.722; -245.700;-1121.000; -916.000
393.850;  -27.900; -188.000;  -61.000
393.979; -247.600; -926.000; -805.000
394.107;  -94.200; -517.000; -537.000
394.236;  -33.200; -570.000; -507.000
394.364;  485.200;  383.000;  206.000
394.493;  777.200; -911.000; -767.000
394.621;   -4.100; -955.000; -916.000
394.750; 1440.400; -873.000; -923.000
394.878; 5869.300; -247.000; -149.000
395.007; 7446.800; -721.000; -807.000
395.135;  565.600; -790.000; -721.000
395.263; -185.000;-1038.000;-1040.000
395.392;   33.900;  -25.000; -107.000
395.520; -241.200; -818.000; -679.000
395.648; -133.900; -865.000; -915.000
395.777;  -33.700; -366.000; -405.000
395.905;  -51.900; -449.000; -564.000
396.033;   94.500;  217.000;  172.000
396.162; 1344.300; -399.000; -453.000
396.290; 1119.000;  -17.000;   -2.000
396.418;  212.200; -555.000; -514.000
396.546; -143.500; -571.000; -466.000
396.674; -158.500; -850.000; -878.000
396.803;   55.900;  -72.000;  -23.000
396.931;  207.500; -179.000; -199.000
397.059;   22.700;-1026.000; -989.000
397.187; -191.000;-1026.000; -975.000
397.315; -212.600; -884.000; -649.000
397.443; -129.300; -592.000; -443.000
397.572; -117.400; -578.000; -424.000
397.700;  -16.700; -607.000; -614.000
397.828;   27.500;  120.000;  -90.000
397.956;  -61.000; -508.000; -478.000
398.084;  -81.100; -767.000; -626.000
398.212;  135.700;  137.000;  124.000
398.340;   88.600;  -56.000;  159.000
398.468;   70.100; -390.000; -169.000
398.596; -220.000; -993.000; -953.000
398.724; -197.500; -762.000; -767.000
398.852; -286.600;-1024.000; -976.000
398.980;  -58.200; -560.000; -560.000
399.108;  -90.700; -982.000; -735.000
399.236;  106.700;   13.000;    8.000
399.363;   49.800;  222.000;  196.000
399.491;  -91.100; -404.000; -398.000
399.619; -226.900; -829.000; -800.000
399.747; -176.800; -859.000; -771.000
399.875;  166.600;  220.000;  234.000
400.003;  -85.100; -359.000; -284.000
400.130; -136.700; -421.000; -341.000
400.258;    8.600;  -83.000;   38.000
400.386;  -88.600; -352.000; -168.000
400.514;  -34.700; -526.000; -587.000
400.641; -168.000; -928.000; -802.000
400.769; -245.800; -979.000; -888.000
400.897; -174.000; -838.000; -793.000
401.025;  -17.000; -166.000; -152.000
401.152;   87.200;  220.000;   38.000
401.280; -100.200; -430.000; -429.000
401.408; -211.500; -712.000; -576.000
401.535; -178.500; -735.000; -758.000
401.663; -354.900;-1134.000;-1054.000
401.790; -130.400; -514.000; -525.000
401.918;  158.800;  436.000;  405.000
402.046;   48.100;  134.000;  122.000
402.173;  -36.000;  -18.000;    7.000
402.301; -100.600; -519.000; -397.000
402.428;  117.800;  528.000;  383.000
402.556; -260.600;-1188.000; -913.000
402.683;    6.500;  -20.000;   -1.000
402.811;   23.200;  -37.000; -206.000
402.938;   32.500;   20.000;   27.000
403.066;  323.600; -574.000; -558.000
403.193;  569.300;  299.000;  239.000
403.321;  428.200; -396.000; -574.000
403.448;  579.200;   83.000;   27.000
403.575;  233.600;  -90.000;  -46.000
403.703; -132.300; -732.000; -557.000
403.830;  -93.400; -531.000; -496.000
403.957; -261.800;-1117.000;-1023.000
404.085;   83.200;  -61.000; -172.000
404.212;  246.700;  -50.000;   63.000
404.339;  598.900; -566.000; -306.000
404.467;11555.900; -612.000; -524.000
404.594; 6817.100; -287.000; -227.000
404.721; 1511.700; -869.000; -764.000
404.848;  187.000; -113.000; -202.000
404.976; -169.200; -856.000; -783.000
405.103;   59.000;  -14.000;  -82.000
405.230;   36.100;  190.000;  226.000
405.357;  116.800;  117.000;   44.000
405.484;  583.300;  -49.000;    5.000
405.612;  107.800; -548.000; -563.000
405.739;  -72.100; -488.000; -243.000
405.866;  240.100;  669.000;  385.000
405.993;    7.300; -398.000; -102.000
406.120; -237.900; -801.000; -887.000
406.247;  -82.600; -323.000; -342.000
406.374;  789.300;  540.000;  629.000
406.501;  102.900; -632.000; -702.000
406.628;  -85.200; -621.000; -589.000
406.755; -161.000; -803.000; -620.000
406.882;   -4.100; -228.000; -277.000
407.009; -159.700; -719.000; -628.000
407.136;  113.700; -480.000; -401.000
407.263;  170.700; -939.000; -829.000
407.390; -120.600; -692.000; -614.000
407.517; -291.400;-1139.000;-1187.000
407.644;  -52.500; -332.000; -256.000
407.771; -145.100; -249.000; -287.000
407.898;   93.100;  168.000;  328.000
408.025;  -89.500; -421.000; -313.000
408.151;   51.000;   82.000;  153.000
408.278; -105.900; -267.000; -216.000
408.405; -167.100; -931.000; -899.000
408.532;  -64.900; -549.000; -542.000
408.659; -210.000; -677.000; -648.000
408.785; -354.300;-1298.000;-1170.000
408.912;  -48.800; -412.000; -296.000
409.039; -133.300; -610.000; -686.000
409.166; -171.000; -591.000; -555.000
409.292; -180.000; -571.000; -534.000
409.419; -174.200; -665.000; -649.000
409.546;  -88.700; -431.000; -192.000
409.672; -158.600; -713.000; -545.000
409.799;   40.900;  -36.000;   34.000
409.926;  -18.900; -180.000; -179.000
410.052; -311.400;-1127.000;-1091.000
410.179;  -68.300; -368.000; -392.000
410.305; -134.300; -375.000; -493.000
410.432;  -51.400; -220.000; -333.000
410.558; -138.300; -305.000; -380.000
410.685; -166.100; -688.000; -431.000
410.812; -136.600; -409.000; -588.000
410.938; -221.300; -964.000; -808.000
411.065; -170.400; -671.000; -645.000
411.191;   10.200; -189.000; -174.000
411.317; -194.700; -823.000; -742.000
411.444;  -92.100; -317.000; -246.000
411.570; -100.400; -339.000; -294.000
411.697; -177.300; -758.000; -752.000
411.823; -300.100; -989.000; -999.000
411.949;   21.300;  -56.000;   17.000
412.076; -148.800; -539.000; -519.000
412.202; -195.300; -758.000; -757.000
412.329; -241.100; -798.000; -752.000
412.455; -178.600; -821.000; -657.000
412.581;   30.900;  -15.000;  172.000
412.707;  -93.200; -540.000; -457.000
412.834;   62.600;  156.000;  219.000
412.960; -129.600; -785.000; -784.000
413.086; -138.400; -743.000; -701.000
413.212;  341.200;  604.000;  578.000
413.339; -117.800; -685.000; -701.000
413.465;   34.800; -364.000; -310.000
413.591; -125.800; -757.000; -474.000
413.717;  -37.400; -358.000; -366.000
413.843; -246.100; -839.000; -861.000
413.969;  -46.800;  -47.000; -292.000
414.096; -148.400; -679.000; -679.000
414.222;   59.500;  -33.000;   85.000
414.348;   -9.000; -652.000; -385.000
414.474;  200.400;   38.000;  -52.000
414.600;   28.400; -126.000; -144.000
414.726;   22.300;  -96.000;  -55.000
414.852;  -66.900; -365.000; -342.000
414.978;  123.400;  104.000;  -18.000
415.104;  142.200;   38.000;   80.000
415.230;   78.400; -329.000; -330.000
415.356;  130.600; -409.000; -514.000
415.482;  394.900;   13.000;  -35.000
415.608;  550.800; -247.000; -323.000
415.734; 2016.100;   67.000;   38.000
415.860;40192.000; -875.000; -767.000
415.986;26346.200; -685.000; -607.000
416.111; 2212.600; -798.000; -652.000
416.237;  522.200; -424.000; -571.000
416.363; 2473.400; -765.000; -733.000
416.489; 8112.000; -324.000; -251.000
416.615;  787.900; -707.000; -742.000
416.741;    6.400; -677.000; -784.000
416.866; -149.000; -673.000; -736.000
416.992; -194.400; -801.000; -818.000
417.118;   -0.400;  -41.000;  -80.000
417.244;  -93.000; -798.000; -531.000
417.369; -114.500; -801.000; -612.000
417.495;   29.300; -325.000; -254.000
417.621; -126.100;-1015.000; -803.000
417.746;   72.600; -579.000; -572.000
417.872;  118.900; -254.000; -144.000
417.998;  170.500; -515.000; -530.000
418.123; 2316.800;-1073.000; -845.000
418.249;10477.700; -512.000; -601.000
418.374; 1339.600; -916.000; -824.000
418.500;  236.500; -383.000; -482.000
418.626;  286.300;   70.000;  -59.000
418.751;  252.800; -549.000; -448.000
418.877;  408.300; -637.000; -643.000
419.002; 3927.600; -688.000; -560.000
419.128;24580.600; -930.000; -721.000
419.253; 5450.000; -967.000; -837.000
419.379;  820.100; -391.000; -338.000
419.504;  821.000;  325.000;  415.000
419.629; 1058.400; -393.000; -212.000
419.755; 7811.500; -317.000; -254.000
419.880;41077.400;  -98.000;   67.000
420.006;22786.200; -280.000; -221.000
420.131;55089.300; -662.000; -775.000
420.256; 7034.100; -315.000; -316.000
420.382; 1002.100; -665.000; -687.000
420.507;  134.300; -649.000; -778.000
420.632;  209.800; -337.000; -339.000
420.758;  352.400; -251.000; -425.000
420.883; -143.000; -876.000; -672.000
421.008; -145.400; -775.000; -619.000
421.133;  -91.900; -509.000; -467.000
421.259;  -64.300; -325.000; -259.000
421.384; -205.800; -834.000; -693.000
421.509; -121.600;-1052.000; -862.000
421.634; 1698.000; -936.000; -820.000
421.759;  652.500; -359.000; -327.000
421.885;  -99.200; -717.000; -656.000
422.010; -107.500; -673.000; -542.000
422.135; -273.300; -695.000; -727.000
422.260;  130.400;  340.000;  280.000
422.385;  -41.800;   12.000;  -98.000
422.510;   70.200;  151.000;  -26.000
422.635;   79.800;  -87.000;  -43.000
422.760;  209.000; -766.000; -791.000
422.885;  130.000;  -57.000;  -80.000
423.010;   -3.300; -112.000; -169.000
423.135; -128.300; -481.000; -561.000
423.260;   28.000; -150.000; -245.000
423.385;  227.300;  476.000;  222.000
423.510;  116.700;   71.000;  -22.000
423.635;  201.700;  133.000;   45.000
423.760;  168.800;  383.000;  328.000
423.885;  182.700;  336.000;  391.000
424.010;   75.500;  -68.000;  -13.000
424.135;   34.200;    5.000;  -33.000
424.259; -136.700; -654.000; -457.000
424.384;  -83.300; -279.000; -272.000
424.509;   -3.700; -260.000; -186.000
424.634; -171.400; -761.000; -623.000
424.759;   17.900; -688.000; -544.000
424.883;   32.200; -506.000; -527.000
425.008;  400.600; -502.000; -410.000
425.133; 4093.500; -679.000; -653.000
425.258; 1705.500; -517.000; -381.000
425.382; 1739.800; -867.000; -774.000
425.507; 4008.800; -487.000; -543.000
425.632;  708.000; -802.000; -663.000
425.756;  943.500; -256.000; -146.000
425.881;14155.700; -831.000; -857.000
426.006;34030.800; -604.000; -355.000
426.130; 4756.200; -696.000; -508.000
426.255;  715.000; -611.000; -491.000
426.379;  338.500; -189.000; -577.000
426.504;  791.700;  660.000;  544.000
426.629; 8313.600; -519.000; -466.000
426.753; 5072.600;   64.000;  -46.000
426.878;  628.400; -252.000; -288.000
427.002;  288.600; -651.000; -668.000
427.127; 3452.200;  -35.000; -158.000
427.251;22490.300;  372.000;  401.000
427.375; 5582.700; -191.000; -173.000
427.500; 3763.800; -616.000; -610.000
427.624; 1097.300; -234.000; -400.000
427.749;  184.200; -216.000; -225.000
427.873;  -20.800; -499.000; -412.000
427.997;  -46.900; -222.000; -230.000
428.122;  233.600;  795.000;  703.000
428.246;  215.700;  433.000;  434.000
428.371; -216.900; -869.000; -773.000
428.495; -133.900; -624.000; -646.000
428.619;   -9.700; -186.000; -117.000
428.743;  127.400;   65.000;  132.000
428.868;   42.100; -732.000; -643.000
428.992; 2277.900; -219.000; -326.000
429.116;  832.500; -329.000; -357.000
429.240;  464.100;  419.000;  426.000
429.365;  -14.800; -454.000; -574.000
429.489;  -50.100; -638.000; -647.000
429.613;   91.100; -236.000; -177.000
429.737;  119.000; -563.000; -432.000
429.861;  625.200; -247.000; -133.000
429.985;11493.700; -425.000; -305.000
430.109;11320.900; -770.000; -908.000
430.234; 1289.200;   76.000;  -50.000
430.358;  121.200; -250.000; -160.000
430.482;  -83.100; -672.000; -564.000
430.606;  -92.600; -655.000; -375.000
430.730;   81.200; -437.000; -388.000
430.854;  169.200; -909.000; -835.000
430.978; -118.700; -795.000; -764.000
431.102; -107.800; -499.000; -422.000
431.226; -178.300; -874.000; -815.000
431.350;  135.800;  345.000;  422.000
431.474; -113.300; -661.000; -373.000
431.597; -272.200;-1060.000; -848.000
431.721;  -71.000; -276.000; -267.000
431.845; -218.500; -704.000; -472.000
431.969;  -97.000; -304.000; -349.000
432.093; -116.300; -395.000; -317.000
432.217;   35.400;   32.000;   82.000
432.341; -136.400; -523.000; -518.000
432.464;   67.000;   96.000;   40.000
432.588;  351.300; -401.000; -329.000
432.712;  212.800;  -52.000;  -52.000
432.836;  131.900;  213.000;  263.000
432.959;    9.800; -372.000; -311.000
433.083;  235.700;   11.000;    2.000
433.207;  799.000;  285.000;  930.000
433.330;10557.200; -391.000; -200.000
433.454;11683.400; -654.000; -638.000
433.578; 6950.100;  583.000;  278.000
433.701; 1124.500; -623.000; -675.000
433.825;  244.000; -292.000; -299.000
433.949;  343.900;   28.000;  -72.000
434.072;   98.300; -410.000; -323.000
434.196;    8.700; -309.000; -117.000
434.319; 7933.900;25482.000;25124.000
434.443; 1583.000; -656.000; -603.000
434.566; 5063.000;  281.000;   62.000
434.690;  779.800; -637.000; -383.000
434.813;  158.100; -251.000; -173.000
434.937; -102.700; -569.000; -696.000
435.060;  -34.000; -423.000; -332.000
435.184;  441.100; -492.000; -217.000
435.307;  264.300;  159.000;  102.000
435.431;   53.800;  -40.000;   24.000
435.554;  -87.700; -399.000; -240.000
435.677; -101.700; -350.000; -258.000
435.801;  -31.700;  -25.000;   49.000
435.924;   18.500;    1.000;  -67.000
436.048; -240.800;-1019.000; -732.000
436.171;  -77.700; -240.000;  -66.000
436.294;   20.900; -248.000; -229.000
436.417;  212.900; -963.000; -849.000
436.541; -145.200; -814.000; -840.000
436.664;  -12.400; -242.000; -316.000
436.787;   31.800;   13.000;  113.000
436.910; -209.300; -792.000; -422.000
437.034;   71.000;  142.000;  143.000
437.157;  138.700;  -11.000;    0.000
437.280;  -54.300; -392.000; -292.000
437.403; -172.500; -982.000; -869.000
437.526;  894.700; -903.000; -865.000
437.649; 3097.700; -505.000; -332.000
437.772;  407.200; -692.000; -540.000
437.896;  268.200;  700.000;  544.000
438.019; -162.800; -758.000; -503.000
438.142; -135.600; -596.000; -506.000
438.265;  -10.400; -639.000; -670.000
438.388;  871.400; -520.000; -410.000
438.511;  104.900; -597.000; -394.000
438.634;  -40.200; -247.000; -125.000
438.757; -237.700; -693.000; -619.000
438.880;   17.200;  -34.000;  -57.000
439.003; -106.600; -417.000; -437.000
439.126;  -78.900; -287.000; -167.000
439.248;  -39.300;  -98.000; -139.000
439.371;   -5.100;    9.000;  -53.000
439.494;  147.300;  510.000;  439.000
439.617;  -28.900;   65.000;  -88.000
439.740; -304.800; -968.000; -816.000
439.863; -217.900; -755.000; -595.000
439.986; -194.000; -476.000; -431.000
440.108;  -34.300; -161.000; -112.000
440.231; -248.000; -950.000; -836.000
440.354;  -18.800;  -64.000; -150.000
440.477;   78.300; -566.000; -542.000
440.599;   28.300; -200.000; -225.000
440.722; -221.700; -709.000; -586.000
440.845;  233.800;  751.000;  928.000
440.968; -148.400; -415.000; -311.000
441.090;  -74.800; -199.000;  -33.000
441.213; -298.500;-1021.000; -825.000
441.336;  -51.200; -159.000;   -5.000
441.458; -100.100; -549.000; -396.000
441.581; -153.900; -628.000; -629.000
441.703; -127.200; -152.000;   13.000
441.826; -171.000; -557.000; -400.000
441.948;  -34.900;   56.000;   51.000
442.071;  115.900;  555.000;  424.000
442.193; -195.400; -531.000; -485.000
442.316;  119.800;  152.000;   97.000
442.438;  127.700; -233.000;  -10.000
442.561;  179.400;  272.000;  262.000
442.683;  830.500; -809.000; -522.000
442.806; 1651.100;   -8.000;   74.000
442.928;  -34.900; -859.000; -604.000
443.051; -126.400; -577.000; -373.000
443.173; -115.400; -341.000; -339.000
443.295; -120.700; -263.000; -371.000
443.418;  -70.700; -321.000;  -29.000
443.540;   12.900; -106.000;   -4.000
443.662; -192.500; -563.000; -465.000
443.785;   61.100;  335.000;  199.000
443.907; -140.900; -362.000; -208.000
444.029; -212.400; -767.000; -494.000
444.152; -230.100; -644.000; -554.000
444.274;    3.200;  -18.000;  -24.000
444.396; -197.200; -461.000; -221.000
444.518; -189.700; -691.000; -454.000
444.640; -170.400; -268.000; -111.000
444.763;   28.900;  388.000;  249.000
444.885; -199.000; -432.000; -392.000
445.007;  -10.300;   35.000;   86.000
445.129; -190.600; -610.000; -515.000
445.251; -100.400; -372.000; -439.000
445.373; -210.300; -537.000; -386.000
445.495;   96.600;  242.000;  350.000
445.617;  176.500;  853.000;  753.000
445.739;  -62.900; -215.000;  -97.000
445.861;  -16.900; -245.000; -112.000
445.984;  -23.800; -267.000; -101.000
446.105;  331.300; -418.000; -251.000
446.227;  916.900; -176.000;  -19.000
446.349;  -11.800; -358.000; -249.000
446.471; -176.000; -615.000; -448.000
446.593;  -58.000; -316.000;   19.000
446.715;   33.100;  -67.000;   41.000
446.837;  184.200;  697.000;  832.000
446.959; -127.900; -457.000; -478.000
447.081; -223.400; -628.000; -518.000
447.203;  186.000;  862.000;  834.000
447.325; -113.200; -270.000;   42.000
447.446;   60.500;  286.000;  530.000
447.568; -261.300; -921.000; -803.000
447.690; -101.300; -236.000; -245.000
447.812; -258.100; -798.000; -519.000
447.933;    4.200;  155.000;  127.000
448.055;  -84.600; -306.000; -261.000
448.177;  325.800;   31.000;   79.000
448.299;   82.500; -935.000; -727.000
448.420;   94.000;  -25.000;  159.000
448.542;  -23.900;   -3.000;   33.000
448.664;   18.700;  109.000;  322.000
448.785;  -26.200;  265.000;   83.000
448.907; -134.600; -614.000; -353.000
449.028;  -68.000; -771.000; -471.000
449.150;  200.100;  492.000;  589.000
449.272; -321.500;-1044.000; -913.000
449.393;  141.500;  612.000;  694.000
449.515; -219.000; -634.000; -581.000
449.636;  -49.300; -264.000; -155.000
449.758;  195.100;  763.000;  622.000
449.879; -121.400; -498.000; -396.000
450.001;  -88.700; -149.000;  -49.000
450.122;  -11.900;  -95.000;  162.000
450.244;   12.700;   37.000;  364.000
450.365; -107.900; -495.000; -301.000
450.486;   21.200;   80.000;  268.000
450.608;  130.100;  393.000;  326.000
450.729;  206.100;  578.000;  645.000
450.850;   59.100; -574.000; -466.000
450.972; 1614.300; -552.000; -389.000
451.093;10139.600;  190.000;  588.000
451.214; 3794.300; -516.000; -337.000
451.336;  798.000;  773.000;  579.000
451.457;  188.400;  264.000;  393.000
451.578;  -35.100; -118.000;  -74.000
451.699; -180.500; -546.000; -540.000
451.821;  -76.900; -284.000;  -50.000
451.942;   36.900;  278.000;  285.000
452.063;  147.100;  228.000;  419.000
452.184; 1255.100;  -54.000;  -49.000
452.305; 2182.800;  103.000;  170.000
452.427;  269.400; -549.000; -301.000
452.548;   56.800;   23.000;   79.000
452.669;  -23.400; -257.000;  -89.000
452.790;   -8.600;    3.000;  -18.000
452.911;   32.700;  195.000;  259.000
453.032;  -78.600; -289.000;  -60.000
453.153;  -32.700;  -29.000;   81.000
453.274;  203.800;  737.000;  868.000
453.395;  -50.600;  -51.000;  175.000
453.516;  327.100; 1317.000; 1388.000
453.637;  -87.200; -205.000; -150.000
453.758;  -45.500;   15.000;   69.000
453.879; -167.400; -462.000; -250.000
454.000;  229.100; 1086.000;  948.000
454.121; -186.200; -554.000; -326.000
454.242; -178.600; -599.000; -383.000
454.362;  -31.700;  -99.000;  114.000
454.483;   -6.100; -309.000; -229.000
454.604;  149.400;  512.000;  580.000
454.725; -218.400; -627.000; -555.000
454.846; -192.400; -474.000; -406.000
454.967;   34.700;  230.000;  539.000
455.087;  -24.700;  179.000;  153.000
455.208;  129.900;  554.000;  856.000
455.329;  -70.200;  -22.000;   82.000
455.450;  171.800;  473.000;  633.000
455.570; -131.700; -234.000; -211.000
455.691;  -13.800;  201.000;  407.000
455.812; -160.300; -270.000;  -92.000
455.932;  -80.900;  107.000;  -97.000
456.053; -106.200;   36.000;   24.000
456.173; -176.600; -433.000; -355.000
456.294; -216.600; -476.000; -303.000
456.415;  -50.500;  -73.000;   70.000
456.535;    7.700;  297.000;  273.000
456.656;   -5.100;  132.000;  240.000
456.776;  -77.700;    3.000;  298.000
456.897;   60.000;  308.000;  513.000
457.017; -108.800; -153.000;   -3.000
457.138; -163.100; -402.000; -249.000
457.258;   26.600;  263.000;  224.000
457.379;   50.700;  509.000;  521.000
457.499;   41.900;  443.000;  432.000
457.620; -185.500; -407.000; -231.000
457.740; -132.900; -132.000;  -11.000
457.860;  -73.500;   87.000;   44.000
457.981;  -23.100;  132.000;  124.000
458.101;  -68.700;  -89.000;   40.000
458.221;   17.000;  336.000;  402.000
458.342;  -15.400;   -4.000;  -37.000
458.462;  111.700;  617.000;  352.000
458.582;  -13.800; -302.000; -294.000
458.703;   72.800;  303.000;  154.000
458.823;   15.900;   22.000;  163.000
458.943;   85.700;  341.000;  467.000
459.063;   36.100; 1124.000;  192.000
459.183;  -14.900;  328.000;  313.000
459.304;   55.100;  315.000;  517.000
459.424;  -48.000; -246.000;  -89.000
459.544;  779.300;  388.000;  764.000
459.664; 1745.500;  499.000;  506.000
459.784;  650.200; 1004.000; 1175.000
459.904;  176.400;  867.000;  744.000
460.024;  220.900;  867.000;  684.000
460.144;   85.400;  449.000;  554.000
460.264;   78.700;  515.000;  327.000
460.385; -150.400; -145.000; -119.000
460.505;  163.200;  905.000;  858.000
460.625; -125.200;  -17.000;  -68.000
460.745;   48.400;  396.000;  541.000
460.864;  -26.100;  153.000;  469.000
460.984;  107.700;  499.000;  573.000
461.104;  372.000; 1656.000; 1775.000
461.224;   83.600;  657.000;  650.000
461.344;   29.000;  431.000;  360.000
461.464;  -10.800;  258.000;  513.000
461.584;   17.500;  283.000;  466.000
461.704;  -40.100;   58.000;  108.000
461.824;  -69.800;  238.000;  259.000
461.943;  -15.800;  191.000;  130.000
462.063;  -84.700;    2.000;  324.000
462.183;  141.400;  639.000;  717.000
462.303;  271.000; 1678.000; 1230.000
462.422;  174.000;  781.000;  840.000
462.542;  -25.300;  271.000;  391.000
462.662;  153.200;  353.000;  380.000
462.782;  574.400;  833.000;  572.000
462.901; 1009.500;  545.000;  717.000
463.021;  621.900; 1702.000; 1638.000
463.141;   44.000;  337.000;  770.000
463.260;   32.300;  614.000;  474.000
463.380;  109.200;  902.000;  884.000
463.499;  -19.900;  342.000;  332.000
463.619;  -19.300;  581.000;  559.000
463.738;  309.400; 1644.000;  903.000
463.858;  125.900;  657.000;  811.000
463.978;    7.500;  542.000;  396.000
464.097;  180.600;  921.000; 1114.000
464.217;  284.500; 1196.000; 1143.000
464.336;  323.500; 1068.000; 1130.000
464.455;   10.600;  328.000;  659.000
464.575;  131.500;  597.000;  602.000
464.694;  374.200; 1204.000; 1179.000
464.814;  349.600; 1190.000; 1138.000
464.933;  230.400; 1095.000; 1027.000
465.052;  251.700; 1412.000; 1054.000
465.172;  246.300;  922.000;  799.000
465.291;  308.200; 1376.000; 1320.000
465.410;   75.600;  462.000;  735.000
465.530;  216.200; 1355.000; 1310.000
465.649;  197.500; 1209.000; 1273.000
465.768;  338.200; 1673.000; 1508.000
465.888;  169.400;  941.000; 1174.000
466.007;  244.100; 1335.000; 1440.000
466.126;   73.100;  721.000;  641.000
466.245;  152.400; 1176.000; 1187.000
466.364;   65.400;  950.000; 1060.000
466.484;  217.400; 1024.000; 1213.000
466.603;  172.400; 1101.000; 1222.000
466.722;  303.800; 1490.000; 1769.000
466.841;  232.200; 1151.000; 1401.000
466.960;  128.000; 1069.000;  972.000
467.079;  392.600; 1971.000; 1786.000
467.198;  170.600; 1238.000; 1181.000
467.317;  248.100; 1768.000; 1162.000
467.436;  273.400; 1709.000; 1261.000
467.555;  335.700; 1796.000; 1746.000
467.674;  214.700; 1227.000; 1329.000
467.793;  145.500; 1376.000; 1374.000
467.912;  293.800; 1658.000; 1539.000
468.031;  348.700; 2038.000; 1930.000
468.150;  350.300; 1842.000; 1837.000
468.269;  481.300; 2313.000; 2090.000
468.388;  480.200; 2168.000; 2339.000
468.507;  599.200; 2884.000; 2903.000
468.626;  641.600; 2555.000; 2541.000
468.744;  357.900; 2018.000; 2174.000
468.863;  499.400; 2312.000; 2523.000
468.982;  254.100; 1503.000; 1555.000
469.101;  557.100; 2788.000; 2692.000
469.220;  381.400; 2333.000; 2176.000
469.338;  596.200; 2935.000; 3051.000
469.457;  481.000; 2719.000; 2545.000
469.576;  789.200; 3953.000; 3784.000
469.695;  567.600; 2877.000; 3066.000
469.813;  931.200; 4148.000; 4192.000
469.932;  887.100; 4255.000; 4485.000
470.051;  931.600; 4075.000; 4161.000
470.169; 1865.300; 4470.000; 4338.000
470.288; 3032.800; 4700.000; 4809.000
470.406; 1683.300; 5059.000; 5194.000
470.525; 1342.300; 6101.000; 5787.000
470.644; 1428.200; 6847.000; 6794.000
470.762; 1734.200; 8397.000; 7873.000
470.881; 1890.500; 8651.000; 8464.000
470.999; 2177.900; 9685.000; 9151.000
471.118; 2270.100;11174.000;10711.000

