
Integration time [ms]: 100.000
Averaging Nr. [scans]: 40
Smoothing Nr. [pixels]: 0
Data measured with spectrometer [name]: 2101012U2
Wave   ;Sample   ;Dark     ;Reference
[nm]   ;[counts] ;[counts] ;[counts] 

197.733;   54.425;  516.000;  404.000
197.879;  -88.275; -610.000; -634.000
198.025;  -41.275; -475.000; -420.000
198.171;  -73.875; -602.000; -612.000
198.317;  -17.050; -401.000; -316.000
198.463;  -57.525; -655.000; -404.000
198.609;   31.275;  181.000; -137.000
198.755;  -73.450; -644.000; -410.000
198.901;  -65.100; -505.000; -424.000
199.047;  -63.175; -615.000; -488.000
199.193;  -38.900; -230.000; -468.000
199.339;  -40.050; -222.000; -369.000
199.485;   34.025;  330.000;  271.000
199.631;   14.000;  227.000;  310.000
199.777;  -48.075; -466.000; -398.000
199.923;  -65.250; -610.000; -424.000
200.069;   -3.075; -141.000;  -58.000
200.215;   38.575;  128.000;  453.000
200.361;   50.125;  243.000;  477.000
200.507;  -57.500; -600.000; -373.000
200.653;  -36.325; -371.000; -194.000
200.798;  -20.925; -215.000; -125.000
200.944;    6.250; -146.000;  -41.000
201.090;   36.750;   61.000;  222.000
201.236;   -8.900; -116.000; -158.000
201.382;  121.625;  874.000;  903.000
201.528;   -4.800;  -58.000;  -48.000
201.674;  -51.975; -386.000; -293.000
201.819;  -69.125; -540.000; -439.000
201.965;  -84.775; -699.000; -447.000
202.111;  -27.850; -273.000; -226.000
202.257;  -42.475; -250.000; -238.000
202.402;    8.025;   13.000;  -36.000
202.548;  -33.475; -169.000; -116.000
202.694;   86.425;  410.000; -183.000
202.840;  -83.725; -603.000; -531.000
202.985;  -61.950; -681.000; -639.000
203.131; -110.750; -832.000; -666.000
203.277;  -13.050; -199.000; -262.000
203.423;  -37.325; -434.000; -520.000
203.568;  -35.200; -462.000; -237.000
203.714;  -57.150; -535.000; -542.000
203.860;  -71.925; -682.000; -641.000
204.005;   11.825;  112.000;  167.000
204.151;   71.425;  561.000;  556.000
204.296;  -54.250; -354.000; -221.000
204.442;  -64.700; -600.000; -547.000
204.588;  -75.800; -592.000; -579.000
204.733;    8.325;  178.000;  168.000
204.879; -116.500;-1018.000; -822.000
205.025;   17.875;  -99.000;  126.000
205.170;    4.250;  -17.000;   94.000
205.316;   70.750;  438.000;  661.000
205.461;  -95.175; -698.000; -554.000
205.607;   73.575;  609.000;  665.000
205.752;  -81.800; -626.000; -551.000
205.898;  -53.775; -501.000; -391.000
206.043;  -65.375; -578.000; -506.000
206.189;  -36.100; -243.000; -285.000
206.334;   63.000;  554.000;  606.000
206.480;   81.900;  409.000;  239.000
206.625;  -92.750; -529.000; -552.000
206.771;  -48.275; -451.000; -373.000
206.916;  -32.775; -210.000; -537.000
207.062;  -68.425; -545.000; -591.000
207.207;  -67.250; -546.000; -443.000
207.353;   52.950;  185.000;  460.000
207.498;    8.000;  196.000;   85.000
207.643;  -55.800; -501.000; -370.000
207.789; -139.550;-1069.000; -910.000
207.934;  -87.600; -665.000; -713.000
208.080;  -21.675; -154.000;   66.000
208.225;   -6.650;  -22.000;  -57.000
208.370;  -92.800; -727.000; -619.000
208.516;  -77.325; -741.000; -487.000
208.661;  -34.225; -127.000;  -69.000
208.806;  -21.600; -165.000; -171.000
208.952; -115.775;-1044.000; -731.000
209.097;   72.575;  378.000;  349.000
209.242;  -52.625; -307.000; -382.000
209.387;   70.225;  392.000;  350.000
209.533;  -50.150; -321.000; -350.000
209.678;   71.700;  472.000;  543.000
209.823;  -55.575; -408.000; -310.000
209.969; -101.550; -860.000; -757.000
210.114;  -96.900; -907.000; -719.000
210.259; -107.700; -939.000; -889.000
210.404;  -15.800; -171.000;  103.000
210.549;   16.300;  108.000;    3.000
210.695;  -20.650;   -3.000;  -95.000
210.840;   28.975;   94.000;   67.000
210.985;  -50.325; -484.000; -303.000
211.130;   68.075;  268.000;  406.000
211.275;   16.300;  207.000;  199.000
211.420;  -29.675; -300.000; -289.000
211.566;  -58.775; -536.000; -489.000
211.711;   33.225;  218.000;  157.000
211.856;  -59.250; -545.000; -519.000
212.001;    6.925;  151.000;   44.000
212.146;   18.375;  153.000;   49.000
212.291;  -13.875; -210.000; -186.000
212.436;  -30.950; -280.000;   -6.000
212.581;  -70.875; -685.000; -653.000
212.726;  -78.300; -487.000; -538.000
212.871;  -33.300; -552.000; -217.000
213.016; -147.725;-1172.000;-1029.000
213.161;   58.075;  406.000;  291.000
213.306;  -68.275; -435.000; -577.000
213.451;  -84.950; -778.000; -689.000
213.596;  -52.975; -455.000; -347.000
213.741;  -53.825; -448.000; -538.000
213.886;  -67.325; -498.000; -517.000
214.031;  -22.450; -294.000; -124.000
214.176;  -56.500; -408.000; -341.000
214.321;  -16.350; -296.000; -157.000
214.466;  -34.350; -163.000;  -43.000
214.611;   -4.375;  -61.000;  -10.000
214.756; -118.775; -948.000; -858.000
214.901;   -8.900; -388.000; -226.000
215.046; -113.450; -797.000; -825.000
215.191;   19.325;  128.000;   35.000
215.336;  -18.625; -157.000;  -19.000
215.480;  -55.850; -684.000; -505.000
215.625;  -18.350; -175.000;  -19.000
215.770;  -91.075; -757.000; -662.000
215.915;   -7.450;   -5.000;  -97.000
216.060;   -6.725; -113.000;  -21.000
216.205; -118.325; -731.000; -779.000
216.349;  -64.150; -470.000; -533.000
216.494; -137.250; -939.000; -867.000
216.639; -108.050; -823.000; -888.000
216.784;  -76.025; -577.000; -525.000
216.929;   48.775;  392.000;  281.000
217.073;  -15.250; -244.000;  -31.000
217.218;   12.700;   78.000;  -47.000
217.363;  -72.250; -656.000; -618.000
217.507;  -74.900; -623.000; -588.000
217.652; -131.625; -845.000; -874.000
217.797;  -73.750; -708.000; -659.000
217.942;  -98.200; -856.000; -720.000
218.086;   69.275;  608.000;  539.000
218.231;  -20.000; -174.000;  -26.000
218.376;  -32.275; -337.000; -229.000
218.520;   -1.450;  -41.000;   96.000
218.665;  -44.825; -338.000; -204.000
218.810;  -50.250; -275.000; -233.000
218.954;   25.175;  201.000;   35.000
219.099; -111.075; -713.000; -963.000
219.243;  -55.250; -589.000; -554.000
219.388;  -37.625; -264.000; -136.000
219.532;  -10.225; -116.000; -116.000
219.677;  -85.800; -564.000; -521.000
219.822;  -10.150;   33.000;   89.000
219.966;   12.400;   17.000;  -99.000
220.111;  -28.700; -328.000;  -40.000
220.255;  -95.275; -797.000; -750.000
220.400;  -25.500; -180.000; -146.000
220.544;  -57.150; -516.000; -450.000
220.689;  -45.775; -422.000; -451.000
220.833;  -31.300; -123.000;  -58.000
220.978;  -43.625; -393.000; -563.000
221.122;   35.675;  319.000;  307.000
221.267; -109.425; -906.000; -837.000
221.411;  -75.775; -478.000; -394.000
221.555;  -14.700; -104.000;  -23.000
221.700;  -46.250; -329.000; -222.000
221.844;   17.750;  255.000;  272.000
221.989;  -49.050; -328.000; -311.000
222.133;  -27.450; -289.000; -307.000
222.277;  -19.525;    5.000;   78.000
222.422;   11.625;  227.000;  113.000
222.566;  -43.925; -381.000; -214.000
222.711;  -43.175; -414.000; -479.000
222.855;  -76.875; -643.000; -586.000
222.999;  -68.950; -642.000; -717.000
223.144;  -27.900; -195.000; -194.000
223.288;   43.175;  423.000;  251.000
223.432;   19.850;  184.000;  230.000
223.576;   18.525;  152.000;  -21.000
223.721;   38.675;  364.000;  273.000
223.865;  -60.875; -472.000; -475.000
224.009;  217.275; 1673.000; 1631.000
224.153;  -75.050; -660.000; -671.000
224.298;  -69.125; -531.000; -489.000
224.442;    1.700;  -74.000;  -33.000
224.586;  -24.175; -169.000; -106.000
224.730;  -89.050; -858.000; -670.000
224.875; -100.700; -739.000; -688.000
225.019;   15.200;  102.000;  188.000
225.163;   54.175;  208.000;  341.000
225.307;   11.075;   97.000;  -91.000
225.451;   33.300;  360.000;  481.000
225.595;   26.400;  264.000;  176.000
225.739;  -18.500; -170.000;  -94.000
225.884;   10.125;   86.000;    5.000
226.028; -109.275; -760.000; -626.000
226.172;  -45.200; -260.000; -273.000
226.316; -111.150; -941.000; -902.000
226.460;  -69.475; -645.000; -493.000
226.604;  -52.425; -406.000; -400.000
226.748;  -83.800; -836.000; -733.000
226.892;  -50.775; -227.000; -181.000
227.036;  -47.050; -537.000; -447.000
227.180;  -68.425; -551.000; -375.000
227.324;  -51.950; -561.000; -580.000
227.468; -109.475; -819.000; -717.000
227.612;   17.250;  242.000;  -28.000
227.756;  -99.650; -845.000; -698.000
227.900;   59.450;  342.000;  441.000
228.044;  -58.025; -509.000; -290.000
228.188;   57.500;  448.000;  568.000
228.332;  -84.600; -546.000; -472.000
228.476;  -26.450; -223.000; -149.000
228.620;  -35.475; -210.000; -150.000
228.764;   53.700;  431.000;  349.000
228.908;  -20.550; -155.000;   30.000
229.052;  -55.350; -615.000; -528.000
229.195;  -29.750; -172.000;   13.000
229.339;  -30.325; -235.000; -305.000
229.483;  -30.850;    5.000; -162.000
229.627;   -0.675; -156.000;  139.000
229.771;  -44.800; -218.000; -294.000
229.915;   10.325;  230.000;   79.000
230.059;  -97.625; -648.000; -663.000
230.202;  -41.150; -370.000; -317.000
230.346;  -12.650; -107.000;  107.000
230.490;  -55.500; -489.000; -521.000
230.634;  -95.050; -736.000; -553.000
230.777;   66.400;  478.000;  509.000
230.921;  -46.525; -450.000; -359.000
231.065;  -32.150; -246.000; -286.000
231.209;   26.150;  261.000;  265.000
231.352;   19.425;   54.000;   40.000
231.496;   16.325;  568.000;  188.000
231.640;  -79.050; -693.000; -621.000
231.783;   49.100;  546.000;  525.000
231.927;  -43.075; -294.000; -365.000
232.071; -127.825; -962.000; -736.000
232.214; -105.000; -980.000; -764.000
232.358; -103.275; -683.000; -599.000
232.502;   -0.150;  -19.000;    7.000
232.645; -126.725;-1090.000; -927.000
232.789;  -10.950; -257.000; -218.000
232.933;  -60.850; -407.000; -224.000
233.076; -114.200;-1038.000; -897.000
233.220; -110.125; -752.000; -777.000
233.363;  -77.025; -669.000; -477.000
233.507;   61.100;  371.000;  129.000
233.650;  -94.000; -764.000; -834.000
233.794;   43.175;  438.000;  461.000
233.938;  -61.775; -530.000; -362.000
234.081;  -16.800;  -93.000;   31.000
234.225;  -67.475; -631.000; -539.000
234.368; -104.425; -773.000; -723.000
234.512;  -49.175; -385.000; -299.000
234.655;  -87.350; -582.000; -555.000
234.798;  -67.225; -493.000; -466.000
234.942; -123.500; -884.000;-1002.000
235.085;  -61.875; -651.000; -443.000
235.229;  -91.000; -405.000; -410.000
235.372;  -48.025; -247.000; -191.000
235.516;  -76.425; -397.000; -321.000
235.659;   24.100;   92.000;  121.000
235.802;  -27.650;  -38.000;  -22.000
235.946;   12.200;  335.000;  215.000
236.089;   17.325;  126.000;  250.000
236.233;   46.300;  275.000;  298.000
236.376;  -62.900; -235.000; -378.000
236.519;  -43.350; -297.000; -319.000
236.663;  -27.975; -215.000; -117.000
236.806; -123.050;-1029.000; -999.000
236.949;   43.525;  543.000;  431.000
237.092;   54.300;  412.000;  391.000
237.236;  -86.325; -589.000; -502.000
237.379;   57.225;  352.000;  428.000
237.522; -117.475; -879.000; -768.000
237.666;  -15.650; -271.000;   18.000
237.809; -118.900; -851.000; -823.000
237.952;   26.225;  469.000;  271.000
238.095;  -71.700; -447.000; -442.000
238.238;   84.450;  688.000;  700.000
238.382;   -4.750;  166.000;  103.000
238.525;  -69.350; -598.000; -511.000
238.668; -141.975;-1060.000; -985.000
238.811;  -77.675; -638.000; -643.000
238.954;  -63.800; -483.000; -334.000
239.097;   93.700;  617.000;  664.000
239.241;   23.850;  394.000;  326.000
239.384;  -38.175; -254.000; -214.000
239.527;  -46.675; -424.000; -224.000
239.670; -150.350; -994.000;-1091.000
239.813;  -98.200; -696.000; -658.000
239.956;   71.025;  579.000;  473.000
240.099; -113.400; -778.000; -725.000
240.242;   52.000;  428.000;  432.000
240.385;   43.150;  466.000;  450.000
240.528;  -59.825; -706.000; -473.000
240.671;    1.050;  189.000;  134.000
240.814;  -29.750; -441.000; -158.000
240.957;  -96.450; -767.000; -578.000
241.100;  -84.575; -779.000; -755.000
241.243; -128.875;-1234.000; -893.000
241.386;  -68.125; -508.000; -379.000
241.529;  -83.150; -735.000; -547.000
241.672;  -62.775; -566.000; -495.000
241.815; -114.950; -832.000; -808.000
241.958;  -22.500; -125.000; -182.000
242.101;  -94.875; -545.000; -390.000
242.244;  -32.000; -270.000; -325.000
242.387;  -31.650; -304.000; -246.000
242.530;   59.500;  470.000;  134.000
242.673;  -54.250; -381.000; -309.000
242.815; -110.675; -925.000; -899.000
242.958;  -74.900; -482.000; -381.000
243.101;   17.925;  132.000;  187.000
243.244;  -85.325; -564.000; -521.000
243.387;  -53.575; -313.000; -316.000
243.530; -115.550; -657.000; -674.000
243.672;    6.150;   43.000;  -92.000
243.815;  -56.725; -355.000; -283.000
243.958;    2.075;   98.000;  -26.000
244.101;    1.800;   59.000;  -16.000
244.243;  -18.450;  -47.000;  101.000
244.386; -115.150; -761.000; -630.000
244.529;  -24.700; -132.000; -139.000
244.672; -146.450;-1154.000; -951.000
244.814;  -91.275; -621.000; -794.000
244.957;  -39.750; -380.000; -304.000
245.100;  -66.875; -489.000; -489.000
245.242;  -63.075; -387.000; -374.000
245.385;   -4.425;  -59.000;  -39.000
245.528; -122.225; -871.000; -705.000
245.670;   86.800;  612.000;  634.000
245.813;  -86.225; -599.000; -547.000
245.956;  -40.000; -324.000; -275.000
246.098;  -81.275; -508.000; -650.000
246.241;   -3.100;  194.000;   48.000
246.383;  -16.475; -119.000;  -73.000
246.526;  -82.000; -454.000; -525.000
246.669; -110.500; -889.000; -780.000
246.811;   19.300;  172.000;   -1.000
246.954;  -62.525; -512.000; -426.000
247.096;  -14.300;  -84.000;   -6.000
247.239;  -67.625; -482.000; -445.000
247.381;  -79.850; -647.000; -488.000
247.524;   79.700;  645.000;  679.000
247.666;   -9.375;   58.000;   11.000
247.809; -121.025; -887.000; -691.000
247.951;    7.000;  -75.000;  138.000
248.094;   18.275;  432.000;  308.000
248.236; -148.100;-1262.000;-1238.000
248.378;  -21.275; -356.000;  -81.000
248.521;  -46.700; -334.000; -337.000
248.663;  -49.575; -236.000; -267.000
248.806;  -16.050; -300.000; -266.000
248.948; -109.975; -886.000; -763.000
249.090;  -39.700; -428.000; -398.000
249.233;  -54.500; -344.000; -381.000
249.375;  -64.150; -474.000; -451.000
249.518;  -26.200;  -83.000; -133.000
249.660;   -1.500; -103.000;    3.000
249.802; -175.725;-1303.000;-1189.000
249.945;  -78.600; -612.000; -540.000
250.087; -115.200; -834.000; -768.000
250.229;  -56.725; -362.000; -480.000
250.371;  -66.600; -494.000; -439.000
250.514;  -55.100; -310.000; -244.000
250.656;  -20.875;   69.000;  102.000
250.798; -114.525; -849.000; -800.000
250.940;  -60.400; -322.000; -322.000
251.083;  -29.025; -335.000; -111.000
251.225;   48.175;  338.000;  310.000
251.367;  -35.850; -274.000; -373.000
251.509;  -37.300; -265.000; -210.000
251.651;  -83.750; -731.000; -671.000
251.794;   35.050;  538.000;  632.000
251.936; -110.150; -821.000; -747.000
252.078;  -80.200; -540.000; -461.000
252.220;  -79.500; -645.000; -477.000
252.362;   46.225;  344.000;  462.000
252.504;  -76.850; -677.000; -584.000
252.646; -111.425; -875.000; -722.000
252.788;  -14.525;   14.000; -128.000
252.931;  -48.750; -257.000; -253.000
253.073;  -42.225; -376.000; -317.000
253.215;  -28.425;  141.000;  122.000
253.357;   -9.075;   82.000; -153.000
253.499;  -55.575; -374.000; -234.000
253.641;  -85.475; -749.000; -594.000
253.783;  -96.625; -609.000; -527.000
253.925;  -90.250; -586.000; -591.000
254.067; -116.275; -744.000; -667.000
254.209;  -28.875; -391.000; -259.000
254.351; -120.425; -865.000; -883.000
254.493;  -62.125; -441.000; -417.000
254.635; -139.600; -936.000; -818.000
254.777;  -78.300; -752.000; -687.000
254.918;  -63.875; -512.000; -430.000
255.060;  -64.775; -551.000; -395.000
255.202;  -70.325; -473.000; -261.000
255.344;  -71.725; -658.000; -455.000
255.486;  -87.100; -471.000; -406.000
255.628;  -92.575; -780.000; -781.000
255.770;  -88.850; -676.000; -536.000
255.912;  -61.375; -559.000; -468.000
256.053;  -86.575; -730.000; -508.000
256.195;  156.025; 1008.000;  903.000
256.337; -100.975; -861.000; -595.000
256.479;   56.050;  532.000;  416.000
256.621;  -58.675; -394.000; -212.000
256.762;  -83.075; -789.000; -742.000
256.904;   35.625;  485.000;  487.000
257.046;  -51.600; -381.000; -271.000
257.188;  -45.075; -351.000; -264.000
257.329;  -69.025; -525.000; -464.000
257.471; -118.300; -939.000; -807.000
257.613;  -67.625; -584.000; -498.000
257.755; -161.400;-1073.000; -982.000
257.896;   40.850;  286.000;  392.000
258.038;  -81.375; -403.000; -352.000
258.180;  -39.750; -354.000; -279.000
258.321;  -93.350; -581.000; -457.000
258.463;   -6.475;  -71.000;  133.000
258.605; -103.900; -562.000; -570.000
258.746; -100.425; -886.000; -772.000
258.888; -161.600;-1026.000;-1020.000
259.029;   18.350;  121.000;   -8.000
259.171;  -73.275; -614.000; -550.000
259.313;  -15.200;  -49.000;  -47.000
259.454;  -73.475; -536.000; -414.000
259.596;  -41.400; -483.000; -390.000
259.737;  -82.975; -590.000; -474.000
259.879;   31.175;  217.000;  311.000
260.020;   66.500;  901.000;  636.000
260.162;  -31.000; -146.000; -253.000
260.303; -113.175; -768.000; -687.000
260.445;  -82.675; -609.000; -613.000
260.586;   17.975;  392.000;  157.000
260.728;  -48.825; -360.000; -248.000
260.869;  -70.650; -350.000; -343.000
261.011;   74.425;  706.000;  537.000
261.152;  -77.625; -479.000; -319.000
261.293;  -88.275; -576.000; -595.000
261.435;  -37.325; -219.000; -184.000
261.576;  -37.475; -455.000; -325.000
261.718;   38.075;  420.000;  470.000
261.859; -130.900; -940.000; -949.000
262.000; -141.200; -951.000;-1016.000
262.142;  -22.225;  -52.000;  -60.000
262.283; -126.575; -808.000; -691.000
262.424;  -77.925; -666.000; -625.000
262.566; -154.050;-1161.000; -983.000
262.707; -107.200; -840.000; -830.000
262.848; -122.950; -769.000; -726.000
262.990;  -50.825; -362.000; -345.000
263.131;   63.875;  650.000;  681.000
263.272;   -9.850;  -61.000;  -41.000
263.413;  -94.525; -589.000; -561.000
263.555;  -68.900; -669.000; -143.000
263.696;  -97.850; -550.000; -641.000
263.837;  -65.425; -449.000; -551.000
263.978;  -18.700;   -5.000;  -77.000
264.119;  -46.425; -283.000; -264.000
264.261; -126.875; -847.000; -630.000
264.402;    5.450;   33.000;   40.000
264.543;  -83.675; -509.000; -524.000
264.684;  -15.625;   61.000;  -50.000
264.825;  -76.225; -816.000; -538.000
264.966;  -15.350;  -84.000;  -67.000
265.107; -123.100; -646.000; -670.000
265.248; -118.925; -825.000; -812.000
265.390;  -15.500;  152.000;   -9.000
265.531;  -16.850; -238.000; -107.000
265.672;  -85.950; -557.000; -630.000
265.813;   54.100;  563.000;  439.000
265.954; -145.550; -959.000; -940.000
266.095;  -20.550; -372.000; -322.000
266.236; -104.150; -686.000; -548.000
266.377;  -53.025; -243.000; -297.000
266.518;  -81.025; -619.000; -547.000
266.659;   17.000;  170.000;  268.000
266.800;   -3.975;   83.000;   85.000
266.941;  -79.675; -487.000; -478.000
267.082;    9.275;  354.000;   99.000
267.223;  -51.700; -344.000; -273.000
267.364; -103.475; -892.000; -686.000
267.504;  -12.725;    3.000;  135.000
267.645;   -9.275;  160.000;   67.000
267.786;  -34.825; -147.000;  -86.000
267.927;  -78.400; -473.000; -379.000
268.068;  -18.950; -186.000;  -61.000
268.209;  -52.150; -175.000; -413.000
268.350;  -71.825; -388.000; -532.000
268.490;  -82.175; -648.000; -521.000
268.631;   21.625;  127.000;  225.000
268.772; -114.600; -874.000; -647.000
268.913;  -37.325; -328.000; -476.000
269.054;  -38.125; -117.000;   12.000
269.194;  -50.125; -418.000; -402.000
269.335; -163.725;-1137.000;-1074.000
269.476;  -22.950;   33.000;  -35.000
269.617;  -60.200; -347.000; -392.000
269.757;  -90.575; -713.000; -646.000
269.898; -107.325; -856.000; -613.000
270.039;  -59.525; -415.000; -405.000
270.180; -131.450; -952.000; -816.000
270.320;  -37.750; -190.000; -250.000
270.461;  -34.425; -277.000; -249.000
270.602;  -13.575; -186.000; -156.000
270.742; -123.650; -868.000; -943.000
270.883;  -60.425; -442.000; -390.000
271.023;  -63.150; -358.000; -357.000
271.164;  -71.750; -607.000; -528.000
271.305;  -99.650; -666.000; -654.000
271.445;  -85.950; -722.000; -683.000
271.586;  -90.300; -462.000; -283.000
271.726;  -51.900; -397.000; -322.000
271.867;  -87.300; -594.000; -534.000
272.008;   56.875; -473.000; -285.000
272.148;   62.425;  462.000;  468.000
272.289;  -11.300; -113.000; -181.000
272.429;   -0.575;   19.000;  185.000
272.570;  -82.050; -633.000; -737.000
272.710; -111.000; -825.000; -775.000
272.851;  -16.675;  113.000; -130.000
272.991; -166.450;-1173.000;-1077.000
273.131;  -69.650; -419.000; -459.000
273.272; -103.300; -683.000; -723.000
273.412;  -14.750; -143.000;  -31.000
273.553;  -71.075; -488.000; -507.000
273.693;  116.400;  913.000;  858.000
273.834; -128.675; -894.000; -692.000
273.974;  -72.525; -664.000; -615.000
274.114; -114.850; -772.000; -560.000
274.255;   47.125;  414.000;  373.000
274.395;  -23.650; -180.000; -125.000
274.535;   24.125;  199.000;  350.000
274.676;   13.175;  225.000;   94.000
274.816;  -14.175;  110.000;   34.000
274.956;  -97.975; -624.000; -690.000
275.097; -102.000;-1014.000; -922.000
275.237; -129.700; -913.000; -803.000
275.377;  -99.425; -778.000; -689.000
275.517; -144.275; -878.000; -937.000
275.658;  -67.350; -590.000; -555.000
275.798;  -91.425; -606.000; -413.000
275.938;   20.225;  215.000;  323.000
276.078;  -86.575; -626.000; -395.000
276.218;   -4.575;   99.000;  104.000
276.359; -138.200;-1026.000;-1024.000
276.499;  -76.275; -605.000; -446.000
276.639;  -51.950; -305.000; -151.000
276.779;  -57.375; -475.000; -357.000
276.919; -114.450; -783.000; -624.000
277.059;  -39.325; -261.000; -212.000
277.199;  -53.325; -357.000; -259.000
277.340;   32.175;  287.000;  175.000
277.480; -114.050; -840.000; -693.000
277.620;   17.350;  192.000;   16.000
277.760; -195.425;-1533.000;-1294.000
277.900;  -15.500;  113.000;   33.000
278.040;  -13.675;  137.000;  159.000
278.180;   13.100;  270.000;  170.000
278.320;  -11.800;   21.000;   56.000
278.460;  -65.575; -443.000; -469.000
278.600;  -98.550; -708.000; -598.000
278.740;   33.975;  448.000;  224.000
278.880; -121.725; -768.000; -791.000
279.020;  -26.875; -194.000; -144.000
279.160;  -89.550; -672.000; -595.000
279.300; -123.775; -926.000; -873.000
279.440;  -94.600; -709.000; -622.000
279.579;  -89.625;-1014.000; -929.000
279.719;  -80.750; -410.000; -394.000
279.859;   21.750;   -4.000;   41.000
279.999;  -22.800; -208.000;  101.000
280.139;  -37.100; -435.000; -387.000
280.279; -104.725; -708.000; -745.000
280.419;  -17.950; -229.000; -147.000
280.559;  -62.000; -259.000; -180.000
280.698;  -88.500; -790.000; -639.000
280.838; -100.825; -778.000; -800.000
280.978; -102.075; -846.000; -790.000
281.118; -111.250; -811.000; -704.000
281.257;   -5.800;   24.000;    6.000
281.397; -146.075;-1094.000; -960.000
281.537;  -96.275; -599.000; -712.000
281.677;  -23.125; -150.000; -101.000
281.816;  -92.100; -700.000; -630.000
281.956;  -44.275; -193.000; -257.000
282.096;  -71.300; -539.000; -396.000
282.235;  -98.850; -672.000; -638.000
282.375;  -23.175; -243.000;  -98.000
282.515; -124.250; -715.000; -707.000
282.654;   22.450;   29.000;  106.000
282.794;   10.600;  388.000;  244.000
282.934;  -57.775; -530.000; -491.000
283.073; -133.850;-1030.000; -857.000
283.213;  -54.925; -460.000; -467.000
283.353;  -54.650; -408.000; -349.000
283.492;  -51.275; -264.000; -296.000
283.632;  -65.975; -254.000; -168.000
283.771;  -97.400; -859.000; -730.000
283.911;  -54.650; -369.000; -260.000
284.050; -109.350; -794.000; -748.000
284.190; -156.725;-1229.000;-1096.000
284.329; -132.300;-1055.000; -964.000
284.469; -106.775; -516.000; -591.000
284.608;  -52.150; -559.000; -598.000
284.748;  -92.750; -614.000; -570.000
284.887;  -18.250;  -87.000;  -20.000
285.027; -131.375; -844.000; -892.000
285.166;  -41.350; -192.000; -249.000
285.306;  -27.875; -116.000;  -33.000
285.445;  -35.075; -229.000; -343.000
285.584;  -92.625; -630.000; -494.000
285.724;  -33.525; -282.000; -322.000
285.863; -116.850; -857.000; -507.000
286.002;  -61.700; -366.000; -276.000
286.142; -114.875; -715.000; -622.000
286.281;  -67.750; -525.000; -493.000
286.420;  -81.400; -554.000; -417.000
286.560;   79.400;  653.000;  623.000
286.699; -147.575; -958.000; -912.000
286.838;  -85.175; -590.000; -591.000
286.978; -102.950; -533.000; -537.000
287.117; -134.800;-1085.000; -950.000
287.256;  -37.200; -228.000; -211.000
287.395;  -47.525; -197.000; -378.000
287.535;  -47.550; -370.000; -298.000
287.674;  -77.100; -509.000; -484.000
287.813;   29.875;  661.000;  533.000
287.952; -121.750;-1010.000; -871.000
288.091; -153.450;-1049.000; -915.000
288.231;   -3.925;   13.000;   15.000
288.370; -176.700;-1217.000;-1200.000
288.509;  -81.475; -728.000; -645.000
288.648; -103.800; -770.000; -548.000
288.787;  -40.025; -243.000;  -87.000
288.926;  -77.250; -454.000; -475.000
289.065;   89.200;  859.000;  672.000
289.204;  -54.975; -377.000; -217.000
289.344;  -97.175; -791.000; -690.000
289.483;    9.425;  416.000;  304.000
289.622;  -32.600; -291.000; -149.000
289.761;  -29.050; -309.000; -166.000
289.900; -104.300; -785.000; -626.000
290.039;  -23.725;  -12.000;  -95.000
290.178;  -48.900; -274.000; -180.000
290.317;  -94.450; -618.000; -479.000
290.456;  -64.150; -463.000; -451.000
290.595; -121.225; -961.000; -833.000
290.734; -142.225; -904.000; -891.000
290.873;  -78.575; -456.000; -420.000
291.011; -118.175; -833.000; -843.000
291.150; -109.325; -770.000; -682.000
291.289;  -35.825; -343.000; -110.000
291.428;  -94.825; -599.000; -480.000
291.567;  -54.950; -370.000; -442.000
291.706;  -13.350;  109.000;  154.000
291.845;  -76.050; -597.000; -505.000
291.984; -182.900;-1234.000;-1061.000
292.122;   71.075;  602.000;  582.000
292.261;   30.775;  620.000;  463.000
292.400;   -5.350; -144.000;  211.000
292.539; -125.100; -959.000; -813.000
292.678;  -37.850; -325.000; -300.000
292.816; -158.550;-1136.000; -965.000
292.955;  -97.250; -844.000; -684.000
293.094;  -30.550; -173.000; -337.000
293.233;  -54.875; -556.000; -400.000
293.371;  -38.275; -225.000;  -84.000
293.510; -102.500; -866.000; -780.000
293.649; -147.100; -959.000; -924.000
293.787; -113.650;-1083.000;-1012.000
293.926;  -32.800; -113.000;  -32.000
294.065;  -52.125; -379.000; -290.000
294.203;   19.675;  298.000;  406.000
294.342;   21.975;   74.000;  156.000
294.481; 5980.375;51180.000; -836.000
294.619;  -34.050; -425.000; -582.000
294.758; -157.800;-1230.000;-1137.000
294.896;    6.750; -125.000;    5.000
295.035; -147.575;-1040.000;-1006.000
295.174; -122.550;-1082.000; -954.000
295.312;  -58.100; -323.000; -203.000
295.451;  -48.875; -307.000; -428.000
295.589;  -74.800; -389.000; -518.000
295.728;   -5.000; -292.000; -165.000
295.866;  -29.475;  -36.000;  -51.000
296.005;  -68.825; -584.000; -341.000
296.143;  -89.075; -558.000; -596.000
296.282; -111.150; -957.000; -881.000
296.420; -111.700; -657.000; -557.000
296.559; -103.825; -892.000; -633.000
296.697;  -83.800; -847.000; -665.000
296.835;  -92.700;-1141.000;-1002.000
296.974;    3.125;  -23.000;   39.000
297.112;  -62.450; -443.000; -504.000
297.251; -105.750; -815.000; -755.000
297.389;  -34.200; -576.000; -438.000
297.527;  -13.075; -145.000;  -83.000
297.666;  -64.400; -486.000; -438.000
297.804;  -59.650; -404.000; -264.000
297.942;  -15.450; -136.000; -161.000
298.081;  -41.700; -183.000;   63.000
298.219;    2.425;  -17.000;  -19.000
298.357;  -25.075; -144.000;  -71.000
298.495;  -70.475; -810.000; -812.000
298.634;    4.825;  245.000;  219.000
298.772;  -32.675; -220.000; -338.000
298.910;  -62.225; -309.000; -182.000
299.048;  -29.400; -130.000; -153.000
299.187;  -36.200; -350.000; -250.000
299.325;    1.550;   52.000;  122.000
299.463;  -28.050; -389.000; -299.000
299.601;   -7.225; -327.000; -271.000
299.739; -143.625; -908.000; -883.000
299.877;  -85.225; -791.000; -703.000
300.016; -107.825;-1095.000; -935.000
300.154;   36.575;  -19.000; -161.000
300.292;  -51.875; -428.000; -348.000
300.430;  -35.150; -408.000; -291.000
300.568; -135.900; -940.000; -874.000
300.706;  -60.425; -366.000; -469.000
300.844; -144.025;-1108.000; -979.000
300.982;   56.050;  246.000;  282.000
301.120; -135.075; -965.000; -866.000
301.258;  -88.450; -812.000; -705.000
301.396;  -12.600;  104.000;  -41.000
301.534;  -29.150; -218.000; -293.000
301.672;  -77.925; -664.000; -521.000
301.810;  -60.125; -613.000; -545.000
301.948;    6.875;   53.000;  149.000
302.086;  194.050; -250.000;  -32.000
302.224;  219.550; -610.000; -585.000
302.362;  -56.050; -558.000; -622.000
302.500; -121.575; -923.000; -893.000
302.638;   24.250;  128.000;  245.000
302.776;  -40.900; -352.000; -408.000
302.913;   42.500;  447.000;  236.000
303.051;  -40.025;  -86.000;  -23.000
303.189;    8.525;   90.000;  118.000
303.327;  -51.525; -341.000; -256.000
303.465;  -90.950; -832.000; -588.000
303.603; -105.750; -805.000; -604.000
303.740;   48.725;  417.000;  241.000
303.878;  -92.100; -800.000; -759.000
304.016; -116.625; -915.000; -790.000
304.154; -153.075;-1123.000;-1152.000
304.291;  -73.700; -505.000; -554.000
304.429;    1.925;  102.000;   74.000
304.567; -127.650; -908.000; -893.000
304.705;  -77.400; -408.000; -515.000
304.842;  -42.400; -616.000; -540.000
304.980;    9.250;  215.000;   35.000
305.118;  -36.750; -367.000; -365.000
305.255; -127.950; -945.000; -927.000
305.393;   26.450;  178.000;  239.000
305.531; -146.250;-1173.000; -956.000
305.668;  -76.225; -663.000; -582.000
305.806;  -23.175; -358.000; -439.000
305.943;  -22.000; -629.000; -637.000
306.081;  -17.150; -378.000; -267.000
306.219; -115.950; -863.000; -748.000
306.356;   11.150;  158.000;   27.000
306.494;  122.750;  981.000;  761.000
306.631;  -16.750;  -11.000;  -55.000
306.769;  -24.875; -613.000; -485.000
306.906;  -47.525; -284.000; -258.000
307.044;  -57.550; -473.000; -488.000
307.181;  -83.675; -410.000; -332.000
307.319;    2.575;  112.000;   87.000
307.456; -169.675;-1191.000;-1153.000
307.594; -111.000; -980.000; -727.000
307.731;  -35.925; -371.000; -164.000
307.868;  -17.350;  -15.000;   20.000
308.006; -129.875; -961.000; -847.000
308.143;  -78.475; -618.000; -330.000
308.281;    8.475;  -37.000; -254.000
308.418;  -65.825; -748.000; -640.000
308.555;  -79.775; -400.000; -250.000
308.693;  -81.200; -577.000; -573.000
308.830; -105.450; -712.000; -657.000
308.967;   -1.775; -215.000;  -95.000
309.105;  -43.050; -507.000; -396.000
309.242;  -22.000; -468.000; -367.000
309.379;   24.125; -577.000; -655.000
309.517;  -99.875; -936.000; -948.000
309.654; -108.125; -910.000; -734.000
309.791;  -87.800; -662.000; -580.000
309.928; -124.300; -977.000; -914.000
310.065;  128.275;  819.000;  697.000
310.203;  -82.775; -825.000; -850.000
310.340;  -50.875; -465.000; -321.000
310.477;  -92.600; -412.000; -516.000
310.614;  -75.050; -383.000; -473.000
310.751;  -83.375; -427.000; -518.000
310.889;  -31.100;    1.000;   11.000
311.026; -142.600;-1161.000; -939.000
311.163;  -47.225; -386.000; -380.000
311.300; -104.200; -512.000; -479.000
311.437;  -68.575; -658.000; -619.000
311.574; -145.975;-1226.000; -985.000
311.711;  -60.450; -595.000; -433.000
311.848;  -45.050; -380.000; -388.000
311.985;    7.625;  270.000;   93.000
312.122; -115.425; -932.000; -762.000
312.259; -123.525; -941.000; -994.000
312.396;  -89.875; -508.000; -551.000
312.533;  -88.800; -812.000; -790.000
312.670; -137.650;-1070.000; -898.000
312.807;  -34.750; -352.000; -367.000
312.944;  -95.350; -513.000; -611.000
313.081;  -44.925; -150.000; -415.000
313.218;  -97.050;-1111.000; -867.000
313.355;  -21.550; -531.000; -449.000
313.492;  -14.650; -455.000; -292.000
313.629;  131.300;  815.000;  735.000
313.766; -158.175;-1176.000;-1008.000
313.902;  -15.275; -186.000;   21.000
314.039;  -48.825; -372.000; -289.000
314.176;   31.875;  286.000;  192.000
314.313;  -80.775; -569.000; -473.000
314.450;  -90.100; -788.000; -684.000
314.587;  -64.775; -468.000; -480.000
314.723;   -8.025;  -78.000;  130.000
314.860;   25.700;  318.000;  332.000
314.997;   16.675;  223.000;  142.000
315.134;  -43.400; -385.000; -368.000
315.270;  -39.200; -480.000; -496.000
315.407; -121.525;-1094.000; -967.000
315.544;  -49.900; -657.000; -538.000
315.681;  -73.950; -681.000; -565.000
315.817;   39.700; -133.000; -176.000
315.954;   34.225; -613.000; -392.000
316.091; -114.300;-1045.000;-1023.000
316.227;  -41.825;  -71.000; -179.000
316.364;   -5.375;   23.000;    6.000
316.500;  -52.600; -113.000; -300.000
316.637;  -35.425; -181.000; -302.000
316.774;  -93.950; -625.000; -358.000
316.910; -101.100; -598.000; -629.000
317.047;  -73.300; -487.000; -351.000
317.183;  -65.675; -435.000; -566.000
317.320;   16.325; -367.000; -321.000
317.456;  -43.000; -733.000; -805.000
317.593;  -91.425; -598.000; -641.000
317.729;    1.025;  168.000;  -67.000
317.866; -197.025;-1434.000;-1285.000
318.002;  -97.725; -708.000; -948.000
318.139; -119.200; -883.000; -867.000
318.275; -116.225;-1003.000; -738.000
318.412;  -86.525; -517.000; -336.000
318.548;  -90.125; -751.000; -720.000
318.685; -105.175; -985.000; -888.000
318.821;  -91.300; -762.000; -735.000
318.957;  -40.550;   34.000;  -23.000
319.094;   28.275;  297.000;  154.000
319.230; -105.350; -756.000; -742.000
319.367;  -11.025; -471.000; -520.000
319.503;  -22.675; -538.000; -436.000
319.639; -100.375; -877.000; -793.000
319.775; -104.700; -750.000; -685.000
319.912;  -66.375; -424.000; -519.000
320.048; -100.400;-1184.000;-1184.000
320.184;   75.400;   59.000;   70.000
320.321;  -55.050; -497.000; -467.000
320.457;   65.625;  475.000;  662.000
320.593;  -73.975; -375.000; -382.000
320.729;  -97.325; -732.000; -734.000
320.866;  -66.500; -577.000; -635.000
321.002; -107.825; -759.000; -809.000
321.138;  -37.300; -135.000; -211.000
321.274;    9.675; -148.000; -115.000
321.410;  -56.075; -585.000; -353.000
321.546; -103.200;-1011.000; -911.000
321.683;   17.475;  400.000;  185.000
321.819;  -14.050;  -48.000; -117.000
321.955; -128.950; -743.000; -722.000
322.091;  -78.625; -585.000; -540.000
322.227;  -41.725; -382.000; -202.000
322.363;  -42.150; -320.000; -215.000
322.499;  -63.475; -343.000; -331.000
322.635;   82.600;  636.000;  443.000
322.771;  -31.900; -139.000;   12.000
322.907;   41.525;  129.000;  327.000
323.043;  -50.900; -115.000; -206.000
323.179;  -59.875; -394.000; -363.000
323.315;  -57.700; -401.000; -371.000
323.451;   13.450; -328.000; -236.000
323.587;   36.750;  -60.000;  -77.000
323.723;  -67.250; -682.000; -601.000
323.859;  -23.200; -258.000;  -76.000
323.995;  -67.825; -467.000; -409.000
324.131; -138.150; -967.000; -892.000
324.267;  -42.450; -254.000; -276.000
324.402; -144.625; -960.000; -983.000
324.538;  -32.275; -279.000; -104.000
324.674;  -14.875;  164.000;   77.000
324.810;   44.750;  226.000;  308.000
324.946;  -55.725; -810.000; -658.000
325.082;  -84.275; -568.000; -475.000
325.217;  -21.750;  -62.000;   16.000
325.353;  -99.075; -764.000; -659.000
325.489; -105.825; -540.000; -506.000
325.625;  -77.400; -579.000; -525.000
325.760;   78.925;  517.000;  376.000
325.896;    3.275; -515.000; -702.000
326.032;  -55.975; -403.000; -352.000
326.168;  -68.600; -462.000; -369.000
326.303;  -89.400; -352.000; -461.000
326.439;  -24.975; -336.000; -276.000
326.575;  -24.350; -190.000;  -29.000
326.710;  -22.025; -156.000;  -30.000
326.846;  -27.325;  146.000;  103.000
326.982;  -87.800; -530.000; -548.000
327.117;  -67.825; -481.000; -442.000
327.253;  -70.375; -745.000; -742.000
327.388; -175.975;-1137.000;-1153.000
327.524;  -83.700; -811.000; -578.000
327.659;  -48.950;  -58.000;  -22.000
327.795;  -28.700;   69.000;   45.000
327.931;  -83.375; -723.000; -499.000
328.066;  -35.025; -417.000; -276.000
328.202;  -39.075;   12.000; -129.000
328.337;   77.675;  957.000;  713.000
328.473;   28.625;  -12.000;  -74.000
328.608;  -17.275; -256.000; -267.000
328.743; -116.075; -799.000; -664.000
328.879;    1.625;  214.000;  114.000
329.014;  -38.300; -102.000; -122.000
329.150;  -85.500; -358.000; -483.000
329.285;  -93.050; -465.000; -466.000
329.421;  -51.425; -548.000; -246.000
329.556;  -36.475;  -36.000;   85.000
329.691;  -97.800; -633.000; -615.000
329.827;  -90.625; -626.000; -480.000
329.962;  -37.825;  131.000; -301.000
330.097;  -83.775; -673.000; -585.000
330.233;  -49.025; -410.000; -223.000
330.368; -139.800; -839.000; -628.000
330.503;  -15.450;    3.000;   98.000
330.638;  -36.700;  -93.000; -125.000
330.774;  -86.100; -609.000; -530.000
330.909;  -61.450; -434.000; -244.000
331.044; -100.150; -714.000; -708.000
331.179; -184.450;-1217.000;-1109.000
331.315;  -12.075;   77.000;   20.000
331.450;   11.275;  157.000;  285.000
331.585;  -84.575; -805.000; -706.000
331.720;  -93.675; -510.000; -460.000
331.855;    0.925;  -35.000; -102.000
331.990;  406.750;   62.000;  138.000
332.126;  207.400; -110.000;   71.000
332.261;    1.200; -379.000; -265.000
332.396;   20.350; -135.000; -242.000
332.531;  -65.150;-1074.000;-1031.000
332.666;   96.075; -519.000; -363.000
332.801;  -99.825; -726.000; -807.000
332.936;  -29.125; -192.000; -122.000
333.071; -129.600; -870.000; -817.000
333.206;   -5.325;  307.000;  379.000
333.341;   12.900;  344.000;  418.000
333.476;  -87.600; -627.000; -623.000
333.611;  -56.200; -251.000; -173.000
333.746;  -45.325; -381.000; -464.000
333.881; -130.025; -973.000; -935.000
334.016; -131.325; -936.000; -917.000
334.151; -127.625; -746.000; -702.000
334.286;   14.700;  152.000;  186.000
334.421;  -25.400; -125.000; -178.000
334.556;  -87.500; -611.000; -567.000
334.690;  -89.275; -631.000; -577.000
334.825;   35.025;  381.000;   83.000
334.960;  -72.300; -285.000; -413.000
335.095;   -0.450;  135.000;  -91.000
335.230; -100.650; -722.000; -738.000
335.365; -128.425;-1084.000; -990.000
335.499; -137.725;-1108.000;-1037.000
335.634;    7.250;    9.000;  534.000
335.769;  -99.700; -755.000; -720.000
335.904;  -55.850; -603.000; -561.000
336.038;  -60.350; -735.000; -657.000
336.173; -109.775;-1206.000;-1194.000
336.308;   -2.600; -116.000; -189.000
336.443;   66.175; -544.000; -634.000
336.577;  -65.700; -936.000; -787.000
336.712;   66.300;   -4.000;  -12.000
336.847;  -37.350; -724.000; -607.000
336.981;   59.100; -272.000; -208.000
337.116;  282.125;  615.000;  501.000
337.250;  126.700; -434.000; -421.000
337.385;  456.300; -297.000; -208.000
337.520;  238.700; -632.000; -603.000
337.654;  -32.400; -215.000; -126.000
337.789; -124.250; -989.000; -933.000
337.923;  -43.325; -104.000; -205.000
338.058; -102.450; -673.000; -738.000
338.192;  -65.050; -611.000; -488.000
338.327;   -4.000;  -18.000; -155.000
338.461;  -81.400; -299.000; -469.000
338.596;  -88.125; -780.000; -638.000
338.730;  -83.100; -767.000; -803.000
338.865;  152.800;  -46.000; -140.000
338.999;    4.975; -846.000; -702.000
339.134;   -6.050; -634.000; -536.000
339.268;   29.825; -741.000; -603.000
339.403;  544.550; -740.000; -775.000
339.537;  252.800; -894.000; -820.000
339.671;  -96.175; -829.000; -813.000
339.806;  -40.700; -556.000; -512.000
339.940;   32.325; -261.000; -235.000
340.074; -106.650; -685.000; -510.000
340.209;  -46.025; -351.000; -230.000
340.343;  -99.975; -517.000; -573.000
340.477;  140.700;  998.000; 1036.000
340.612;    6.325;-1033.000; -900.000
340.746;  250.525; -199.000; -243.000
340.880; -111.250; -924.000; -785.000
341.014;  -27.675;  -45.000; -154.000
341.149; -129.525; -756.000; -718.000
341.283; -123.100; -839.000; -754.000
341.417; -139.375;-1124.000; -938.000
341.551;  -37.600; -768.000; -708.000
341.685;  -64.025; -633.000; -611.000
341.820;  -78.925; -562.000; -493.000
341.954;  -49.825; -218.000; -349.000
342.088; -142.125;-1102.000;-1019.000
342.222;   44.650;  565.000;  618.000
342.356;  -78.450; -395.000; -335.000
342.490; -127.725; -880.000; -841.000
342.624;  -60.725; -339.000; -242.000
342.758;  -52.325; -364.000; -312.000
342.892;  -96.300; -710.000; -585.000
343.026;  -52.150;  -58.000; -116.000
343.160;  -62.850; -426.000; -376.000
343.294;  -98.875; -474.000; -337.000
343.428;  -71.175; -488.000; -448.000
343.562;  -30.875; -172.000;  -23.000
343.696;  -66.825; -385.000; -314.000
343.830;  -54.775; -362.000; -356.000
343.964;  -31.325; -231.000; -168.000
344.098;  272.825;  199.000;   70.000
344.232;  230.275; -266.000; -127.000
344.366;   57.275; -567.000; -453.000
344.500;  -51.700; -665.000; -744.000
344.634;  -47.850; -324.000; -164.000
344.768;  -59.425; -531.000; -341.000
344.902;    2.950;  278.000;  256.000
345.035;  -75.725; -556.000; -496.000
345.169; -142.500; -933.000; -656.000
345.303;  -55.550; -308.000; -482.000
345.437; -109.825; -826.000; -717.000
345.571;  -70.800; -675.000; -594.000
345.704;  -66.550; -309.000; -532.000
345.838;  -27.800; -331.000; -284.000
345.972;  -74.200; -543.000; -495.000
346.106;  232.050; -179.000; -190.000
346.239;  461.200; -312.000; -243.000
346.373;  -23.150; -343.000; -302.000
346.507; -145.750; -950.000; -962.000
346.640;   27.125;  -30.000;   13.000
346.774; -111.675; -650.000; -797.000
346.908;  -24.525; -138.000;  -11.000
347.041; -108.025; -646.000; -593.000
347.175;   -2.625;  259.000;   27.000
347.309; -111.325; -698.000; -628.000
347.442; -117.900; -883.000; -732.000
347.576;  109.150;  670.000;  668.000
347.709;   35.275; -123.000;  -52.000
347.843; -134.575; -933.000; -825.000
347.976;   30.500;  235.000;  294.000
348.110; -197.250;-1268.000;-1186.000
348.243; -107.825; -679.000; -772.000
348.377;   -7.225;  -26.000;   60.000
348.510;   47.075;  403.000;  540.000
348.644;  -62.625;  -37.000; -159.000
348.777;   -8.750;  180.000;  191.000
348.911;  -62.475; -142.000; -112.000
349.044;   74.425;  471.000;  448.000
349.178;  -39.625;-1069.000;-1006.000
349.311;  116.175;  141.000;  255.000
349.444;   15.025; -927.000; -813.000
349.578;  -35.650; -347.000; -200.000
349.711; -145.400; -959.000; -862.000
349.845;  -73.550; -661.000; -591.000
349.978; -163.975;-1224.000;-1137.000
350.111;  -92.775; -546.000; -612.000
350.244; -111.775; -596.000; -700.000
350.378;  -51.750; -392.000; -393.000
350.511;  -81.150; -393.000; -426.000
350.644;  -96.775; -808.000; -806.000
350.778;   -9.850;  168.000;  104.000
350.911;  -13.275;  134.000;  140.000
351.044; -108.300; -685.000; -615.000
351.177;  -50.225; -321.000; -281.000
351.310;  -34.500;    3.000; -131.000
351.444; -114.350; -888.000; -788.000
351.577;   38.525;  140.000;   90.000
351.710;   70.800;  593.000;  417.000
351.843;  -50.625; -165.000;  -77.000
351.976;  -13.325;  149.000;  -79.000
352.109; -112.150; -621.000; -612.000
352.242;  -41.725; -464.000; -419.000
352.376;  -89.125; -580.000; -636.000
352.509;    3.950; -437.000; -356.000
352.642; -113.400; -654.000; -604.000
352.775;    1.600; -141.000;  -98.000
352.908; -135.200; -933.000; -904.000
353.041; -109.550; -814.000; -824.000
353.174;  -78.850; -551.000; -424.000
353.307;  -87.350; -753.000; -764.000
353.440;   53.250;  541.000;  453.000
353.573; -111.425; -957.000;-1008.000
353.706;  -61.325; -384.000; -558.000
353.839;  -41.400; -264.000; -220.000
353.971; -103.500; -657.000; -512.000
354.104; -110.050; -896.000; -835.000
354.237;  -92.750; -627.000; -662.000
354.370; -104.325; -846.000; -879.000
354.503; -176.225;-1231.000;-1308.000
354.636;  -30.175; -529.000; -348.000
354.769; -124.950; -937.000; -860.000
354.902;  -34.925; -230.000; -139.000
355.034;  -28.775; -164.000; -220.000
355.167;  -12.625; -262.000; -162.000
355.300;  -99.225;-1061.000; -880.000
355.433; 1436.725;  -71.000;  -14.000
355.565; 2194.850; -402.000; -384.000
355.698;  596.250; -356.000; -296.000
355.831;  -21.075; -882.000; -801.000
355.964;   17.525; -285.000; -170.000
356.096;  -79.225; -856.000; -843.000
356.229;   -6.525; -523.000; -530.000
356.362;  501.975; -373.000; -266.000
356.494;  900.850; -229.000; -162.000
356.627;  327.600;  269.000;  377.000
356.760;  865.725;  120.000;   53.000
356.892; 1486.700; -286.000; -601.000
357.025;  324.050;  403.000;  389.000
357.157;  201.575; -167.000; -179.000
357.290; 1237.750; -856.000; -713.000
357.423;  364.850; -667.000; -556.000
357.555;   97.850; -217.000; -228.000
357.688;  116.450; -483.000; -364.000
357.820;  148.525; -870.000; -877.000
357.953; 1465.775; -563.000; -589.000
358.085;  216.750; -632.000; -612.000
358.218;   80.475;-1131.000; -932.000
358.350;   26.875;  -58.000;  312.000
358.483; -152.550;-1300.000;-1187.000
358.615; -129.900;-1182.000;-1078.000
358.747; -157.275;-1187.000;-1058.000
358.880;  -59.700; -810.000; -744.000
359.012;  -32.450; -376.000; -202.000
359.145;  -87.875; -480.000; -511.000
359.277;  -60.475; -962.000; -913.000
359.409; 1222.200;  536.000;  231.000
359.542;  263.150; -738.000; -688.000
359.674;   15.475;   46.000;   13.000
359.806;  -86.475; -565.000; -438.000
359.939;  -40.925; -617.000; -516.000
360.071;   21.475; -583.000; -579.000
360.203;  -30.525; -411.000; -364.000
360.335;   16.175;  164.000;  -16.000
360.468;   80.100; -249.000; -307.000
360.600; 1316.875; -547.000; -454.000
360.732; 4243.200; -546.000; -423.000
360.864;  622.400;-1216.000;-1044.000
360.996;   79.125; -516.000; -554.000
361.129;  -57.075; -389.000; -598.000
361.261;   -4.725;  110.000; -113.000
361.393;  -66.925; -252.000; -214.000
361.525;  -15.900;   94.000;  244.000
361.657; -116.825; -821.000; -703.000
361.789;  -31.025; -139.000; -155.000
361.921;  -53.675; -642.000; -593.000
362.053;   77.275;  524.000;  541.000
362.185;   -6.800;  288.000;   72.000
362.318; -103.475; -709.000; -705.000
362.450;   19.350;  294.000;  444.000
362.582;  -79.275; -913.000; -870.000
362.714;  -69.550; -353.000; -332.000
362.846;  -90.550; -606.000; -490.000
362.978; -145.475; -941.000; -811.000
363.109;  -26.775; -161.000; -260.000
363.241;  134.225; -739.000; -749.000
363.373;  603.000; -649.000; -564.000
363.505; 1048.575; -186.000;  -91.000
363.637;  216.850; -787.000; -601.000
363.769; -135.375;-1067.000;-1080.000
363.901;  -85.375; -596.000; -654.000
364.033; -172.150;-1103.000;-1062.000
364.165;  -37.100; -283.000; -283.000
364.296;   97.775; -316.000; -177.000
364.428;  193.150;-1344.000;-1220.000
364.560;  -62.075; -679.000; -661.000
364.692;  -86.575; -738.000; -835.000
364.824;  -19.050; -588.000; -456.000
364.955;  503.075; -402.000; -564.000
365.087; 1723.300;-1097.000; -852.000
365.219;   99.875; -686.000; -816.000
365.351;  -87.150; -526.000; -572.000
365.482;   36.350;  300.000;  240.000
365.614;  -83.600; -402.000; -314.000
365.746; -109.375; -729.000; -752.000
365.877;  -88.175; -706.000; -672.000
366.009;  413.150;  -35.000;  -62.000
366.141;  -33.250;-1249.000;-1134.000
366.272; -101.750; -803.000; -719.000
366.404; -120.225;-1005.000; -874.000
366.535;  -17.500; -139.000;  -12.000
366.667; -129.500; -644.000; -649.000
366.799;   18.425;  353.000;  203.000
366.930; -143.225; -862.000; -996.000
367.062;  183.350; -639.000; -613.000
367.193;  347.725; -872.000; -842.000
367.325;  -39.275; -580.000; -684.000
367.456;   -7.000; -246.000;   31.000
367.588;  265.925; -371.000; -318.000
367.719;   45.025;  -44.000;  -45.000
367.851;  -48.775; -222.000; -241.000
367.982; -121.400; -875.000; -732.000
368.113;  -28.200; -475.000; -358.000
368.245; -156.400; -960.000; -841.000
368.376;  -52.775; -254.000; -302.000
368.508;  -65.250; -188.000; -263.000
368.639; -166.950;-1166.000;-1034.000
368.770; -103.800; -670.000; -589.000
368.902; -121.125; -836.000; -926.000
369.033; -125.350; -906.000; -855.000
369.164;  -36.250; -720.000; -653.000
369.296; -104.300; -452.000; -601.000
369.427;  -43.725; -209.000; -144.000
369.558;  -78.225; -593.000; -377.000
369.689;  -97.475; -721.000; -569.000
369.821; -144.900; -951.000; -845.000
369.952;  -27.775;   42.000; -108.000
370.083;  -75.275; -229.000; -108.000
370.214; -109.625; -735.000; -650.000
370.345;  -25.825;   65.000;   81.000
370.477; -126.525; -810.000; -790.000
370.608;    7.775; -328.000; -264.000
370.739; -133.900;-1233.000;-1292.000
370.870; -122.600;-1102.000; -923.000
371.001;  -33.050; -378.000; -467.000
371.132; -106.550; -754.000; -735.000
371.263;  -48.850;  -42.000; -148.000
371.394; -160.725; -841.000; -748.000
371.525;   20.175;  345.000;  225.000
371.657; -123.400; -808.000; -670.000
371.788;   19.500;  103.000;  199.000
371.919;   22.325; -384.000; -304.000
372.050; 1212.725;  -91.000; -156.000
372.181;  351.400; -188.000; -294.000
372.311;   90.950;   42.000; -127.000
372.442;  -63.450; -457.000; -451.000
372.573;  -53.500; -444.000; -340.000
372.704; -162.200;-1008.000; -980.000
372.835;  -43.125; -228.000; -289.000
372.966;  -94.125; -646.000; -554.000
373.097; -100.950; -575.000; -711.000
373.228; -106.025; -717.000; -542.000
373.359;  -51.275; -824.000; -536.000
373.490;  165.075; -881.000; -727.000
373.620;  219.800;-1001.000; -803.000
373.751;  477.450; -332.000; -396.000
373.882;  196.200; -663.000; -733.000
374.013;  -28.375; -449.000; -262.000
374.143;  -86.925; -581.000; -659.000
374.274; -138.100; -987.000; -908.000
374.405;   64.200; -388.000; -276.000
374.536;   92.825; -526.000; -387.000
374.666;  257.450; -759.000; -807.000
374.797;  -24.975; -817.000; -868.000
374.928;  161.700; -710.000; -560.000
375.058;  191.125; -535.000; -500.000
375.189;    7.350;  -59.000;  -93.000
375.320; -149.350; -928.000;-1034.000
375.450;  -52.025; -625.000; -616.000
375.581;  -45.125; -526.000; -436.000
375.712;  -43.400; -574.000; -250.000
375.842;    3.000; -438.000; -415.000
375.973;  -20.325; -554.000; -513.000
376.103; -115.825; -665.000; -648.000
376.234;  -97.925; -531.000; -552.000
376.364; -141.450; -944.000; -867.000
376.495;  135.200;  925.000;  529.000
376.625;  -87.750; -472.000; -485.000
376.756;  -70.300; -709.000; -678.000
376.886; -142.450;-1178.000;-1026.000
377.017;  134.900;-1048.000;-1061.000
377.147;  627.975; -786.000; -782.000
377.278;   77.050;  174.000;  228.000
377.408; -138.825; -801.000; -815.000
377.538; -102.925; -707.000; -693.000
377.669;  -96.900; -537.000; -613.000
377.799; -120.100; -645.000; -635.000
377.929; -106.000; -610.000; -428.000
378.060; -125.150; -781.000; -847.000
378.190;  -50.225; -726.000; -531.000
378.320;  -40.375; -401.000; -406.000
378.451;  -46.050; -131.000;  -22.000
378.581;  -28.625;  -67.000; -110.000
378.711;   75.500; 1035.000;  866.000
378.841;  -81.375; -533.000; -675.000
378.972; -116.850; -871.000; -751.000
379.102;  -74.600; -652.000; -579.000
379.232;  -64.500; -126.000;  -73.000
379.362; -132.800;-1001.000; -885.000
379.492;  -79.050; -373.000; -424.000
379.623;   24.325;    0.000;  111.000
379.753; -134.875;-1107.000; -974.000
379.883;   76.475;   59.000;  156.000
380.013; -111.150;-1081.000;-1017.000
380.143; -134.625;-1097.000;-1056.000
380.273; -125.950; -985.000; -861.000
380.403;   -1.725; -344.000; -257.000
380.533;  -61.575; -651.000; -664.000
380.663;   22.000;  173.000;  128.000
380.793; -159.150;-1027.000;-1074.000
380.923;  -39.575; -103.000;  -34.000
381.053; -118.300; -613.000; -623.000
381.183;  -53.850; -106.000; -248.000
381.313;  -65.425; -656.000; -470.000
381.443;  -58.475; -692.000; -473.000
381.573;  -51.950; -402.000; -409.000
381.703; -104.650;-1249.000;-1095.000
381.833; -191.200;-1454.000;-1336.000
381.963;   16.075; -134.000;  -87.000
382.093;  377.200; -925.000; -909.000
382.223;   88.825; -713.000; -602.000
382.353; -101.875; -801.000; -608.000
382.482;  -13.350;-1091.000; -964.000
382.612;  149.800; -872.000; -644.000
382.742;   68.000; -695.000; -622.000
382.872;  -32.450; -565.000; -551.000
383.002;   25.375;  347.000; -132.000
383.131;  -29.350; -226.000; -160.000
383.261;  -34.300; -706.000; -768.000
383.391;  311.275; -552.000; -377.000
383.521; 5077.775;  451.000;  263.000
383.650; 1512.500; -947.000; -904.000
383.780;   37.825; -783.000; -656.000
383.910;   95.225;  880.000;  802.000
384.039;  -99.975; -794.000; -656.000
384.169; -103.775;-1205.000;-1017.000
384.299;  -93.550; -650.000; -662.000
384.428; -118.775; -764.000; -680.000
384.558;  -49.850; -308.000; -275.000
384.687;  -89.450; -414.000; -334.000
384.817;  -18.200;   75.000;   -2.000
384.947;  -50.675; -234.000; -141.000
385.076;  141.950;  982.000;  912.000
385.206;   42.275;  369.000;  480.000
385.335;  -73.575; -549.000; -417.000
385.465; -125.100; -655.000; -663.000
385.594;    3.600;  -53.000;  -44.000
385.724;   27.225; -868.000; -838.000
385.853;  -18.100; -296.000; -270.000
385.982;  319.075; -743.000; -787.000
386.112;  602.225;-1052.000; -871.000
386.241;   -3.225; -307.000; -312.000
386.371;  -21.250; -174.000;  -87.000
386.500;  -85.625; -825.000; -789.000
386.629;  -19.825; -874.000; -817.000
386.759;   67.125;  -43.000;   68.000
386.888;  -30.350; -170.000; -250.000
387.017; -107.925; -648.000; -620.000
387.147; -114.350; -771.000; -798.000
387.276;  -74.025; -410.000; -397.000
387.405;  -55.300; -398.000; -342.000
387.535;  -86.825; -452.000; -361.000
387.664;  -79.750; -692.000; -620.000
387.793;  -24.150; -198.000; -113.000
387.922;  127.775;  255.000;  200.000
388.052;  -80.000; -576.000; -423.000
388.181;  -59.125; -342.000; -472.000
388.310; -112.625; -889.000; -710.000
388.439; -118.200; -749.000; -742.000
388.568;   23.425;  365.000;  244.000
388.697;  218.725; -756.000; -653.000
388.826;  -18.350; -768.000; -666.000
388.956;  -50.575; -285.000; -307.000
389.085;  -53.350; -347.000; -287.000
389.214; -117.300; -842.000; -872.000
389.343;  -89.275; -645.000; -413.000
389.472;  533.425;  126.000;  149.000
389.601;  607.450;   91.000;    0.000
389.730;  -35.200; -568.000; -687.000
389.859;    7.575;  226.000;   46.000
389.988;   13.350; -423.000; -408.000
390.117;   25.600; -168.000; -146.000
390.246;  -68.450; -331.000; -320.000
390.375;  -66.700; -673.000; -626.000
390.504;  -94.200; -703.000; -621.000
390.633; -134.725; -672.000; -726.000
390.761; -112.225; -732.000; -645.000
390.890;  -42.375;   -4.000; -130.000
391.019;  -73.450; -421.000; -441.000
391.148; -146.775; -826.000; -855.000
391.277;  -92.175; -576.000; -493.000
391.406; -134.725; -821.000; -805.000
391.534;    3.575;  574.000; -301.000
391.663; -119.525; -583.000; -645.000
391.792; -116.125; -673.000; -701.000
391.921;  -17.100;   -3.000;   15.000
392.050;  -21.975; -287.000; -228.000
392.178; -152.675;-1206.000;-1061.000
392.307;  -56.300; -758.000; -712.000
392.436;  -62.875; -427.000; -641.000
392.564;   -6.400;  166.000;   -6.000
392.693; -118.175; -860.000; -682.000
392.822;  -16.725; -529.000; -534.000
392.950;  -72.575; -880.000; -714.000
393.079;   49.050; -188.000; -328.000
393.208;  -75.525; -488.000; -511.000
393.336;  -32.125; -170.000; -145.000
393.465;  -65.900; -317.000; -199.000
393.593;    0.150;   62.000;   79.000
393.722; -165.400;-1121.000; -916.000
393.850;  -33.000; -188.000;  -61.000
393.979; -143.125; -926.000; -805.000
394.107;  -61.475; -517.000; -537.000
394.236;  -59.150; -570.000; -507.000
394.364;   92.925;  383.000;  206.000
394.493;   49.025; -911.000; -767.000
394.621;  -22.125; -955.000; -916.000
394.750; 1116.700; -873.000; -923.000
394.878; 4340.925; -247.000; -149.000
395.007; 6381.775; -721.000; -807.000
395.135;  555.525; -790.000; -721.000
395.263;  -72.475;-1038.000;-1040.000
395.392;   -8.850;  -25.000; -107.000
395.520; -115.800; -818.000; -679.000
395.648; -127.525; -865.000; -915.000
395.777;  -91.050; -366.000; -405.000
395.905;  -81.200; -449.000; -564.000
396.033;  -28.775;  217.000;  172.000
396.162;   93.275; -399.000; -453.000
396.290;   83.275;  -17.000;   -2.000
396.418;  -50.450; -555.000; -514.000
396.546; -103.100; -571.000; -466.000
396.674; -132.025; -850.000; -878.000
396.803;  -32.200;  -72.000;  -23.000
396.931;  -38.400; -179.000; -199.000
397.059; -153.125;-1026.000; -989.000
397.187; -145.325;-1026.000; -975.000
397.315; -167.925; -884.000; -649.000
397.443; -103.750; -592.000; -443.000
397.572;  -99.550; -578.000; -424.000
397.700;  -89.925; -607.000; -614.000
397.828;  -39.375;  120.000;  -90.000
397.956;  -41.350; -508.000; -478.000
398.084;  -41.825; -767.000; -626.000
398.212;    2.650;  137.000;  124.000
398.340;  -31.450;  -56.000;  159.000
398.468;  -58.525; -390.000; -169.000
398.596; -155.875; -993.000; -953.000
398.724; -141.275; -762.000; -767.000
398.852; -166.025;-1024.000; -976.000
398.980;  -92.600; -560.000; -560.000
399.108; -110.900; -982.000; -735.000
399.236;  -12.050;   13.000;    8.000
399.363;  -16.900;  222.000;  196.000
399.491;  -62.375; -404.000; -398.000
399.619; -134.625; -829.000; -800.000
399.747; -128.925; -859.000; -771.000
399.875;   31.675;  220.000;  234.000
400.003;  -71.800; -359.000; -284.000
400.130; -109.550; -421.000; -341.000
400.258;  -42.000;  -83.000;   38.000
400.386;  -73.750; -352.000; -168.000
400.514;  -93.275; -526.000; -587.000
400.641; -145.450; -928.000; -802.000
400.769; -152.525; -979.000; -888.000
400.897; -125.325; -838.000; -793.000
401.025;  -43.550; -166.000; -152.000
401.152;  -18.625;  220.000;   38.000
401.280;  -95.425; -430.000; -429.000
401.408; -130.200; -712.000; -576.000
401.535; -117.800; -735.000; -758.000
401.663; -193.775;-1134.000;-1054.000
401.790;  -95.100; -514.000; -525.000
401.918;   30.500;  436.000;  405.000
402.046;  -28.250;  134.000;  122.000
402.173;  -56.675;  -18.000;    7.000
402.301;  -85.450; -519.000; -397.000
402.428;   20.700;  528.000;  383.000
402.556; -154.650;-1188.000; -913.000
402.683;  -58.675;  -20.000;   -1.000
402.811;  -19.300;  -37.000; -206.000
402.938;  -41.300;   20.000;   27.000
403.066;  -12.800; -574.000; -558.000
403.193;   82.375;  299.000;  239.000
403.321;   46.750; -396.000; -574.000
403.448;   93.975;   83.000;   27.000
403.575;   24.850;  -90.000;  -46.000
403.703; -111.575; -732.000; -557.000
403.830;  -50.475; -531.000; -496.000
403.957; -146.975;-1117.000;-1023.000
404.085;    5.325;  -61.000; -172.000
404.212;   83.925;  -50.000;   63.000
404.339;  426.700; -566.000; -306.000
404.467; 8821.275; -612.000; -524.000
404.594; 5386.025; -287.000; -227.000
404.721;  911.025; -869.000; -764.000
404.848;   81.950; -113.000; -202.000
404.976; -113.050; -856.000; -783.000
405.103;  -11.875;  -14.000;  -82.000
405.230;   -3.675;  190.000;  226.000
405.357;   44.350;  117.000;   44.000
405.484;  400.000;  -49.000;    5.000
405.612;  101.925; -548.000; -563.000
405.739;  -68.675; -488.000; -243.000
405.866;   68.300;  669.000;  385.000
405.993;  -82.450; -398.000; -102.000
406.120; -136.425; -801.000; -887.000
406.247;  -96.550; -323.000; -342.000
406.374;   88.500;  540.000;  629.000
406.501;  -84.000; -632.000; -702.000
406.628; -104.125; -621.000; -589.000
406.755; -137.050; -803.000; -620.000
406.882;  -66.025; -228.000; -277.000
407.009; -121.175; -719.000; -628.000
407.136;  -52.650; -480.000; -401.000
407.263;  -76.225; -939.000; -829.000
407.390;  -94.425; -692.000; -614.000
407.517; -180.400;-1139.000;-1187.000
407.644;  -70.950; -332.000; -256.000
407.771;  -97.950; -249.000; -287.000
407.898;   -6.825;  168.000;  328.000
408.025;  -91.000; -421.000; -313.000
408.151;  -35.025;   82.000;  153.000
408.278;  -75.350; -267.000; -216.000
408.405; -143.275; -931.000; -899.000
408.532; -104.050; -549.000; -542.000
408.659; -130.325; -677.000; -648.000
408.785; -205.550;-1298.000;-1170.000
408.912;  -70.775; -412.000; -296.000
409.039; -116.675; -610.000; -686.000
409.166; -110.925; -591.000; -555.000
409.292; -119.650; -571.000; -534.000
409.419; -125.850; -665.000; -649.000
409.546;  -87.075; -431.000; -192.000
409.672; -112.000; -713.000; -545.000
409.799;  -46.675;  -36.000;   34.000
409.926;  -52.975; -180.000; -179.000
410.052; -197.825;-1127.000;-1091.000
410.179;  -87.575; -368.000; -392.000
410.305; -102.275; -375.000; -493.000
410.432;  -43.950; -220.000; -333.000
410.558; -105.350; -305.000; -380.000
410.685; -119.450; -688.000; -431.000
410.812; -110.275; -409.000; -588.000
410.938; -142.350; -964.000; -808.000
411.065; -135.600; -671.000; -645.000
411.191;  -58.000; -189.000; -174.000
411.317; -139.850; -823.000; -742.000
411.444;  -72.350; -317.000; -246.000
411.570;  -77.450; -339.000; -294.000
411.697; -127.300; -758.000; -752.000
411.823; -186.925; -989.000; -999.000
411.949;  -46.250;  -56.000;   17.000
412.076; -119.450; -539.000; -519.000
412.202; -119.850; -758.000; -757.000
412.329; -135.325; -798.000; -752.000
412.455; -132.575; -821.000; -657.000
412.581;  -28.350;  -15.000;  172.000
412.707; -101.325; -540.000; -457.000
412.834;   -5.350;  156.000;  219.000
412.960; -104.875; -785.000; -784.000
413.086; -129.675; -743.000; -701.000
413.212;   94.800;  604.000;  578.000
413.339;  -96.900; -685.000; -701.000
413.465;  -73.350; -364.000; -310.000
413.591; -121.650; -757.000; -474.000
413.717;  -77.625; -358.000; -366.000
413.843; -141.375; -839.000; -861.000
413.969;  -55.900;  -47.000; -292.000
414.096; -108.925; -679.000; -679.000
414.222;   -7.575;  -33.000;   85.000
414.348;  -80.525; -652.000; -385.000
414.474;    1.725;   38.000;  -52.000
414.600;  -32.350; -126.000; -144.000
414.726;   -2.125;  -96.000;  -55.000
414.852;  -63.225; -365.000; -342.000
414.978;   24.600;  104.000;  -18.000
415.104;   40.100;   38.000;   80.000
415.230;   37.300; -329.000; -330.000
415.356;   48.275; -409.000; -514.000
415.482;  214.175;   13.000;  -35.000
415.608;  392.650; -247.000; -323.000
415.734; 1302.050;   67.000;   38.000
415.860;26874.325; -875.000; -767.000
415.986;21913.875; -685.000; -607.000
416.111; 2019.950; -798.000; -652.000
416.237;  446.100; -424.000; -571.000
416.363; 1659.975; -765.000; -733.000
416.489; 6632.750; -324.000; -251.000
416.615;  892.800; -707.000; -742.000
416.741;   48.725; -677.000; -784.000
416.866;  -65.725; -673.000; -736.000
416.992; -101.225; -801.000; -818.000
417.118;  -31.900;  -41.000;  -80.000
417.244;  -78.025; -798.000; -531.000
417.369;  -88.500; -801.000; -612.000
417.495;  -12.575; -325.000; -254.000
417.621; -103.975;-1015.000; -803.000
417.746;    2.825; -579.000; -572.000
417.872;   61.700; -254.000; -144.000
417.998;   97.050; -515.000; -530.000
418.123; 1531.650;-1073.000; -845.000
418.249; 8384.450; -512.000; -601.000
418.374; 1394.825; -916.000; -824.000
418.500;  216.550; -383.000; -482.000
418.626;  147.225;   70.000;  -59.000
418.751;  154.200; -549.000; -448.000
418.877;  292.175; -637.000; -643.000
419.002; 2533.100; -688.000; -560.000
419.128;19122.375; -930.000; -721.000
419.253; 5374.175; -967.000; -837.000
419.379;  722.675; -391.000; -338.000
419.504;  573.125;  325.000;  415.000
419.629;  814.350; -393.000; -212.000
419.755; 5290.200; -317.000; -254.000
419.880;34359.100;  -98.000;   67.000
420.006;17217.925; -280.000; -221.000
420.131;42647.350; -662.000; -775.000
420.256; 6819.550; -315.000; -316.000
420.382;  920.475; -665.000; -687.000
420.507;  164.500; -649.000; -778.000
420.632;   24.250; -337.000; -339.000
420.758;   29.750; -251.000; -425.000
420.883; -109.700; -876.000; -672.000
421.008; -107.375; -775.000; -619.000
421.133; -116.200; -509.000; -467.000
421.259;  -54.375; -325.000; -259.000
421.384; -130.650; -834.000; -693.000
421.509; -115.300;-1052.000; -862.000
421.634;  110.600; -936.000; -820.000
421.759;   71.250; -359.000; -327.000
421.885; -109.600; -717.000; -656.000
422.010; -108.175; -673.000; -542.000
422.135; -154.850; -695.000; -727.000
422.260;    4.775;  340.000;  280.000
422.385;  -43.400;   12.000;  -98.000
422.510;  -12.900;  151.000;  -26.000
422.635;  -29.100;  -87.000;  -43.000
422.760;  -22.300; -766.000; -791.000
422.885;    4.725;  -57.000;  -80.000
423.010;  -33.675; -112.000; -169.000
423.135; -101.925; -481.000; -561.000
423.260;  -53.925; -150.000; -245.000
423.385;   12.475;  476.000;  222.000
423.510;   -4.650;   71.000;  -22.000
423.635;    1.675;  133.000;   45.000
423.760;   46.150;  383.000;  328.000
423.885;   21.275;  336.000;  391.000
424.010;  -14.550;  -68.000;  -13.000
424.135;  -25.800;    5.000;  -33.000
424.259;  -79.925; -654.000; -457.000
424.384;  -57.350; -279.000; -272.000
424.509;  -31.575; -260.000; -186.000
424.634;  -88.325; -761.000; -623.000
424.759;  -36.500; -688.000; -544.000
424.883;  -10.175; -506.000; -527.000
425.008;  193.200; -502.000; -410.000
425.133; 2846.750; -679.000; -653.000
425.258; 1523.025; -517.000; -381.000
425.382;  502.700; -867.000; -774.000
425.507; 1124.225; -487.000; -543.000
425.632;  349.850; -802.000; -663.000
425.756;  677.950; -256.000; -146.000
425.881;10120.850; -831.000; -857.000
426.006;30925.775; -604.000; -355.000
426.130; 5056.025; -696.000; -508.000
426.255;  678.650; -611.000; -491.000
426.379;  281.575; -189.000; -577.000
426.504;  495.750;  660.000;  544.000
426.629; 5516.550; -519.000; -466.000
426.753; 4271.700;   64.000;  -46.000
426.878;  529.825; -252.000; -288.000
427.002;  301.625; -651.000; -668.000
427.127; 2045.475;  -35.000; -158.000
427.251;17035.450;  372.000;  401.000
427.375; 5497.725; -191.000; -173.000
427.500; 1286.025; -616.000; -610.000
427.624;  372.625; -234.000; -400.000
427.749;   67.150; -216.000; -225.000
427.873;  -47.625; -499.000; -412.000
427.997;  -39.525; -222.000; -230.000
428.122;   47.075;  795.000;  703.000
428.246;   25.250;  433.000;  434.000
428.371; -155.950; -869.000; -773.000
428.495; -117.975; -624.000; -646.000
428.619;  -43.900; -186.000; -117.000
428.743;   -2.350;   65.000;  132.000
428.868;  -89.500; -732.000; -643.000
428.992;  443.825; -219.000; -326.000
429.116;  150.475; -329.000; -357.000
429.240;   86.650;  419.000;  426.000
429.365;  -62.225; -454.000; -574.000
429.489;  -65.100; -638.000; -647.000
429.613;   20.450; -236.000; -177.000
429.737;   64.800; -563.000; -432.000
429.861;  367.700; -247.000; -133.000
429.985; 7796.650; -425.000; -305.000
430.109; 9795.825; -770.000; -908.000
430.234; 1176.275;   76.000;  -50.000
430.358;  139.550; -250.000; -160.000
430.482;  -48.500; -672.000; -564.000
430.606;  -84.875; -655.000; -375.000
430.730;  -55.625; -437.000; -388.000
430.854;  -92.700; -909.000; -835.000
430.978; -109.550; -795.000; -764.000
431.102; -102.450; -499.000; -422.000
431.226; -147.525; -874.000; -815.000
431.350;    2.075;  345.000;  422.000
431.474;  -88.175; -661.000; -373.000
431.597; -167.200;-1060.000; -848.000
431.721;  -77.800; -276.000; -267.000
431.845; -140.400; -704.000; -472.000
431.969;  -77.675; -304.000; -349.000
432.093;  -95.625; -395.000; -317.000
432.217;  -17.900;   32.000;   82.000
432.341;  -95.275; -523.000; -518.000
432.464;  -13.900;   96.000;   40.000
432.588;  -48.725; -401.000; -329.000
432.712;    9.525;  -52.000;  -52.000
432.836;   48.050;  213.000;  263.000
432.959;   17.750; -372.000; -311.000
433.083;  144.075;   11.000;    2.000
433.207;  556.850;  285.000;  930.000
433.330; 7458.425; -391.000; -200.000
433.454;10375.700; -654.000; -638.000
433.578; 5684.825;  583.000;  278.000
433.701; 1212.300; -623.000; -675.000
433.825;  144.850; -292.000; -299.000
433.949;   33.200;   28.000;  -72.000
434.072;  -22.600; -410.000; -323.000
434.196;  -27.000; -309.000; -117.000
434.319; 3512.050;25482.000;25124.000
434.443;  848.850; -656.000; -603.000
434.566; 4025.100;  281.000;   62.000
434.690;  863.900; -637.000; -383.000
434.813;  130.400; -251.000; -173.000
434.937;  -63.075; -569.000; -696.000
435.060;  -83.275; -423.000; -332.000
435.184;  -19.550; -492.000; -217.000
435.307;  -11.800;  159.000;  102.000
435.431;  -33.825;  -40.000;   24.000
435.554;  -94.075; -399.000; -240.000
435.677;  -88.200; -350.000; -258.000
435.801;  -64.425;  -25.000;   49.000
435.924;  -40.125;    1.000;  -67.000
436.048; -162.150;-1019.000; -732.000
436.171;  -75.100; -240.000;  -66.000
436.294;   -3.500; -248.000; -229.000
436.417;  215.700; -963.000; -849.000
436.541;  -37.825; -814.000; -840.000
436.664;  -62.650; -242.000; -316.000
436.787;  -46.075;   13.000;  113.000
436.910; -127.275; -792.000; -422.000
437.034;  -22.325;  142.000;  143.000
437.157;   -2.375;  -11.000;    0.000
437.280;  -87.625; -392.000; -292.000
437.403; -145.375; -982.000; -869.000
437.526;  -32.275; -903.000; -865.000
437.649;  390.800; -505.000; -332.000
437.772;  -39.800; -692.000; -540.000
437.896;   57.225;  700.000;  544.000
438.019; -120.800; -758.000; -503.000
438.142; -109.325; -596.000; -506.000
438.265; -119.050; -639.000; -670.000
438.388;    7.625; -520.000; -410.000
438.511;  -72.675; -597.000; -394.000
438.634;  -80.025; -247.000; -125.000
438.757; -152.275; -693.000; -619.000
438.880;  -47.500;  -34.000;  -57.000
439.003; -112.750; -417.000; -437.000
439.126;  -76.375; -287.000; -167.000
439.248;  -75.800;  -98.000; -139.000
439.371;  -56.925;    9.000;  -53.000
439.494;    0.300;  510.000;  439.000
439.617;  -64.375;   65.000;  -88.000
439.740; -185.400; -968.000; -816.000
439.863; -151.575; -755.000; -595.000
439.986; -125.925; -476.000; -431.000
440.108;  -62.125; -161.000; -112.000
440.231; -168.475; -950.000; -836.000
440.354;  -66.600;  -64.000; -150.000
440.477; -110.300; -566.000; -542.000
440.599;  -93.275; -200.000; -225.000
440.722; -138.225; -709.000; -586.000
440.845;   38.150;  751.000;  928.000
440.968; -108.050; -415.000; -311.000
441.090;  -68.200; -199.000;  -33.000
441.213; -171.175;-1021.000; -825.000
441.336;  -63.250; -159.000;   -5.000
441.458; -109.825; -549.000; -396.000
441.581; -131.950; -628.000; -629.000
441.703;  -88.250; -152.000;   13.000
441.826; -136.725; -557.000; -400.000
441.948;  -58.875;   56.000;   51.000
442.071;   17.100;  555.000;  424.000
442.193; -129.050; -531.000; -485.000
442.316;   -1.800;  152.000;   97.000
442.438;   74.350; -233.000;  -10.000
442.561;   59.450;  272.000;  262.000
442.683;   19.075; -809.000; -522.000
442.806;  207.950;   -8.000;   74.000
442.928; -118.125; -859.000; -604.000
443.051;  -89.700; -577.000; -373.000
443.173;  -95.150; -341.000; -339.000
443.295;  -92.225; -263.000; -371.000
443.418;  -82.300; -321.000;  -29.000
443.540;  -41.275; -106.000;   -4.000
443.662; -146.200; -563.000; -465.000
443.785;  -35.850;  335.000;  199.000
443.907; -112.200; -362.000; -208.000
444.029; -127.025; -767.000; -494.000
444.152; -148.950; -644.000; -554.000
444.274;  -49.850;  -18.000;  -24.000
444.396; -127.425; -461.000; -221.000
444.518; -128.625; -691.000; -454.000
444.640; -103.950; -268.000; -111.000
444.763;  -25.575;  388.000;  249.000
444.885; -127.500; -432.000; -392.000
445.007;  -28.400;   35.000;   86.000
445.129; -133.425; -610.000; -515.000
445.251; -118.175; -372.000; -439.000
445.373; -144.350; -537.000; -386.000
445.495;  -17.375;  242.000;  350.000
445.617;   19.700;  853.000;  753.000
445.739;  -87.650; -215.000;  -97.000
445.861;  -78.375; -245.000; -112.000
445.984;  -85.175; -267.000; -101.000
446.105;  -38.525; -418.000; -251.000
446.227;   84.750; -176.000;  -19.000
446.349;  -95.100; -358.000; -249.000
446.471; -124.275; -615.000; -448.000
446.593; -106.100; -316.000;   19.000
446.715;  -59.050;  -67.000;   41.000
446.837;   50.625;  697.000;  832.000
446.959; -120.225; -457.000; -478.000
447.081; -147.325; -628.000; -518.000
447.203;   44.250;  862.000;  834.000
447.325;  -90.475; -270.000;   42.000
447.446;   -8.475;  286.000;  530.000
447.568; -171.850; -921.000; -803.000
447.690;  -93.575; -236.000; -245.000
447.812; -140.975; -798.000; -519.000
447.933;  -26.400;  155.000;  127.000
448.055;  -88.075; -306.000; -261.000
448.177;   20.625;   31.000;   79.000
448.299; -109.650; -935.000; -727.000
448.420;  -35.225;  -25.000;  159.000
448.542;  -70.525;   -3.000;   33.000
448.664;  -22.850;  109.000;  322.000
448.785;  -55.850;  265.000;   83.000
448.907; -108.750; -614.000; -353.000
449.028; -129.800; -771.000; -471.000
449.150;   42.375;  492.000;  589.000
449.272; -180.075;-1044.000; -913.000
449.393;   22.625;  612.000;  694.000
449.515; -141.825; -634.000; -581.000
449.636;  -65.300; -264.000; -155.000
449.758;   33.100;  763.000;  622.000
449.879;  -92.250; -498.000; -396.000
450.001;  -89.125; -149.000;  -49.000
450.122;  -23.825;  -95.000;  162.000
450.244;  -24.225;   37.000;  364.000
450.365;  -70.625; -495.000; -301.000
450.486;  -26.675;   80.000;  268.000
450.608;   46.425;  393.000;  326.000
450.729;   90.625;  578.000;  645.000
450.850;   92.325; -574.000; -466.000
450.972; 1190.975; -552.000; -389.000
451.093; 7824.275;  190.000;  588.000
451.214; 4000.725; -516.000; -337.000
451.336;  680.325;  773.000;  579.000
451.457;   99.000;  264.000;  393.000
451.578;  -26.800; -118.000;  -74.000
451.699; -116.325; -546.000; -540.000
451.821;  -67.000; -284.000;  -50.000
451.942;    4.200;  278.000;  285.000
452.063;   39.800;  228.000;  419.000
452.184;  790.025;  -54.000;  -49.000
452.305; 1686.100;  103.000;  170.000
452.427;  311.950; -549.000; -301.000
452.548;    3.900;   23.000;   79.000
452.669;  -87.400; -257.000;  -89.000
452.790;  -57.700;    3.000;  -18.000
452.911;  -21.800;  195.000;  259.000
453.032;  -78.875; -289.000;  -60.000
453.153;  -69.075;  -29.000;   81.000
453.274;   57.925;  737.000;  868.000
453.395;  -68.875;  -51.000;  175.000
453.516;   77.625; 1317.000; 1388.000
453.637;  -89.175; -205.000; -150.000
453.758;  -66.425;   15.000;   69.000
453.879; -130.625; -462.000; -250.000
454.000;   66.525; 1086.000;  948.000
454.121; -134.850; -554.000; -326.000
454.242; -121.550; -599.000; -383.000
454.362;  -67.925;  -99.000;  114.000
454.483;  -19.075; -309.000; -229.000
454.604;   39.375;  512.000;  580.000
454.725; -134.450; -627.000; -555.000
454.846; -116.400; -474.000; -406.000
454.967;  -24.875;  230.000;  539.000
455.087;  -52.325;  179.000;  153.000
455.208;   23.400;  554.000;  856.000
455.329;  -68.275;  -22.000;   82.000
455.450;   56.975;  473.000;  633.000
455.570;  -73.475; -234.000; -211.000
455.691;  -43.000;  201.000;  407.000
455.812; -104.050; -270.000;  -92.000
455.932;  -61.500;  107.000;  -97.000
456.053;  -82.375;   36.000;   24.000
456.173; -115.625; -433.000; -355.000
456.294; -131.125; -476.000; -303.000
456.415;  -78.625;  -73.000;   70.000
456.535;  -41.425;  297.000;  273.000
456.656;  -58.875;  132.000;  240.000
456.776;  -83.100;    3.000;  298.000
456.897;    6.550;  308.000;  513.000
457.017;  -81.325; -153.000;   -3.000
457.138; -106.250; -402.000; -249.000
457.258;  -53.600;  263.000;  224.000
457.379;  -14.550;  509.000;  521.000
457.499;  -41.650;  443.000;  432.000
457.620; -116.575; -407.000; -231.000
457.740;  -99.550; -132.000;  -11.000
457.860;  -44.975;   87.000;   44.000
457.981;  -47.575;  132.000;  124.000
458.101;  -85.225;  -89.000;   40.000
458.221;  -20.050;  336.000;  402.000
458.342;  -55.650;   -4.000;  -37.000
458.462;   42.350;  617.000;  352.000
458.582;   23.750; -302.000; -294.000
458.703;   66.300;  303.000;  154.000
458.823;    3.550;   22.000;  163.000
458.943;   45.800;  341.000;  467.000
459.063;   12.275; 1124.000;  192.000
459.183;  -31.525;  328.000;  313.000
459.304;   14.575;  315.000;  517.000
459.424;  -51.300; -246.000;  -89.000
459.544;  459.300;  388.000;  764.000
459.664; 1297.625;  499.000;  506.000
459.784;  492.025; 1004.000; 1175.000
459.904;   80.725;  867.000;  744.000
460.024;   35.550;  867.000;  684.000
460.144;  -25.625;  449.000;  554.000
460.264;  -15.700;  515.000;  327.000
460.385;  -90.125; -145.000; -119.000
460.505;   28.250;  905.000;  858.000
460.625; -101.825;  -17.000;  -68.000
460.745;  -31.150;  396.000;  541.000
460.864;  -47.800;  153.000;  469.000
460.984;   37.350;  499.000;  573.000
461.104;  125.600; 1656.000; 1775.000
461.224;   15.575;  657.000;  650.000
461.344;  -61.175;  431.000;  360.000
461.464;  -40.025;  258.000;  513.000
461.584;  -17.575;  283.000;  466.000
461.704;  -67.450;   58.000;  108.000
461.824;  -56.400;  238.000;  259.000
461.943;  -54.650;  191.000;  130.000
462.063;  -86.000;    2.000;  324.000
462.183;   11.700;  639.000;  717.000
462.303;   72.375; 1678.000; 1230.000
462.422;   21.950;  781.000;  840.000
462.542;  -43.650;  271.000;  391.000
462.662;   34.850;  353.000;  380.000
462.782;  338.975;  833.000;  572.000
462.901;  730.100;  545.000;  717.000
463.021;  380.550; 1702.000; 1638.000
463.141;    4.550;  337.000;  770.000
463.260;  -27.800;  614.000;  474.000
463.380;   12.200;  902.000;  884.000
463.499;  -46.925;  342.000;  332.000
463.619;  -43.700;  581.000;  559.000
463.738;  102.925; 1644.000;  903.000
463.858;   17.200;  657.000;  811.000
463.978;  -42.900;  542.000;  396.000
464.097;   44.550;  921.000; 1114.000
464.217;  149.575; 1196.000; 1143.000
464.336;  161.350; 1068.000; 1130.000
464.455;  -37.400;  328.000;  659.000
464.575;    6.450;  597.000;  602.000
464.694;  117.175; 1204.000; 1179.000
464.814;  168.775; 1190.000; 1138.000
464.933;   88.800; 1095.000; 1027.000
465.052;  104.575; 1412.000; 1054.000
465.172;   63.425;  922.000;  799.000
465.291;  105.850; 1376.000; 1320.000
465.410;   15.850;  462.000;  735.000
465.530;   75.925; 1355.000; 1310.000
465.649;   37.175; 1209.000; 1273.000
465.768;  123.900; 1673.000; 1508.000
465.888;   47.875;  941.000; 1174.000
466.007;   98.425; 1335.000; 1440.000
466.126;  -20.050;  721.000;  641.000
466.245;   35.625; 1176.000; 1187.000
466.364;   10.000;  950.000; 1060.000
466.484;   37.650; 1024.000; 1213.000
466.603;   21.725; 1101.000; 1222.000
466.722;  109.800; 1490.000; 1769.000
466.841;   56.350; 1151.000; 1401.000
466.960;   37.175; 1069.000;  972.000
467.079;  125.825; 1971.000; 1786.000
467.198;   49.550; 1238.000; 1181.000
467.317;   65.800; 1768.000; 1162.000
467.436;   70.950; 1709.000; 1261.000
467.555;  111.675; 1796.000; 1746.000
467.674;   76.525; 1227.000; 1329.000
467.793;   40.275; 1376.000; 1374.000
467.912;   67.175; 1658.000; 1539.000
468.031;  116.000; 2038.000; 1930.000
468.150;  125.825; 1842.000; 1837.000
468.269;  165.000; 2313.000; 2090.000
468.388;  187.125; 2168.000; 2339.000
468.507;  239.325; 2884.000; 2903.000
468.626;  268.975; 2555.000; 2541.000
468.744;  144.275; 2018.000; 2174.000
468.863;  202.625; 2312.000; 2523.000
468.982;   83.900; 1503.000; 1555.000
469.101;  224.675; 2788.000; 2692.000
469.220;  150.675; 2333.000; 2176.000
469.338;  255.825; 2935.000; 3051.000
469.457;  183.925; 2719.000; 2545.000
469.576;  335.775; 3953.000; 3784.000
469.695;  242.550; 2877.000; 3066.000
469.813;  420.425; 4148.000; 4192.000
469.932;  391.700; 4255.000; 4485.000
470.051;  439.200; 4075.000; 4161.000
470.169; 1011.700; 4470.000; 4338.000
470.288; 1975.050; 4700.000; 4809.000
470.406; 1159.900; 5059.000; 5194.000
470.525;  668.075; 6101.000; 5787.000
470.644;  656.200; 6847.000; 6794.000
470.762;  815.225; 8397.000; 7873.000
470.881;  906.600; 8651.000; 8464.000
470.999; 1084.200; 9685.000; 9151.000
471.118; 1125.275;11174.000;10711.000

