
Integration time [ms]: 200.000
Averaging Nr. [scans]: 10
Smoothing Nr. [pixels]: 0
Data measured with spectrometer [name]: 2101012U2
Wave   ;Sample   ;Dark     ;Reference
[nm]   ;[counts] ;[counts] ;[counts] 

197.733;   98.700;  516.000;  404.000
197.879; -177.900; -610.000; -634.000
198.025;  -98.500; -475.000; -420.000
198.171; -165.900; -602.000; -612.000
198.317;  -78.200; -401.000; -316.000
198.463; -101.300; -655.000; -404.000
198.609;   33.200;  181.000; -137.000
198.755; -164.800; -644.000; -410.000
198.901; -151.200; -505.000; -424.000
199.047; -138.300; -615.000; -488.000
199.193; -127.700; -230.000; -468.000
199.339; -100.300; -222.000; -369.000
199.485;   29.200;  330.000;  271.000
199.631;   31.200;  227.000;  310.000
199.777; -100.100; -466.000; -398.000
199.923; -144.200; -610.000; -424.000
200.069;  -12.900; -141.000;  -58.000
200.215;  127.900;  128.000;  453.000
200.361;   95.100;  243.000;  477.000
200.507; -173.000; -600.000; -373.000
200.653;  -60.800; -371.000; -194.000
200.798;  -85.100; -215.000; -125.000
200.944;   -9.400; -146.000;  -41.000
201.090;   46.000;   61.000;  222.000
201.236;    7.500; -116.000; -158.000
201.382;  276.300;  874.000;  903.000
201.528;   -5.300;  -58.000;  -48.000
201.674;  -44.700; -386.000; -293.000
201.819; -121.100; -540.000; -439.000
201.965; -177.700; -699.000; -447.000
202.111;  -43.300; -273.000; -226.000
202.257;  -90.800; -250.000; -238.000
202.402;   -1.500;   13.000;  -36.000
202.548;  -53.200; -169.000; -116.000
202.694;  146.100;  410.000; -183.000
202.840; -137.000; -603.000; -531.000
202.985; -175.800; -681.000; -639.000
203.131; -214.700; -832.000; -666.000
203.277;  -71.500; -199.000; -262.000
203.423; -101.300; -434.000; -520.000
203.568;  -82.100; -462.000; -237.000
203.714; -146.000; -535.000; -542.000
203.860; -185.100; -682.000; -641.000
204.005;   25.500;  112.000;  167.000
204.151;  116.200;  561.000;  556.000
204.296; -102.300; -354.000; -221.000
204.442; -144.600; -600.000; -547.000
204.588; -172.200; -592.000; -579.000
204.733;   23.300;  178.000;  168.000
204.879; -271.700;-1018.000; -822.000
205.025;   12.000;  -99.000;  126.000
205.170;   -8.900;  -17.000;   94.000
205.316;  153.600;  438.000;  661.000
205.461; -181.800; -698.000; -554.000
205.607;  180.400;  609.000;  665.000
205.752; -180.400; -626.000; -551.000
205.898; -144.100; -501.000; -391.000
206.043; -146.000; -578.000; -506.000
206.189;  -78.800; -243.000; -285.000
206.334;  177.700;  554.000;  606.000
206.480;  186.700;  409.000;  239.000
206.625; -160.600; -529.000; -552.000
206.771;  -60.400; -451.000; -373.000
206.916;  -61.200; -210.000; -537.000
207.062; -153.200; -545.000; -591.000
207.207; -138.300; -546.000; -443.000
207.353;  142.200;  185.000;  460.000
207.498;   42.500;  196.000;   85.000
207.643; -109.100; -501.000; -370.000
207.789; -253.700;-1069.000; -910.000
207.934; -222.600; -665.000; -713.000
208.080;  -25.400; -154.000;   66.000
208.225;  -15.400;  -22.000;  -57.000
208.370; -173.300; -727.000; -619.000
208.516; -189.700; -741.000; -487.000
208.661;  -35.700; -127.000;  -69.000
208.806;  -49.500; -165.000; -171.000
208.952; -280.100;-1044.000; -731.000
209.097;  114.100;  378.000;  349.000
209.242;  -92.300; -307.000; -382.000
209.387;   79.800;  392.000;  350.000
209.533; -125.700; -321.000; -350.000
209.678;  150.100;  472.000;  543.000
209.823;  -99.300; -408.000; -310.000
209.969; -252.700; -860.000; -757.000
210.114; -198.200; -907.000; -719.000
210.259; -240.600; -939.000; -889.000
210.404;   -2.000; -171.000;  103.000
210.549;   24.600;  108.000;    3.000
210.695;  -34.200;   -3.000;  -95.000
210.840;   72.800;   94.000;   67.000
210.985; -122.800; -484.000; -303.000
211.130;  136.500;  268.000;  406.000
211.275;   21.400;  207.000;  199.000
211.420; -114.300; -300.000; -289.000
211.566; -145.600; -536.000; -489.000
211.711;   72.100;  218.000;  157.000
211.856; -133.000; -545.000; -519.000
212.001;  -14.200;  151.000;   44.000
212.146;   15.500;  153.000;   49.000
212.291;  -35.800; -210.000; -186.000
212.436;  -32.900; -280.000;   -6.000
212.581; -181.900; -685.000; -653.000
212.726; -155.900; -487.000; -538.000
212.871;  -96.400; -552.000; -217.000
213.016; -300.600;-1172.000;-1029.000
213.161;  124.600;  406.000;  291.000
213.306; -164.400; -435.000; -577.000
213.451; -192.100; -778.000; -689.000
213.596;  -72.800; -455.000; -347.000
213.741;  -93.800; -448.000; -538.000
213.886; -165.700; -498.000; -517.000
214.031;  -39.600; -294.000; -124.000
214.176;  -82.900; -408.000; -341.000
214.321;  -42.700; -296.000; -157.000
214.466;  -52.500; -163.000;  -43.000
214.611;  -27.100;  -61.000;  -10.000
214.756; -244.400; -948.000; -858.000
214.901;  -29.100; -388.000; -226.000
215.046; -274.800; -797.000; -825.000
215.191;   33.600;  128.000;   35.000
215.336;   -8.900; -157.000;  -19.000
215.480; -134.600; -684.000; -505.000
215.625;   -7.600; -175.000;  -19.000
215.770; -170.000; -757.000; -662.000
215.915;   10.200;   -5.000;  -97.000
216.060;  -42.900; -113.000;  -21.000
216.205; -231.400; -731.000; -779.000
216.349; -142.900; -470.000; -533.000
216.494; -285.900; -939.000; -867.000
216.639; -234.300; -823.000; -888.000
216.784; -200.500; -577.000; -525.000
216.929;   76.000;  392.000;  281.000
217.073;  -28.100; -244.000;  -31.000
217.218;   27.800;   78.000;  -47.000
217.363; -176.000; -656.000; -618.000
217.507; -186.600; -623.000; -588.000
217.652; -269.000; -845.000; -874.000
217.797; -194.400; -708.000; -659.000
217.942; -252.800; -856.000; -720.000
218.086;  130.200;  608.000;  539.000
218.231;  -43.000; -174.000;  -26.000
218.376;  -76.400; -337.000; -229.000
218.520;   24.700;  -41.000;   96.000
218.665;  -67.600; -338.000; -204.000
218.810;  -89.100; -275.000; -233.000
218.954;   64.900;  201.000;   35.000
219.099; -212.300; -713.000; -963.000
219.243; -143.500; -589.000; -554.000
219.388;  -66.300; -264.000; -136.000
219.532;   -7.100; -116.000; -116.000
219.677; -143.700; -564.000; -521.000
219.822;   15.100;   33.000;   89.000
219.966;   -6.700;   17.000;  -99.000
220.111;  -53.500; -328.000;  -40.000
220.255; -173.900; -797.000; -750.000
220.400;  -51.500; -180.000; -146.000
220.544; -153.100; -516.000; -450.000
220.689;  -88.100; -422.000; -451.000
220.833;  -50.700; -123.000;  -58.000
220.978;  -71.800; -393.000; -563.000
221.122;   20.700;  319.000;  307.000
221.267; -238.000; -906.000; -837.000
221.411; -148.100; -478.000; -394.000
221.555;  -37.800; -104.000;  -23.000
221.700; -105.600; -329.000; -222.000
221.844;   78.600;  255.000;  272.000
221.989;  -86.800; -328.000; -311.000
222.133;  -82.600; -289.000; -307.000
222.277;  -14.200;    5.000;   78.000
222.422;   41.600;  227.000;  113.000
222.566;  -62.700; -381.000; -214.000
222.711; -111.200; -414.000; -479.000
222.855; -170.500; -643.000; -586.000
222.999; -157.400; -642.000; -717.000
223.144;  -52.100; -195.000; -194.000
223.288;  123.800;  423.000;  251.000
223.432;   42.700;  184.000;  230.000
223.576;   54.000;  152.000;  -21.000
223.721;   83.700;  364.000;  273.000
223.865; -113.600; -472.000; -475.000
224.009;  566.900; 1673.000; 1631.000
224.153; -165.100; -660.000; -671.000
224.298; -106.700; -531.000; -489.000
224.442;  -21.900;  -74.000;  -33.000
224.586;  -17.200; -169.000; -106.000
224.730; -208.700; -858.000; -670.000
224.875; -215.500; -739.000; -688.000
225.019;    6.900;  102.000;  188.000
225.163;  117.900;  208.000;  341.000
225.307;   32.400;   97.000;  -91.000
225.451;  102.900;  360.000;  481.000
225.595;   99.800;  264.000;  176.000
225.739;  -30.600; -170.000;  -94.000
225.884;    4.600;   86.000;    5.000
226.028; -217.200; -760.000; -626.000
226.172;  -59.900; -260.000; -273.000
226.316; -253.800; -941.000; -902.000
226.460; -144.700; -645.000; -493.000
226.604;  -97.400; -406.000; -400.000
226.748; -198.700; -836.000; -733.000
226.892;  -63.600; -227.000; -181.000
227.036; -116.300; -537.000; -447.000
227.180; -128.800; -551.000; -375.000
227.324; -136.800; -561.000; -580.000
227.468; -238.800; -819.000; -717.000
227.612;   27.200;  242.000;  -28.000
227.756; -224.600; -845.000; -698.000
227.900;   95.800;  342.000;  441.000
228.044; -103.100; -509.000; -290.000
228.188;  133.100;  448.000;  568.000
228.332; -204.100; -546.000; -472.000
228.476;  -39.100; -223.000; -149.000
228.620;  -74.300; -210.000; -150.000
228.764;  118.100;  431.000;  349.000
228.908;  -48.700; -155.000;   30.000
229.052; -121.500; -615.000; -528.000
229.195;  -30.300; -172.000;   13.000
229.339;  -54.300; -235.000; -305.000
229.483;  -57.500;    5.000; -162.000
229.627;   -8.900; -156.000;  139.000
229.771;  -84.000; -218.000; -294.000
229.915;   44.300;  230.000;   79.000
230.059; -196.800; -648.000; -663.000
230.202;  -83.700; -370.000; -317.000
230.346;  -32.400; -107.000;  107.000
230.490; -118.000; -489.000; -521.000
230.634; -241.800; -736.000; -553.000
230.777;  148.200;  478.000;  509.000
230.921;  -83.300; -450.000; -359.000
231.065;  -79.400; -246.000; -286.000
231.209;   69.800;  261.000;  265.000
231.352;   32.500;   54.000;   40.000
231.496;   50.000;  568.000;  188.000
231.640; -181.200; -693.000; -621.000
231.783;  144.700;  546.000;  525.000
231.927;  -78.800; -294.000; -365.000
232.071; -241.900; -962.000; -736.000
232.214; -263.200; -980.000; -764.000
232.358; -216.100; -683.000; -599.000
232.502;  -17.200;  -19.000;    7.000
232.645; -282.900;-1090.000; -927.000
232.789;  -48.200; -257.000; -218.000
232.933;  -64.400; -407.000; -224.000
233.076; -251.800;-1038.000; -897.000
233.220; -235.600; -752.000; -777.000
233.363; -146.100; -669.000; -477.000
233.507;  141.000;  371.000;  129.000
233.650; -170.200; -764.000; -834.000
233.794;   86.200;  438.000;  461.000
233.938; -144.800; -530.000; -362.000
234.081;  -19.800;  -93.000;   31.000
234.225; -143.200; -631.000; -539.000
234.368; -216.500; -773.000; -723.000
234.512; -104.800; -385.000; -299.000
234.655; -186.300; -582.000; -555.000
234.798; -133.400; -493.000; -466.000
234.942; -284.100; -884.000;-1002.000
235.085; -138.800; -651.000; -443.000
235.229; -159.200; -405.000; -410.000
235.372;  -92.100; -247.000; -191.000
235.516; -135.200; -397.000; -321.000
235.659;   65.300;   92.000;  121.000
235.802;  -49.200;  -38.000;  -22.000
235.946;   48.100;  335.000;  215.000
236.089;   64.300;  126.000;  250.000
236.233;  111.100;  275.000;  298.000
236.376;  -89.700; -235.000; -378.000
236.519; -111.700; -297.000; -319.000
236.663;  -31.300; -215.000; -117.000
236.806; -262.800;-1029.000; -999.000
236.949;  169.600;  543.000;  431.000
237.092;  119.800;  412.000;  391.000
237.236; -166.100; -589.000; -502.000
237.379;  117.800;  352.000;  428.000
237.522; -233.400; -879.000; -768.000
237.666;  -52.600; -271.000;   18.000
237.809; -248.800; -851.000; -823.000
237.952;   52.300;  469.000;  271.000
238.095; -151.600; -447.000; -442.000
238.238;  164.100;  688.000;  700.000
238.382;   11.100;  166.000;  103.000
238.525; -152.200; -598.000; -511.000
238.668; -296.100;-1060.000; -985.000
238.811; -178.900; -638.000; -643.000
238.954;  -94.400; -483.000; -334.000
239.097;  181.500;  617.000;  664.000
239.241;   86.900;  394.000;  326.000
239.384;  -52.700; -254.000; -214.000
239.527; -123.900; -424.000; -224.000
239.670; -297.400; -994.000;-1091.000
239.813; -199.900; -696.000; -658.000
239.956;  163.100;  579.000;  473.000
240.099; -246.000; -778.000; -725.000
240.242;  136.300;  428.000;  432.000
240.385;  114.000;  466.000;  450.000
240.528; -145.400; -706.000; -473.000
240.671;   72.100;  189.000;  134.000
240.814;  -67.700; -441.000; -158.000
240.957; -184.500; -767.000; -578.000
241.100; -177.100; -779.000; -755.000
241.243; -272.500;-1234.000; -893.000
241.386; -132.500; -508.000; -379.000
241.529; -190.100; -735.000; -547.000
241.672; -117.400; -566.000; -495.000
241.815; -265.500; -832.000; -808.000
241.958;  -62.600; -125.000; -182.000
242.101; -172.500; -545.000; -390.000
242.244;  -91.200; -270.000; -325.000
242.387;  -72.500; -304.000; -246.000
242.530;  123.500;  470.000;  134.000
242.673;  -82.300; -381.000; -309.000
242.815; -234.500; -925.000; -899.000
242.958; -138.300; -482.000; -381.000
243.101;   -0.600;  132.000;  187.000
243.244; -155.700; -564.000; -521.000
243.387;  -98.800; -313.000; -316.000
243.530; -183.000; -657.000; -674.000
243.672;   -0.600;   43.000;  -92.000
243.815; -106.700; -355.000; -283.000
243.958;   14.500;   98.000;  -26.000
244.101;   21.600;   59.000;  -16.000
244.243;  -23.800;  -47.000;  101.000
244.386; -228.900; -761.000; -630.000
244.529;  -55.200; -132.000; -139.000
244.672; -326.900;-1154.000; -951.000
244.814; -186.900; -621.000; -794.000
244.957; -118.300; -380.000; -304.000
245.100; -144.100; -489.000; -489.000
245.242; -117.600; -387.000; -374.000
245.385;  -16.900;  -59.000;  -39.000
245.528; -256.400; -871.000; -705.000
245.670;  176.600;  612.000;  634.000
245.813; -195.000; -599.000; -547.000
245.956;  -57.000; -324.000; -275.000
246.098; -146.300; -508.000; -650.000
246.241;    3.900;  194.000;   48.000
246.383;  -11.300; -119.000;  -73.000
246.526; -165.700; -454.000; -525.000
246.669; -210.100; -889.000; -780.000
246.811;   49.500;  172.000;   -1.000
246.954; -139.000; -512.000; -426.000
247.096;  -21.500;  -84.000;   -6.000
247.239; -123.900; -482.000; -445.000
247.381; -150.900; -647.000; -488.000
247.524;  185.500;  645.000;  679.000
247.666;  -25.800;   58.000;   11.000
247.809; -194.000; -887.000; -691.000
247.951;  -57.800;  -75.000;  138.000
248.094;   83.400;  432.000;  308.000
248.236; -292.000;-1262.000;-1238.000
248.378;  -13.400; -356.000;  -81.000
248.521;  -53.400; -334.000; -337.000
248.663;  -63.600; -236.000; -267.000
248.806;  -54.400; -300.000; -266.000
248.948; -184.000; -886.000; -763.000
249.090; -102.200; -428.000; -398.000
249.233;  -82.800; -344.000; -381.000
249.375; -118.100; -474.000; -451.000
249.518;  -12.200;  -83.000; -133.000
249.660;   -6.400; -103.000;    3.000
249.802; -357.900;-1303.000;-1189.000
249.945; -147.600; -612.000; -540.000
250.087; -224.000; -834.000; -768.000
250.229;  -88.200; -362.000; -480.000
250.371; -129.700; -494.000; -439.000
250.514; -105.700; -310.000; -244.000
250.656; -113.300;   69.000;  102.000
250.798; -256.100; -849.000; -800.000
250.940; -105.600; -322.000; -322.000
251.083;  -66.700; -335.000; -111.000
251.225;  111.500;  338.000;  310.000
251.367;  -81.400; -274.000; -373.000
251.509;  -48.100; -265.000; -210.000
251.651; -207.400; -731.000; -671.000
251.794;  142.100;  538.000;  632.000
251.936; -207.600; -821.000; -747.000
252.078; -160.700; -540.000; -461.000
252.220; -135.200; -645.000; -477.000
252.362;  125.500;  344.000;  462.000
252.504; -154.900; -677.000; -584.000
252.646; -232.100; -875.000; -722.000
252.788;    1.600;   14.000; -128.000
252.931;  -67.100; -257.000; -253.000
253.073;  -93.800; -376.000; -317.000
253.215;    2.500;  141.000;  122.000
253.357;  -10.100;   82.000; -153.000
253.499;  -97.200; -374.000; -234.000
253.641; -184.100; -749.000; -594.000
253.783; -213.200; -609.000; -527.000
253.925; -159.400; -586.000; -591.000
254.067; -207.800; -744.000; -667.000
254.209;  -68.600; -391.000; -259.000
254.351; -262.300; -865.000; -883.000
254.493; -132.200; -441.000; -417.000
254.635; -240.100; -936.000; -818.000
254.777; -189.500; -752.000; -687.000
254.918; -152.200; -512.000; -430.000
255.060; -129.700; -551.000; -395.000
255.202; -106.200; -473.000; -261.000
255.344; -156.900; -658.000; -455.000
255.486; -137.000; -471.000; -406.000
255.628; -206.400; -780.000; -781.000
255.770; -156.600; -676.000; -536.000
255.912; -131.300; -559.000; -468.000
256.053; -192.100; -730.000; -508.000
256.195;  333.300; 1008.000;  903.000
256.337; -188.000; -861.000; -595.000
256.479;  117.000;  532.000;  416.000
256.621;  -88.900; -394.000; -212.000
256.762; -193.200; -789.000; -742.000
256.904;  101.200;  485.000;  487.000
257.046;  -95.200; -381.000; -271.000
257.188;  -81.400; -351.000; -264.000
257.329; -161.400; -525.000; -464.000
257.471; -240.800; -939.000; -807.000
257.613; -123.400; -584.000; -498.000
257.755; -297.800;-1073.000; -982.000
257.896;   66.000;  286.000;  392.000
258.038; -132.900; -403.000; -352.000
258.180;  -68.800; -354.000; -279.000
258.321; -195.200; -581.000; -457.000
258.463;   -9.500;  -71.000;  133.000
258.605; -179.200; -562.000; -570.000
258.746; -208.200; -886.000; -772.000
258.888; -314.600;-1026.000;-1020.000
259.029;   31.900;  121.000;   -8.000
259.171; -179.400; -614.000; -550.000
259.313;  -24.700;  -49.000;  -47.000
259.454; -145.400; -536.000; -414.000
259.596;  -82.500; -483.000; -390.000
259.737; -142.700; -590.000; -474.000
259.879;   42.400;  217.000;  311.000
260.020;  164.700;  901.000;  636.000
260.162;  -42.100; -146.000; -253.000
260.303; -231.700; -768.000; -687.000
260.445; -178.800; -609.000; -613.000
260.586;   55.500;  392.000;  157.000
260.728;  -68.200; -360.000; -248.000
260.869; -147.100; -350.000; -343.000
261.011;  211.800;  706.000;  537.000
261.152; -104.000; -479.000; -319.000
261.293; -155.000; -576.000; -595.000
261.435;  -35.700; -219.000; -184.000
261.576;  -72.200; -455.000; -325.000
261.718;  119.900;  420.000;  470.000
261.859; -274.200; -940.000; -949.000
262.000; -263.200; -951.000;-1016.000
262.142;  -62.700;  -52.000;  -60.000
262.283; -231.700; -808.000; -691.000
262.424; -156.100; -666.000; -625.000
262.566; -306.000;-1161.000; -983.000
262.707; -233.100; -840.000; -830.000
262.848; -203.900; -769.000; -726.000
262.990;  -57.400; -362.000; -345.000
263.131;  199.900;  650.000;  681.000
263.272;   -8.600;  -61.000;  -41.000
263.413; -165.400; -589.000; -561.000
263.555; -137.300; -669.000; -143.000
263.696; -179.100; -550.000; -641.000
263.837; -100.300; -449.000; -551.000
263.978;   22.600;   -5.000;  -77.000
264.119;  -99.700; -283.000; -264.000
264.261; -234.100; -847.000; -630.000
264.402;    9.300;   33.000;   40.000
264.543; -150.600; -509.000; -524.000
264.684;  -20.600;   61.000;  -50.000
264.825; -131.600; -816.000; -538.000
264.966;  -19.900;  -84.000;  -67.000
265.107; -201.300; -646.000; -670.000
265.248; -233.600; -825.000; -812.000
265.390;   -7.400;  152.000;   -9.000
265.531;   -3.500; -238.000; -107.000
265.672; -168.000; -557.000; -630.000
265.813;  128.800;  563.000;  439.000
265.954; -284.900; -959.000; -940.000
266.095;  -20.600; -372.000; -322.000
266.236; -180.900; -686.000; -548.000
266.377;  -74.300; -243.000; -297.000
266.518; -156.700; -619.000; -547.000
266.659;   65.000;  170.000;  268.000
266.800;   -3.200;   83.000;   85.000
266.941; -155.300; -487.000; -478.000
267.082;   16.600;  354.000;   99.000
267.223;  -83.800; -344.000; -273.000
267.364; -247.900; -892.000; -686.000
267.504;  -10.100;    3.000;  135.000
267.645;   16.800;  160.000;   67.000
267.786;  -60.300; -147.000;  -86.000
267.927; -140.800; -473.000; -379.000
268.068;  -10.900; -186.000;  -61.000
268.209;  -87.000; -175.000; -413.000
268.350; -115.800; -388.000; -532.000
268.490; -150.400; -648.000; -521.000
268.631;   48.400;  127.000;  225.000
268.772; -201.500; -874.000; -647.000
268.913;  -81.200; -328.000; -476.000
269.054;  -29.700; -117.000;   12.000
269.194; -113.200; -418.000; -402.000
269.335; -323.400;-1137.000;-1074.000
269.476;  -50.800;   33.000;  -35.000
269.617; -119.600; -347.000; -392.000
269.757; -197.900; -713.000; -646.000
269.898; -200.200; -856.000; -613.000
270.039; -100.800; -415.000; -405.000
270.180; -277.300; -952.000; -816.000
270.320;  -53.400; -190.000; -250.000
270.461;  -78.300; -277.000; -249.000
270.602;   -4.300; -186.000; -156.000
270.742; -252.900; -868.000; -943.000
270.883; -142.000; -442.000; -390.000
271.023; -114.200; -358.000; -357.000
271.164; -143.100; -607.000; -528.000
271.305; -194.600; -666.000; -654.000
271.445; -197.600; -722.000; -683.000
271.586; -133.600; -462.000; -283.000
271.726; -109.000; -397.000; -322.000
271.867; -136.800; -594.000; -534.000
272.008;  208.400; -473.000; -285.000
272.148;  173.600;  462.000;  468.000
272.289;   30.900; -113.000; -181.000
272.429;   42.300;   19.000;  185.000
272.570; -180.300; -633.000; -737.000
272.710; -200.700; -825.000; -775.000
272.851;  -49.100;  113.000; -130.000
272.991; -294.100;-1173.000;-1077.000
273.131; -135.400; -419.000; -459.000
273.272; -196.500; -683.000; -723.000
273.412;  -22.600; -143.000;  -31.000
273.553; -135.800; -488.000; -507.000
273.693;  287.000;  913.000;  858.000
273.834; -204.800; -894.000; -692.000
273.974; -171.100; -664.000; -615.000
274.114; -184.400; -772.000; -560.000
274.255;  140.800;  414.000;  373.000
274.395;   -9.100; -180.000; -125.000
274.535;   94.600;  199.000;  350.000
274.676;   55.800;  225.000;   94.000
274.816;   25.600;  110.000;   34.000
274.956; -149.700; -624.000; -690.000
275.097; -178.200;-1014.000; -922.000
275.237; -245.300; -913.000; -803.000
275.377; -193.700; -778.000; -689.000
275.517; -285.200; -878.000; -937.000
275.658; -114.700; -590.000; -555.000
275.798; -171.100; -606.000; -413.000
275.938;   87.600;  215.000;  323.000
276.078; -135.500; -626.000; -395.000
276.218;    9.900;   99.000;  104.000
276.359; -272.500;-1026.000;-1024.000
276.499; -121.700; -605.000; -446.000
276.639;  -34.700; -305.000; -151.000
276.779; -127.300; -475.000; -357.000
276.919; -184.900; -783.000; -624.000
277.059;  -44.300; -261.000; -212.000
277.199;  -92.300; -357.000; -259.000
277.340;  109.000;  287.000;  175.000
277.480; -217.900; -840.000; -693.000
277.620;   68.400;  192.000;   16.000
277.760; -415.300;-1533.000;-1294.000
277.900;   12.500;  113.000;   33.000
278.040;   40.800;  137.000;  159.000
278.180;   67.600;  270.000;  170.000
278.320;   -4.800;   21.000;   56.000
278.460; -157.400; -443.000; -469.000
278.600; -172.500; -708.000; -598.000
278.740;  136.200;  448.000;  224.000
278.880; -160.900; -768.000; -791.000
279.020;   22.600; -194.000; -144.000
279.160; -175.100; -672.000; -595.000
279.300; -231.000; -926.000; -873.000
279.440; -197.800; -709.000; -622.000
279.579; -128.200;-1014.000; -929.000
279.719;  -99.300; -410.000; -394.000
279.859;   95.000;   -4.000;   41.000
279.999;   36.700; -208.000;  101.000
280.139;  -61.800; -435.000; -387.000
280.279; -144.100; -708.000; -745.000
280.419;   12.700; -229.000; -147.000
280.559;  -45.900; -259.000; -180.000
280.698; -169.100; -790.000; -639.000
280.838; -190.000; -778.000; -800.000
280.978; -197.000; -846.000; -790.000
281.118; -203.900; -811.000; -704.000
281.257;   45.100;   24.000;    6.000
281.397; -240.600;-1094.000; -960.000
281.537; -180.800; -599.000; -712.000
281.677;  -59.800; -150.000; -101.000
281.816; -159.600; -700.000; -630.000
281.956;  -81.600; -193.000; -257.000
282.096; -125.500; -539.000; -396.000
282.235; -200.000; -672.000; -638.000
282.375;  -40.700; -243.000;  -98.000
282.515; -218.900; -715.000; -707.000
282.654;   65.100;   29.000;  106.000
282.794;   88.400;  388.000;  244.000
282.934;  -82.600; -530.000; -491.000
283.073; -254.000;-1030.000; -857.000
283.213;  -97.700; -460.000; -467.000
283.353; -101.600; -408.000; -349.000
283.492;  -39.000; -264.000; -296.000
283.632;  -74.000; -254.000; -168.000
283.771; -175.200; -859.000; -730.000
283.911;  -73.400; -369.000; -260.000
284.050; -225.500; -794.000; -748.000
284.190; -330.700;-1229.000;-1096.000
284.329; -293.900;-1055.000; -964.000
284.469; -150.700; -516.000; -591.000
284.608; -112.300; -559.000; -598.000
284.748; -154.200; -614.000; -570.000
284.887;   -6.000;  -87.000;  -20.000
285.027; -252.300; -844.000; -892.000
285.166;  -62.700; -192.000; -249.000
285.306;    2.300; -116.000;  -33.000
285.445;  -69.500; -229.000; -343.000
285.584; -185.500; -630.000; -494.000
285.724;  -74.500; -282.000; -322.000
285.863; -201.800; -857.000; -507.000
286.002;  -97.500; -366.000; -276.000
286.142; -210.400; -715.000; -622.000
286.281; -123.100; -525.000; -493.000
286.420; -136.100; -554.000; -417.000
286.560;  198.400;  653.000;  623.000
286.699; -279.800; -958.000; -912.000
286.838; -164.000; -590.000; -591.000
286.978; -181.900; -533.000; -537.000
287.117; -238.100;-1085.000; -950.000
287.256;  -38.000; -228.000; -211.000
287.395;  -86.900; -197.000; -378.000
287.535;  -74.700; -370.000; -298.000
287.674; -164.800; -509.000; -484.000
287.813;  149.000;  661.000;  533.000
287.952; -267.100;-1010.000; -871.000
288.091; -298.500;-1049.000; -915.000
288.231;   50.700;   13.000;   15.000
288.370; -339.800;-1217.000;-1200.000
288.509; -164.400; -728.000; -645.000
288.648; -177.300; -770.000; -548.000
288.787;  -41.400; -243.000;  -87.000
288.926; -125.600; -454.000; -475.000
289.065;  288.200;  859.000;  672.000
289.204; -119.800; -377.000; -217.000
289.344; -195.500; -791.000; -690.000
289.483;   82.100;  416.000;  304.000
289.622;  -64.600; -291.000; -149.000
289.761;  -53.200; -309.000; -166.000
289.900; -249.700; -785.000; -626.000
290.039;    5.200;  -12.000;  -95.000
290.178;  -80.900; -274.000; -180.000
290.317; -157.900; -618.000; -479.000
290.456; -118.400; -463.000; -451.000
290.595; -279.300; -961.000; -833.000
290.734; -272.800; -904.000; -891.000
290.873; -133.800; -456.000; -420.000
291.011; -223.000; -833.000; -843.000
291.150; -215.600; -770.000; -682.000
291.289;  -30.900; -343.000; -110.000
291.428; -191.400; -599.000; -480.000
291.567;  -85.900; -370.000; -442.000
291.706;   -4.500;  109.000;  154.000
291.845; -157.800; -597.000; -505.000
291.984; -314.100;-1234.000;-1061.000
292.122;  160.900;  602.000;  582.000
292.261;   90.700;  620.000;  463.000
292.400;  -14.300; -144.000;  211.000
292.539; -245.000; -959.000; -813.000
292.678;  -60.400; -325.000; -300.000
292.816; -297.600;-1136.000; -965.000
292.955; -215.800; -844.000; -684.000
293.094;  -34.500; -173.000; -337.000
293.233; -119.100; -556.000; -400.000
293.371;  -35.100; -225.000;  -84.000
293.510; -215.400; -866.000; -780.000
293.649; -265.900; -959.000; -924.000
293.787; -202.300;-1083.000;-1012.000
293.926;  -13.500; -113.000;  -32.000
294.065; -120.700; -379.000; -290.000
294.203;  130.700;  298.000;  406.000
294.342;   89.100;   74.000;  156.000
294.481;11129.700;51180.000; -836.000
294.619;  -54.100; -425.000; -582.000
294.758; -309.700;-1230.000;-1137.000
294.896;   90.200; -125.000;    5.000
295.035; -258.500;-1040.000;-1006.000
295.174; -270.800;-1082.000; -954.000
295.312;  -68.600; -323.000; -203.000
295.451;  -37.000; -307.000; -428.000
295.589; -104.200; -389.000; -518.000
295.728;   12.500; -292.000; -165.000
295.866;   16.800;  -36.000;  -51.000
296.005; -144.600; -584.000; -341.000
296.143; -140.600; -558.000; -596.000
296.282; -213.500; -957.000; -881.000
296.420; -136.800; -657.000; -557.000
296.559; -179.500; -892.000; -633.000
296.697;  -61.100; -847.000; -665.000
296.835;  -41.000;-1141.000;-1002.000
296.974;   88.800;  -23.000;   39.000
297.112;  -24.000; -443.000; -504.000
297.251; -167.500; -815.000; -755.000
297.389;   40.600; -576.000; -438.000
297.527;   72.900; -145.000;  -83.000
297.666;  -99.000; -486.000; -438.000
297.804;  -86.500; -404.000; -264.000
297.942;   -1.300; -136.000; -161.000
298.081;   -5.500; -183.000;   63.000
298.219;   90.300;  -17.000;  -19.000
298.357;   30.500; -144.000;  -71.000
298.495;  -44.500; -810.000; -812.000
298.634;   96.500;  245.000;  219.000
298.772;   60.700; -220.000; -338.000
298.910;  -68.100; -309.000; -182.000
299.048;   -0.800; -130.000; -153.000
299.187;  -41.400; -350.000; -250.000
299.325;   53.100;   52.000;  122.000
299.463;   52.500; -389.000; -299.000
299.601;  122.900; -327.000; -271.000
299.739; -226.100; -908.000; -883.000
299.877; -153.600; -791.000; -703.000
300.016; -162.600;-1095.000; -935.000
300.154;  192.500;  -19.000; -161.000
300.292;   83.600; -428.000; -348.000
300.430;   -8.600; -408.000; -291.000
300.568; -207.800; -940.000; -874.000
300.706;  -85.300; -366.000; -469.000
300.844; -212.200;-1108.000; -979.000
300.982;  203.000;  246.000;  282.000
301.120; -237.400; -965.000; -866.000
301.258; -170.400; -812.000; -705.000
301.396;   85.100;  104.000;  -41.000
301.534;   56.200; -218.000; -293.000
301.672;  -43.300; -664.000; -521.000
301.810;  -32.600; -613.000; -545.000
301.948;  217.100;   53.000;  149.000
302.086;  745.700; -250.000;  -32.000
302.224; 1223.600; -610.000; -585.000
302.362;   12.400; -558.000; -622.000
302.500; -112.800; -923.000; -893.000
302.638;  179.300;  128.000;  245.000
302.776;    5.700; -352.000; -408.000
302.913;   93.100;  447.000;  236.000
303.051;  -11.800;  -86.000;  -23.000
303.189;   81.200;   90.000;  118.000
303.327;  -70.700; -341.000; -256.000
303.465; -165.600; -832.000; -588.000
303.603; -205.600; -805.000; -604.000
303.740;  147.700;  417.000;  241.000
303.878;  -48.100; -800.000; -759.000
304.016; -193.800; -915.000; -790.000
304.154; -291.800;-1123.000;-1152.000
304.291;  -69.600; -505.000; -554.000
304.429;   10.400;  102.000;   74.000
304.567; -245.200; -908.000; -893.000
304.705; -117.000; -408.000; -515.000
304.842;   53.700; -616.000; -540.000
304.980;  113.600;  215.000;   35.000
305.118;   39.000; -367.000; -365.000
305.255; -178.900; -945.000; -927.000
305.393;   90.100;  178.000;  239.000
305.531; -270.000;-1173.000; -956.000
305.668; -144.900; -663.000; -582.000
305.806;  108.000; -358.000; -439.000
305.943;   77.900; -629.000; -637.000
306.081;   57.400; -378.000; -267.000
306.219; -204.300; -863.000; -748.000
306.356;   15.900;  158.000;   27.000
306.494;  254.200;  981.000;  761.000
306.631;   24.300;  -11.000;  -55.000
306.769;  -27.600; -613.000; -485.000
306.906;  -22.200; -284.000; -258.000
307.044; -108.000; -473.000; -488.000
307.181; -143.200; -410.000; -332.000
307.319;   39.900;  112.000;   87.000
307.456; -349.900;-1191.000;-1153.000
307.594; -208.600; -980.000; -727.000
307.731;  -21.500; -371.000; -164.000
307.868;   17.900;  -15.000;   20.000
308.006; -258.100; -961.000; -847.000
308.143; -115.800; -618.000; -330.000
308.281;  311.100;  -37.000; -254.000
308.418;   -5.700; -748.000; -640.000
308.555; -136.100; -400.000; -250.000
308.693; -146.200; -577.000; -573.000
308.830; -200.400; -712.000; -657.000
308.967;   22.900; -215.000;  -95.000
309.105;  -78.800; -507.000; -396.000
309.242;   48.500; -468.000; -367.000
309.379;  566.100; -577.000; -655.000
309.517; -123.400; -936.000; -948.000
309.654; -194.500; -910.000; -734.000
309.791; -132.100; -662.000; -580.000
309.928; -248.500; -977.000; -914.000
310.065;  345.100;  819.000;  697.000
310.203;  -90.300; -825.000; -850.000
310.340;  -54.900; -465.000; -321.000
310.477; -137.000; -412.000; -516.000
310.614; -112.600; -383.000; -473.000
310.751; -143.100; -427.000; -518.000
310.889;   -8.000;    1.000;   11.000
311.026; -294.400;-1161.000; -939.000
311.163;  -84.100; -386.000; -380.000
311.300; -126.300; -512.000; -479.000
311.437; -121.800; -658.000; -619.000
311.574; -307.200;-1226.000; -985.000
311.711; -109.100; -595.000; -433.000
311.848;  -25.200; -380.000; -388.000
311.985;   44.400;  270.000;   93.000
312.122; -227.900; -932.000; -762.000
312.259; -227.500; -941.000; -994.000
312.396; -142.500; -508.000; -551.000
312.533; -163.200; -812.000; -790.000
312.670; -245.100;-1070.000; -898.000
312.807;  -26.600; -352.000; -367.000
312.944; -132.800; -513.000; -611.000
313.081;  -74.400; -150.000; -415.000
313.218; -200.500;-1111.000; -867.000
313.355;    6.200; -531.000; -449.000
313.492;   32.200; -455.000; -292.000
313.629;  248.700;  815.000;  735.000
313.766; -298.900;-1176.000;-1008.000
313.902;   -1.600; -186.000;   21.000
314.039;  -95.900; -372.000; -289.000
314.176;   87.800;  286.000;  192.000
314.313; -118.800; -569.000; -473.000
314.450; -158.600; -788.000; -684.000
314.587; -134.200; -468.000; -480.000
314.723;   40.400;  -78.000;  130.000
314.860;   88.300;  318.000;  332.000
314.997;   46.600;  223.000;  142.000
315.134;  -70.300; -385.000; -368.000
315.270;  -66.900; -480.000; -496.000
315.407; -241.600;-1094.000; -967.000
315.544; -124.300; -657.000; -538.000
315.681; -126.700; -681.000; -565.000
315.817;   46.100; -133.000; -176.000
315.954;    7.100; -613.000; -392.000
316.091; -271.700;-1045.000;-1023.000
316.227;  -22.200;  -71.000; -179.000
316.364;   -6.400;   23.000;    6.000
316.500;  -41.300; -113.000; -300.000
316.637;  -77.400; -181.000; -302.000
316.774; -157.600; -625.000; -358.000
316.910; -167.400; -598.000; -629.000
317.047; -148.300; -487.000; -351.000
317.183;  -70.300; -435.000; -566.000
317.320;  -24.500; -367.000; -321.000
317.456; -124.500; -733.000; -805.000
317.593; -165.500; -598.000; -641.000
317.729;   53.800;  168.000;  -67.000
317.866; -379.800;-1434.000;-1285.000
318.002; -180.600; -708.000; -948.000
318.139; -188.800; -883.000; -867.000
318.275; -216.800;-1003.000; -738.000
318.412; -127.900; -517.000; -336.000
318.548; -100.600; -751.000; -720.000
318.685; -197.900; -985.000; -888.000
318.821; -184.700; -762.000; -735.000
318.957;   51.100;   34.000;  -23.000
319.094;   99.400;  297.000;  154.000
319.230; -146.200; -756.000; -742.000
319.367;  157.100; -471.000; -520.000
319.503;   57.100; -538.000; -436.000
319.639; -158.200; -877.000; -793.000
319.775; -136.100; -750.000; -685.000
319.912; -101.700; -424.000; -519.000
320.048; -232.800;-1184.000;-1184.000
320.184;  153.500;   59.000;   70.000
320.321;  -93.000; -497.000; -467.000
320.457;  132.000;  475.000;  662.000
320.593;  -71.900; -375.000; -382.000
320.729; -196.500; -732.000; -734.000
320.866; -132.000; -577.000; -635.000
321.002; -158.900; -759.000; -809.000
321.138;   -3.900; -135.000; -211.000
321.274;   82.200; -148.000; -115.000
321.410;  -74.200; -585.000; -353.000
321.546; -125.000;-1011.000; -911.000
321.683;  118.200;  400.000;  185.000
321.819;   35.400;  -48.000; -117.000
321.955; -209.000; -743.000; -722.000
322.091; -109.100; -585.000; -540.000
322.227;  -63.200; -382.000; -202.000
322.363;  -21.200; -320.000; -215.000
322.499; -105.800; -343.000; -331.000
322.635;  256.000;  636.000;  443.000
322.771;   40.100; -139.000;   12.000
322.907;  159.400;  129.000;  327.000
323.043;  -60.700; -115.000; -206.000
323.179;  -70.600; -394.000; -363.000
323.315;  -20.800; -401.000; -371.000
323.451;   80.400; -328.000; -236.000
323.587;   87.700;  -60.000;  -77.000
323.723;   -0.500; -682.000; -601.000
323.859;  -62.100; -258.000;  -76.000
323.995;  -65.000; -467.000; -409.000
324.131; -225.300; -967.000; -892.000
324.267;  -60.800; -254.000; -276.000
324.402; -266.000; -960.000; -983.000
324.538;  -13.900; -279.000; -104.000
324.674;   42.500;  164.000;   77.000
324.810;  205.200;  226.000;  308.000
324.946;  -10.900; -810.000; -658.000
325.082; -124.500; -568.000; -475.000
325.217;   15.100;  -62.000;   16.000
325.353; -172.800; -764.000; -659.000
325.489; -161.800; -540.000; -506.000
325.625; -122.400; -579.000; -525.000
325.760;  126.200;  517.000;  376.000
325.896;  -35.400; -515.000; -702.000
326.032;  -86.000; -403.000; -352.000
326.168;  -90.500; -462.000; -369.000
326.303; -103.300; -352.000; -461.000
326.439;  -30.500; -336.000; -276.000
326.575;   -9.200; -190.000;  -29.000
326.710;    3.500; -156.000;  -30.000
326.846;   -4.200;  146.000;  103.000
326.982; -163.500; -530.000; -548.000
327.117;  -97.300; -481.000; -442.000
327.253; -172.500; -745.000; -742.000
327.388; -323.700;-1137.000;-1153.000
327.524; -102.600; -811.000; -578.000
327.659;  -14.200;  -58.000;  -22.000
327.795;  -40.400;   69.000;   45.000
327.931; -180.900; -723.000; -499.000
328.066;  -48.400; -417.000; -276.000
328.202;  -39.200;   12.000; -129.000
328.337;  239.100;  957.000;  713.000
328.473;  -18.800;  -12.000;  -74.000
328.608;  -10.700; -256.000; -267.000
328.743; -170.300; -799.000; -664.000
328.879;   41.800;  214.000;  114.000
329.014; -118.900; -102.000; -122.000
329.150; -154.900; -358.000; -483.000
329.285; -116.600; -465.000; -466.000
329.421;  -80.700; -548.000; -246.000
329.556;  -19.600;  -36.000;   85.000
329.691; -166.200; -633.000; -615.000
329.827; -146.800; -626.000; -480.000
329.962;  -60.300;  131.000; -301.000
330.097; -173.300; -673.000; -585.000
330.233;  -97.700; -410.000; -223.000
330.368; -226.500; -839.000; -628.000
330.503;  -19.100;    3.000;   98.000
330.638;   35.600;  -93.000; -125.000
330.774; -145.900; -609.000; -530.000
330.909;  -52.800; -434.000; -244.000
331.044; -163.400; -714.000; -708.000
331.179; -345.500;-1217.000;-1109.000
331.315;   38.400;   77.000;   20.000
331.450;   49.900;  157.000;  285.000
331.585; -178.900; -805.000; -706.000
331.720; -174.100; -510.000; -460.000
331.855;   -4.800;  -35.000; -102.000
331.990;  407.500;   62.000;  138.000
332.126;  227.600; -110.000;   71.000
332.261;  -28.700; -379.000; -265.000
332.396;  -28.200; -135.000; -242.000
332.531; -186.200;-1074.000;-1031.000
332.666;   74.200; -519.000; -363.000
332.801; -183.400; -726.000; -807.000
332.936;  -28.500; -192.000; -122.000
333.071; -288.400; -870.000; -817.000
333.206;   32.100;  307.000;  379.000
333.341;   82.700;  344.000;  418.000
333.476; -178.000; -627.000; -623.000
333.611;  -38.000; -251.000; -173.000
333.746;  -74.600; -381.000; -464.000
333.881; -221.400; -973.000; -935.000
334.016; -234.000; -936.000; -917.000
334.151; -246.700; -746.000; -702.000
334.286;   79.200;  152.000;  186.000
334.421;  -31.200; -125.000; -178.000
334.556; -145.800; -611.000; -567.000
334.690; -177.000; -631.000; -577.000
334.825;  110.700;  381.000;   83.000
334.960;  -64.500; -285.000; -413.000
335.095;   28.100;  135.000;  -91.000
335.230; -211.800; -722.000; -738.000
335.365; -266.300;-1084.000; -990.000
335.499; -262.100;-1108.000;-1037.000
335.634;   33.100;    9.000;  534.000
335.769; -163.300; -755.000; -720.000
335.904; -128.900; -603.000; -561.000
336.038; -140.700; -735.000; -657.000
336.173; -301.700;-1206.000;-1194.000
336.308;  -39.100; -116.000; -189.000
336.443;    8.400; -544.000; -634.000
336.577; -173.000; -936.000; -787.000
336.712;  125.300;   -4.000;  -12.000
336.847; -115.900; -724.000; -607.000
336.981;   50.800; -272.000; -208.000
337.116;  407.600;  615.000;  501.000
337.250;  144.200; -434.000; -421.000
337.385;  374.900; -297.000; -208.000
337.520;  134.900; -632.000; -603.000
337.654;  -79.300; -215.000; -126.000
337.789; -259.700; -989.000; -933.000
337.923;  -55.800; -104.000; -205.000
338.058; -183.500; -673.000; -738.000
338.192;  -69.800; -611.000; -488.000
338.327;   17.400;  -18.000; -155.000
338.461; -103.100; -299.000; -469.000
338.596; -193.300; -780.000; -638.000
338.730; -180.500; -767.000; -803.000
338.865;  149.600;  -46.000; -140.000
338.999; -103.100; -846.000; -702.000
339.134;  -54.000; -634.000; -536.000
339.268;   -0.900; -741.000; -603.000
339.403;  524.100; -740.000; -775.000
339.537;  178.800; -894.000; -820.000
339.671; -199.800; -829.000; -813.000
339.806; -115.600; -556.000; -512.000
339.940;   54.200; -261.000; -235.000
340.074; -210.800; -685.000; -510.000
340.209;  -66.500; -351.000; -230.000
340.343; -147.800; -517.000; -573.000
340.477;  325.300;  998.000; 1036.000
340.612; -118.600;-1033.000; -900.000
340.746;  232.400; -199.000; -243.000
340.880; -167.200; -924.000; -785.000
341.014;  -26.200;  -45.000; -154.000
341.149; -207.800; -756.000; -718.000
341.283; -225.200; -839.000; -754.000
341.417; -233.300;-1124.000; -938.000
341.551;   90.900; -768.000; -708.000
341.685; -107.000; -633.000; -611.000
341.820; -106.500; -562.000; -493.000
341.954;  -74.900; -218.000; -349.000
342.088; -297.100;-1102.000;-1019.000
342.222;   74.600;  565.000;  618.000
342.356; -132.600; -395.000; -335.000
342.490; -181.100; -880.000; -841.000
342.624;  -69.900; -339.000; -242.000
342.758;   -6.400; -364.000; -312.000
342.892; -132.800; -710.000; -585.000
343.026;  -83.300;  -58.000; -116.000
343.160;  -93.300; -426.000; -376.000
343.294; -144.900; -474.000; -337.000
343.428;  -66.900; -488.000; -448.000
343.562;    2.800; -172.000;  -23.000
343.696;  -48.800; -385.000; -314.000
343.830;  -40.200; -362.000; -356.000
343.964;    0.000; -231.000; -168.000
344.098; 1216.500;  199.000;   70.000
344.232;  994.000; -266.000; -127.000
344.366;   89.800; -567.000; -453.000
344.500;   26.700; -665.000; -744.000
344.634;   10.300; -324.000; -164.000
344.768;  -25.400; -531.000; -341.000
344.902;   53.300;  278.000;  256.000
345.035; -128.500; -556.000; -496.000
345.169; -247.800; -933.000; -656.000
345.303;  -57.900; -308.000; -482.000
345.437; -153.300; -826.000; -717.000
345.571; -146.700; -675.000; -594.000
345.704; -122.900; -309.000; -532.000
345.838;  -38.500; -331.000; -284.000
345.972;  -61.100; -543.000; -495.000
346.106;  261.300; -179.000; -190.000
346.239;  601.400; -312.000; -243.000
346.373;  -36.000; -343.000; -302.000
346.507; -297.800; -950.000; -962.000
346.640;  186.900;  -30.000;   13.000
346.774; -124.400; -650.000; -797.000
346.908;  -12.800; -138.000;  -11.000
347.041; -191.600; -646.000; -593.000
347.175;   60.400;  259.000;   27.000
347.309; -139.900; -698.000; -628.000
347.442; -206.200; -883.000; -732.000
347.576;  453.800;  670.000;  668.000
347.709;  277.800; -123.000;  -52.000
347.843; -203.900; -933.000; -825.000
347.976;   84.000;  235.000;  294.000
348.110; -340.700;-1268.000;-1186.000
348.243; -181.600; -679.000; -772.000
348.377;   21.900;  -26.000;   60.000
348.510;  131.700;  403.000;  540.000
348.644;  -71.300;  -37.000; -159.000
348.777;    6.400;  180.000;  191.000
348.911;  -66.900; -142.000; -112.000
349.044;  285.000;  471.000;  448.000
349.178;  141.000;-1069.000;-1006.000
349.311;  196.700;  141.000;  255.000
349.444;  -64.400; -927.000; -813.000
349.578;  -28.100; -347.000; -200.000
349.711; -196.900; -959.000; -862.000
349.845;  -58.600; -661.000; -591.000
349.978; -289.400;-1224.000;-1137.000
350.111; -136.000; -546.000; -612.000
350.244; -131.800; -596.000; -700.000
350.378;   13.000; -392.000; -393.000
350.511;  -94.700; -393.000; -426.000
350.644; -186.700; -808.000; -806.000
350.778;   37.400;  168.000;  104.000
350.911;   32.400;  134.000;  140.000
351.044; -177.800; -685.000; -615.000
351.177;  -52.100; -321.000; -281.000
351.310;   -7.600;    3.000; -131.000
351.444; -154.000; -888.000; -788.000
351.577;  156.400;  140.000;   90.000
351.710;  218.500;  593.000;  417.000
351.843;  -27.900; -165.000;  -77.000
351.976;   16.100;  149.000;  -79.000
352.109; -172.300; -621.000; -612.000
352.242;  -78.800; -464.000; -419.000
352.376; -115.500; -580.000; -636.000
352.509;  152.100; -437.000; -356.000
352.642;  -88.900; -654.000; -604.000
352.775;   94.800; -141.000;  -98.000
352.908; -231.400; -933.000; -904.000
353.041; -205.500; -814.000; -824.000
353.174; -113.700; -551.000; -424.000
353.307; -193.200; -753.000; -764.000
353.440;  139.600;  541.000;  453.000
353.573; -192.100; -957.000;-1008.000
353.706;  -60.300; -384.000; -558.000
353.839;  -38.100; -264.000; -220.000
353.971; -164.200; -657.000; -512.000
354.104; -185.300; -896.000; -835.000
354.237; -100.100; -627.000; -662.000
354.370; -181.400; -846.000; -879.000
354.503; -371.400;-1231.000;-1308.000
354.636;  -69.300; -529.000; -348.000
354.769; -239.600; -937.000; -860.000
354.902;  -40.100; -230.000; -139.000
355.034;  -12.100; -164.000; -220.000
355.167;  -32.900; -262.000; -162.000
355.300; -213.300;-1061.000; -880.000
355.433; 1521.000;  -71.000;  -14.000
355.565; 2399.200; -402.000; -384.000
355.698;  613.100; -356.000; -296.000
355.831;  -57.400; -882.000; -801.000
355.964;   80.000; -285.000; -170.000
356.096; -205.000; -856.000; -843.000
356.229;  -39.000; -523.000; -530.000
356.362;  493.200; -373.000; -266.000
356.494;  953.800; -229.000; -162.000
356.627;  643.400;  269.000;  377.000
356.760; 1018.300;  120.000;   53.000
356.892; 1438.400; -286.000; -601.000
357.025;  884.600;  403.000;  389.000
357.157;  789.700; -167.000; -179.000
357.290; 1085.000; -856.000; -713.000
357.423;  272.200; -667.000; -556.000
357.555;  158.400; -217.000; -228.000
357.688;  125.500; -483.000; -364.000
357.820;  531.100; -870.000; -877.000
357.953; 4975.700; -563.000; -589.000
358.085;  977.100; -632.000; -612.000
358.218; 1294.300;-1131.000; -932.000
358.350;  266.100;  -58.000;  312.000
358.483; -266.600;-1300.000;-1187.000
358.615; -113.000;-1182.000;-1078.000
358.747; -160.900;-1187.000;-1058.000
358.880;   -4.000; -810.000; -744.000
359.012;   -9.800; -376.000; -202.000
359.145; -107.800; -480.000; -511.000
359.277;   21.300; -962.000; -913.000
359.409; 4141.400;  536.000;  231.000
359.542;  988.100; -738.000; -688.000
359.674;  109.700;   46.000;   13.000
359.806; -129.300; -565.000; -438.000
359.939;  -94.000; -617.000; -516.000
360.071;  -43.300; -583.000; -579.000
360.203;  -22.400; -411.000; -364.000
360.335;   94.500;  164.000;  -16.000
360.468;  243.700; -249.000; -307.000
360.600; 3316.400; -547.000; -454.000
360.732; 4429.100; -546.000; -423.000
360.864;  521.400;-1216.000;-1044.000
360.996;  297.200; -516.000; -554.000
361.129;   25.700; -389.000; -598.000
361.261;   32.600;  110.000; -113.000
361.393;  -55.600; -252.000; -214.000
361.525;   67.100;   94.000;  244.000
361.657; -107.300; -821.000; -703.000
361.789;   21.200; -139.000; -155.000
361.921;  218.100; -642.000; -593.000
362.053;  395.300;  524.000;  541.000
362.185;   81.600;  288.000;   72.000
362.318; -159.600; -709.000; -705.000
362.450;  209.200;  294.000;  444.000
362.582;  -29.600; -913.000; -870.000
362.714;  -49.800; -353.000; -332.000
362.846; -156.300; -606.000; -490.000
362.978; -225.700; -941.000; -811.000
363.109;   34.900; -161.000; -260.000
363.241;  519.800; -739.000; -749.000
363.373;  620.200; -649.000; -564.000
363.505; 1060.100; -186.000;  -91.000
363.637;  193.000; -787.000; -601.000
363.769; -269.200;-1067.000;-1080.000
363.901; -138.200; -596.000; -654.000
364.033; -254.100;-1103.000;-1062.000
364.165;  -22.200; -283.000; -283.000
364.296;  106.300; -316.000; -177.000
364.428;   41.200;-1344.000;-1220.000
364.560; -118.600; -679.000; -661.000
364.692; -152.200; -738.000; -835.000
364.824;  282.700; -588.000; -456.000
364.955;  640.800; -402.000; -564.000
365.087; 1454.300;-1097.000; -852.000
365.219;   -0.300; -686.000; -816.000
365.351; -108.000; -526.000; -572.000
365.482;  113.600;  300.000;  240.000
365.614;  -65.100; -402.000; -314.000
365.746; -195.100; -729.000; -752.000
365.877; -190.800; -706.000; -672.000
366.009;  472.500;  -35.000;  -62.000
366.141; -184.400;-1249.000;-1134.000
366.272; -214.700; -803.000; -719.000
366.404; -232.700;-1005.000; -874.000
366.535;   15.000; -139.000;  -12.000
366.667; -182.300; -644.000; -649.000
366.799;   66.700;  353.000;  203.000
366.930; -242.800; -862.000; -996.000
367.062;  119.200; -639.000; -613.000
367.193;  204.400; -872.000; -842.000
367.325;  -83.300; -580.000; -684.000
367.456;   28.300; -246.000;   31.000
367.588;  225.900; -371.000; -318.000
367.719;   62.600;  -44.000;  -45.000
367.851;  -44.200; -222.000; -241.000
367.982; -157.600; -875.000; -732.000
368.113;   92.800; -475.000; -358.000
368.245; -233.300; -960.000; -841.000
368.376;  -29.900; -254.000; -302.000
368.508;  -36.100; -188.000; -263.000
368.639; -264.500;-1166.000;-1034.000
368.770;  -70.300; -670.000; -589.000
368.902; -160.600; -836.000; -926.000
369.033; -201.000; -906.000; -855.000
369.164; -118.100; -720.000; -653.000
369.296; -204.300; -452.000; -601.000
369.427;  -22.800; -209.000; -144.000
369.558;  -95.100; -593.000; -377.000
369.689; -144.000; -721.000; -569.000
369.821; -242.500; -951.000; -845.000
369.952;   17.100;   42.000; -108.000
370.083;  -51.800; -229.000; -108.000
370.214; -164.300; -735.000; -650.000
370.345;   10.200;   65.000;   81.000
370.477; -172.900; -810.000; -790.000
370.608;  285.000; -328.000; -264.000
370.739; -179.100;-1233.000;-1292.000
370.870; -142.600;-1102.000; -923.000
371.001;   93.800; -378.000; -467.000
371.132; -161.200; -754.000; -735.000
371.263;   -7.100;  -42.000; -148.000
371.394; -237.800; -841.000; -748.000
371.525;   85.200;  345.000;  225.000
371.657; -157.900; -808.000; -670.000
371.788;  161.100;  103.000;  199.000
371.919;  219.600; -384.000; -304.000
372.050; 4796.600;  -91.000; -156.000
372.181; 1354.600; -188.000; -294.000
372.311;  498.000;   42.000; -127.000
372.442;  -12.900; -457.000; -451.000
372.573;  -25.900; -444.000; -340.000
372.704; -237.400;-1008.000; -980.000
372.835;   82.200; -228.000; -289.000
372.966; -103.500; -646.000; -554.000
373.097; -149.600; -575.000; -711.000
373.228; -107.400; -717.000; -542.000
373.359;   95.700; -824.000; -536.000
373.490; 1133.200; -881.000; -727.000
373.620; 1368.900;-1001.000; -803.000
373.751; 2259.000; -332.000; -396.000
373.882;  895.800; -663.000; -733.000
374.013;   87.600; -449.000; -262.000
374.143;  -84.100; -581.000; -659.000
374.274; -199.500; -987.000; -908.000
374.405;  238.200; -388.000; -276.000
374.536;  523.100; -526.000; -387.000
374.666; 1364.700; -759.000; -807.000
374.797;  219.500; -817.000; -868.000
374.928; 1018.900; -710.000; -560.000
375.058; 1019.400; -535.000; -500.000
375.189;  109.200;  -59.000;  -93.000
375.320; -218.400; -928.000;-1034.000
375.450;  -99.900; -625.000; -616.000
375.581; -117.700; -526.000; -436.000
375.712;  -57.900; -574.000; -250.000
375.842;  375.500; -438.000; -415.000
375.973;  238.200; -554.000; -513.000
376.103; -104.700; -665.000; -648.000
376.234; -146.200; -531.000; -552.000
376.364; -122.900; -944.000; -867.000
376.495;  470.300;  925.000;  529.000
376.625; -100.200; -472.000; -485.000
376.756;   19.800; -709.000; -678.000
376.886; -193.800;-1178.000;-1026.000
377.017;    2.900;-1048.000;-1061.000
377.147;  510.600; -786.000; -782.000
377.278;  136.000;  174.000;  228.000
377.408; -246.100; -801.000; -815.000
377.538; -194.800; -707.000; -693.000
377.669; -156.000; -537.000; -613.000
377.799; -155.200; -645.000; -635.000
377.929; -117.400; -610.000; -428.000
378.060; -215.100; -781.000; -847.000
378.190;  -83.600; -726.000; -531.000
378.320; -107.700; -401.000; -406.000
378.451;   -8.600; -131.000;  -22.000
378.581;   25.500;  -67.000; -110.000
378.711;  270.500; 1035.000;  866.000
378.841;  -55.900; -533.000; -675.000
378.972; -171.100; -871.000; -751.000
379.102;  -34.300; -652.000; -579.000
379.232;  -17.200; -126.000;  -73.000
379.362; -223.000;-1001.000; -885.000
379.492;  -39.900; -373.000; -424.000
379.623;  160.500;    0.000;  111.000
379.753; -220.000;-1107.000; -974.000
379.883;  325.100;   59.000;  156.000
380.013;  -64.500;-1081.000;-1017.000
380.143; -231.600;-1097.000;-1056.000
380.273; -203.500; -985.000; -861.000
380.403;  -14.400; -344.000; -257.000
380.533;  -99.300; -651.000; -664.000
380.663;  132.500;  173.000;  128.000
380.793; -219.900;-1027.000;-1074.000
380.923;  -50.300; -103.000;  -34.000
381.053; -142.900; -613.000; -623.000
381.183;  -37.300; -106.000; -248.000
381.313;   14.400; -656.000; -470.000
381.443;   43.900; -692.000; -473.000
381.573;  202.300; -402.000; -409.000
381.703;  209.900;-1249.000;-1095.000
381.833; -259.100;-1454.000;-1336.000
381.963;  170.800; -134.000;  -87.000
382.093; 1839.000; -925.000; -909.000
382.223;  512.900; -713.000; -602.000
382.353;  -80.500; -801.000; -608.000
382.482;  393.900;-1091.000; -964.000
382.612;  948.100; -872.000; -644.000
382.742;  498.800; -695.000; -622.000
382.872;  283.500; -565.000; -551.000
383.002;  116.800;  347.000; -132.000
383.131;  -24.500; -226.000; -160.000
383.261; -109.300; -706.000; -768.000
383.391;  432.600; -552.000; -377.000
383.521; 5161.600;  451.000;  263.000
383.650; 1078.600; -947.000; -904.000
383.780;  -97.600; -783.000; -656.000
383.910;  256.700;  880.000;  802.000
384.039;    5.800; -794.000; -656.000
384.169;  124.600;-1205.000;-1017.000
384.299;  -60.000; -650.000; -662.000
384.428; -176.100; -764.000; -680.000
384.558;  -66.300; -308.000; -275.000
384.687;  -72.500; -414.000; -334.000
384.817;   35.100;   75.000;   -2.000
384.947;   24.200; -234.000; -141.000
385.076;  478.800;  982.000;  912.000
385.206;  200.200;  369.000;  480.000
385.335;  -57.900; -549.000; -417.000
385.465; -154.900; -655.000; -663.000
385.594;  193.300;  -53.000;  -44.000
385.724;  431.900; -868.000; -838.000
385.853;  154.500; -296.000; -270.000
385.982; 1779.000; -743.000; -787.000
386.112; 2640.800;-1052.000; -871.000
386.241;  168.300; -307.000; -312.000
386.371;   59.300; -174.000;  -87.000
386.500;  -40.600; -825.000; -789.000
386.629;    5.400; -874.000; -817.000
386.759;  107.000;  -43.000;   68.000
386.888;    0.600; -170.000; -250.000
387.017; -142.900; -648.000; -620.000
387.147; -157.300; -771.000; -798.000
387.276;  -22.000; -410.000; -397.000
387.405;   13.900; -398.000; -342.000
387.535;  -85.600; -452.000; -361.000
387.664; -141.600; -692.000; -620.000
387.793;  109.400; -198.000; -113.000
387.922;  708.900;  255.000;  200.000
388.052;  -14.000; -576.000; -423.000
388.181;   13.500; -342.000; -472.000
388.310; -104.800; -889.000; -710.000
388.439; -138.700; -749.000; -742.000
388.568;  274.300;  365.000;  244.000
388.697; 1318.000; -756.000; -653.000
388.826;  204.800; -768.000; -666.000
388.956;   46.500; -285.000; -307.000
389.085;  -57.700; -347.000; -287.000
389.214; -228.300; -842.000; -872.000
389.343;  -94.100; -645.000; -413.000
389.472;  685.500;  126.000;  149.000
389.601;  770.000;   91.000;    0.000
389.730;  -45.000; -568.000; -687.000
389.859;  145.400;  226.000;   46.000
389.988;  232.300; -423.000; -408.000
390.117;  221.700; -168.000; -146.000
390.246;  -21.000; -331.000; -320.000
390.375;   97.400; -673.000; -626.000
390.504; -101.800; -703.000; -621.000
390.633; -191.600; -672.000; -726.000
390.761; -134.300; -732.000; -645.000
390.890;   36.700;   -4.000; -130.000
391.019;  -74.700; -421.000; -441.000
391.148; -215.800; -826.000; -855.000
391.277; -125.500; -576.000; -493.000
391.406; -129.300; -821.000; -805.000
391.534;   70.600;  574.000; -301.000
391.663; -119.000; -583.000; -645.000
391.792; -200.000; -673.000; -701.000
391.921;  126.000;   -3.000;   15.000
392.050;  221.500; -287.000; -228.000
392.178; -166.500;-1206.000;-1061.000
392.307;  140.600; -758.000; -712.000
392.436;   25.400; -427.000; -641.000
392.564;   82.300;  166.000;   -6.000
392.693; -191.200; -860.000; -682.000
392.822;  229.700; -529.000; -534.000
392.950;   67.200; -880.000; -714.000
393.079;  358.800; -188.000; -328.000
393.208;   -7.000; -488.000; -511.000
393.336;  -10.900; -170.000; -145.000
393.465;  -76.100; -317.000; -199.000
393.593;   63.300;   62.000;   79.000
393.722; -270.200;-1121.000; -916.000
393.850;   -2.700; -188.000;  -61.000
393.979; -276.000; -926.000; -805.000
394.107; -122.200; -517.000; -537.000
394.236;  -50.700; -570.000; -507.000
394.364;  410.400;  383.000;  206.000
394.493;  586.800; -911.000; -767.000
394.621;  -56.100; -955.000; -916.000
394.750; 1135.900; -873.000; -923.000
394.878; 4672.100; -247.000; -149.000
395.007; 5987.200; -721.000; -807.000
395.135;  378.400; -790.000; -721.000
395.263; -161.000;-1038.000;-1040.000
395.392;   52.600;  -25.000; -107.000
395.520; -186.500; -818.000; -679.000
395.648; -203.700; -865.000; -915.000
395.777;  -54.200; -366.000; -405.000
395.905; -102.600; -449.000; -564.000
396.033;   75.200;  217.000;  172.000
396.162; 1067.700; -399.000; -453.000
396.290;  902.800;  -17.000;   -2.000
396.418;  112.900; -555.000; -514.000
396.546; -150.200; -571.000; -466.000
396.674; -201.600; -850.000; -878.000
396.803;   30.800;  -72.000;  -23.000
396.931;  108.400; -179.000; -199.000
397.059;  -20.700;-1026.000; -989.000
397.187; -225.600;-1026.000; -975.000
397.315; -249.700; -884.000; -649.000
397.443; -181.400; -592.000; -443.000
397.572; -164.400; -578.000; -424.000
397.700;  -61.100; -607.000; -614.000
397.828;   13.200;  120.000;  -90.000
397.956; -101.100; -508.000; -478.000
398.084; -120.200; -767.000; -626.000
398.212;   77.400;  137.000;  124.000
398.340;   16.400;  -56.000;  159.000
398.468;   11.900; -390.000; -169.000
398.596; -263.100; -993.000; -953.000
398.724; -234.300; -762.000; -767.000
398.852; -315.600;-1024.000; -976.000
398.980; -118.700; -560.000; -560.000
399.108; -130.300; -982.000; -735.000
399.236;   94.300;   13.000;    8.000
399.363;   44.200;  222.000;  196.000
399.491; -136.800; -404.000; -398.000
399.619; -237.000; -829.000; -800.000
399.747; -187.400; -859.000; -771.000
399.875;  149.400;  220.000;  234.000
400.003;  -41.800; -359.000; -284.000
400.130; -164.000; -421.000; -341.000
400.258;  -31.900;  -83.000;   38.000
400.386;  -95.500; -352.000; -168.000
400.514;  -94.400; -526.000; -587.000
400.641; -196.100; -928.000; -802.000
400.769; -240.500; -979.000; -888.000
400.897; -182.800; -838.000; -793.000
401.025;   -7.000; -166.000; -152.000
401.152;   13.400;  220.000;   38.000
401.280; -130.700; -430.000; -429.000
401.408; -225.800; -712.000; -576.000
401.535; -184.700; -735.000; -758.000
401.663; -329.400;-1134.000;-1054.000
401.790; -155.800; -514.000; -525.000
401.918;  129.900;  436.000;  405.000
402.046;   14.500;  134.000;  122.000
402.173;  -48.000;  -18.000;    7.000
402.301;  -86.300; -519.000; -397.000
402.428;  134.800;  528.000;  383.000
402.556; -264.400;-1188.000; -913.000
402.683;  -35.500;  -20.000;   -1.000
402.811;  -20.800;  -37.000; -206.000
402.938;   46.700;   20.000;   27.000
403.066;  246.700; -574.000; -558.000
403.193;  406.200;  299.000;  239.000
403.321;  313.600; -396.000; -574.000
403.448;  430.500;   83.000;   27.000
403.575;  198.800;  -90.000;  -46.000
403.703; -188.700; -732.000; -557.000
403.830;  -90.700; -531.000; -496.000
403.957; -262.400;-1117.000;-1023.000
404.085;   17.700;  -61.000; -172.000
404.212;  183.300;  -50.000;   63.000
404.339;  410.300; -566.000; -306.000
404.467; 9182.000; -612.000; -524.000
404.594; 5471.200; -287.000; -227.000
404.721; 1110.700; -869.000; -764.000
404.848;  106.900; -113.000; -202.000
404.976; -194.100; -856.000; -783.000
405.103;   15.400;  -14.000;  -82.000
405.230;   44.400;  190.000;  226.000
405.357;   46.200;  117.000;   44.000
405.484;  435.300;  -49.000;    5.000
405.612;   36.800; -548.000; -563.000
405.739;  -76.400; -488.000; -243.000
405.866;  173.400;  669.000;  385.000
405.993;  -87.900; -398.000; -102.000
406.120; -223.100; -801.000; -887.000
406.247; -104.300; -323.000; -342.000
406.374;  667.800;  540.000;  629.000
406.501;   80.400; -632.000; -702.000
406.628; -163.600; -621.000; -589.000
406.755; -192.300; -803.000; -620.000
406.882;  -62.800; -228.000; -277.000
407.009; -187.500; -719.000; -628.000
407.136;   75.700; -480.000; -401.000
407.263;   60.600; -939.000; -829.000
407.390; -158.900; -692.000; -614.000
407.517; -310.100;-1139.000;-1187.000
407.644; -103.300; -332.000; -256.000
407.771; -243.000; -249.000; -287.000
407.898;   29.100;  168.000;  328.000
408.025; -129.200; -421.000; -313.000
408.151;    6.500;   82.000;  153.000
408.278;  -92.200; -267.000; -216.000
408.405; -209.200; -931.000; -899.000
408.532; -115.100; -549.000; -542.000
408.659; -182.300; -677.000; -648.000
408.785; -356.600;-1298.000;-1170.000
408.912;  -94.700; -412.000; -296.000
409.039; -186.600; -610.000; -686.000
409.166; -181.300; -591.000; -555.000
409.292; -185.800; -571.000; -534.000
409.419; -195.100; -665.000; -649.000
409.546; -125.400; -431.000; -192.000
409.672; -173.200; -713.000; -545.000
409.799;   -5.800;  -36.000;   34.000
409.926;  -50.400; -180.000; -179.000
410.052; -329.300;-1127.000;-1091.000
410.179; -102.600; -368.000; -392.000
410.305; -114.700; -375.000; -493.000
410.432;  -43.900; -220.000; -333.000
410.558; -123.600; -305.000; -380.000
410.685; -190.200; -688.000; -431.000
410.812; -160.000; -409.000; -588.000
410.938; -256.500; -964.000; -808.000
411.065; -181.800; -671.000; -645.000
411.191;  -47.200; -189.000; -174.000
411.317; -232.700; -823.000; -742.000
411.444;  -97.900; -317.000; -246.000
411.570;  -98.100; -339.000; -294.000
411.697; -177.800; -758.000; -752.000
411.823; -311.600; -989.000; -999.000
411.949;   -8.300;  -56.000;   17.000
412.076; -222.400; -539.000; -519.000
412.202; -215.100; -758.000; -757.000
412.329; -224.800; -798.000; -752.000
412.455; -211.000; -821.000; -657.000
412.581;   10.200;  -15.000;  172.000
412.707; -120.600; -540.000; -457.000
412.834;   57.200;  156.000;  219.000
412.960; -147.800; -785.000; -784.000
413.086; -197.000; -743.000; -701.000
413.212;  279.000;  604.000;  578.000
413.339; -121.500; -685.000; -701.000
413.465;  -17.900; -364.000; -310.000
413.591; -176.400; -757.000; -474.000
413.717;  -66.100; -358.000; -366.000
413.843; -253.900; -839.000; -861.000
413.969;  -60.400;  -47.000; -292.000
414.096; -196.900; -679.000; -679.000
414.222;   46.700;  -33.000;   85.000
414.348;  -85.800; -652.000; -385.000
414.474;  132.700;   38.000;  -52.000
414.600;   -3.200; -126.000; -144.000
414.726;   17.200;  -96.000;  -55.000
414.852;  -90.100; -365.000; -342.000
414.978;   98.500;  104.000;  -18.000
415.104;   76.200;   38.000;   80.000
415.230;   40.800; -329.000; -330.000
415.356;   52.400; -409.000; -514.000
415.482;  293.600;   13.000;  -35.000
415.608;  435.300; -247.000; -323.000
415.734; 1618.400;   67.000;   38.000
415.860;32187.500; -875.000; -767.000
415.986;21189.400; -685.000; -607.000
416.111; 1720.000; -798.000; -652.000
416.237;  358.100; -424.000; -571.000
416.363; 1927.100; -765.000; -733.000
416.489; 6534.600; -324.000; -251.000
416.615;  606.300; -707.000; -742.000
416.741;  -47.800; -677.000; -784.000
416.866; -155.500; -673.000; -736.000
416.992; -243.800; -801.000; -818.000
417.118;  -40.700;  -41.000;  -80.000
417.244; -143.200; -798.000; -531.000
417.369; -167.400; -801.000; -612.000
417.495;   -5.400; -325.000; -254.000
417.621; -166.300;-1015.000; -803.000
417.746;  -24.700; -579.000; -572.000
417.872;   79.500; -254.000; -144.000
417.998;   35.100; -515.000; -530.000
418.123; 1715.000;-1073.000; -845.000
418.249; 8344.000; -512.000; -601.000
418.374; 1025.400; -916.000; -824.000
418.500;  165.000; -383.000; -482.000
418.626;  192.800;   70.000;  -59.000
418.751;  167.100; -549.000; -448.000
418.877;  276.500; -637.000; -643.000
419.002; 3103.000; -688.000; -560.000
419.128;20001.000; -930.000; -721.000
419.253; 4333.800; -967.000; -837.000
419.379;  578.500; -391.000; -338.000
419.504;  665.300;  325.000;  415.000
419.629;  830.000; -393.000; -212.000
419.755; 6130.900; -317.000; -254.000
419.880;33458.600;  -98.000;   67.000
420.006;18317.500; -280.000; -221.000
420.131;44896.500; -662.000; -775.000
420.256; 5812.300; -315.000; -316.000
420.382;  782.800; -665.000; -687.000
420.507;   61.100; -649.000; -778.000
420.632;  136.600; -337.000; -339.000
420.758;  288.200; -251.000; -425.000
420.883; -158.400; -876.000; -672.000
421.008; -171.900; -775.000; -619.000
421.133; -140.600; -509.000; -467.000
421.259;  -73.400; -325.000; -259.000
421.384; -199.100; -834.000; -693.000
421.509; -125.100;-1052.000; -862.000
421.634; 1366.600; -936.000; -820.000
421.759;  517.800; -359.000; -327.000
421.885; -105.600; -717.000; -656.000
422.010; -128.100; -673.000; -542.000
422.135; -277.000; -695.000; -727.000
422.260;   59.700;  340.000;  280.000
422.385;  -56.500;   12.000;  -98.000
422.510;   57.000;  151.000;  -26.000
422.635;   73.400;  -87.000;  -43.000
422.760;  148.300; -766.000; -791.000
422.885;   75.500;  -57.000;  -80.000
423.010;  -58.100; -112.000; -169.000
423.135; -145.800; -481.000; -561.000
423.260;  -19.000; -150.000; -245.000
423.385;  140.600;  476.000;  222.000
423.510;   73.200;   71.000;  -22.000
423.635;  136.600;  133.000;   45.000
423.760;  123.100;  383.000;  328.000
423.885;  124.100;  336.000;  391.000
424.010;   39.600;  -68.000;  -13.000
424.135;    3.300;    5.000;  -33.000
424.259; -130.300; -654.000; -457.000
424.384;  -90.900; -279.000; -272.000
424.509;   -7.100; -260.000; -186.000
424.634; -141.200; -761.000; -623.000
424.759;  -80.900; -688.000; -544.000
424.883;  -35.700; -506.000; -527.000
425.008;  253.300; -502.000; -410.000
425.133; 3128.500; -679.000; -653.000
425.258; 1311.400; -517.000; -381.000
425.382; 1441.000; -867.000; -774.000
425.507; 3281.200; -487.000; -543.000
425.632;  507.800; -802.000; -663.000
425.756;  700.700; -256.000; -146.000
425.881;11333.600; -831.000; -857.000
426.006;27515.300; -604.000; -355.000
426.130; 3843.600; -696.000; -508.000
426.255;  488.800; -611.000; -491.000
426.379;  252.700; -189.000; -577.000
426.504;  684.100;  660.000;  544.000
426.629; 6447.800; -519.000; -466.000
426.753; 4021.400;   64.000;  -46.000
426.878;  464.500; -252.000; -288.000
427.002;  194.600; -651.000; -668.000
427.127; 2688.800;  -35.000; -158.000
427.251;18434.000;  372.000;  401.000
427.375; 4651.600; -191.000; -173.000
427.500; 3090.200; -616.000; -610.000
427.624;  917.700; -234.000; -400.000
427.749;  130.500; -216.000; -225.000
427.873;  -84.900; -499.000; -412.000
427.997;  -64.700; -222.000; -230.000
428.122;  225.200;  795.000;  703.000
428.246;  176.900;  433.000;  434.000
428.371; -223.300; -869.000; -773.000
428.495; -155.300; -624.000; -646.000
428.619;  -22.900; -186.000; -117.000
428.743;   44.500;   65.000;  132.000
428.868;    0.600; -732.000; -643.000
428.992; 1867.800; -219.000; -326.000
429.116;  691.700; -329.000; -357.000
429.240;  401.100;  419.000;  426.000
429.365;  -27.100; -454.000; -574.000
429.489; -104.700; -638.000; -647.000
429.613;   61.900; -236.000; -177.000
429.737;   63.800; -563.000; -432.000
429.861;  447.300; -247.000; -133.000
429.985; 9221.900; -425.000; -305.000
430.109; 9140.700; -770.000; -908.000
430.234; 1035.800;   76.000;  -50.000
430.358;  115.600; -250.000; -160.000
430.482; -127.300; -672.000; -564.000
430.606;  -87.400; -655.000; -375.000
430.730;   44.200; -437.000; -388.000
430.854;   57.000; -909.000; -835.000
430.978; -173.400; -795.000; -764.000
431.102; -135.900; -499.000; -422.000
431.226; -215.100; -874.000; -815.000
431.350;   88.300;  345.000;  422.000
431.474; -135.000; -661.000; -373.000
431.597; -289.400;-1060.000; -848.000
431.721; -132.100; -276.000; -267.000
431.845; -216.100; -704.000; -472.000
431.969; -136.500; -304.000; -349.000
432.093; -158.000; -395.000; -317.000
432.217;   16.800;   32.000;   82.000
432.341; -124.500; -523.000; -518.000
432.464;   18.900;   96.000;   40.000
432.588;  233.500; -401.000; -329.000
432.712;  122.800;  -52.000;  -52.000
432.836;  105.000;  213.000;  263.000
432.959;  -47.300; -372.000; -311.000
433.083;  173.400;   11.000;    2.000
433.207;  683.800;  285.000;  930.000
433.330; 8442.300; -391.000; -200.000
433.454; 9398.000; -654.000; -638.000
433.578; 5525.800;  583.000;  278.000
433.701;  914.400; -623.000; -675.000
433.825;  157.400; -292.000; -299.000
433.949;  243.500;   28.000;  -72.000
434.072;   33.600; -410.000; -323.000
434.196;  -16.500; -309.000; -117.000
434.319; 7832.400;25482.000;25124.000
434.443; 1214.000; -656.000; -603.000
434.566; 4162.400;  281.000;   62.000
434.690;  573.700; -637.000; -383.000
434.813;  108.800; -251.000; -173.000
434.937; -156.500; -569.000; -696.000
435.060;  -62.300; -423.000; -332.000
435.184;  349.500; -492.000; -217.000
435.307;  196.600;  159.000;  102.000
435.431;  -18.700;  -40.000;   24.000
435.554;  -95.600; -399.000; -240.000
435.677; -113.600; -350.000; -258.000
435.801;  -37.300;  -25.000;   49.000
435.924;   17.800;    1.000;  -67.000
436.048; -223.100;-1019.000; -732.000
436.171; -113.800; -240.000;  -66.000
436.294;  -17.500; -248.000; -229.000
436.417;  108.700; -963.000; -849.000
436.541; -167.500; -814.000; -840.000
436.664;  -50.300; -242.000; -316.000
436.787;   16.900;   13.000;  113.000
436.910; -187.700; -792.000; -422.000
437.034;   49.200;  142.000;  143.000
437.157;  103.800;  -11.000;    0.000
437.280; -120.200; -392.000; -292.000
437.403; -204.100; -982.000; -869.000
437.526;  759.300; -903.000; -865.000
437.649; 2639.700; -505.000; -332.000
437.772;  301.900; -692.000; -540.000
437.896;  231.900;  700.000;  544.000
438.019; -154.800; -758.000; -503.000
438.142; -132.200; -596.000; -506.000
438.265;  -73.200; -639.000; -670.000
438.388;  687.600; -520.000; -410.000
438.511;   70.100; -597.000; -394.000
438.634;  -89.400; -247.000; -125.000
438.757; -212.800; -693.000; -619.000
438.880;  -29.300;  -34.000;  -57.000
439.003; -109.600; -417.000; -437.000
439.126;  -63.800; -287.000; -167.000
439.248;  -63.200;  -98.000; -139.000
439.371;  -18.400;    9.000;  -53.000
439.494;  136.300;  510.000;  439.000
439.617;  -38.600;   65.000;  -88.000
439.740; -306.400; -968.000; -816.000
439.863; -219.700; -755.000; -595.000
439.986; -203.200; -476.000; -431.000
440.108;  -55.300; -161.000; -112.000
440.231; -276.800; -950.000; -836.000
440.354;  -56.900;  -64.000; -150.000
440.477;  -26.900; -566.000; -542.000
440.599;   -1.400; -200.000; -225.000
440.722; -206.000; -709.000; -586.000
440.845;  177.700;  751.000;  928.000
440.968; -160.000; -415.000; -311.000
441.090;  -76.000; -199.000;  -33.000
441.213; -296.400;-1021.000; -825.000
441.336;  -55.600; -159.000;   -5.000
441.458; -114.500; -549.000; -396.000
441.581; -178.000; -628.000; -629.000
441.703;  -93.900; -152.000;   13.000
441.826; -185.800; -557.000; -400.000
441.948;  -22.600;   56.000;   51.000
442.071;   88.600;  555.000;  424.000
442.193; -186.200; -531.000; -485.000
442.316;   62.800;  152.000;   97.000
442.438;   65.100; -233.000;  -10.000
442.561;  134.200;  272.000;  262.000
442.683;  647.300; -809.000; -522.000
442.806; 1358.500;   -8.000;   74.000
442.928;  -68.600; -859.000; -604.000
443.051; -125.300; -577.000; -373.000
443.173; -130.900; -341.000; -339.000
443.295; -153.200; -263.000; -371.000
443.418; -109.000; -321.000;  -29.000
443.540;  -12.800; -106.000;   -4.000
443.662; -178.500; -563.000; -465.000
443.785;   22.200;  335.000;  199.000
443.907; -147.800; -362.000; -208.000
444.029; -205.000; -767.000; -494.000
444.152; -225.000; -644.000; -554.000
444.274;    2.000;  -18.000;  -24.000
444.396; -188.800; -461.000; -221.000
444.518; -205.900; -691.000; -454.000
444.640; -164.300; -268.000; -111.000
444.763;   32.500;  388.000;  249.000
444.885; -183.700; -432.000; -392.000
445.007;  -22.400;   35.000;   86.000
445.129; -186.600; -610.000; -515.000
445.251; -170.800; -372.000; -439.000
445.373; -222.800; -537.000; -386.000
445.495;   96.400;  242.000;  350.000
445.617;  170.100;  853.000;  753.000
445.739;  -96.800; -215.000;  -97.000
445.861;  -54.700; -245.000; -112.000
445.984;  -63.800; -267.000; -101.000
446.105;  253.800; -418.000; -251.000
446.227;  762.300; -176.000;  -19.000
446.349;  -38.600; -358.000; -249.000
446.471; -188.600; -615.000; -448.000
446.593;  -74.700; -316.000;   19.000
446.715;   18.900;  -67.000;   41.000
446.837;  184.700;  697.000;  832.000
446.959; -147.000; -457.000; -478.000
447.081; -223.700; -628.000; -518.000
447.203;  166.900;  862.000;  834.000
447.325; -128.600; -270.000;   42.000
447.446;    8.300;  286.000;  530.000
447.568; -265.700; -921.000; -803.000
447.690; -137.700; -236.000; -245.000
447.812; -253.000; -798.000; -519.000
447.933;  -33.700;  155.000;  127.000
448.055;  -84.900; -306.000; -261.000
448.177;  222.200;   31.000;   79.000
448.299;   17.600; -935.000; -727.000
448.420;   57.600;  -25.000;  159.000
448.542;  -31.200;   -3.000;   33.000
448.664;   21.700;  109.000;  322.000
448.785;  -14.900;  265.000;   83.000
448.907; -129.200; -614.000; -353.000
449.028;  -72.300; -771.000; -471.000
449.150;  154.400;  492.000;  589.000
449.272; -298.900;-1044.000; -913.000
449.393;  127.300;  612.000;  694.000
449.515; -251.400; -634.000; -581.000
449.636;  -41.500; -264.000; -155.000
449.758;  204.300;  763.000;  622.000
449.879; -113.800; -498.000; -396.000
450.001; -107.100; -149.000;  -49.000
450.122;  -40.600;  -95.000;  162.000
450.244;   14.300;   37.000;  364.000
450.365; -162.500; -495.000; -301.000
450.486;   -1.800;   80.000;  268.000
450.608;  119.200;  393.000;  326.000
450.729;  184.100;  578.000;  645.000
450.850;   36.000; -574.000; -466.000
450.972; 1315.800; -552.000; -389.000
451.093; 8124.900;  190.000;  588.000
451.214; 3051.900; -516.000; -337.000
451.336;  646.100;  773.000;  579.000
451.457;  124.000;  264.000;  393.000
451.578;  -59.000; -118.000;  -74.000
451.699; -169.900; -546.000; -540.000
451.821;  -60.500; -284.000;  -50.000
451.942;   24.800;  278.000;  285.000
452.063;   91.800;  228.000;  419.000
452.184; 1008.700;  -54.000;  -49.000
452.305; 1719.200;  103.000;  170.000
452.427;  194.900; -549.000; -301.000
452.548;   11.200;   23.000;   79.000
452.669;  -41.900; -257.000;  -89.000
452.790;  -45.300;    3.000;  -18.000
452.911;   49.800;  195.000;  259.000
453.032; -103.200; -289.000;  -60.000
453.153;  -58.300;  -29.000;   81.000
453.274;  178.900;  737.000;  868.000
453.395;  -72.900;  -51.000;  175.000
453.516;   84.200; 1317.000; 1388.000
453.637; -118.700; -205.000; -150.000
453.758;  -53.800;   15.000;   69.000
453.879; -141.400; -462.000; -250.000
454.000;  219.100; 1086.000;  948.000
454.121; -215.400; -554.000; -326.000
454.242; -186.300; -599.000; -383.000
454.362;  -56.100;  -99.000;  114.000
454.483;  -42.700; -309.000; -229.000
454.604;  189.100;  512.000;  580.000
454.725; -203.500; -627.000; -555.000
454.846; -193.500; -474.000; -406.000
454.967;    9.200;  230.000;  539.000
455.087;   -4.800;  179.000;  153.000
455.208;  110.300;  554.000;  856.000
455.329;  -78.800;  -22.000;   82.000
455.450;  131.400;  473.000;  633.000
455.570; -106.300; -234.000; -211.000
455.691;  -23.700;  201.000;  407.000
455.812; -179.300; -270.000;  -92.000
455.932;  -65.900;  107.000;  -97.000
456.053; -107.400;   36.000;   24.000
456.173; -172.100; -433.000; -355.000
456.294; -205.100; -476.000; -303.000
456.415;  -79.300;  -73.000;   70.000
456.535;  -53.900;  297.000;  273.000
456.656;   -7.800;  132.000;  240.000
456.776;  -72.100;    3.000;  298.000
456.897;   14.100;  308.000;  513.000
457.017;  -86.700; -153.000;   -3.000
457.138; -162.300; -402.000; -249.000
457.258;   -4.900;  263.000;  224.000
457.379;   29.200;  509.000;  521.000
457.499;   -9.900;  443.000;  432.000
457.620; -198.300; -407.000; -231.000
457.740; -129.800; -132.000;  -11.000
457.860;  -24.200;   87.000;   44.000
457.981;  -52.900;  132.000;  124.000
458.101; -131.200;  -89.000;   40.000
458.221;   27.700;  336.000;  402.000
458.342;  -45.100;   -4.000;  -37.000
458.462;   98.600;  617.000;  352.000
458.582;  -50.400; -302.000; -294.000
458.703;   77.400;  303.000;  154.000
458.823;    0.600;   22.000;  163.000
458.943;   71.900;  341.000;  467.000
459.063;    4.300; 1124.000;  192.000
459.183;   -5.500;  328.000;  313.000
459.304;   60.100;  315.000;  517.000
459.424;  -86.500; -246.000;  -89.000
459.544;  641.000;  388.000;  764.000
459.664; 1363.200;  499.000;  506.000
459.784;  514.800; 1004.000; 1175.000
459.904;  193.500;  867.000;  744.000
460.024;  161.300;  867.000;  684.000
460.144;   87.700;  449.000;  554.000
460.264;   40.400;  515.000;  327.000
460.385;  -97.500; -145.000; -119.000
460.505;  137.900;  905.000;  858.000
460.625; -117.500;  -17.000;  -68.000
460.745;    4.800;  396.000;  541.000
460.864;  -36.600;  153.000;  469.000
460.984;   43.400;  499.000;  573.000
461.104;  313.700; 1656.000; 1775.000
461.224;   45.300;  657.000;  650.000
461.344;    8.600;  431.000;  360.000
461.464;  -29.000;  258.000;  513.000
461.584;   -9.000;  283.000;  466.000
461.704;  -42.500;   58.000;  108.000
461.824;  -65.600;  238.000;  259.000
461.943;   -5.000;  191.000;  130.000
462.063; -116.500;    2.000;  324.000
462.183;  129.700;  639.000;  717.000
462.303;  240.800; 1678.000; 1230.000
462.422;   98.100;  781.000;  840.000
462.542;  -12.800;  271.000;  391.000
462.662;   85.100;  353.000;  380.000
462.782;  487.000;  833.000;  572.000
462.901;  770.300;  545.000;  717.000
463.021;  560.300; 1702.000; 1638.000
463.141;   37.200;  337.000;  770.000
463.260;   14.400;  614.000;  474.000
463.380;   62.300;  902.000;  884.000
463.499;  -23.400;  342.000;  332.000
463.619;  -28.900;  581.000;  559.000
463.738;  260.200; 1644.000;  903.000
463.858;   76.300;  657.000;  811.000
463.978;  -15.300;  542.000;  396.000
464.097;  153.500;  921.000; 1114.000
464.217;  304.600; 1196.000; 1143.000
464.336;  256.700; 1068.000; 1130.000
464.455;  -16.300;  328.000;  659.000
464.575;  107.600;  597.000;  602.000
464.694;  346.700; 1204.000; 1179.000
464.814;  259.100; 1190.000; 1138.000
464.933;  180.100; 1095.000; 1027.000
465.052;  289.400; 1412.000; 1054.000
465.172;  201.200;  922.000;  799.000
465.291;  283.100; 1376.000; 1320.000
465.410;   88.000;  462.000;  735.000
465.530;  256.300; 1355.000; 1310.000
465.649;  203.700; 1209.000; 1273.000
465.768;  314.000; 1673.000; 1508.000
465.888;  173.600;  941.000; 1174.000
466.007;  225.200; 1335.000; 1440.000
466.126;   56.500;  721.000;  641.000
466.245;  182.500; 1176.000; 1187.000
466.364;  118.600;  950.000; 1060.000
466.484;  151.500; 1024.000; 1213.000
466.603;  152.500; 1101.000; 1222.000
466.722;  289.300; 1490.000; 1769.000
466.841;  244.800; 1151.000; 1401.000
466.960;  126.000; 1069.000;  972.000
467.079;  361.900; 1971.000; 1786.000
467.198;  164.400; 1238.000; 1181.000
467.317;  254.300; 1768.000; 1162.000
467.436;  190.000; 1709.000; 1261.000
467.555;  327.200; 1796.000; 1746.000
467.674;  164.700; 1227.000; 1329.000
467.793;  150.600; 1376.000; 1374.000
467.912;  200.800; 1658.000; 1539.000
468.031;  348.900; 2038.000; 1930.000
468.150;  338.700; 1842.000; 1837.000
468.269;  450.900; 2313.000; 2090.000
468.388;  454.200; 2168.000; 2339.000
468.507;  581.000; 2884.000; 2903.000
468.626;  600.300; 2555.000; 2541.000
468.744;  359.800; 2018.000; 2174.000
468.863;  464.500; 2312.000; 2523.000
468.982;  251.100; 1503.000; 1555.000
469.101;  548.200; 2788.000; 2692.000
469.220;  371.500; 2333.000; 2176.000
469.338;  523.500; 2935.000; 3051.000
469.457;  451.800; 2719.000; 2545.000
469.576;  772.900; 3953.000; 3784.000
469.695;  568.700; 2877.000; 3066.000
469.813;  885.200; 4148.000; 4192.000
469.932;  902.800; 4255.000; 4485.000
470.051;  923.900; 4075.000; 4161.000
470.169; 1610.900; 4470.000; 4338.000
470.288; 2599.800; 4700.000; 4809.000
470.406; 1605.100; 5059.000; 5194.000
470.525; 1300.400; 6101.000; 5787.000
470.644; 1331.900; 6847.000; 6794.000
470.762; 1731.500; 8397.000; 7873.000
470.881; 1933.200; 8651.000; 8464.000
470.999; 2179.300; 9685.000; 9151.000
471.118; 2254.400;11174.000;10711.000

