
Integration time [ms]: 200.000
Averaging Nr. [scans]: 10
Smoothing Nr. [pixels]: 0
Data measured with spectrometer [name]: 2101012U2
Wave   ;Sample   ;Dark     ;Reference
[nm]   ;[counts] ;[counts] ;[counts] 

197.733;  109.800;  516.000;  404.000
197.879; -184.400; -610.000; -634.000
198.025; -117.800; -475.000; -420.000
198.171; -127.800; -602.000; -612.000
198.317;  -50.400; -401.000; -316.000
198.463; -137.300; -655.000; -404.000
198.609;   81.100;  181.000; -137.000
198.755; -172.300; -644.000; -410.000
198.901; -123.900; -505.000; -424.000
199.047; -123.400; -615.000; -488.000
199.193;  -70.100; -230.000; -468.000
199.339;  -85.000; -222.000; -369.000
199.485;   90.600;  330.000;  271.000
199.631;   11.900;  227.000;  310.000
199.777; -120.800; -466.000; -398.000
199.923; -123.400; -610.000; -424.000
200.069;    4.000; -141.000;  -58.000
200.215;  146.000;  128.000;  453.000
200.361;   88.700;  243.000;  477.000
200.507; -122.200; -600.000; -373.000
200.653;  -38.600; -371.000; -194.000
200.798;  -67.100; -215.000; -125.000
200.944;    8.400; -146.000;  -41.000
201.090;   63.900;   61.000;  222.000
201.236;  -19.100; -116.000; -158.000
201.382;  247.500;  874.000;  903.000
201.528;    6.600;  -58.000;  -48.000
201.674;  -86.800; -386.000; -293.000
201.819; -126.500; -540.000; -439.000
201.965; -164.400; -699.000; -447.000
202.111;  -45.200; -273.000; -226.000
202.257;  -48.600; -250.000; -238.000
202.402;   21.600;   13.000;  -36.000
202.548;  -39.600; -169.000; -116.000
202.694;  204.400;  410.000; -183.000
202.840; -123.700; -603.000; -531.000
202.985; -159.200; -681.000; -639.000
203.131; -217.500; -832.000; -666.000
203.277;  -37.900; -199.000; -262.000
203.423; -109.700; -434.000; -520.000
203.568;  -71.900; -462.000; -237.000
203.714; -161.300; -535.000; -542.000
203.860; -187.800; -682.000; -641.000
204.005;   69.500;  112.000;  167.000
204.151;  173.200;  561.000;  556.000
204.296;  -90.000; -354.000; -221.000
204.442; -146.000; -600.000; -547.000
204.588; -139.400; -592.000; -579.000
204.733;   18.500;  178.000;  168.000
204.879; -277.200;-1018.000; -822.000
205.025;   40.400;  -99.000;  126.000
205.170;  -18.100;  -17.000;   94.000
205.316;  180.400;  438.000;  661.000
205.461; -175.600; -698.000; -554.000
205.607;  167.200;  609.000;  665.000
205.752; -175.500; -626.000; -551.000
205.898; -101.800; -501.000; -391.000
206.043; -101.600; -578.000; -506.000
206.189;  -86.600; -243.000; -285.000
206.334;  183.000;  554.000;  606.000
206.480;  154.200;  409.000;  239.000
206.625; -173.600; -529.000; -552.000
206.771;  -88.000; -451.000; -373.000
206.916;  -63.300; -210.000; -537.000
207.062; -138.500; -545.000; -591.000
207.207; -130.300; -546.000; -443.000
207.353;  113.300;  185.000;  460.000
207.498;   33.700;  196.000;   85.000
207.643; -114.700; -501.000; -370.000
207.789; -288.300;-1069.000; -910.000
207.934; -208.500; -665.000; -713.000
208.080;  -25.300; -154.000;   66.000
208.225;  -16.000;  -22.000;  -57.000
208.370; -148.900; -727.000; -619.000
208.516; -190.400; -741.000; -487.000
208.661;  -36.900; -127.000;  -69.000
208.806;  -32.300; -165.000; -171.000
208.952; -228.600;-1044.000; -731.000
209.097;  158.200;  378.000;  349.000
209.242;  -78.300; -307.000; -382.000
209.387;   96.900;  392.000;  350.000
209.533; -100.900; -321.000; -350.000
209.678;  164.400;  472.000;  543.000
209.823; -116.900; -408.000; -310.000
209.969; -197.800; -860.000; -757.000
210.114; -223.000; -907.000; -719.000
210.259; -256.700; -939.000; -889.000
210.404;   16.600; -171.000;  103.000
210.549;    6.800;  108.000;    3.000
210.695;  -31.300;   -3.000;  -95.000
210.840;   86.000;   94.000;   67.000
210.985; -115.900; -484.000; -303.000
211.130;  175.200;  268.000;  406.000
211.275;   37.300;  207.000;  199.000
211.420; -126.900; -300.000; -289.000
211.566; -134.700; -536.000; -489.000
211.711;   37.700;  218.000;  157.000
211.856; -119.600; -545.000; -519.000
212.001;   27.400;  151.000;   44.000
212.146;   57.100;  153.000;   49.000
212.291;  -16.900; -210.000; -186.000
212.436;  -38.500; -280.000;   -6.000
212.581; -187.500; -685.000; -653.000
212.726; -143.200; -487.000; -538.000
212.871; -120.900; -552.000; -217.000
213.016; -337.300;-1172.000;-1029.000
213.161;  137.100;  406.000;  291.000
213.306; -145.700; -435.000; -577.000
213.451; -189.800; -778.000; -689.000
213.596; -118.900; -455.000; -347.000
213.741; -111.000; -448.000; -538.000
213.886; -134.300; -498.000; -517.000
214.031;  -43.800; -294.000; -124.000
214.176; -101.000; -408.000; -341.000
214.321;  -48.700; -296.000; -157.000
214.466;  -42.600; -163.000;  -43.000
214.611;   -1.000;  -61.000;  -10.000
214.756; -245.800; -948.000; -858.000
214.901;  -53.400; -388.000; -226.000
215.046; -244.400; -797.000; -825.000
215.191;   54.500;  128.000;   35.000
215.336;  -16.100; -157.000;  -19.000
215.480; -154.900; -684.000; -505.000
215.625;   -1.400; -175.000;  -19.000
215.770; -137.800; -757.000; -662.000
215.915;  -38.800;   -5.000;  -97.000
216.060;   -2.200; -113.000;  -21.000
216.205; -219.100; -731.000; -779.000
216.349; -154.900; -470.000; -533.000
216.494; -278.100; -939.000; -867.000
216.639; -222.700; -823.000; -888.000
216.784; -173.700; -577.000; -525.000
216.929;  130.900;  392.000;  281.000
217.073;  -10.600; -244.000;  -31.000
217.218;   14.900;   78.000;  -47.000
217.363; -171.700; -656.000; -618.000
217.507; -168.600; -623.000; -588.000
217.652; -255.300; -845.000; -874.000
217.797; -199.200; -708.000; -659.000
217.942; -213.400; -856.000; -720.000
218.086;  153.000;  608.000;  539.000
218.231;  -39.500; -174.000;  -26.000
218.376;  -62.300; -337.000; -229.000
218.520;   24.800;  -41.000;   96.000
218.665;  -72.900; -338.000; -204.000
218.810;  -75.800; -275.000; -233.000
218.954;   55.500;  201.000;   35.000
219.099; -220.800; -713.000; -963.000
219.243; -134.800; -589.000; -554.000
219.388;  -44.600; -264.000; -136.000
219.532;  -20.300; -116.000; -116.000
219.677; -168.400; -564.000; -521.000
219.822;    8.600;   33.000;   89.000
219.966;   36.900;   17.000;  -99.000
220.111;  -51.400; -328.000;  -40.000
220.255; -190.400; -797.000; -750.000
220.400;  -42.400; -180.000; -146.000
220.544; -146.500; -516.000; -450.000
220.689;  -92.600; -422.000; -451.000
220.833;  -44.700; -123.000;  -58.000
220.978;  -99.300; -393.000; -563.000
221.122;   34.500;  319.000;  307.000
221.267; -234.300; -906.000; -837.000
221.411; -130.400; -478.000; -394.000
221.555;  -11.700; -104.000;  -23.000
221.700;  -68.500; -329.000; -222.000
221.844;   83.400;  255.000;  272.000
221.989;  -88.200; -328.000; -311.000
222.133;  -89.100; -289.000; -307.000
222.277;  -41.200;    5.000;   78.000
222.422;   92.800;  227.000;  113.000
222.566;  -50.800; -381.000; -214.000
222.711; -129.100; -414.000; -479.000
222.855; -153.700; -643.000; -586.000
222.999; -168.400; -642.000; -717.000
223.144;  -77.300; -195.000; -194.000
223.288;  122.800;  423.000;  251.000
223.432;   71.900;  184.000;  230.000
223.576;   74.100;  152.000;  -21.000
223.721;   83.000;  364.000;  273.000
223.865;  -88.200; -472.000; -475.000
224.009;  526.800; 1673.000; 1631.000
224.153; -160.200; -660.000; -671.000
224.298; -108.200; -531.000; -489.000
224.442;    2.600;  -74.000;  -33.000
224.586;    5.600; -169.000; -106.000
224.730; -185.800; -858.000; -670.000
224.875; -246.700; -739.000; -688.000
225.019;   42.400;  102.000;  188.000
225.163;  140.400;  208.000;  341.000
225.307;   63.600;   97.000;  -91.000
225.451;  128.900;  360.000;  481.000
225.595;   88.000;  264.000;  176.000
225.739;  -25.600; -170.000;  -94.000
225.884;   23.500;   86.000;    5.000
226.028; -181.000; -760.000; -626.000
226.172;  -64.800; -260.000; -273.000
226.316; -217.100; -941.000; -902.000
226.460; -133.100; -645.000; -493.000
226.604;  -97.000; -406.000; -400.000
226.748; -194.800; -836.000; -733.000
226.892;  -44.100; -227.000; -181.000
227.036;  -89.500; -537.000; -447.000
227.180; -106.600; -551.000; -375.000
227.324; -127.400; -561.000; -580.000
227.468; -211.700; -819.000; -717.000
227.612;   33.800;  242.000;  -28.000
227.756; -187.100; -845.000; -698.000
227.900;  151.400;  342.000;  441.000
228.044; -114.800; -509.000; -290.000
228.188;  115.800;  448.000;  568.000
228.332; -153.500; -546.000; -472.000
228.476;  -43.900; -223.000; -149.000
228.620;  -66.600; -210.000; -150.000
228.764;  161.200;  431.000;  349.000
228.908;  -18.100; -155.000;   30.000
229.052; -127.600; -615.000; -528.000
229.195;   -1.100; -172.000;   13.000
229.339;  -42.800; -235.000; -305.000
229.483;  -44.300;    5.000; -162.000
229.627;    6.100; -156.000;  139.000
229.771;  -93.100; -218.000; -294.000
229.915;   11.500;  230.000;   79.000
230.059; -206.100; -648.000; -663.000
230.202;  -82.100; -370.000; -317.000
230.346;  -29.500; -107.000;  107.000
230.490; -131.700; -489.000; -521.000
230.634; -203.700; -736.000; -553.000
230.777;  185.800;  478.000;  509.000
230.921; -111.400; -450.000; -359.000
231.065;  -82.900; -246.000; -286.000
231.209;   92.700;  261.000;  265.000
231.352;   34.900;   54.000;   40.000
231.496;   55.000;  568.000;  188.000
231.640; -162.100; -693.000; -621.000
231.783;  158.900;  546.000;  525.000
231.927;  -65.500; -294.000; -365.000
232.071; -239.900; -962.000; -736.000
232.214; -228.400; -980.000; -764.000
232.358; -167.800; -683.000; -599.000
232.502;   26.100;  -19.000;    7.000
232.645; -278.800;-1090.000; -927.000
232.789;  -42.000; -257.000; -218.000
232.933;  -58.200; -407.000; -224.000
233.076; -234.800;-1038.000; -897.000
233.220; -194.500; -752.000; -777.000
233.363; -169.600; -669.000; -477.000
233.507;  114.100;  371.000;  129.000
233.650; -202.200; -764.000; -834.000
233.794;  104.900;  438.000;  461.000
233.938; -130.300; -530.000; -362.000
234.081;  -52.600;  -93.000;   31.000
234.225;  -94.000; -631.000; -539.000
234.368; -215.200; -773.000; -723.000
234.512;  -61.500; -385.000; -299.000
234.655; -164.000; -582.000; -555.000
234.798; -124.400; -493.000; -466.000
234.942; -264.500; -884.000;-1002.000
235.085; -145.900; -651.000; -443.000
235.229; -158.700; -405.000; -410.000
235.372;  -86.500; -247.000; -191.000
235.516; -101.600; -397.000; -321.000
235.659;   48.600;   92.000;  121.000
235.802;  -33.700;  -38.000;  -22.000
235.946;   51.600;  335.000;  215.000
236.089;   99.400;  126.000;  250.000
236.233;  133.400;  275.000;  298.000
236.376;  -93.800; -235.000; -378.000
236.519;  -90.400; -297.000; -319.000
236.663;  -51.800; -215.000; -117.000
236.806; -274.700;-1029.000; -999.000
236.949;  169.000;  543.000;  431.000
237.092;  134.200;  412.000;  391.000
237.236; -175.500; -589.000; -502.000
237.379;  144.300;  352.000;  428.000
237.522; -235.600; -879.000; -768.000
237.666;  -24.500; -271.000;   18.000
237.809; -257.700; -851.000; -823.000
237.952;   95.000;  469.000;  271.000
238.095; -101.300; -447.000; -442.000
238.238;  152.700;  688.000;  700.000
238.382;    8.200;  166.000;  103.000
238.525; -117.800; -598.000; -511.000
238.668; -282.200;-1060.000; -985.000
238.811; -161.900; -638.000; -643.000
238.954; -103.300; -483.000; -334.000
239.097;  203.800;  617.000;  664.000
239.241;   80.900;  394.000;  326.000
239.384;  -46.500; -254.000; -214.000
239.527; -118.500; -424.000; -224.000
239.670; -324.400; -994.000;-1091.000
239.813; -205.900; -696.000; -658.000
239.956;  172.300;  579.000;  473.000
240.099; -239.300; -778.000; -725.000
240.242;  150.600;  428.000;  432.000
240.385;   85.700;  466.000;  450.000
240.528; -143.900; -706.000; -473.000
240.671;   54.300;  189.000;  134.000
240.814;  -74.600; -441.000; -158.000
240.957; -191.300; -767.000; -578.000
241.100; -167.400; -779.000; -755.000
241.243; -285.500;-1234.000; -893.000
241.386; -108.600; -508.000; -379.000
241.529; -141.100; -735.000; -547.000
241.672; -140.900; -566.000; -495.000
241.815; -198.000; -832.000; -808.000
241.958;  -66.300; -125.000; -182.000
242.101; -132.000; -545.000; -390.000
242.244; -104.600; -270.000; -325.000
242.387;  -75.100; -304.000; -246.000
242.530;  123.400;  470.000;  134.000
242.673;  -86.000; -381.000; -309.000
242.815; -236.300; -925.000; -899.000
242.958; -128.300; -482.000; -381.000
243.101;   42.600;  132.000;  187.000
243.244; -140.000; -564.000; -521.000
243.387;  -93.100; -313.000; -316.000
243.530; -183.700; -657.000; -674.000
243.672;   29.600;   43.000;  -92.000
243.815;  -70.000; -355.000; -283.000
243.958;   13.500;   98.000;  -26.000
244.101;    3.700;   59.000;  -16.000
244.243;   -9.700;  -47.000;  101.000
244.386; -218.000; -761.000; -630.000
244.529;  -40.500; -132.000; -139.000
244.672; -309.400;-1154.000; -951.000
244.814; -197.000; -621.000; -794.000
244.957;  -67.500; -380.000; -304.000
245.100; -143.800; -489.000; -489.000
245.242; -104.200; -387.000; -374.000
245.385;   40.600;  -59.000;  -39.000
245.528; -230.300; -871.000; -705.000
245.670;  197.000;  612.000;  634.000
245.813; -146.700; -599.000; -547.000
245.956;  -29.000; -324.000; -275.000
246.098; -165.600; -508.000; -650.000
246.241;   16.800;  194.000;   48.000
246.383;  -30.200; -119.000;  -73.000
246.526; -172.400; -454.000; -525.000
246.669; -232.000; -889.000; -780.000
246.811;   48.400;  172.000;   -1.000
246.954; -139.200; -512.000; -426.000
247.096;    4.800;  -84.000;   -6.000
247.239; -101.400; -482.000; -445.000
247.381; -110.300; -647.000; -488.000
247.524;  194.400;  645.000;  679.000
247.666;   -9.600;   58.000;   11.000
247.809; -207.800; -887.000; -691.000
247.951;  -12.600;  -75.000;  138.000
248.094;   76.700;  432.000;  308.000
248.236; -338.000;-1262.000;-1238.000
248.378;   30.300; -356.000;  -81.000
248.521;  -38.100; -334.000; -337.000
248.663;  -61.000; -236.000; -267.000
248.806;  -49.600; -300.000; -266.000
248.948; -202.800; -886.000; -763.000
249.090;  -82.500; -428.000; -398.000
249.233; -101.100; -344.000; -381.000
249.375;  -96.300; -474.000; -451.000
249.518;   -5.100;  -83.000; -133.000
249.660;  -15.000; -103.000;    3.000
249.802; -332.500;-1303.000;-1189.000
249.945; -153.800; -612.000; -540.000
250.087; -227.100; -834.000; -768.000
250.229;  -88.200; -362.000; -480.000
250.371; -124.900; -494.000; -439.000
250.514; -125.700; -310.000; -244.000
250.656; -122.500;   69.000;  102.000
250.798; -227.800; -849.000; -800.000
250.940; -113.200; -322.000; -322.000
251.083;  -45.800; -335.000; -111.000
251.225;  111.000;  338.000;  310.000
251.367;  -36.000; -274.000; -373.000
251.509;  -49.800; -265.000; -210.000
251.651; -171.000; -731.000; -671.000
251.794;  162.900;  538.000;  632.000
251.936; -196.300; -821.000; -747.000
252.078; -140.600; -540.000; -461.000
252.220; -130.100; -645.000; -477.000
252.362;  200.000;  344.000;  462.000
252.504; -142.100; -677.000; -584.000
252.646; -209.900; -875.000; -722.000
252.788;    2.900;   14.000; -128.000
252.931;  -14.100; -257.000; -253.000
253.073;  -74.900; -376.000; -317.000
253.215;   -4.800;  141.000;  122.000
253.357;  -19.100;   82.000; -153.000
253.499;  -71.000; -374.000; -234.000
253.641; -150.600; -749.000; -594.000
253.783; -167.800; -609.000; -527.000
253.925; -176.100; -586.000; -591.000
254.067; -208.400; -744.000; -667.000
254.209;  -27.900; -391.000; -259.000
254.351; -252.900; -865.000; -883.000
254.493; -115.200; -441.000; -417.000
254.635; -224.100; -936.000; -818.000
254.777; -153.600; -752.000; -687.000
254.918; -131.000; -512.000; -430.000
255.060;  -96.300; -551.000; -395.000
255.202;  -75.900; -473.000; -261.000
255.344; -164.800; -658.000; -455.000
255.486; -143.800; -471.000; -406.000
255.628; -226.500; -780.000; -781.000
255.770; -167.100; -676.000; -536.000
255.912; -138.900; -559.000; -468.000
256.053; -178.900; -730.000; -508.000
256.195;  328.800; 1008.000;  903.000
256.337; -178.600; -861.000; -595.000
256.479;  170.200;  532.000;  416.000
256.621;  -79.000; -394.000; -212.000
256.762; -191.800; -789.000; -742.000
256.904;  146.600;  485.000;  487.000
257.046;  -79.300; -381.000; -271.000
257.188;  -69.700; -351.000; -264.000
257.329; -155.900; -525.000; -464.000
257.471; -206.700; -939.000; -807.000
257.613; -110.000; -584.000; -498.000
257.755; -292.500;-1073.000; -982.000
257.896;   86.500;  286.000;  392.000
258.038; -140.100; -403.000; -352.000
258.180;  -39.600; -354.000; -279.000
258.321; -152.800; -581.000; -457.000
258.463;    9.000;  -71.000;  133.000
258.605; -185.800; -562.000; -570.000
258.746; -215.200; -886.000; -772.000
258.888; -285.400;-1026.000;-1020.000
259.029;   57.100;  121.000;   -8.000
259.171; -170.300; -614.000; -550.000
259.313;   23.700;  -49.000;  -47.000
259.454; -138.600; -536.000; -414.000
259.596; -112.100; -483.000; -390.000
259.737; -125.300; -590.000; -474.000
259.879;   98.000;  217.000;  311.000
260.020;  198.300;  901.000;  636.000
260.162;  -48.500; -146.000; -253.000
260.303; -229.400; -768.000; -687.000
260.445; -144.900; -609.000; -613.000
260.586;   57.700;  392.000;  157.000
260.728;  -74.500; -360.000; -248.000
260.869; -115.100; -350.000; -343.000
261.011;  175.000;  706.000;  537.000
261.152;  -96.000; -479.000; -319.000
261.293; -159.100; -576.000; -595.000
261.435;  -53.600; -219.000; -184.000
261.576;  -89.300; -455.000; -325.000
261.718;  118.500;  420.000;  470.000
261.859; -254.400; -940.000; -949.000
262.000; -278.100; -951.000;-1016.000
262.142;  -36.900;  -52.000;  -60.000
262.283; -205.200; -808.000; -691.000
262.424; -168.900; -666.000; -625.000
262.566; -292.400;-1161.000; -983.000
262.707; -247.600; -840.000; -830.000
262.848; -225.500; -769.000; -726.000
262.990;  -69.800; -362.000; -345.000
263.131;  208.500;  650.000;  681.000
263.272;   35.600;  -61.000;  -41.000
263.413; -173.500; -589.000; -561.000
263.555; -116.000; -669.000; -143.000
263.696; -165.700; -550.000; -641.000
263.837; -105.100; -449.000; -551.000
263.978;  -16.700;   -5.000;  -77.000
264.119;  -89.100; -283.000; -264.000
264.261; -216.800; -847.000; -630.000
264.402;   -4.800;   33.000;   40.000
264.543; -146.100; -509.000; -524.000
264.684;  -12.300;   61.000;  -50.000
264.825; -118.100; -816.000; -538.000
264.966;    1.000;  -84.000;  -67.000
265.107; -200.700; -646.000; -670.000
265.248; -222.400; -825.000; -812.000
265.390;   26.500;  152.000;   -9.000
265.531;    4.200; -238.000; -107.000
265.672; -141.400; -557.000; -630.000
265.813;  148.600;  563.000;  439.000
265.954; -249.300; -959.000; -940.000
266.095;  -21.800; -372.000; -322.000
266.236; -160.400; -686.000; -548.000
266.377;  -65.500; -243.000; -297.000
266.518;  -92.400; -619.000; -547.000
266.659;   70.100;  170.000;  268.000
266.800;   55.600;   83.000;   85.000
266.941; -137.800; -487.000; -478.000
267.082;   25.600;  354.000;   99.000
267.223;  -85.200; -344.000; -273.000
267.364; -212.600; -892.000; -686.000
267.504;  -20.500;    3.000;  135.000
267.645;   -4.900;  160.000;   67.000
267.786;  -49.100; -147.000;  -86.000
267.927; -148.400; -473.000; -379.000
268.068;  -54.900; -186.000;  -61.000
268.209;  -55.100; -175.000; -413.000
268.350; -130.700; -388.000; -532.000
268.490; -185.200; -648.000; -521.000
268.631;   90.500;  127.000;  225.000
268.772; -219.900; -874.000; -647.000
268.913;  -92.700; -328.000; -476.000
269.054;   11.600; -117.000;   12.000
269.194;  -82.600; -418.000; -402.000
269.335; -312.700;-1137.000;-1074.000
269.476;    8.600;   33.000;  -35.000
269.617;  -75.300; -347.000; -392.000
269.757; -145.100; -713.000; -646.000
269.898; -197.800; -856.000; -613.000
270.039; -124.000; -415.000; -405.000
270.180; -253.400; -952.000; -816.000
270.320;  -38.600; -190.000; -250.000
270.461;  -65.100; -277.000; -249.000
270.602;   -2.900; -186.000; -156.000
270.742; -231.600; -868.000; -943.000
270.883; -131.900; -442.000; -390.000
271.023; -108.600; -358.000; -357.000
271.164; -130.600; -607.000; -528.000
271.305; -190.700; -666.000; -654.000
271.445; -160.300; -722.000; -683.000
271.586; -132.800; -462.000; -283.000
271.726;  -68.600; -397.000; -322.000
271.867; -121.700; -594.000; -534.000
272.008;  288.500; -473.000; -285.000
272.148;  241.600;  462.000;  468.000
272.289;   38.900; -113.000; -181.000
272.429;   68.900;   19.000;  185.000
272.570; -178.000; -633.000; -737.000
272.710; -202.000; -825.000; -775.000
272.851;  -28.200;  113.000; -130.000
272.991; -311.100;-1173.000;-1077.000
273.131;  -91.500; -419.000; -459.000
273.272; -187.600; -683.000; -723.000
273.412;    9.000; -143.000;  -31.000
273.553;  -78.600; -488.000; -507.000
273.693;  302.900;  913.000;  858.000
273.834; -186.900; -894.000; -692.000
273.974; -173.800; -664.000; -615.000
274.114; -194.400; -772.000; -560.000
274.255;  180.600;  414.000;  373.000
274.395;   28.700; -180.000; -125.000
274.535;   84.700;  199.000;  350.000
274.676;  105.700;  225.000;   94.000
274.816;    0.700;  110.000;   34.000
274.956; -172.900; -624.000; -690.000
275.097; -111.700;-1014.000; -922.000
275.237; -223.700; -913.000; -803.000
275.377; -209.600; -778.000; -689.000
275.517; -290.300; -878.000; -937.000
275.658; -101.600; -590.000; -555.000
275.798; -150.800; -606.000; -413.000
275.938;   94.900;  215.000;  323.000
276.078; -152.800; -626.000; -395.000
276.218;    9.900;   99.000;  104.000
276.359; -253.300;-1026.000;-1024.000
276.499; -127.700; -605.000; -446.000
276.639;  -42.000; -305.000; -151.000
276.779;  -77.900; -475.000; -357.000
276.919; -173.600; -783.000; -624.000
277.059;  -26.600; -261.000; -212.000
277.199;  -61.400; -357.000; -259.000
277.340;   83.700;  287.000;  175.000
277.480; -217.200; -840.000; -693.000
277.620;   94.900;  192.000;   16.000
277.760; -366.400;-1533.000;-1294.000
277.900;   45.600;  113.000;   33.000
278.040;   60.100;  137.000;  159.000
278.180;   89.200;  270.000;  170.000
278.320;   43.900;   21.000;   56.000
278.460; -135.100; -443.000; -469.000
278.600; -167.700; -708.000; -598.000
278.740;  123.300;  448.000;  224.000
278.880; -144.300; -768.000; -791.000
279.020;   43.400; -194.000; -144.000
279.160; -156.900; -672.000; -595.000
279.300; -240.500; -926.000; -873.000
279.440; -133.300; -709.000; -622.000
279.579;  -96.100;-1014.000; -929.000
279.719;  -68.400; -410.000; -394.000
279.859;  140.400;   -4.000;   41.000
279.999;   83.200; -208.000;  101.000
280.139;  -64.200; -435.000; -387.000
280.279; -158.200; -708.000; -745.000
280.419;  -24.900; -229.000; -147.000
280.559;  -67.100; -259.000; -180.000
280.698; -107.300; -790.000; -639.000
280.838; -172.800; -778.000; -800.000
280.978; -214.800; -846.000; -790.000
281.118; -199.500; -811.000; -704.000
281.257;   57.400;   24.000;    6.000
281.397; -258.600;-1094.000; -960.000
281.537; -178.400; -599.000; -712.000
281.677;   -6.800; -150.000; -101.000
281.816; -165.600; -700.000; -630.000
281.956;  -22.500; -193.000; -257.000
282.096; -124.100; -539.000; -396.000
282.235; -193.500; -672.000; -638.000
282.375;   -4.800; -243.000;  -98.000
282.515; -172.000; -715.000; -707.000
282.654;   85.800;   29.000;  106.000
282.794;   94.000;  388.000;  244.000
282.934;  -98.100; -530.000; -491.000
283.073; -261.800;-1030.000; -857.000
283.213;  -93.000; -460.000; -467.000
283.353;  -47.300; -408.000; -349.000
283.492;  -47.900; -264.000; -296.000
283.632;  -77.200; -254.000; -168.000
283.771; -205.100; -859.000; -730.000
283.911;  -72.800; -369.000; -260.000
284.050; -190.100; -794.000; -748.000
284.190; -332.900;-1229.000;-1096.000
284.329; -292.200;-1055.000; -964.000
284.469; -108.500; -516.000; -591.000
284.608; -112.900; -559.000; -598.000
284.748; -139.500; -614.000; -570.000
284.887;   35.800;  -87.000;  -20.000
285.027; -237.400; -844.000; -892.000
285.166;  -53.300; -192.000; -249.000
285.306;   32.000; -116.000;  -33.000
285.445;  -45.900; -229.000; -343.000
285.584; -156.600; -630.000; -494.000
285.724;  -75.300; -282.000; -322.000
285.863; -214.300; -857.000; -507.000
286.002; -103.900; -366.000; -276.000
286.142; -170.300; -715.000; -622.000
286.281; -104.200; -525.000; -493.000
286.420; -142.300; -554.000; -417.000
286.560;  207.900;  653.000;  623.000
286.699; -266.900; -958.000; -912.000
286.838; -141.200; -590.000; -591.000
286.978; -170.600; -533.000; -537.000
287.117; -278.700;-1085.000; -950.000
287.256;  -40.300; -228.000; -211.000
287.395;  -92.000; -197.000; -378.000
287.535;  -79.100; -370.000; -298.000
287.674; -141.200; -509.000; -484.000
287.813;  150.800;  661.000;  533.000
287.952; -243.300;-1010.000; -871.000
288.091; -291.400;-1049.000; -915.000
288.231;   66.800;   13.000;   15.000
288.370; -315.300;-1217.000;-1200.000
288.509; -169.500; -728.000; -645.000
288.648; -155.800; -770.000; -548.000
288.787;  -29.900; -243.000;  -87.000
288.926;  -89.700; -454.000; -475.000
289.065;  288.900;  859.000;  672.000
289.204;  -95.300; -377.000; -217.000
289.344; -173.500; -791.000; -690.000
289.483;   99.500;  416.000;  304.000
289.622;  -30.000; -291.000; -149.000
289.761;   -8.800; -309.000; -166.000
289.900; -205.300; -785.000; -626.000
290.039;    5.800;  -12.000;  -95.000
290.178;  -59.000; -274.000; -180.000
290.317; -156.000; -618.000; -479.000
290.456;  -68.200; -463.000; -451.000
290.595; -245.300; -961.000; -833.000
290.734; -268.700; -904.000; -891.000
290.873;  -95.100; -456.000; -420.000
291.011; -219.600; -833.000; -843.000
291.150; -189.500; -770.000; -682.000
291.289;  -23.800; -343.000; -110.000
291.428; -166.900; -599.000; -480.000
291.567;  -67.100; -370.000; -442.000
291.706;   54.900;  109.000;  154.000
291.845; -151.400; -597.000; -505.000
291.984; -314.500;-1234.000;-1061.000
292.122;  158.100;  602.000;  582.000
292.261;  136.900;  620.000;  463.000
292.400;   54.200; -144.000;  211.000
292.539; -229.700; -959.000; -813.000
292.678;  -49.300; -325.000; -300.000
292.816; -283.400;-1136.000; -965.000
292.955; -163.400; -844.000; -684.000
293.094;  -64.700; -173.000; -337.000
293.233;  -70.000; -556.000; -400.000
293.371;  -60.800; -225.000;  -84.000
293.510; -196.600; -866.000; -780.000
293.649; -231.800; -959.000; -924.000
293.787; -166.500;-1083.000;-1012.000
293.926;   16.200; -113.000;  -32.000
294.065;  -55.300; -379.000; -290.000
294.203;  120.700;  298.000;  406.000
294.342;   62.700;   74.000;  156.000
294.481;12539.400;51180.000; -836.000
294.619;  -38.400; -425.000; -582.000
294.758; -275.600;-1230.000;-1137.000
294.896;  122.300; -125.000;    5.000
295.035; -244.300;-1040.000;-1006.000
295.174; -214.400;-1082.000; -954.000
295.312;  -91.000; -323.000; -203.000
295.451;   -0.500; -307.000; -428.000
295.589;  -74.500; -389.000; -518.000
295.728;   40.600; -292.000; -165.000
295.866;   10.100;  -36.000;  -51.000
296.005; -141.500; -584.000; -341.000
296.143; -117.300; -558.000; -596.000
296.282; -205.400; -957.000; -881.000
296.420; -150.900; -657.000; -557.000
296.559; -140.900; -892.000; -633.000
296.697;  -14.300; -847.000; -665.000
296.835;   42.300;-1141.000;-1002.000
296.974;  128.500;  -23.000;   39.000
297.112;  -13.700; -443.000; -504.000
297.251; -134.100; -815.000; -755.000
297.389;  141.300; -576.000; -438.000
297.527;  116.200; -145.000;  -83.000
297.666; -118.900; -486.000; -438.000
297.804;  -73.400; -404.000; -264.000
297.942;   -2.700; -136.000; -161.000
298.081;   24.200; -183.000;   63.000
298.219;  147.800;  -17.000;  -19.000
298.357;   93.200; -144.000;  -71.000
298.495;   64.000; -810.000; -812.000
298.634;  156.600;  245.000;  219.000
298.772;   92.000; -220.000; -338.000
298.910;  -48.500; -309.000; -182.000
299.048;   19.000; -130.000; -153.000
299.187;  -48.800; -350.000; -250.000
299.325;   66.900;   52.000;  122.000
299.463;  115.300; -389.000; -299.000
299.601;  217.600; -327.000; -271.000
299.739; -192.600; -908.000; -883.000
299.877; -132.600; -791.000; -703.000
300.016; -138.300;-1095.000; -935.000
300.154;  270.200;  -19.000; -161.000
300.292;   93.100; -428.000; -348.000
300.430;   47.600; -408.000; -291.000
300.568; -225.800; -940.000; -874.000
300.706;  -78.800; -366.000; -469.000
300.844; -147.200;-1108.000; -979.000
300.982;  220.700;  246.000;  282.000
301.120; -183.800; -965.000; -866.000
301.258; -147.000; -812.000; -705.000
301.396;   68.600;  104.000;  -41.000
301.534;  111.400; -218.000; -293.000
301.672;   -0.700; -664.000; -521.000
301.810;   34.000; -613.000; -545.000
301.948;  232.600;   53.000;  149.000
302.086;  994.600; -250.000;  -32.000
302.224; 1528.700; -610.000; -585.000
302.362;   66.400; -558.000; -622.000
302.500;  -60.000; -923.000; -893.000
302.638;  200.600;  128.000;  245.000
302.776;   33.800; -352.000; -408.000
302.913;  114.700;  447.000;  236.000
303.051;   18.200;  -86.000;  -23.000
303.189;  109.000;   90.000;  118.000
303.327;  -27.200; -341.000; -256.000
303.465; -115.900; -832.000; -588.000
303.603; -191.500; -805.000; -604.000
303.740;  190.700;  417.000;  241.000
303.878;   27.100; -800.000; -759.000
304.016; -179.500; -915.000; -790.000
304.154; -241.300;-1123.000;-1152.000
304.291;  -46.600; -505.000; -554.000
304.429;   71.800;  102.000;   74.000
304.567; -219.200; -908.000; -893.000
304.705; -112.600; -408.000; -515.000
304.842;  149.000; -616.000; -540.000
304.980;  166.900;  215.000;   35.000
305.118;   53.100; -367.000; -365.000
305.255; -177.600; -945.000; -927.000
305.393;  121.400;  178.000;  239.000
305.531; -228.500;-1173.000; -956.000
305.668; -130.300; -663.000; -582.000
305.806;  158.300; -358.000; -439.000
305.943;  181.500; -629.000; -637.000
306.081;  109.300; -378.000; -267.000
306.219; -173.400; -863.000; -748.000
306.356;   65.800;  158.000;   27.000
306.494;  297.900;  981.000;  761.000
306.631;   46.800;  -11.000;  -55.000
306.769;    5.900; -613.000; -485.000
306.906;   32.300; -284.000; -258.000
307.044;  -84.400; -473.000; -488.000
307.181;  -88.700; -410.000; -332.000
307.319;  135.300;  112.000;   87.000
307.456; -333.000;-1191.000;-1153.000
307.594; -195.300; -980.000; -727.000
307.731;   -7.700; -371.000; -164.000
307.868;   23.600;  -15.000;   20.000
308.006; -246.400; -961.000; -847.000
308.143; -116.700; -618.000; -330.000
308.281;  405.300;  -37.000; -254.000
308.418;   13.300; -748.000; -640.000
308.555; -116.500; -400.000; -250.000
308.693; -143.500; -577.000; -573.000
308.830; -167.600; -712.000; -657.000
308.967;    6.000; -215.000;  -95.000
309.105;  -42.100; -507.000; -396.000
309.242;   93.500; -468.000; -367.000
309.379;  709.400; -577.000; -655.000
309.517;  -90.400; -936.000; -948.000
309.654; -172.100; -910.000; -734.000
309.791;  -98.300; -662.000; -580.000
309.928; -210.700; -977.000; -914.000
310.065;  361.800;  819.000;  697.000
310.203;  -19.300; -825.000; -850.000
310.340;  -26.400; -465.000; -321.000
310.477; -124.300; -412.000; -516.000
310.614; -102.000; -383.000; -473.000
310.751; -110.900; -427.000; -518.000
310.889;    0.600;    1.000;   11.000
311.026; -273.200;-1161.000; -939.000
311.163;  -62.800; -386.000; -380.000
311.300; -123.200; -512.000; -479.000
311.437;  -99.100; -658.000; -619.000
311.574; -283.700;-1226.000; -985.000
311.711; -120.400; -595.000; -433.000
311.848;  -12.000; -380.000; -388.000
311.985;   91.900;  270.000;   93.000
312.122; -236.500; -932.000; -762.000
312.259; -228.300; -941.000; -994.000
312.396; -113.300; -508.000; -551.000
312.533; -172.100; -812.000; -790.000
312.670; -223.900;-1070.000; -898.000
312.807;  -29.700; -352.000; -367.000
312.944; -136.400; -513.000; -611.000
313.081;  -55.900; -150.000; -415.000
313.218; -195.900;-1111.000; -867.000
313.355;    9.300; -531.000; -449.000
313.492;   56.600; -455.000; -292.000
313.629;  309.300;  815.000;  735.000
313.766; -261.000;-1176.000;-1008.000
313.902;   11.900; -186.000;   21.000
314.039;  -55.700; -372.000; -289.000
314.176;   98.900;  286.000;  192.000
314.313; -143.300; -569.000; -473.000
314.450; -145.900; -788.000; -684.000
314.587;  -94.800; -468.000; -480.000
314.723;   67.200;  -78.000;  130.000
314.860;   75.200;  318.000;  332.000
314.997;  118.000;  223.000;  142.000
315.134;  -13.600; -385.000; -368.000
315.270;  -21.100; -480.000; -496.000
315.407; -218.700;-1094.000; -967.000
315.544; -112.600; -657.000; -538.000
315.681; -131.900; -681.000; -565.000
315.817;   61.000; -133.000; -176.000
315.954;   35.000; -613.000; -392.000
316.091; -256.200;-1045.000;-1023.000
316.227;  -33.700;  -71.000; -179.000
316.364;   22.300;   23.000;    6.000
316.500;  -64.400; -113.000; -300.000
316.637;  -39.400; -181.000; -302.000
316.774; -170.000; -625.000; -358.000
316.910; -169.500; -598.000; -629.000
317.047; -119.300; -487.000; -351.000
317.183;  -71.900; -435.000; -566.000
317.320;  -19.900; -367.000; -321.000
317.456; -124.200; -733.000; -805.000
317.593; -143.000; -598.000; -641.000
317.729;   53.900;  168.000;  -67.000
317.866; -369.800;-1434.000;-1285.000
318.002; -154.000; -708.000; -948.000
318.139; -182.100; -883.000; -867.000
318.275; -216.300;-1003.000; -738.000
318.412;  -78.400; -517.000; -336.000
318.548;  -59.600; -751.000; -720.000
318.685; -180.900; -985.000; -888.000
318.821; -171.700; -762.000; -735.000
318.957;    5.300;   34.000;  -23.000
319.094;  109.700;  297.000;  154.000
319.230; -117.600; -756.000; -742.000
319.367;  194.300; -471.000; -520.000
319.503;  135.300; -538.000; -436.000
319.639; -173.300; -877.000; -793.000
319.775; -111.800; -750.000; -685.000
319.912;  -63.300; -424.000; -519.000
320.048; -174.000;-1184.000;-1184.000
320.184;  222.700;   59.000;   70.000
320.321;  -51.300; -497.000; -467.000
320.457;  190.100;  475.000;  662.000
320.593;  -78.000; -375.000; -382.000
320.729; -192.800; -732.000; -734.000
320.866; -119.700; -577.000; -635.000
321.002; -148.800; -759.000; -809.000
321.138;   -9.100; -135.000; -211.000
321.274;  125.300; -148.000; -115.000
321.410;  -35.300; -585.000; -353.000
321.546;  -88.900;-1011.000; -911.000
321.683;  119.700;  400.000;  185.000
321.819;   30.300;  -48.000; -117.000
321.955; -187.600; -743.000; -722.000
322.091;  -71.000; -585.000; -540.000
322.227;   -7.200; -382.000; -202.000
322.363;   -7.600; -320.000; -215.000
322.499;  -59.300; -343.000; -331.000
322.635;  328.900;  636.000;  443.000
322.771;   42.800; -139.000;   12.000
322.907;  193.000;  129.000;  327.000
323.043;    4.800; -115.000; -206.000
323.179;  -42.300; -394.000; -363.000
323.315;    8.500; -401.000; -371.000
323.451;  175.100; -328.000; -236.000
323.587;  168.800;  -60.000;  -77.000
323.723;   38.900; -682.000; -601.000
323.859;    2.700; -258.000;  -76.000
323.995;  -30.800; -467.000; -409.000
324.131; -222.000; -967.000; -892.000
324.267;  -38.000; -254.000; -276.000
324.402; -234.600; -960.000; -983.000
324.538;  -17.000; -279.000; -104.000
324.674;   86.300;  164.000;   77.000
324.810;  249.800;  226.000;  308.000
324.946;   42.400; -810.000; -658.000
325.082; -113.700; -568.000; -475.000
325.217;   33.000;  -62.000;   16.000
325.353; -155.800; -764.000; -659.000
325.489; -155.000; -540.000; -506.000
325.625; -168.100; -579.000; -525.000
325.760;  146.900;  517.000;  376.000
325.896;  -51.300; -515.000; -702.000
326.032;  -48.800; -403.000; -352.000
326.168; -104.300; -462.000; -369.000
326.303; -114.800; -352.000; -461.000
326.439;  -36.100; -336.000; -276.000
326.575;   34.200; -190.000;  -29.000
326.710;   -6.600; -156.000;  -30.000
326.846;   16.100;  146.000;  103.000
326.982; -138.000; -530.000; -548.000
327.117; -110.200; -481.000; -442.000
327.253; -127.900; -745.000; -742.000
327.388; -261.500;-1137.000;-1153.000
327.524;  -59.400; -811.000; -578.000
327.659;  -20.800;  -58.000;  -22.000
327.795;   37.600;   69.000;   45.000
327.931; -139.700; -723.000; -499.000
328.066;  -20.800; -417.000; -276.000
328.202;  -34.300;   12.000; -129.000
328.337;  216.200;  957.000;  713.000
328.473;   18.800;  -12.000;  -74.000
328.608;  -47.300; -256.000; -267.000
328.743; -149.000; -799.000; -664.000
328.879;   92.100;  214.000;  114.000
329.014;  -82.600; -102.000; -122.000
329.150; -142.600; -358.000; -483.000
329.285; -164.000; -465.000; -466.000
329.421;  -88.500; -548.000; -246.000
329.556;   10.200;  -36.000;   85.000
329.691; -145.000; -633.000; -615.000
329.827; -129.900; -626.000; -480.000
329.962;  -25.200;  131.000; -301.000
330.097; -136.700; -673.000; -585.000
330.233;  -69.000; -410.000; -223.000
330.368; -182.200; -839.000; -628.000
330.503;   10.000;    3.000;   98.000
330.638;   39.000;  -93.000; -125.000
330.774;  -81.700; -609.000; -530.000
330.909;  -55.800; -434.000; -244.000
331.044; -184.800; -714.000; -708.000
331.179; -329.400;-1217.000;-1109.000
331.315;   24.500;   77.000;   20.000
331.450;   70.300;  157.000;  285.000
331.585; -156.800; -805.000; -706.000
331.720; -150.900; -510.000; -460.000
331.855;    3.500;  -35.000; -102.000
331.990;  508.800;   62.000;  138.000
332.126;  271.200; -110.000;   71.000
332.261;  -31.200; -379.000; -265.000
332.396;  -14.100; -135.000; -242.000
332.531; -205.700;-1074.000;-1031.000
332.666;  101.400; -519.000; -363.000
332.801; -179.700; -726.000; -807.000
332.936;  -33.400; -192.000; -122.000
333.071; -263.400; -870.000; -817.000
333.206;  110.900;  307.000;  379.000
333.341;   99.700;  344.000;  418.000
333.476; -163.100; -627.000; -623.000
333.611;  -19.300; -251.000; -173.000
333.746;  -68.700; -381.000; -464.000
333.881; -231.100; -973.000; -935.000
334.016; -231.800; -936.000; -917.000
334.151; -231.000; -746.000; -702.000
334.286;  100.500;  152.000;  186.000
334.421;  -20.000; -125.000; -178.000
334.556; -143.000; -611.000; -567.000
334.690; -149.300; -631.000; -577.000
334.825;  133.400;  381.000;   83.000
334.960;  -76.500; -285.000; -413.000
335.095;   41.700;  135.000;  -91.000
335.230; -204.200; -722.000; -738.000
335.365; -268.500;-1084.000; -990.000
335.499; -252.000;-1108.000;-1037.000
335.634;   40.000;    9.000;  534.000
335.769; -212.500; -755.000; -720.000
335.904; -131.700; -603.000; -561.000
336.038;  -95.900; -735.000; -657.000
336.173; -243.000;-1206.000;-1194.000
336.308;   43.600; -116.000; -189.000
336.443;   50.500; -544.000; -634.000
336.577; -151.700; -936.000; -787.000
336.712;  139.000;   -4.000;  -12.000
336.847;  -59.300; -724.000; -607.000
336.981;   93.300; -272.000; -208.000
337.116;  478.800;  615.000;  501.000
337.250;  229.200; -434.000; -421.000
337.385;  463.700; -297.000; -208.000
337.520;  195.600; -632.000; -603.000
337.654;  -37.900; -215.000; -126.000
337.789; -235.400; -989.000; -933.000
337.923;  -41.000; -104.000; -205.000
338.058; -182.600; -673.000; -738.000
338.192;  -19.900; -611.000; -488.000
338.327;   13.600;  -18.000; -155.000
338.461;  -85.200; -299.000; -469.000
338.596; -184.000; -780.000; -638.000
338.730; -173.700; -767.000; -803.000
338.865;  213.500;  -46.000; -140.000
338.999;  -61.200; -846.000; -702.000
339.134;  -46.300; -634.000; -536.000
339.268;   22.800; -741.000; -603.000
339.403;  647.400; -740.000; -775.000
339.537;  243.200; -894.000; -820.000
339.671; -211.800; -829.000; -813.000
339.806;  -79.500; -556.000; -512.000
339.940;   54.200; -261.000; -235.000
340.074; -161.500; -685.000; -510.000
340.209;  -46.700; -351.000; -230.000
340.343; -136.100; -517.000; -573.000
340.477;  343.200;  998.000; 1036.000
340.612;  -94.400;-1033.000; -900.000
340.746;  266.500; -199.000; -243.000
340.880; -160.900; -924.000; -785.000
341.014;  -13.700;  -45.000; -154.000
341.149; -203.400; -756.000; -718.000
341.283; -203.800; -839.000; -754.000
341.417; -172.900;-1124.000; -938.000
341.551;  195.900; -768.000; -708.000
341.685;  -63.800; -633.000; -611.000
341.820;  -67.900; -562.000; -493.000
341.954;  -57.300; -218.000; -349.000
342.088; -289.400;-1102.000;-1019.000
342.222;  116.600;  565.000;  618.000
342.356; -119.000; -395.000; -335.000
342.490; -163.800; -880.000; -841.000
342.624;  -58.200; -339.000; -242.000
342.758;    5.600; -364.000; -312.000
342.892; -134.800; -710.000; -585.000
343.026;  -37.400;  -58.000; -116.000
343.160; -108.800; -426.000; -376.000
343.294; -138.600; -474.000; -337.000
343.428;  -43.900; -488.000; -448.000
343.562;    1.600; -172.000;  -23.000
343.696;  -12.400; -385.000; -314.000
343.830;    9.400; -362.000; -356.000
343.964;   57.700; -231.000; -168.000
344.098; 1472.600;  199.000;   70.000
344.232; 1266.100; -266.000; -127.000
344.366;  162.700; -567.000; -453.000
344.500;   88.100; -665.000; -744.000
344.634;   38.700; -324.000; -164.000
344.768;  -22.200; -531.000; -341.000
344.902;   93.300;  278.000;  256.000
345.035;  -96.600; -556.000; -496.000
345.169; -239.200; -933.000; -656.000
345.303;  -67.100; -308.000; -482.000
345.437; -160.100; -826.000; -717.000
345.571; -134.000; -675.000; -594.000
345.704;  -79.900; -309.000; -532.000
345.838;    2.600; -331.000; -284.000
345.972;  -56.100; -543.000; -495.000
346.106;  318.400; -179.000; -190.000
346.239;  735.100; -312.000; -243.000
346.373;   15.500; -343.000; -302.000
346.507; -267.900; -950.000; -962.000
346.640;  231.400;  -30.000;   13.000
346.774;  -70.200; -650.000; -797.000
346.908;    0.500; -138.000;  -11.000
347.041; -148.500; -646.000; -593.000
347.175;   39.500;  259.000;   27.000
347.309;  -96.700; -698.000; -628.000
347.442; -194.900; -883.000; -732.000
347.576;  517.900;  670.000;  668.000
347.709;  322.100; -123.000;  -52.000
347.843; -171.300; -933.000; -825.000
347.976;  133.900;  235.000;  294.000
348.110; -331.100;-1268.000;-1186.000
348.243; -169.800; -679.000; -772.000
348.377;   58.600;  -26.000;   60.000
348.510;  155.200;  403.000;  540.000
348.644;  -54.900;  -37.000; -159.000
348.777;   40.900;  180.000;  191.000
348.911;  -57.600; -142.000; -112.000
349.044;  326.100;  471.000;  448.000
349.178;  205.000;-1069.000;-1006.000
349.311;  241.800;  141.000;  255.000
349.444;   -8.200; -927.000; -813.000
349.578;   17.100; -347.000; -200.000
349.711; -204.800; -959.000; -862.000
349.845;  -47.400; -661.000; -591.000
349.978; -283.000;-1224.000;-1137.000
350.111; -118.700; -546.000; -612.000
350.244; -146.300; -596.000; -700.000
350.378;  -22.000; -392.000; -393.000
350.511; -129.900; -393.000; -426.000
350.644; -188.200; -808.000; -806.000
350.778;   56.700;  168.000;  104.000
350.911;   45.400;  134.000;  140.000
351.044; -170.300; -685.000; -615.000
351.177;  -47.700; -321.000; -281.000
351.310;   13.800;    3.000; -131.000
351.444; -136.100; -888.000; -788.000
351.577;  253.200;  140.000;   90.000
351.710;  265.100;  593.000;  417.000
351.843;   12.700; -165.000;  -77.000
351.976;   40.800;  149.000;  -79.000
352.109; -151.600; -621.000; -612.000
352.242;  -28.400; -464.000; -419.000
352.376; -109.000; -580.000; -636.000
352.509;  267.500; -437.000; -356.000
352.642;  -23.300; -654.000; -604.000
352.775;  105.400; -141.000;  -98.000
352.908; -232.600; -933.000; -904.000
353.041; -203.100; -814.000; -824.000
353.174; -107.800; -551.000; -424.000
353.307; -160.600; -753.000; -764.000
353.440;  177.700;  541.000;  453.000
353.573; -202.700; -957.000;-1008.000
353.706;  -92.600; -384.000; -558.000
353.839;   -1.500; -264.000; -220.000
353.971; -129.200; -657.000; -512.000
354.104; -163.600; -896.000; -835.000
354.237;  -39.300; -627.000; -662.000
354.370; -144.000; -846.000; -879.000
354.503; -343.200;-1231.000;-1308.000
354.636;  -39.100; -529.000; -348.000
354.769; -201.500; -937.000; -860.000
354.902;   15.400; -230.000; -139.000
355.034;  -39.400; -164.000; -220.000
355.167;   -2.300; -262.000; -162.000
355.300; -134.900;-1061.000; -880.000
355.433; 1858.500;  -71.000;  -14.000
355.565; 2826.000; -402.000; -384.000
355.698;  727.200; -356.000; -296.000
355.831;    3.400; -882.000; -801.000
355.964;  156.800; -285.000; -170.000
356.096; -142.500; -856.000; -843.000
356.229;    7.000; -523.000; -530.000
356.362;  637.900; -373.000; -266.000
356.494; 1135.900; -229.000; -162.000
356.627;  860.700;  269.000;  377.000
356.760; 1268.600;  120.000;   53.000
356.892; 1807.200; -286.000; -601.000
357.025; 1146.800;  403.000;  389.000
357.157;  982.500; -167.000; -179.000
357.290; 1265.800; -856.000; -713.000
357.423;  365.100; -667.000; -556.000
357.555;  196.400; -217.000; -228.000
357.688;  198.600; -483.000; -364.000
357.820;  689.000; -870.000; -877.000
357.953; 5962.600; -563.000; -589.000
358.085; 1244.000; -632.000; -612.000
358.218; 1751.000;-1131.000; -932.000
358.350;  358.700;  -58.000;  312.000
358.483; -251.200;-1300.000;-1187.000
358.615;  -81.100;-1182.000;-1078.000
358.747; -118.600;-1187.000;-1058.000
358.880;   16.000; -810.000; -744.000
359.012;   23.200; -376.000; -202.000
359.145;  -72.200; -480.000; -511.000
359.277;   79.800; -962.000; -913.000
359.409; 4934.400;  536.000;  231.000
359.542; 1235.400; -738.000; -688.000
359.674;  184.900;   46.000;   13.000
359.806;  -71.400; -565.000; -438.000
359.939;  -56.100; -617.000; -516.000
360.071;   -3.800; -583.000; -579.000
360.203;  -25.000; -411.000; -364.000
360.335;  127.000;  164.000;  -16.000
360.468;  339.900; -249.000; -307.000
360.600; 3953.300; -547.000; -454.000
360.732; 5245.500; -546.000; -423.000
360.864;  681.700;-1216.000;-1044.000
360.996;  443.200; -516.000; -554.000
361.129;   59.100; -389.000; -598.000
361.261;   80.500;  110.000; -113.000
361.393;  -12.900; -252.000; -214.000
361.525;   61.900;   94.000;  244.000
361.657; -103.600; -821.000; -703.000
361.789;   12.400; -139.000; -155.000
361.921;  417.600; -642.000; -593.000
362.053;  495.200;  524.000;  541.000
362.185;  144.100;  288.000;   72.000
362.318; -139.200; -709.000; -705.000
362.450;  242.700;  294.000;  444.000
362.582;   75.500; -913.000; -870.000
362.714;  -46.100; -353.000; -332.000
362.846; -139.500; -606.000; -490.000
362.978; -257.000; -941.000; -811.000
363.109;  130.800; -161.000; -260.000
363.241;  695.200; -739.000; -749.000
363.373;  828.900; -649.000; -564.000
363.505; 1352.800; -186.000;  -91.000
363.637;  327.500; -787.000; -601.000
363.769; -238.500;-1067.000;-1080.000
363.901;  -99.500; -596.000; -654.000
364.033; -228.700;-1103.000;-1062.000
364.165;   29.600; -283.000; -283.000
364.296;  156.200; -316.000; -177.000
364.428;  104.200;-1344.000;-1220.000
364.560; -134.000; -679.000; -661.000
364.692; -108.300; -738.000; -835.000
364.824;  412.000; -588.000; -456.000
364.955;  801.000; -402.000; -564.000
365.087; 1785.000;-1097.000; -852.000
365.219;   63.200; -686.000; -816.000
365.351; -113.800; -526.000; -572.000
365.482;  136.800;  300.000;  240.000
365.614;   -9.800; -402.000; -314.000
365.746; -163.000; -729.000; -752.000
365.877; -186.200; -706.000; -672.000
366.009;  527.100;  -35.000;  -62.000
366.141; -158.400;-1249.000;-1134.000
366.272; -197.900; -803.000; -719.000
366.404; -186.500;-1005.000; -874.000
366.535;   -3.900; -139.000;  -12.000
366.667; -178.900; -644.000; -649.000
366.799;  124.500;  353.000;  203.000
366.930; -197.500; -862.000; -996.000
367.062;  240.700; -639.000; -613.000
367.193;  296.200; -872.000; -842.000
367.325; -100.900; -580.000; -684.000
367.456;  101.100; -246.000;   31.000
367.588;  311.900; -371.000; -318.000
367.719;   87.500;  -44.000;  -45.000
367.851;    8.800; -222.000; -241.000
367.982;  -81.200; -875.000; -732.000
368.113;  195.400; -475.000; -358.000
368.245; -221.100; -960.000; -841.000
368.376;   -3.400; -254.000; -302.000
368.508;  -11.100; -188.000; -263.000
368.639; -227.400;-1166.000;-1034.000
368.770;  -23.100; -670.000; -589.000
368.902; -120.100; -836.000; -926.000
369.033; -179.500; -906.000; -855.000
369.164;  -74.300; -720.000; -653.000
369.296; -157.500; -452.000; -601.000
369.427;   34.100; -209.000; -144.000
369.558;  -51.100; -593.000; -377.000
369.689; -142.000; -721.000; -569.000
369.821; -226.700; -951.000; -845.000
369.952;    1.200;   42.000; -108.000
370.083;  -29.600; -229.000; -108.000
370.214; -132.400; -735.000; -650.000
370.345;   31.700;   65.000;   81.000
370.477; -132.300; -810.000; -790.000
370.608;  365.700; -328.000; -264.000
370.739; -124.100;-1233.000;-1292.000
370.870;  -84.200;-1102.000; -923.000
371.001;  140.300; -378.000; -467.000
371.132; -132.600; -754.000; -735.000
371.263;   -5.800;  -42.000; -148.000
371.394; -216.800; -841.000; -748.000
371.525;  145.500;  345.000;  225.000
371.657; -166.000; -808.000; -670.000
371.788;  174.000;  103.000;  199.000
371.919;  292.200; -384.000; -304.000
372.050; 5896.600;  -91.000; -156.000
372.181; 1678.300; -188.000; -294.000
372.311;  612.000;   42.000; -127.000
372.442;   67.900; -457.000; -451.000
372.573;  -20.900; -444.000; -340.000
372.704; -207.100;-1008.000; -980.000
372.835;  191.100; -228.000; -289.000
372.966;  -59.100; -646.000; -554.000
373.097; -131.300; -575.000; -711.000
373.228;  -82.800; -717.000; -542.000
373.359;  216.100; -824.000; -536.000
373.490; 1477.800; -881.000; -727.000
373.620; 1784.000;-1001.000; -803.000
373.751; 2809.800; -332.000; -396.000
373.882; 1178.800; -663.000; -733.000
374.013;  129.800; -449.000; -262.000
374.143;  -77.800; -581.000; -659.000
374.274; -185.000; -987.000; -908.000
374.405;  330.300; -388.000; -276.000
374.536;  715.100; -526.000; -387.000
374.666; 1753.200; -759.000; -807.000
374.797;  305.600; -817.000; -868.000
374.928; 1349.600; -710.000; -560.000
375.058; 1414.400; -535.000; -500.000
375.189;  139.600;  -59.000;  -93.000
375.320; -152.600; -928.000;-1034.000
375.450;  -54.200; -625.000; -616.000
375.581;  -60.200; -526.000; -436.000
375.712;  -35.200; -574.000; -250.000
375.842;  503.500; -438.000; -415.000
375.973;  330.600; -554.000; -513.000
376.103;  -51.000; -665.000; -648.000
376.234; -122.000; -531.000; -552.000
376.364;  -40.200; -944.000; -867.000
376.495;  584.200;  925.000;  529.000
376.625;  -33.000; -472.000; -485.000
376.756;  116.400; -709.000; -678.000
376.886; -155.500;-1178.000;-1026.000
377.017;  137.400;-1048.000;-1061.000
377.147;  668.300; -786.000; -782.000
377.278;  163.500;  174.000;  228.000
377.408; -176.200; -801.000; -815.000
377.538; -192.400; -707.000; -693.000
377.669; -124.400; -537.000; -613.000
377.799; -190.100; -645.000; -635.000
377.929;  -81.700; -610.000; -428.000
378.060; -230.000; -781.000; -847.000
378.190;  -70.700; -726.000; -531.000
378.320;  -92.800; -401.000; -406.000
378.451;   28.500; -131.000;  -22.000
378.581;   15.200;  -67.000; -110.000
378.711;  352.200; 1035.000;  866.000
378.841;  -19.000; -533.000; -675.000
378.972; -119.100; -871.000; -751.000
379.102;  -10.900; -652.000; -579.000
379.232;   -4.500; -126.000;  -73.000
379.362; -174.800;-1001.000; -885.000
379.492;   49.900; -373.000; -424.000
379.623;  190.600;    0.000;  111.000
379.753; -172.200;-1107.000; -974.000
379.883;  376.400;   59.000;  156.000
380.013;  -45.400;-1081.000;-1017.000
380.143; -202.800;-1097.000;-1056.000
380.273; -203.100; -985.000; -861.000
380.403;    0.700; -344.000; -257.000
380.533;  -61.000; -651.000; -664.000
380.663;  159.300;  173.000;  128.000
380.793; -165.400;-1027.000;-1074.000
380.923;    2.000; -103.000;  -34.000
381.053; -132.300; -613.000; -623.000
381.183;  -63.300; -106.000; -248.000
381.313;   67.200; -656.000; -470.000
381.443;   77.300; -692.000; -473.000
381.573;  329.100; -402.000; -409.000
381.703;  401.500;-1249.000;-1095.000
381.833; -231.400;-1454.000;-1336.000
381.963;  234.300; -134.000;  -87.000
382.093; 2300.400; -925.000; -909.000
382.223;  620.300; -713.000; -602.000
382.353;  -23.500; -801.000; -608.000
382.482;  554.700;-1091.000; -964.000
382.612; 1234.500; -872.000; -644.000
382.742;  634.900; -695.000; -622.000
382.872;  432.900; -565.000; -551.000
383.002;  155.600;  347.000; -132.000
383.131;    1.000; -226.000; -160.000
383.261;  -72.300; -706.000; -768.000
383.391;  565.700; -552.000; -377.000
383.521; 6203.400;  451.000;  263.000
383.650; 1344.800; -947.000; -904.000
383.780;  -16.600; -783.000; -656.000
383.910;  309.700;  880.000;  802.000
384.039;   47.700; -794.000; -656.000
384.169;  318.700;-1205.000;-1017.000
384.299;  -50.600; -650.000; -662.000
384.428; -137.700; -764.000; -680.000
384.558;  -34.500; -308.000; -275.000
384.687;  -34.600; -414.000; -334.000
384.817;   66.200;   75.000;   -2.000
384.947;   63.600; -234.000; -141.000
385.076;  563.700;  982.000;  912.000
385.206;  270.700;  369.000;  480.000
385.335;  -34.500; -549.000; -417.000
385.465; -128.100; -655.000; -663.000
385.594;  262.400;  -53.000;  -44.000
385.724;  635.900; -868.000; -838.000
385.853;  193.300; -296.000; -270.000
385.982; 2211.200; -743.000; -787.000
386.112; 3326.800;-1052.000; -871.000
386.241;  238.600; -307.000; -312.000
386.371;   46.400; -174.000;  -87.000
386.500;  -15.400; -825.000; -789.000
386.629;   75.700; -874.000; -817.000
386.759;  156.800;  -43.000;   68.000
386.888;   27.900; -170.000; -250.000
387.017; -105.800; -648.000; -620.000
387.147; -153.700; -771.000; -798.000
387.276;   16.700; -410.000; -397.000
387.405;   62.200; -398.000; -342.000
387.535;  -71.300; -452.000; -361.000
387.664;  -71.300; -692.000; -620.000
387.793;  158.000; -198.000; -113.000
387.922;  876.700;  255.000;  200.000
388.052;   29.400; -576.000; -423.000
388.181;   -0.300; -342.000; -472.000
388.310;  -28.100; -889.000; -710.000
388.439;  -87.900; -749.000; -742.000
388.568;  386.900;  365.000;  244.000
388.697; 1654.600; -756.000; -653.000
388.826;  290.100; -768.000; -666.000
388.956;  109.100; -285.000; -307.000
389.085;  -46.200; -347.000; -287.000
389.214; -196.200; -842.000; -872.000
389.343;  -75.500; -645.000; -413.000
389.472;  835.900;  126.000;  149.000
389.601; 1005.300;   91.000;    0.000
389.730;   48.700; -568.000; -687.000
389.859;  174.400;  226.000;   46.000
389.988;  326.500; -423.000; -408.000
390.117;  230.500; -168.000; -146.000
390.246;    7.800; -331.000; -320.000
390.375;  179.900; -673.000; -626.000
390.504;  -81.600; -703.000; -621.000
390.633; -139.300; -672.000; -726.000
390.761; -132.400; -732.000; -645.000
390.890;  108.800;   -4.000; -130.000
391.019;  -38.700; -421.000; -441.000
391.148; -223.700; -826.000; -855.000
391.277; -134.900; -576.000; -493.000
391.406; -145.900; -821.000; -805.000
391.534;   96.500;  574.000; -301.000
391.663;  -83.500; -583.000; -645.000
391.792; -144.000; -673.000; -701.000
391.921;  192.500;   -3.000;   15.000
392.050;  314.100; -287.000; -228.000
392.178;  -87.700;-1206.000;-1061.000
392.307;  211.900; -758.000; -712.000
392.436;  145.800; -427.000; -641.000
392.564;   56.800;  166.000;   -6.000
392.693; -127.000; -860.000; -682.000
392.822;  368.800; -529.000; -534.000
392.950;  142.700; -880.000; -714.000
393.079;  568.200; -188.000; -328.000
393.208;   48.900; -488.000; -511.000
393.336;   26.500; -170.000; -145.000
393.465;  -25.400; -317.000; -199.000
393.593;   84.300;   62.000;   79.000
393.722; -263.900;-1121.000; -916.000
393.850;    6.600; -188.000;  -61.000
393.979; -243.400; -926.000; -805.000
394.107;  -79.500; -517.000; -537.000
394.236;  -16.700; -570.000; -507.000
394.364;  518.200;  383.000;  206.000
394.493;  785.700; -911.000; -767.000
394.621;   41.500; -955.000; -916.000
394.750; 1424.900; -873.000; -923.000
394.878; 5802.800; -247.000; -149.000
395.007; 7428.800; -721.000; -807.000
395.135;  520.200; -790.000; -721.000
395.263; -168.000;-1038.000;-1040.000
395.392;   58.300;  -25.000; -107.000
395.520; -257.400; -818.000; -679.000
395.648; -152.800; -865.000; -915.000
395.777;   15.400; -366.000; -405.000
395.905;  -77.800; -449.000; -564.000
396.033;   83.400;  217.000;  172.000
396.162; 1251.400; -399.000; -453.000
396.290; 1114.500;  -17.000;   -2.000
396.418;  184.400; -555.000; -514.000
396.546; -129.500; -571.000; -466.000
396.674; -163.600; -850.000; -878.000
396.803;   37.600;  -72.000;  -23.000
396.931;  178.200; -179.000; -199.000
397.059;   32.200;-1026.000; -989.000
397.187; -222.400;-1026.000; -975.000
397.315; -215.300; -884.000; -649.000
397.443; -154.000; -592.000; -443.000
397.572; -112.600; -578.000; -424.000
397.700;  -43.700; -607.000; -614.000
397.828;   59.000;  120.000;  -90.000
397.956;  -70.100; -508.000; -478.000
398.084;  -98.900; -767.000; -626.000
398.212;  108.300;  137.000;  124.000
398.340;   67.700;  -56.000;  159.000
398.468;   76.400; -390.000; -169.000
398.596; -240.600; -993.000; -953.000
398.724; -196.000; -762.000; -767.000
398.852; -278.500;-1024.000; -976.000
398.980;  -62.400; -560.000; -560.000
399.108;  -79.600; -982.000; -735.000
399.236;   94.400;   13.000;    8.000
399.363;   47.600;  222.000;  196.000
399.491;  -57.700; -404.000; -398.000
399.619; -195.300; -829.000; -800.000
399.747; -177.500; -859.000; -771.000
399.875;  203.100;  220.000;  234.000
400.003;  -53.800; -359.000; -284.000
400.130; -115.800; -421.000; -341.000
400.258;    8.600;  -83.000;   38.000
400.386;  -77.900; -352.000; -168.000
400.514;  -50.400; -526.000; -587.000
400.641; -137.500; -928.000; -802.000
400.769; -232.700; -979.000; -888.000
400.897; -163.700; -838.000; -793.000
401.025;    1.700; -166.000; -152.000
401.152;   34.100;  220.000;   38.000
401.280; -132.500; -430.000; -429.000
401.408; -217.600; -712.000; -576.000
401.535; -165.300; -735.000; -758.000
401.663; -357.200;-1134.000;-1054.000
401.790; -142.200; -514.000; -525.000
401.918;  180.300;  436.000;  405.000
402.046;   39.500;  134.000;  122.000
402.173;  -14.500;  -18.000;    7.000
402.301; -105.700; -519.000; -397.000
402.428;  145.200;  528.000;  383.000
402.556; -226.500;-1188.000; -913.000
402.683;  -15.700;  -20.000;   -1.000
402.811;   19.500;  -37.000; -206.000
402.938;   56.200;   20.000;   27.000
403.066;  287.500; -574.000; -558.000
403.193;  521.600;  299.000;  239.000
403.321;  391.200; -396.000; -574.000
403.448;  541.600;   83.000;   27.000
403.575;  261.200;  -90.000;  -46.000
403.703; -136.200; -732.000; -557.000
403.830;  -77.400; -531.000; -496.000
403.957; -241.900;-1117.000;-1023.000
404.085;   93.200;  -61.000; -172.000
404.212;  237.800;  -50.000;   63.000
404.339;  530.600; -566.000; -306.000
404.467;11414.200; -612.000; -524.000
404.594; 6802.000; -287.000; -227.000
404.721; 1512.700; -869.000; -764.000
404.848;  178.900; -113.000; -202.000
404.976; -168.800; -856.000; -783.000
405.103;   43.400;  -14.000;  -82.000
405.230;   56.600;  190.000;  226.000
405.357;   96.800;  117.000;   44.000
405.484;  567.300;  -49.000;    5.000
405.612;  104.300; -548.000; -563.000
405.739;  -61.400; -488.000; -243.000
405.866;  201.600;  669.000;  385.000
405.993;  -31.600; -398.000; -102.000
406.120; -245.000; -801.000; -887.000
406.247;  -18.000; -323.000; -342.000
406.374;  769.600;  540.000;  629.000
406.501;  140.700; -632.000; -702.000
406.628; -140.800; -621.000; -589.000
406.755; -157.600; -803.000; -620.000
406.882;  -16.000; -228.000; -277.000
407.009; -169.300; -719.000; -628.000
407.136;   98.700; -480.000; -401.000
407.263;  170.300; -939.000; -829.000
407.390; -122.600; -692.000; -614.000
407.517; -279.000;-1139.000;-1187.000
407.644;  -60.300; -332.000; -256.000
407.771;  -78.100; -249.000; -287.000
407.898;   72.100;  168.000;  328.000
408.025;  -91.200; -421.000; -313.000
408.151;   32.600;   82.000;  153.000
408.278;  -57.800; -267.000; -216.000
408.405; -206.300; -931.000; -899.000
408.532;  -91.700; -549.000; -542.000
408.659; -198.300; -677.000; -648.000
408.785; -367.000;-1298.000;-1170.000
408.912;  -57.000; -412.000; -296.000
409.039; -170.100; -610.000; -686.000
409.166; -165.600; -591.000; -555.000
409.292; -161.200; -571.000; -534.000
409.419; -190.600; -665.000; -649.000
409.546; -110.300; -431.000; -192.000
409.672; -168.500; -713.000; -545.000
409.799;   37.200;  -36.000;   34.000
409.926;  -68.900; -180.000; -179.000
410.052; -289.000;-1127.000;-1091.000
410.179;  -82.500; -368.000; -392.000
410.305;  -85.400; -375.000; -493.000
410.432;  -19.200; -220.000; -333.000
410.558; -115.600; -305.000; -380.000
410.685; -165.700; -688.000; -431.000
410.812; -154.000; -409.000; -588.000
410.938; -219.700; -964.000; -808.000
411.065; -152.600; -671.000; -645.000
411.191;   15.300; -189.000; -174.000
411.317; -186.400; -823.000; -742.000
411.444;  -84.900; -317.000; -246.000
411.570;  -78.200; -339.000; -294.000
411.697; -217.900; -758.000; -752.000
411.823; -307.300; -989.000; -999.000
411.949;  -19.000;  -56.000;   17.000
412.076; -173.500; -539.000; -519.000
412.202; -202.700; -758.000; -757.000
412.329; -208.400; -798.000; -752.000
412.455; -165.100; -821.000; -657.000
412.581;   16.500;  -15.000;  172.000
412.707;  -84.200; -540.000; -457.000
412.834;  102.400;  156.000;  219.000
412.960; -137.100; -785.000; -784.000
413.086; -163.600; -743.000; -701.000
413.212;  325.800;  604.000;  578.000
413.339;  -74.800; -685.000; -701.000
413.465;    2.700; -364.000; -310.000
413.591; -151.100; -757.000; -474.000
413.717;  -76.700; -358.000; -366.000
413.843; -227.800; -839.000; -861.000
413.969;  -70.100;  -47.000; -292.000
414.096; -145.800; -679.000; -679.000
414.222;   50.900;  -33.000;   85.000
414.348;   -6.000; -652.000; -385.000
414.474;  202.100;   38.000;  -52.000
414.600;   37.700; -126.000; -144.000
414.726;   33.600;  -96.000;  -55.000
414.852;  -64.700; -365.000; -342.000
414.978;  135.400;  104.000;  -18.000
415.104;  172.700;   38.000;   80.000
415.230;  110.200; -329.000; -330.000
415.356;  140.700; -409.000; -514.000
415.482;  421.400;   13.000;  -35.000
415.608;  532.000; -247.000; -323.000
415.734; 1910.200;   67.000;   38.000
415.860;39803.900; -875.000; -767.000
415.986;26001.800; -685.000; -607.000
416.111; 2174.600; -798.000; -652.000
416.237;  473.500; -424.000; -571.000
416.363; 2409.200; -765.000; -733.000
416.489; 7813.900; -324.000; -251.000
416.615;  788.800; -707.000; -742.000
416.741;  -12.200; -677.000; -784.000
416.866; -109.400; -673.000; -736.000
416.992; -196.500; -801.000; -818.000
417.118;   25.400;  -41.000;  -80.000
417.244;  -76.700; -798.000; -531.000
417.369; -116.900; -801.000; -612.000
417.495;   11.000; -325.000; -254.000
417.621; -136.500;-1015.000; -803.000
417.746;   59.100; -579.000; -572.000
417.872;  162.600; -254.000; -144.000
417.998;  140.300; -515.000; -530.000
418.123; 2305.400;-1073.000; -845.000
418.249;10394.100; -512.000; -601.000
418.374; 1292.300; -916.000; -824.000
418.500;  246.100; -383.000; -482.000
418.626;  270.800;   70.000;  -59.000
418.751;  267.600; -549.000; -448.000
418.877;  387.500; -637.000; -643.000
419.002; 3905.800; -688.000; -560.000
419.128;24469.300; -930.000; -721.000
419.253; 5342.700; -967.000; -837.000
419.379;  807.800; -391.000; -338.000
419.504;  815.800;  325.000;  415.000
419.629; 1048.000; -393.000; -212.000
419.755; 7675.700; -317.000; -254.000
419.880;40150.700;  -98.000;   67.000
420.006;22458.500; -280.000; -221.000
420.131;54441.500; -662.000; -775.000
420.256; 7042.600; -315.000; -316.000
420.382; 1028.300; -665.000; -687.000
420.507;  130.600; -649.000; -778.000
420.632;  285.300; -337.000; -339.000
420.758;  393.200; -251.000; -425.000
420.883; -103.000; -876.000; -672.000
421.008; -146.700; -775.000; -619.000
421.133;  -65.300; -509.000; -467.000
421.259;  -76.100; -325.000; -259.000
421.384; -199.400; -834.000; -693.000
421.509;  -82.100;-1052.000; -862.000
421.634; 1713.900; -936.000; -820.000
421.759;  659.000; -359.000; -327.000
421.885; -102.200; -717.000; -656.000
422.010; -100.600; -673.000; -542.000
422.135; -207.900; -695.000; -727.000
422.260;  151.700;  340.000;  280.000
422.385;  -28.400;   12.000;  -98.000
422.510;   63.700;  151.000;  -26.000
422.635;  114.200;  -87.000;  -43.000
422.760;  195.100; -766.000; -791.000
422.885;  174.500;  -57.000;  -80.000
423.010;  -28.700; -112.000; -169.000
423.135; -120.700; -481.000; -561.000
423.260;    4.100; -150.000; -245.000
423.385;  162.200;  476.000;  222.000
423.510;   96.300;   71.000;  -22.000
423.635;  197.100;  133.000;   45.000
423.760;  186.000;  383.000;  328.000
423.885;  183.800;  336.000;  391.000
424.010;   72.500;  -68.000;  -13.000
424.135;   12.800;    5.000;  -33.000
424.259; -146.400; -654.000; -457.000
424.384;  -67.300; -279.000; -272.000
424.509;   17.000; -260.000; -186.000
424.634; -125.400; -761.000; -623.000
424.759;   -6.100; -688.000; -544.000
424.883;    4.800; -506.000; -527.000
425.008;  373.700; -502.000; -410.000
425.133; 4002.900; -679.000; -653.000
425.258; 1632.200; -517.000; -381.000
425.382; 1815.000; -867.000; -774.000
425.507; 4046.100; -487.000; -543.000
425.632;  702.300; -802.000; -663.000
425.756;  962.300; -256.000; -146.000
425.881;13732.900; -831.000; -857.000
426.006;33100.000; -604.000; -355.000
426.130; 4691.000; -696.000; -508.000
426.255;  655.200; -611.000; -491.000
426.379;  371.700; -189.000; -577.000
426.504;  782.400;  660.000;  544.000
426.629; 8229.800; -519.000; -466.000
426.753; 4915.200;   64.000;  -46.000
426.878;  599.300; -252.000; -288.000
427.002;  313.000; -651.000; -668.000
427.127; 3349.700;  -35.000; -158.000
427.251;22126.000;  372.000;  401.000
427.375; 5562.900; -191.000; -173.000
427.500; 3795.200; -616.000; -610.000
427.624; 1143.300; -234.000; -400.000
427.749;  181.700; -216.000; -225.000
427.873;  -58.700; -499.000; -412.000
427.997;  -10.400; -222.000; -230.000
428.122;  237.200;  795.000;  703.000
428.246;  214.400;  433.000;  434.000
428.371; -229.600; -869.000; -773.000
428.495; -139.500; -624.000; -646.000
428.619;   -6.100; -186.000; -117.000
428.743;   64.100;   65.000;  132.000
428.868;   68.800; -732.000; -643.000
428.992; 2298.900; -219.000; -326.000
429.116;  844.800; -329.000; -357.000
429.240;  443.400;  419.000;  426.000
429.365;  -17.700; -454.000; -574.000
429.489;  -64.500; -638.000; -647.000
429.613;  119.600; -236.000; -177.000
429.737;  102.600; -563.000; -432.000
429.861;  588.400; -247.000; -133.000
429.985;11439.300; -425.000; -305.000
430.109;11101.000; -770.000; -908.000
430.234; 1274.500;   76.000;  -50.000
430.358;  185.200; -250.000; -160.000
430.482;  -74.000; -672.000; -564.000
430.606;  -68.800; -655.000; -375.000
430.730;   61.500; -437.000; -388.000
430.854;  194.200; -909.000; -835.000
430.978; -134.300; -795.000; -764.000
431.102;  -98.500; -499.000; -422.000
431.226; -175.900; -874.000; -815.000
431.350;  142.800;  345.000;  422.000
431.474;  -93.300; -661.000; -373.000
431.597; -246.600;-1060.000; -848.000
431.721;  -77.000; -276.000; -267.000
431.845; -189.000; -704.000; -472.000
431.969;  -90.600; -304.000; -349.000
432.093; -144.100; -395.000; -317.000
432.217;   62.100;   32.000;   82.000
432.341; -108.100; -523.000; -518.000
432.464;   48.700;   96.000;   40.000
432.588;  384.200; -401.000; -329.000
432.712;  208.900;  -52.000;  -52.000
432.836;  150.300;  213.000;  263.000
432.959;   37.100; -372.000; -311.000
433.083;  252.600;   11.000;    2.000
433.207;  801.600;  285.000;  930.000
433.330;10362.000; -391.000; -200.000
433.454;11537.700; -654.000; -638.000
433.578; 6767.100;  583.000;  278.000
433.701; 1164.500; -623.000; -675.000
433.825;  243.700; -292.000; -299.000
433.949;  312.100;   28.000;  -72.000
434.072;  114.800; -410.000; -323.000
434.196;   12.400; -309.000; -117.000
434.319; 7926.800;25482.000;25124.000
434.443; 1449.600; -656.000; -603.000
434.566; 5070.600;  281.000;   62.000
434.690;  809.800; -637.000; -383.000
434.813;  117.000; -251.000; -173.000
434.937; -131.900; -569.000; -696.000
435.060;  -21.000; -423.000; -332.000
435.184;  509.000; -492.000; -217.000
435.307;  263.600;  159.000;  102.000
435.431;   53.400;  -40.000;   24.000
435.554;  -69.900; -399.000; -240.000
435.677;  -96.300; -350.000; -258.000
435.801;  -15.800;  -25.000;   49.000
435.924;   29.900;    1.000;  -67.000
436.048; -209.800;-1019.000; -732.000
436.171;  -94.300; -240.000;  -66.000
436.294;   51.600; -248.000; -229.000
436.417;  205.300; -963.000; -849.000
436.541; -138.100; -814.000; -840.000
436.664;  -44.800; -242.000; -316.000
436.787;    0.000;   13.000;  113.000
436.910; -159.100; -792.000; -422.000
437.034;   44.600;  142.000;  143.000
437.157;  150.400;  -11.000;    0.000
437.280;  -66.100; -392.000; -292.000
437.403; -120.200; -982.000; -869.000
437.526;  947.900; -903.000; -865.000
437.649; 3176.900; -505.000; -332.000
437.772;  357.100; -692.000; -540.000
437.896;  251.200;  700.000;  544.000
438.019; -150.600; -758.000; -503.000
438.142; -144.000; -596.000; -506.000
438.265;   -5.200; -639.000; -670.000
438.388;  931.900; -520.000; -410.000
438.511;  137.700; -597.000; -394.000
438.634;  -54.800; -247.000; -125.000
438.757; -188.800; -693.000; -619.000
438.880;   27.300;  -34.000;  -57.000
439.003; -116.600; -417.000; -437.000
439.126;  -57.500; -287.000; -167.000
439.248;  -62.700;  -98.000; -139.000
439.371;  -21.200;    9.000;  -53.000
439.494;  138.600;  510.000;  439.000
439.617;  -13.000;   65.000;  -88.000
439.740; -298.700; -968.000; -816.000
439.863; -239.200; -755.000; -595.000
439.986; -172.500; -476.000; -431.000
440.108;  -42.000; -161.000; -112.000
440.231; -265.000; -950.000; -836.000
440.354;  -21.200;  -64.000; -150.000
440.477;   76.200; -566.000; -542.000
440.599;   42.900; -200.000; -225.000
440.722; -188.200; -709.000; -586.000
440.845;  232.300;  751.000;  928.000
440.968; -127.500; -415.000; -311.000
441.090;  -83.100; -199.000;  -33.000
441.213; -292.200;-1021.000; -825.000
441.336;   -1.600; -159.000;   -5.000
441.458; -104.600; -549.000; -396.000
441.581; -129.600; -628.000; -629.000
441.703;  -65.500; -152.000;   13.000
441.826; -148.500; -557.000; -400.000
441.948;  -19.100;   56.000;   51.000
442.071;  152.800;  555.000;  424.000
442.193; -181.400; -531.000; -485.000
442.316;   84.500;  152.000;   97.000
442.438;  136.200; -233.000;  -10.000
442.561;  176.000;  272.000;  262.000
442.683;  829.400; -809.000; -522.000
442.806; 1707.100;   -8.000;   74.000
442.928;  -11.300; -859.000; -604.000
443.051; -111.700; -577.000; -373.000
443.173; -126.100; -341.000; -339.000
443.295; -113.500; -263.000; -371.000
443.418;  -62.700; -321.000;  -29.000
443.540;   66.900; -106.000;   -4.000
443.662; -213.900; -563.000; -465.000
443.785;   69.100;  335.000;  199.000
443.907; -155.000; -362.000; -208.000
444.029; -198.100; -767.000; -494.000
444.152; -218.400; -644.000; -554.000
444.274;   -4.400;  -18.000;  -24.000
444.396; -162.600; -461.000; -221.000
444.518; -185.500; -691.000; -454.000
444.640; -112.200; -268.000; -111.000
444.763;   50.300;  388.000;  249.000
444.885; -164.800; -432.000; -392.000
445.007;   18.000;   35.000;   86.000
445.129; -172.300; -610.000; -515.000
445.251; -148.200; -372.000; -439.000
445.373; -228.600; -537.000; -386.000
445.495;   76.900;  242.000;  350.000
445.617;  206.800;  853.000;  753.000
445.739;  -60.300; -215.000;  -97.000
445.861;   -0.300; -245.000; -112.000
445.984;   -7.400; -267.000; -101.000
446.105;  380.900; -418.000; -251.000
446.227;  897.800; -176.000;  -19.000
446.349;  -24.900; -358.000; -249.000
446.471; -178.200; -615.000; -448.000
446.593;  -68.200; -316.000;   19.000
446.715;   19.600;  -67.000;   41.000
446.837;  202.400;  697.000;  832.000
446.959; -132.800; -457.000; -478.000
447.081; -183.800; -628.000; -518.000
447.203;  196.500;  862.000;  834.000
447.325;  -88.700; -270.000;   42.000
447.446;   50.900;  286.000;  530.000
447.568; -255.800; -921.000; -803.000
447.690; -111.000; -236.000; -245.000
447.812; -234.700; -798.000; -519.000
447.933;   19.200;  155.000;  127.000
448.055; -102.500; -306.000; -261.000
448.177;  313.800;   31.000;   79.000
448.299;  103.900; -935.000; -727.000
448.420;  116.500;  -25.000;  159.000
448.542;  -30.300;   -3.000;   33.000
448.664;   35.400;  109.000;  322.000
448.785;  -14.100;  265.000;   83.000
448.907; -124.100; -614.000; -353.000
449.028;  -67.200; -771.000; -471.000
449.150;  188.300;  492.000;  589.000
449.272; -308.900;-1044.000; -913.000
449.393;  111.500;  612.000;  694.000
449.515; -238.300; -634.000; -581.000
449.636;  -75.400; -264.000; -155.000
449.758;  174.100;  763.000;  622.000
449.879; -132.900; -498.000; -396.000
450.001;  -73.800; -149.000;  -49.000
450.122;   14.700;  -95.000;  162.000
450.244;   42.600;   37.000;  364.000
450.365; -132.100; -495.000; -301.000
450.486;   12.100;   80.000;  268.000
450.608;  119.200;  393.000;  326.000
450.729;  213.800;  578.000;  645.000
450.850;   83.700; -574.000; -466.000
450.972; 1669.800; -552.000; -389.000
451.093; 9976.800;  190.000;  588.000
451.214; 3750.200; -516.000; -337.000
451.336;  748.900;  773.000;  579.000
451.457;  192.300;  264.000;  393.000
451.578;  -18.000; -118.000;  -74.000
451.699; -163.300; -546.000; -540.000
451.821;  -64.600; -284.000;  -50.000
451.942;   46.300;  278.000;  285.000
452.063;  164.500;  228.000;  419.000
452.184; 1206.500;  -54.000;  -49.000
452.305; 2164.700;  103.000;  170.000
452.427;  233.700; -549.000; -301.000
452.548;   19.600;   23.000;   79.000
452.669;  -49.700; -257.000;  -89.000
452.790;  -34.800;    3.000;  -18.000
452.911;   57.800;  195.000;  259.000
453.032;  -41.500; -289.000;  -60.000
453.153;  -25.300;  -29.000;   81.000
453.274;  182.400;  737.000;  868.000
453.395;  -63.000;  -51.000;  175.000
453.516;  337.200; 1317.000; 1388.000
453.637;  -67.300; -205.000; -150.000
453.758;  -12.200;   15.000;   69.000
453.879; -158.400; -462.000; -250.000
454.000;  238.700; 1086.000;  948.000
454.121; -158.400; -554.000; -326.000
454.242; -194.600; -599.000; -383.000
454.362;  -23.500;  -99.000;  114.000
454.483;  -19.500; -309.000; -229.000
454.604;  158.400;  512.000;  580.000
454.725; -193.600; -627.000; -555.000
454.846; -188.400; -474.000; -406.000
454.967;   -3.800;  230.000;  539.000
455.087;    8.700;  179.000;  153.000
455.208;  113.700;  554.000;  856.000
455.329;  -57.700;  -22.000;   82.000
455.450;  148.700;  473.000;  633.000
455.570; -105.900; -234.000; -211.000
455.691;  -26.200;  201.000;  407.000
455.812; -166.600; -270.000;  -92.000
455.932;  -16.800;  107.000;  -97.000
456.053;  -74.200;   36.000;   24.000
456.173; -169.100; -433.000; -355.000
456.294; -214.600; -476.000; -303.000
456.415;  -53.200;  -73.000;   70.000
456.535;   -2.100;  297.000;  273.000
456.656;  -47.800;  132.000;  240.000
456.776;  -69.700;    3.000;  298.000
456.897;   73.400;  308.000;  513.000
457.017;  -70.700; -153.000;   -3.000
457.138; -148.500; -402.000; -249.000
457.258;   19.100;  263.000;  224.000
457.379;   44.100;  509.000;  521.000
457.499;   28.400;  443.000;  432.000
457.620; -163.400; -407.000; -231.000
457.740; -119.000; -132.000;  -11.000
457.860;  -35.100;   87.000;   44.000
457.981;  -13.600;  132.000;  124.000
458.101;  -96.600;  -89.000;   40.000
458.221;   69.700;  336.000;  402.000
458.342;  -26.500;   -4.000;  -37.000
458.462;  128.600;  617.000;  352.000
458.582;  -32.100; -302.000; -294.000
458.703;  116.900;  303.000;  154.000
458.823;   27.900;   22.000;  163.000
458.943;  111.100;  341.000;  467.000
459.063;   21.000; 1124.000;  192.000
459.183;   34.300;  328.000;  313.000
459.304;  115.000;  315.000;  517.000
459.424;  -43.000; -246.000;  -89.000
459.544;  752.500;  388.000;  764.000
459.664; 1741.600;  499.000;  506.000
459.784;  580.400; 1004.000; 1175.000
459.904;  187.800;  867.000;  744.000
460.024;  177.600;  867.000;  684.000
460.144;   91.000;  449.000;  554.000
460.264;   37.100;  515.000;  327.000
460.385; -107.400; -145.000; -119.000
460.505;  154.500;  905.000;  858.000
460.625; -129.500;  -17.000;  -68.000
460.745;   34.400;  396.000;  541.000
460.864;  -27.700;  153.000;  469.000
460.984;   95.300;  499.000;  573.000
461.104;  367.500; 1656.000; 1775.000
461.224;  127.000;  657.000;  650.000
461.344;    7.300;  431.000;  360.000
461.464;    8.100;  258.000;  513.000
461.584;   24.500;  283.000;  466.000
461.704;  -23.900;   58.000;  108.000
461.824;  -48.500;  238.000;  259.000
461.943;   -6.100;  191.000;  130.000
462.063;  -82.700;    2.000;  324.000
462.183;  147.400;  639.000;  717.000
462.303;  297.300; 1678.000; 1230.000
462.422;  136.800;  781.000;  840.000
462.542;   10.800;  271.000;  391.000
462.662;  148.600;  353.000;  380.000
462.782;  557.300;  833.000;  572.000
462.901; 1010.500;  545.000;  717.000
463.021;  567.500; 1702.000; 1638.000
463.141;   56.500;  337.000;  770.000
463.260;   24.700;  614.000;  474.000
463.380;  129.800;  902.000;  884.000
463.499;  -20.700;  342.000;  332.000
463.619;  -15.200;  581.000;  559.000
463.738;  331.200; 1644.000;  903.000
463.858;   93.300;  657.000;  811.000
463.978;   11.900;  542.000;  396.000
464.097;  176.200;  921.000; 1114.000
464.217;  303.200; 1196.000; 1143.000
464.336;  337.400; 1068.000; 1130.000
464.455;  -21.900;  328.000;  659.000
464.575;  139.800;  597.000;  602.000
464.694;  418.300; 1204.000; 1179.000
464.814;  313.300; 1190.000; 1138.000
464.933;  249.300; 1095.000; 1027.000
465.052;  278.100; 1412.000; 1054.000
465.172;  211.100;  922.000;  799.000
465.291;  311.500; 1376.000; 1320.000
465.410;   92.800;  462.000;  735.000
465.530;  247.100; 1355.000; 1310.000
465.649;  207.600; 1209.000; 1273.000
465.768;  340.000; 1673.000; 1508.000
465.888;  174.300;  941.000; 1174.000
466.007;  277.900; 1335.000; 1440.000
466.126;   74.700;  721.000;  641.000
466.245;  146.700; 1176.000; 1187.000
466.364;  136.500;  950.000; 1060.000
466.484;  165.200; 1024.000; 1213.000
466.603;  127.400; 1101.000; 1222.000
466.722;  283.200; 1490.000; 1769.000
466.841;  266.200; 1151.000; 1401.000
466.960;  184.500; 1069.000;  972.000
467.079;  347.400; 1971.000; 1786.000
467.198;  164.200; 1238.000; 1181.000
467.317;  245.400; 1768.000; 1162.000
467.436;  223.000; 1709.000; 1261.000
467.555;  343.000; 1796.000; 1746.000
467.674;  222.000; 1227.000; 1329.000
467.793;  172.900; 1376.000; 1374.000
467.912;  261.400; 1658.000; 1539.000
468.031;  344.200; 2038.000; 1930.000
468.150;  356.400; 1842.000; 1837.000
468.269;  462.600; 2313.000; 2090.000
468.388;  394.200; 2168.000; 2339.000
468.507;  638.900; 2884.000; 2903.000
468.626;  617.100; 2555.000; 2541.000
468.744;  362.000; 2018.000; 2174.000
468.863;  490.600; 2312.000; 2523.000
468.982;  281.900; 1503.000; 1555.000
469.101;  543.500; 2788.000; 2692.000
469.220;  377.000; 2333.000; 2176.000
469.338;  568.900; 2935.000; 3051.000
469.457;  496.900; 2719.000; 2545.000
469.576;  754.500; 3953.000; 3784.000
469.695;  585.900; 2877.000; 3066.000
469.813;  912.200; 4148.000; 4192.000
469.932;  919.200; 4255.000; 4485.000
470.051;  895.600; 4075.000; 4161.000
470.169; 1801.500; 4470.000; 4338.000
470.288; 3005.000; 4700.000; 4809.000
470.406; 1754.000; 5059.000; 5194.000
470.525; 1378.000; 6101.000; 5787.000
470.644; 1395.100; 6847.000; 6794.000
470.762; 1813.100; 8397.000; 7873.000
470.881; 1926.100; 8651.000; 8464.000
470.999; 2203.800; 9685.000; 9151.000
471.118; 2275.000;11174.000;10711.000

