
Integration time [ms]: 100.000
Averaging Nr. [scans]: 40
Smoothing Nr. [pixels]: 0
Data measured with spectrometer [name]: 2101012U2
Wave   ;Sample   ;Dark     ;Reference
[nm]   ;[counts] ;[counts] ;[counts] 

197.733;   59.025;  516.000;  404.000
197.879;  -96.575; -610.000; -634.000
198.025;  -45.200; -475.000; -420.000
198.171;  -71.225; -602.000; -612.000
198.317;  -31.400; -401.000; -316.000
198.463;  -49.075; -655.000; -404.000
198.609;   13.700;  181.000; -137.000
198.755;  -77.425; -644.000; -410.000
198.901;  -66.075; -505.000; -424.000
199.047;  -55.800; -615.000; -488.000
199.193;  -38.125; -230.000; -468.000
199.339;  -31.400; -222.000; -369.000
199.485;   39.950;  330.000;  271.000
199.631;   13.025;  227.000;  310.000
199.777;  -38.350; -466.000; -398.000
199.923;  -63.175; -610.000; -424.000
200.069;   -3.375; -141.000;  -58.000
200.215;   55.900;  128.000;  453.000
200.361;   38.425;  243.000;  477.000
200.507;  -55.300; -600.000; -373.000
200.653;  -30.150; -371.000; -194.000
200.798;  -32.525; -215.000; -125.000
200.944;   -4.375; -146.000;  -41.000
201.090;   30.975;   61.000;  222.000
201.236;   -7.450; -116.000; -158.000
201.382;  118.425;  874.000;  903.000
201.528;  -10.725;  -58.000;  -48.000
201.674;  -65.000; -386.000; -293.000
201.819;  -53.025; -540.000; -439.000
201.965;  -73.050; -699.000; -447.000
202.111;  -30.100; -273.000; -226.000
202.257;  -26.475; -250.000; -238.000
202.402;    5.400;   13.000;  -36.000
202.548;  -38.650; -169.000; -116.000
202.694;   71.650;  410.000; -183.000
202.840;  -79.925; -603.000; -531.000
202.985;  -64.400; -681.000; -639.000
203.131; -107.550; -832.000; -666.000
203.277;  -19.800; -199.000; -262.000
203.423;  -44.475; -434.000; -520.000
203.568;  -37.500; -462.000; -237.000
203.714;  -54.100; -535.000; -542.000
203.860;  -66.750; -682.000; -641.000
204.005;   20.475;  112.000;  167.000
204.151;   80.575;  561.000;  556.000
204.296;  -42.250; -354.000; -221.000
204.442;  -64.875; -600.000; -547.000
204.588;  -65.225; -592.000; -579.000
204.733;   31.950;  178.000;  168.000
204.879; -119.325;-1018.000; -822.000
205.025;    9.550;  -99.000;  126.000
205.170;    1.350;  -17.000;   94.000
205.316;   78.300;  438.000;  661.000
205.461;  -87.075; -698.000; -554.000
205.607;   83.300;  609.000;  665.000
205.752;  -67.925; -626.000; -551.000
205.898;  -48.575; -501.000; -391.000
206.043;  -64.050; -578.000; -506.000
206.189;  -42.000; -243.000; -285.000
206.334;   63.925;  554.000;  606.000
206.480;   73.425;  409.000;  239.000
206.625;  -76.250; -529.000; -552.000
206.771;  -31.700; -451.000; -373.000
206.916;  -35.225; -210.000; -537.000
207.062;  -55.825; -545.000; -591.000
207.207;  -67.100; -546.000; -443.000
207.353;   60.575;  185.000;  460.000
207.498;    4.025;  196.000;   85.000
207.643;  -44.400; -501.000; -370.000
207.789; -117.125;-1069.000; -910.000
207.934;  -79.400; -665.000; -713.000
208.080;  -27.025; -154.000;   66.000
208.225;   -9.375;  -22.000;  -57.000
208.370;  -92.525; -727.000; -619.000
208.516;  -76.675; -741.000; -487.000
208.661;  -19.400; -127.000;  -69.000
208.806;  -17.200; -165.000; -171.000
208.952; -108.600;-1044.000; -731.000
209.097;   56.000;  378.000;  349.000
209.242;  -47.375; -307.000; -382.000
209.387;   73.525;  392.000;  350.000
209.533;  -53.925; -321.000; -350.000
209.678;   84.025;  472.000;  543.000
209.823;  -46.875; -408.000; -310.000
209.969;  -90.525; -860.000; -757.000
210.114; -105.025; -907.000; -719.000
210.259; -110.225; -939.000; -889.000
210.404;  -14.675; -171.000;  103.000
210.549;   17.500;  108.000;    3.000
210.695;  -16.775;   -3.000;  -95.000
210.840;   26.250;   94.000;   67.000
210.985;  -65.125; -484.000; -303.000
211.130;   55.275;  268.000;  406.000
211.275;   26.850;  207.000;  199.000
211.420;  -54.300; -300.000; -289.000
211.566;  -64.100; -536.000; -489.000
211.711;   31.950;  218.000;  157.000
211.856;  -64.300; -545.000; -519.000
212.001;   22.875;  151.000;   44.000
212.146;   22.300;  153.000;   49.000
212.291;  -40.100; -210.000; -186.000
212.436;  -31.250; -280.000;   -6.000
212.581;  -90.125; -685.000; -653.000
212.726;  -71.950; -487.000; -538.000
212.871;  -39.700; -552.000; -217.000
213.016; -141.875;-1172.000;-1029.000
213.161;   61.550;  406.000;  291.000
213.306;  -73.025; -435.000; -577.000
213.451;  -79.750; -778.000; -689.000
213.596;  -41.325; -455.000; -347.000
213.741;  -52.075; -448.000; -538.000
213.886;  -77.225; -498.000; -517.000
214.031;  -17.575; -294.000; -124.000
214.176;  -47.400; -408.000; -341.000
214.321;  -18.300; -296.000; -157.000
214.466;  -24.075; -163.000;  -43.000
214.611;   -6.975;  -61.000;  -10.000
214.756; -106.700; -948.000; -858.000
214.901;  -23.000; -388.000; -226.000
215.046; -117.075; -797.000; -825.000
215.191;   18.175;  128.000;   35.000
215.336;  -11.975; -157.000;  -19.000
215.480;  -62.450; -684.000; -505.000
215.625;   -7.650; -175.000;  -19.000
215.770;  -66.025; -757.000; -662.000
215.915;    4.875;   -5.000;  -97.000
216.060;    6.800; -113.000;  -21.000
216.205;  -99.975; -731.000; -779.000
216.349;  -67.800; -470.000; -533.000
216.494; -129.200; -939.000; -867.000
216.639; -105.525; -823.000; -888.000
216.784;  -89.850; -577.000; -525.000
216.929;   40.650;  392.000;  281.000
217.073;  -20.550; -244.000;  -31.000
217.218;    9.050;   78.000;  -47.000
217.363;  -86.850; -656.000; -618.000
217.507;  -77.375; -623.000; -588.000
217.652; -120.975; -845.000; -874.000
217.797;  -81.825; -708.000; -659.000
217.942; -105.225; -856.000; -720.000
218.086;   74.375;  608.000;  539.000
218.231;  -25.325; -174.000;  -26.000
218.376;  -37.925; -337.000; -229.000
218.520;    0.250;  -41.000;   96.000
218.665;  -26.875; -338.000; -204.000
218.810;  -35.150; -275.000; -233.000
218.954;   13.400;  201.000;   35.000
219.099; -111.650; -713.000; -963.000
219.243;  -65.200; -589.000; -554.000
219.388;  -34.275; -264.000; -136.000
219.532;  -24.625; -116.000; -116.000
219.677;  -75.475; -564.000; -521.000
219.822;  -11.750;   33.000;   89.000
219.966;   -0.475;   17.000;  -99.000
220.111;  -20.450; -328.000;  -40.000
220.255; -105.050; -797.000; -750.000
220.400;  -20.750; -180.000; -146.000
220.544;  -65.075; -516.000; -450.000
220.689;  -47.675; -422.000; -451.000
220.833;  -30.350; -123.000;  -58.000
220.978;  -50.575; -393.000; -563.000
221.122;    9.475;  319.000;  307.000
221.267; -115.750; -906.000; -837.000
221.411;  -56.525; -478.000; -394.000
221.555;   -3.650; -104.000;  -23.000
221.700;  -59.550; -329.000; -222.000
221.844;   26.150;  255.000;  272.000
221.989;  -41.500; -328.000; -311.000
222.133;  -35.650; -289.000; -307.000
222.277;  -15.850;    5.000;   78.000
222.422;   24.150;  227.000;  113.000
222.566;  -35.500; -381.000; -214.000
222.711;  -33.075; -414.000; -479.000
222.855;  -74.500; -643.000; -586.000
222.999;  -77.325; -642.000; -717.000
223.144;  -36.975; -195.000; -194.000
223.288;   57.775;  423.000;  251.000
223.432;   38.775;  184.000;  230.000
223.576;   17.925;  152.000;  -21.000
223.721;   25.650;  364.000;  273.000
223.865;  -60.575; -472.000; -475.000
224.009;  252.975; 1673.000; 1631.000
224.153;  -86.800; -660.000; -671.000
224.298;  -70.125; -531.000; -489.000
224.442;   -8.450;  -74.000;  -33.000
224.586;  -11.325; -169.000; -106.000
224.730;  -99.325; -858.000; -670.000
224.875;  -98.825; -739.000; -688.000
225.019;   10.725;  102.000;  188.000
225.163;   39.475;  208.000;  341.000
225.307;    7.700;   97.000;  -91.000
225.451;   40.875;  360.000;  481.000
225.595;   36.150;  264.000;  176.000
225.739;  -32.375; -170.000;  -94.000
225.884;    5.975;   86.000;    5.000
226.028;  -89.775; -760.000; -626.000
226.172;  -31.525; -260.000; -273.000
226.316; -109.375; -941.000; -902.000
226.460;  -69.925; -645.000; -493.000
226.604;  -54.125; -406.000; -400.000
226.748; -103.850; -836.000; -733.000
226.892;  -36.550; -227.000; -181.000
227.036;  -44.150; -537.000; -447.000
227.180;  -60.825; -551.000; -375.000
227.324;  -63.150; -561.000; -580.000
227.468; -115.275; -819.000; -717.000
227.612;   18.575;  242.000;  -28.000
227.756;  -85.150; -845.000; -698.000
227.900;   44.600;  342.000;  441.000
228.044;  -55.600; -509.000; -290.000
228.188;   50.500;  448.000;  568.000
228.332;  -88.525; -546.000; -472.000
228.476;  -30.475; -223.000; -149.000
228.620;  -32.325; -210.000; -150.000
228.764;   61.025;  431.000;  349.000
228.908;  -33.900; -155.000;   30.000
229.052;  -61.500; -615.000; -528.000
229.195;   -5.550; -172.000;   13.000
229.339;  -38.850; -235.000; -305.000
229.483;  -26.775;    5.000; -162.000
229.627;  -17.800; -156.000;  139.000
229.771;  -36.675; -218.000; -294.000
229.915;    9.425;  230.000;   79.000
230.059;  -92.550; -648.000; -663.000
230.202;  -31.875; -370.000; -317.000
230.346;  -22.750; -107.000;  107.000
230.490;  -69.400; -489.000; -521.000
230.634;  -98.350; -736.000; -553.000
230.777;   70.950;  478.000;  509.000
230.921;  -48.325; -450.000; -359.000
231.065;  -34.925; -246.000; -286.000
231.209;   22.450;  261.000;  265.000
231.352;   20.050;   54.000;   40.000
231.496;   13.100;  568.000;  188.000
231.640;  -70.875; -693.000; -621.000
231.783;   44.950;  546.000;  525.000
231.927;  -38.250; -294.000; -365.000
232.071; -119.400; -962.000; -736.000
232.214; -107.525; -980.000; -764.000
232.358; -104.100; -683.000; -599.000
232.502;   -4.200;  -19.000;    7.000
232.645; -134.500;-1090.000; -927.000
232.789;  -24.350; -257.000; -218.000
232.933;  -44.350; -407.000; -224.000
233.076; -120.300;-1038.000; -897.000
233.220;  -94.075; -752.000; -777.000
233.363;  -74.500; -669.000; -477.000
233.507;   40.700;  371.000;  129.000
233.650;  -95.250; -764.000; -834.000
233.794;   35.450;  438.000;  461.000
233.938;  -59.400; -530.000; -362.000
234.081;  -18.950;  -93.000;   31.000
234.225;  -64.375; -631.000; -539.000
234.368; -103.125; -773.000; -723.000
234.512;  -44.975; -385.000; -299.000
234.655;  -79.250; -582.000; -555.000
234.798;  -60.275; -493.000; -466.000
234.942; -123.575; -884.000;-1002.000
235.085;  -69.950; -651.000; -443.000
235.229;  -72.100; -405.000; -410.000
235.372;  -53.025; -247.000; -191.000
235.516;  -64.825; -397.000; -321.000
235.659;   32.450;   92.000;  121.000
235.802;  -14.400;  -38.000;  -22.000
235.946;   25.200;  335.000;  215.000
236.089;    9.625;  126.000;  250.000
236.233;   60.300;  275.000;  298.000
236.376;  -46.650; -235.000; -378.000
236.519;  -44.350; -297.000; -319.000
236.663;  -41.125; -215.000; -117.000
236.806; -128.575;-1029.000; -999.000
236.949;   34.925;  543.000;  431.000
237.092;   72.300;  412.000;  391.000
237.236;  -75.625; -589.000; -502.000
237.379;   59.175;  352.000;  428.000
237.522; -110.950; -879.000; -768.000
237.666;   -8.425; -271.000;   18.000
237.809; -106.900; -851.000; -823.000
237.952;   36.450;  469.000;  271.000
238.095;  -68.875; -447.000; -442.000
238.238;   75.300;  688.000;  700.000
238.382;    8.750;  166.000;  103.000
238.525;  -65.250; -598.000; -511.000
238.668; -143.150;-1060.000; -985.000
238.811;  -83.350; -638.000; -643.000
238.954;  -51.200; -483.000; -334.000
239.097;   83.525;  617.000;  664.000
239.241;   20.850;  394.000;  326.000
239.384;  -26.200; -254.000; -214.000
239.527;  -56.525; -424.000; -224.000
239.670; -140.075; -994.000;-1091.000
239.813; -120.550; -696.000; -658.000
239.956;   65.025;  579.000;  473.000
240.099; -106.600; -778.000; -725.000
240.242;   52.725;  428.000;  432.000
240.385;   33.625;  466.000;  450.000
240.528;  -76.600; -706.000; -473.000
240.671;   15.125;  189.000;  134.000
240.814;  -53.150; -441.000; -158.000
240.957;  -87.350; -767.000; -578.000
241.100;  -88.000; -779.000; -755.000
241.243; -142.325;-1234.000; -893.000
241.386;  -68.650; -508.000; -379.000
241.529; -100.725; -735.000; -547.000
241.672;  -55.775; -566.000; -495.000
241.815; -110.475; -832.000; -808.000
241.958;  -27.300; -125.000; -182.000
242.101;  -70.175; -545.000; -390.000
242.244;  -42.575; -270.000; -325.000
242.387;  -39.725; -304.000; -246.000
242.530;   57.350;  470.000;  134.000
242.673;  -30.925; -381.000; -309.000
242.815; -122.225; -925.000; -899.000
242.958;  -66.725; -482.000; -381.000
243.101;    6.750;  132.000;  187.000
243.244;  -85.400; -564.000; -521.000
243.387;  -41.825; -313.000; -316.000
243.530;  -93.975; -657.000; -674.000
243.672;   -5.850;   43.000;  -92.000
243.815;  -45.225; -355.000; -283.000
243.958;   -5.825;   98.000;  -26.000
244.101;  -16.525;   59.000;  -16.000
244.243;  -19.375;  -47.000;  101.000
244.386; -108.950; -761.000; -630.000
244.529;  -34.250; -132.000; -139.000
244.672; -137.750;-1154.000; -951.000
244.814;  -90.150; -621.000; -794.000
244.957;  -59.150; -380.000; -304.000
245.100;  -66.275; -489.000; -489.000
245.242;  -72.125; -387.000; -374.000
245.385;    2.200;  -59.000;  -39.000
245.528; -116.300; -871.000; -705.000
245.670;   81.225;  612.000;  634.000
245.813;  -81.675; -599.000; -547.000
245.956;  -30.300; -324.000; -275.000
246.098;  -67.350; -508.000; -650.000
246.241;    3.325;  194.000;   48.000
246.383;  -16.750; -119.000;  -73.000
246.526;  -76.550; -454.000; -525.000
246.669; -103.600; -889.000; -780.000
246.811;   13.050;  172.000;   -1.000
246.954;  -59.225; -512.000; -426.000
247.096;   -9.150;  -84.000;   -6.000
247.239;  -89.600; -482.000; -445.000
247.381;  -66.550; -647.000; -488.000
247.524;   73.650;  645.000;  679.000
247.666;   -6.075;   58.000;   11.000
247.809; -112.150; -887.000; -691.000
247.951;   -8.450;  -75.000;  138.000
248.094;   25.625;  432.000;  308.000
248.236; -152.425;-1262.000;-1238.000
248.378;  -14.250; -356.000;  -81.000
248.521;  -36.400; -334.000; -337.000
248.663;  -50.400; -236.000; -267.000
248.806;  -34.650; -300.000; -266.000
248.948; -119.050; -886.000; -763.000
249.090;  -63.150; -428.000; -398.000
249.233;  -60.550; -344.000; -381.000
249.375;  -51.200; -474.000; -451.000
249.518;  -24.575;  -83.000; -133.000
249.660;   -8.900; -103.000;    3.000
249.802; -171.050;-1303.000;-1189.000
249.945;  -73.850; -612.000; -540.000
250.087; -107.950; -834.000; -768.000
250.229;  -50.950; -362.000; -480.000
250.371;  -64.825; -494.000; -439.000
250.514;  -42.575; -310.000; -244.000
250.656;  -79.525;   69.000;  102.000
250.798; -116.925; -849.000; -800.000
250.940;  -61.975; -322.000; -322.000
251.083;  -41.300; -335.000; -111.000
251.225;   38.175;  338.000;  310.000
251.367;  -40.275; -274.000; -373.000
251.509;  -47.825; -265.000; -210.000
251.651;  -96.275; -731.000; -671.000
251.794;   44.100;  538.000;  632.000
251.936; -111.450; -821.000; -747.000
252.078;  -88.725; -540.000; -461.000
252.220;  -69.650; -645.000; -477.000
252.362;   44.425;  344.000;  462.000
252.504;  -90.500; -677.000; -584.000
252.646; -119.350; -875.000; -722.000
252.788;   -3.300;   14.000; -128.000
252.931;  -53.875; -257.000; -253.000
253.073;  -56.775; -376.000; -317.000
253.215;  -16.925;  141.000;  122.000
253.357;  -17.050;   82.000; -153.000
253.499;  -54.450; -374.000; -234.000
253.641;  -76.675; -749.000; -594.000
253.783;  -89.700; -609.000; -527.000
253.925;  -77.800; -586.000; -591.000
254.067; -105.175; -744.000; -667.000
254.209;  -50.475; -391.000; -259.000
254.351; -124.875; -865.000; -883.000
254.493;  -60.600; -441.000; -417.000
254.635; -122.000; -936.000; -818.000
254.777;  -93.800; -752.000; -687.000
254.918;  -61.700; -512.000; -430.000
255.060;  -55.725; -551.000; -395.000
255.202;  -57.725; -473.000; -261.000
255.344;  -75.900; -658.000; -455.000
255.486;  -70.150; -471.000; -406.000
255.628; -119.375; -780.000; -781.000
255.770;  -84.275; -676.000; -536.000
255.912;  -65.275; -559.000; -468.000
256.053;  -94.050; -730.000; -508.000
256.195;  141.175; 1008.000;  903.000
256.337; -100.900; -861.000; -595.000
256.479;   62.425;  532.000;  416.000
256.621;  -39.000; -394.000; -212.000
256.762;  -95.750; -789.000; -742.000
256.904;   49.675;  485.000;  487.000
257.046;  -40.600; -381.000; -271.000
257.188;  -42.375; -351.000; -264.000
257.329;  -75.025; -525.000; -464.000
257.471; -118.000; -939.000; -807.000
257.613;  -66.375; -584.000; -498.000
257.755; -143.100;-1073.000; -982.000
257.896;   41.425;  286.000;  392.000
258.038;  -58.625; -403.000; -352.000
258.180;  -35.575; -354.000; -279.000
258.321;  -80.800; -581.000; -457.000
258.463;    1.650;  -71.000;  133.000
258.605; -107.150; -562.000; -570.000
258.746; -111.350; -886.000; -772.000
258.888; -157.450;-1026.000;-1020.000
259.029;    3.325;  121.000;   -8.000
259.171;  -87.150; -614.000; -550.000
259.313;  -14.250;  -49.000;  -47.000
259.454;  -76.900; -536.000; -414.000
259.596;  -53.275; -483.000; -390.000
259.737;  -78.050; -590.000; -474.000
259.879;   28.150;  217.000;  311.000
260.020;   71.575;  901.000;  636.000
260.162;  -34.700; -146.000; -253.000
260.303; -111.850; -768.000; -687.000
260.445;  -76.450; -609.000; -613.000
260.586;   17.025;  392.000;  157.000
260.728;  -44.800; -360.000; -248.000
260.869;  -78.300; -350.000; -343.000
261.011;   60.675;  706.000;  537.000
261.152;  -68.875; -479.000; -319.000
261.293;  -74.525; -576.000; -595.000
261.435;  -37.250; -219.000; -184.000
261.576;  -54.525; -455.000; -325.000
261.718;   29.450;  420.000;  470.000
261.859; -135.050; -940.000; -949.000
262.000; -136.575; -951.000;-1016.000
262.142;  -35.025;  -52.000;  -60.000
262.283; -111.225; -808.000; -691.000
262.424;  -89.100; -666.000; -625.000
262.566; -153.300;-1161.000; -983.000
262.707; -111.025; -840.000; -830.000
262.848; -118.675; -769.000; -726.000
262.990;  -50.800; -362.000; -345.000
263.131;   83.875;  650.000;  681.000
263.272;  -19.750;  -61.000;  -41.000
263.413; -100.825; -589.000; -561.000
263.555;  -68.725; -669.000; -143.000
263.696;  -88.600; -550.000; -641.000
263.837;  -56.850; -449.000; -551.000
263.978;  -11.325;   -5.000;  -77.000
264.119;  -47.800; -283.000; -264.000
264.261; -115.950; -847.000; -630.000
264.402;   -6.275;   33.000;   40.000
264.543;  -65.900; -509.000; -524.000
264.684;  -22.650;   61.000;  -50.000
264.825;  -92.800; -816.000; -538.000
264.966;  -10.100;  -84.000;  -67.000
265.107; -106.725; -646.000; -670.000
265.248; -103.675; -825.000; -812.000
265.390;   -8.050;  152.000;   -9.000
265.531;  -28.825; -238.000; -107.000
265.672;  -90.650; -557.000; -630.000
265.813;   63.150;  563.000;  439.000
265.954; -147.400; -959.000; -940.000
266.095;  -21.700; -372.000; -322.000
266.236;  -80.825; -686.000; -548.000
266.377;  -47.275; -243.000; -297.000
266.518;  -74.300; -619.000; -547.000
266.659;   26.600;  170.000;  268.000
266.800;   -5.675;   83.000;   85.000
266.941;  -80.575; -487.000; -478.000
267.082;    2.975;  354.000;   99.000
267.223;  -49.400; -344.000; -273.000
267.364; -114.925; -892.000; -686.000
267.504;  -12.650;    3.000;  135.000
267.645;   -3.675;  160.000;   67.000
267.786;  -30.950; -147.000;  -86.000
267.927;  -80.050; -473.000; -379.000
268.068;  -29.000; -186.000;  -61.000
268.209;  -47.350; -175.000; -413.000
268.350;  -50.075; -388.000; -532.000
268.490;  -90.775; -648.000; -521.000
268.631;   21.050;  127.000;  225.000
268.772; -101.350; -874.000; -647.000
268.913;  -45.100; -328.000; -476.000
269.054;  -26.750; -117.000;   12.000
269.194;  -51.200; -418.000; -402.000
269.335; -145.600;-1137.000;-1074.000
269.476;  -17.175;   33.000;  -35.000
269.617;  -48.325; -347.000; -392.000
269.757;  -99.675; -713.000; -646.000
269.898; -108.725; -856.000; -613.000
270.039;  -68.825; -415.000; -405.000
270.180; -127.600; -952.000; -816.000
270.320;  -25.475; -190.000; -250.000
270.461;  -39.675; -277.000; -249.000
270.602;  -20.975; -186.000; -156.000
270.742; -112.950; -868.000; -943.000
270.883;  -72.425; -442.000; -390.000
271.023;  -63.175; -358.000; -357.000
271.164;  -73.775; -607.000; -528.000
271.305;  -96.975; -666.000; -654.000
271.445;  -83.275; -722.000; -683.000
271.586;  -86.550; -462.000; -283.000
271.726;  -52.800; -397.000; -322.000
271.867;  -80.750; -594.000; -534.000
272.008;   55.625; -473.000; -285.000
272.148;   77.325;  462.000;  468.000
272.289;  -10.350; -113.000; -181.000
272.429;   -0.775;   19.000;  185.000
272.570;  -83.275; -633.000; -737.000
272.710;  -96.950; -825.000; -775.000
272.851;  -21.725;  113.000; -130.000
272.991; -143.675;-1173.000;-1077.000
273.131;  -69.150; -419.000; -459.000
273.272;  -99.950; -683.000; -723.000
273.412;  -17.500; -143.000;  -31.000
273.553;  -64.925; -488.000; -507.000
273.693;  106.375;  913.000;  858.000
273.834; -117.700; -894.000; -692.000
273.974;  -83.800; -664.000; -615.000
274.114; -104.625; -772.000; -560.000
274.255;   61.425;  414.000;  373.000
274.395;  -34.725; -180.000; -125.000
274.535;   29.950;  199.000;  350.000
274.676;    5.200;  225.000;   94.000
274.816;   -1.425;  110.000;   34.000
274.956;  -90.600; -624.000; -690.000
275.097;  -95.075;-1014.000; -922.000
275.237; -114.200; -913.000; -803.000
275.377;  -95.850; -778.000; -689.000
275.517; -148.925; -878.000; -937.000
275.658;  -67.900; -590.000; -555.000
275.798;  -92.625; -606.000; -413.000
275.938;   11.100;  215.000;  323.000
276.078;  -90.825; -626.000; -395.000
276.218;   -1.300;   99.000;  104.000
276.359; -138.450;-1026.000;-1024.000
276.499;  -82.775; -605.000; -446.000
276.639;  -27.250; -305.000; -151.000
276.779;  -53.225; -475.000; -357.000
276.919; -105.775; -783.000; -624.000
277.059;  -27.725; -261.000; -212.000
277.199;  -43.525; -357.000; -259.000
277.340;   38.325;  287.000;  175.000
277.480; -115.100; -840.000; -693.000
277.620;   16.575;  192.000;   16.000
277.760; -205.600;-1533.000;-1294.000
277.900;    6.000;  113.000;   33.000
278.040;   -8.075;  137.000;  159.000
278.180;   18.975;  270.000;  170.000
278.320;   -5.700;   21.000;   56.000
278.460;  -67.950; -443.000; -469.000
278.600;  -84.025; -708.000; -598.000
278.740;   39.550;  448.000;  224.000
278.880; -105.300; -768.000; -791.000
279.020;  -35.975; -194.000; -144.000
279.160;  -94.500; -672.000; -595.000
279.300; -108.925; -926.000; -873.000
279.440;  -94.325; -709.000; -622.000
279.579;  -83.150;-1014.000; -929.000
279.719;  -65.475; -410.000; -394.000
279.859;   44.425;   -4.000;   41.000
279.999;  -10.225; -208.000;  101.000
280.139;  -43.725; -435.000; -387.000
280.279;  -92.975; -708.000; -745.000
280.419;  -32.550; -229.000; -147.000
280.559;  -38.900; -259.000; -180.000
280.698;  -91.350; -790.000; -639.000
280.838; -121.800; -778.000; -800.000
280.978; -102.700; -846.000; -790.000
281.118; -121.225; -811.000; -704.000
281.257;   -7.475;   24.000;    6.000
281.397; -137.925;-1094.000; -960.000
281.537;  -86.725; -599.000; -712.000
281.677;  -29.825; -150.000; -101.000
281.816;  -79.150; -700.000; -630.000
281.956;  -26.675; -193.000; -257.000
282.096;  -61.550; -539.000; -396.000
282.235; -105.475; -672.000; -638.000
282.375;  -17.425; -243.000;  -98.000
282.515; -108.075; -715.000; -707.000
282.654;   18.950;   29.000;  106.000
282.794;   13.225;  388.000;  244.000
282.934;  -60.000; -530.000; -491.000
283.073; -131.550;-1030.000; -857.000
283.213;  -55.000; -460.000; -467.000
283.353;  -46.025; -408.000; -349.000
283.492;  -32.875; -264.000; -296.000
283.632;  -38.550; -254.000; -168.000
283.771;  -99.875; -859.000; -730.000
283.911;  -64.225; -369.000; -260.000
284.050; -115.450; -794.000; -748.000
284.190; -157.650;-1229.000;-1096.000
284.329; -137.275;-1055.000; -964.000
284.469;  -97.300; -516.000; -591.000
284.608;  -62.350; -559.000; -598.000
284.748;  -86.375; -614.000; -570.000
284.887;  -12.125;  -87.000;  -20.000
285.027; -115.675; -844.000; -892.000
285.166;  -33.125; -192.000; -249.000
285.306;  -12.100; -116.000;  -33.000
285.445;  -39.250; -229.000; -343.000
285.584;  -99.400; -630.000; -494.000
285.724;  -41.125; -282.000; -322.000
285.863; -103.525; -857.000; -507.000
286.002;  -48.775; -366.000; -276.000
286.142; -104.075; -715.000; -622.000
286.281;  -78.575; -525.000; -493.000
286.420;  -88.600; -554.000; -417.000
286.560;   75.275;  653.000;  623.000
286.699; -144.625; -958.000; -912.000
286.838;  -89.300; -590.000; -591.000
286.978;  -85.775; -533.000; -537.000
287.117; -117.150;-1085.000; -950.000
287.256;  -46.650; -228.000; -211.000
287.395;  -50.650; -197.000; -378.000
287.535;  -48.325; -370.000; -298.000
287.674;  -90.400; -509.000; -484.000
287.813;   48.375;  661.000;  533.000
287.952; -127.125;-1010.000; -871.000
288.091; -157.600;-1049.000; -915.000
288.231;   -2.600;   13.000;   15.000
288.370; -169.350;-1217.000;-1200.000
288.509;  -95.225; -728.000; -645.000
288.648;  -92.850; -770.000; -548.000
288.787;  -42.825; -243.000;  -87.000
288.926;  -75.300; -454.000; -475.000
289.065;   94.975;  859.000;  672.000
289.204;  -59.175; -377.000; -217.000
289.344;  -90.550; -791.000; -690.000
289.483;   12.950;  416.000;  304.000
289.622;  -40.100; -291.000; -149.000
289.761;  -22.975; -309.000; -166.000
289.900; -100.600; -785.000; -626.000
290.039;  -25.175;  -12.000;  -95.000
290.178;  -45.725; -274.000; -180.000
290.317;  -88.975; -618.000; -479.000
290.456;  -75.325; -463.000; -451.000
290.595; -128.800; -961.000; -833.000
290.734; -134.500; -904.000; -891.000
290.873;  -72.550; -456.000; -420.000
291.011; -114.450; -833.000; -843.000
291.150; -108.625; -770.000; -682.000
291.289;  -33.975; -343.000; -110.000
291.428;  -91.400; -599.000; -480.000
291.567;  -55.075; -370.000; -442.000
291.706;  -10.675;  109.000;  154.000
291.845;  -84.875; -597.000; -505.000
291.984; -162.600;-1234.000;-1061.000
292.122;   63.975;  602.000;  582.000
292.261;   42.275;  620.000;  463.000
292.400;    0.400; -144.000;  211.000
292.539; -124.450; -959.000; -813.000
292.678;  -49.625; -325.000; -300.000
292.816; -155.750;-1136.000; -965.000
292.955;  -92.250; -844.000; -684.000
293.094;  -40.250; -173.000; -337.000
293.233;  -54.500; -556.000; -400.000
293.371;  -42.450; -225.000;  -84.000
293.510; -101.850; -866.000; -780.000
293.649; -126.000; -959.000; -924.000
293.787; -110.325;-1083.000;-1012.000
293.926;  -14.150; -113.000;  -32.000
294.065;  -51.850; -379.000; -290.000
294.203;   31.700;  298.000;  406.000
294.342;   13.525;   74.000;  156.000
294.481; 4807.925;51180.000; -836.000
294.619;  -30.650; -425.000; -582.000
294.758; -160.925;-1230.000;-1137.000
294.896;   11.525; -125.000;    5.000
295.035; -129.800;-1040.000;-1006.000
295.174; -131.500;-1082.000; -954.000
295.312;  -51.475; -323.000; -203.000
295.451;  -46.550; -307.000; -428.000
295.589;  -63.500; -389.000; -518.000
295.728;    1.550; -292.000; -165.000
295.866;   -4.825;  -36.000;  -51.000
296.005;  -68.100; -584.000; -341.000
296.143;  -78.800; -558.000; -596.000
296.282; -101.900; -957.000; -881.000
296.420;  -93.575; -657.000; -557.000
296.559;  -87.350; -892.000; -633.000
296.697;  -56.775; -847.000; -665.000
296.835;  -74.525;-1141.000;-1002.000
296.974;   12.875;  -23.000;   39.000
297.112;  -38.150; -443.000; -504.000
297.251;  -76.050; -815.000; -755.000
297.389;  -25.125; -576.000; -438.000
297.527;  -11.550; -145.000;  -83.000
297.666;  -72.200; -486.000; -438.000
297.804;  -63.975; -404.000; -264.000
297.942;  -19.700; -136.000; -161.000
298.081;   -5.875; -183.000;   63.000
298.219;    2.875;  -17.000;  -19.000
298.357;  -14.675; -144.000;  -71.000
298.495;  -63.900; -810.000; -812.000
298.634;   17.925;  245.000;  219.000
298.772;  -35.175; -220.000; -338.000
298.910;  -59.300; -309.000; -182.000
299.048;  -33.150; -130.000; -153.000
299.187;  -46.375; -350.000; -250.000
299.325;    4.475;   52.000;  122.000
299.463;  -29.850; -389.000; -299.000
299.601;    5.350; -327.000; -271.000
299.739; -119.300; -908.000; -883.000
299.877;  -99.650; -791.000; -703.000
300.016; -116.600;-1095.000; -935.000
300.154;   44.275;  -19.000; -161.000
300.292;  -28.500; -428.000; -348.000
300.430;  -17.150; -408.000; -291.000
300.568; -127.875; -940.000; -874.000
300.706;  -63.550; -366.000; -469.000
300.844; -126.875;-1108.000; -979.000
300.982;   64.800;  246.000;  282.000
301.120; -130.800; -965.000; -866.000
301.258;  -90.950; -812.000; -705.000
301.396;   -6.200;  104.000;  -41.000
301.534;  -29.925; -218.000; -293.000
301.672;  -67.575; -664.000; -521.000
301.810;  -61.900; -613.000; -545.000
301.948;   13.725;   53.000;  149.000
302.086;  227.825; -250.000;  -32.000
302.224;  269.475; -610.000; -585.000
302.362;  -56.775; -558.000; -622.000
302.500;  -96.875; -923.000; -893.000
302.638;   37.625;  128.000;  245.000
302.776;  -43.200; -352.000; -408.000
302.913;   31.050;  447.000;  236.000
303.051;  -30.625;  -86.000;  -23.000
303.189;   20.325;   90.000;  118.000
303.327;  -53.475; -341.000; -256.000
303.465;  -87.850; -832.000; -588.000
303.603; -107.675; -805.000; -604.000
303.740;   53.150;  417.000;  241.000
303.878;  -67.050; -800.000; -759.000
304.016; -100.925; -915.000; -790.000
304.154; -152.925;-1123.000;-1152.000
304.291;  -65.925; -505.000; -554.000
304.429;  -11.725;  102.000;   74.000
304.567; -136.325; -908.000; -893.000
304.705;  -63.750; -408.000; -515.000
304.842;  -12.050; -616.000; -540.000
304.980;   19.425;  215.000;   35.000
305.118;  -16.050; -367.000; -365.000
305.255; -116.550; -945.000; -927.000
305.393;   24.350;  178.000;  239.000
305.531; -128.325;-1173.000; -956.000
305.668;  -75.750; -663.000; -582.000
305.806;    7.550; -358.000; -439.000
305.943;  -14.625; -629.000; -637.000
306.081;    0.475; -378.000; -267.000
306.219; -117.475; -863.000; -748.000
306.356;   17.050;  158.000;   27.000
306.494;   99.775;  981.000;  761.000
306.631;    2.125;  -11.000;  -55.000
306.769;  -32.975; -613.000; -485.000
306.906;  -22.225; -284.000; -258.000
307.044;  -46.200; -473.000; -488.000
307.181;  -49.000; -410.000; -332.000
307.319;    7.375;  112.000;   87.000
307.456; -158.525;-1191.000;-1153.000
307.594; -109.950; -980.000; -727.000
307.731;  -31.150; -371.000; -164.000
307.868;    1.275;  -15.000;   20.000
308.006; -130.875; -961.000; -847.000
308.143;  -72.500; -618.000; -330.000
308.281;   46.075;  -37.000; -254.000
308.418;  -52.025; -748.000; -640.000
308.555;  -76.550; -400.000; -250.000
308.693;  -65.350; -577.000; -573.000
308.830;  -98.025; -712.000; -657.000
308.967;   -4.550; -215.000;  -95.000
309.105;  -26.450; -507.000; -396.000
309.242;   -7.925; -468.000; -367.000
309.379;   52.200; -577.000; -655.000
309.517;  -96.800; -936.000; -948.000
309.654; -105.975; -910.000; -734.000
309.791;  -70.375; -662.000; -580.000
309.928; -116.375; -977.000; -914.000
310.065;  135.875;  819.000;  697.000
310.203;  -73.600; -825.000; -850.000
310.340;  -31.550; -465.000; -321.000
310.477;  -82.000; -412.000; -516.000
310.614;  -64.700; -383.000; -473.000
310.751;  -55.600; -427.000; -518.000
310.889;  -13.950;    1.000;   11.000
311.026; -138.850;-1161.000; -939.000
311.163;  -43.050; -386.000; -380.000
311.300;  -79.525; -512.000; -479.000
311.437;  -73.400; -658.000; -619.000
311.574; -147.875;-1226.000; -985.000
311.711;  -49.425; -595.000; -433.000
311.848;  -35.925; -380.000; -388.000
311.985;    7.200;  270.000;   93.000
312.122; -105.625; -932.000; -762.000
312.259; -102.150; -941.000; -994.000
312.396;  -70.575; -508.000; -551.000
312.533;  -85.500; -812.000; -790.000
312.670; -127.375;-1070.000; -898.000
312.807;  -41.925; -352.000; -367.000
312.944;  -60.950; -513.000; -611.000
313.081;  -20.550; -150.000; -415.000
313.218;  -92.100;-1111.000; -867.000
313.355;  -10.225; -531.000; -449.000
313.492;  -10.300; -455.000; -292.000
313.629;  139.700;  815.000;  735.000
313.766; -145.025;-1176.000;-1008.000
313.902;   -3.150; -186.000;   21.000
314.039;  -43.675; -372.000; -289.000
314.176;   25.100;  286.000;  192.000
314.313;  -68.600; -569.000; -473.000
314.450;  -61.250; -788.000; -684.000
314.587;  -56.950; -468.000; -480.000
314.723;    8.050;  -78.000;  130.000
314.860;   46.700;  318.000;  332.000
314.997;   33.625;  223.000;  142.000
315.134;  -32.375; -385.000; -368.000
315.270;  -22.525; -480.000; -496.000
315.407; -124.600;-1094.000; -967.000
315.544;  -31.525; -657.000; -538.000
315.681;  -57.500; -681.000; -565.000
315.817;   34.850; -133.000; -176.000
315.954;   44.625; -613.000; -392.000
316.091; -123.325;-1045.000;-1023.000
316.227;  -22.700;  -71.000; -179.000
316.364;  -11.675;   23.000;    6.000
316.500;  -46.525; -113.000; -300.000
316.637;  -40.850; -181.000; -302.000
316.774;  -85.475; -625.000; -358.000
316.910;  -98.000; -598.000; -629.000
317.047;  -60.600; -487.000; -351.000
317.183;  -42.625; -435.000; -566.000
317.320;   40.525; -367.000; -321.000
317.456;  -36.625; -733.000; -805.000
317.593;  -74.475; -598.000; -641.000
317.729;    3.700;  168.000;  -67.000
317.866; -192.025;-1434.000;-1285.000
318.002; -105.075; -708.000; -948.000
318.139; -113.200; -883.000; -867.000
318.275; -111.075;-1003.000; -738.000
318.412;  -78.300; -517.000; -336.000
318.548;  -75.650; -751.000; -720.000
318.685; -102.450; -985.000; -888.000
318.821;  -84.000; -762.000; -735.000
318.957;  -25.125;   34.000;  -23.000
319.094;   18.475;  297.000;  154.000
319.230;  -96.275; -756.000; -742.000
319.367;    0.200; -471.000; -520.000
319.503;  -22.075; -538.000; -436.000
319.639; -103.350; -877.000; -793.000
319.775;  -89.025; -750.000; -685.000
319.912;  -64.775; -424.000; -519.000
320.048; -101.775;-1184.000;-1184.000
320.184;   85.350;   59.000;   70.000
320.321;  -56.050; -497.000; -467.000
320.457;   83.925;  475.000;  662.000
320.593;  -61.975; -375.000; -382.000
320.729;  -88.625; -732.000; -734.000
320.866;  -70.825; -577.000; -635.000
321.002;  -84.200; -759.000; -809.000
321.138;  -48.525; -135.000; -211.000
321.274;   20.500; -148.000; -115.000
321.410;  -60.750; -585.000; -353.000
321.546; -102.800;-1011.000; -911.000
321.683;   14.550;  400.000;  185.000
321.819;  -30.450;  -48.000; -117.000
321.955; -122.650; -743.000; -722.000
322.091;  -65.225; -585.000; -540.000
322.227;  -33.900; -382.000; -202.000
322.363;  -44.325; -320.000; -215.000
322.499;  -58.625; -343.000; -331.000
322.635;   93.875;  636.000;  443.000
322.771;  -16.700; -139.000;   12.000
322.907;   65.800;  129.000;  327.000
323.043;  -49.250; -115.000; -206.000
323.179;  -56.825; -394.000; -363.000
323.315;  -40.350; -401.000; -371.000
323.451;   13.700; -328.000; -236.000
323.587;   46.550;  -60.000;  -77.000
323.723;  -48.425; -682.000; -601.000
323.859;  -30.225; -258.000;  -76.000
323.995;  -50.075; -467.000; -409.000
324.131; -126.225; -967.000; -892.000
324.267;  -29.925; -254.000; -276.000
324.402; -141.275; -960.000; -983.000
324.538;  -30.375; -279.000; -104.000
324.674;    0.475;  164.000;   77.000
324.810;   51.100;  226.000;  308.000
324.946;  -58.825; -810.000; -658.000
325.082;  -71.625; -568.000; -475.000
325.217;   -8.475;  -62.000;   16.000
325.353; -101.375; -764.000; -659.000
325.489; -105.925; -540.000; -506.000
325.625;  -79.225; -579.000; -525.000
325.760;   90.150;  517.000;  376.000
325.896;   18.375; -515.000; -702.000
326.032;  -53.950; -403.000; -352.000
326.168;  -62.525; -462.000; -369.000
326.303;  -56.775; -352.000; -461.000
326.439;  -16.950; -336.000; -276.000
326.575;  -19.000; -190.000;  -29.000
326.710;  -21.025; -156.000;  -30.000
326.846;  -18.300;  146.000;  103.000
326.982; -100.375; -530.000; -548.000
327.117;  -69.625; -481.000; -442.000
327.253;  -81.000; -745.000; -742.000
327.388; -170.725;-1137.000;-1153.000
327.524;  -88.000; -811.000; -578.000
327.659;  -25.275;  -58.000;  -22.000
327.795;  -30.575;   69.000;   45.000
327.931;  -71.825; -723.000; -499.000
328.066;  -28.700; -417.000; -276.000
328.202;  -29.850;   12.000; -129.000
328.337;   93.550;  957.000;  713.000
328.473;   35.775;  -12.000;  -74.000
328.608;  -21.750; -256.000; -267.000
328.743; -112.500; -799.000; -664.000
328.879;   14.500;  214.000;  114.000
329.014;  -22.750; -102.000; -122.000
329.150;  -81.775; -358.000; -483.000
329.285;  -89.425; -465.000; -466.000
329.421;  -52.450; -548.000; -246.000
329.556;  -30.350;  -36.000;   85.000
329.691;  -92.600; -633.000; -615.000
329.827;  -80.525; -626.000; -480.000
329.962;  -55.775;  131.000; -301.000
330.097;  -95.375; -673.000; -585.000
330.233;  -50.950; -410.000; -223.000
330.368; -117.475; -839.000; -628.000
330.503;   -9.575;    3.000;   98.000
330.638;  -17.500;  -93.000; -125.000
330.774;  -76.550; -609.000; -530.000
330.909;  -46.100; -434.000; -244.000
331.044;  -93.325; -714.000; -708.000
331.179; -166.400;-1217.000;-1109.000
331.315;    1.675;   77.000;   20.000
331.450;    3.350;  157.000;  285.000
331.585;  -97.050; -805.000; -706.000
331.720;  -80.775; -510.000; -460.000
331.855;   -1.925;  -35.000; -102.000
331.990;  409.875;   62.000;  138.000
332.126;  216.475; -110.000;   71.000
332.261;   25.750; -379.000; -265.000
332.396;    4.600; -135.000; -242.000
332.531;  -62.150;-1074.000;-1031.000
332.666;   92.275; -519.000; -363.000
332.801;  -84.850; -726.000; -807.000
332.936;  -23.725; -192.000; -122.000
333.071; -119.800; -870.000; -817.000
333.206;   -1.575;  307.000;  379.000
333.341;   23.825;  344.000;  418.000
333.476;  -83.850; -627.000; -623.000
333.611;  -45.325; -251.000; -173.000
333.746;  -56.225; -381.000; -464.000
333.881; -118.850; -973.000; -935.000
334.016; -127.225; -936.000; -917.000
334.151; -120.725; -746.000; -702.000
334.286;    9.575;  152.000;  186.000
334.421;  -23.200; -125.000; -178.000
334.556;  -93.500; -611.000; -567.000
334.690;  -81.225; -631.000; -577.000
334.825;   45.175;  381.000;   83.000
334.960;  -66.650; -285.000; -413.000
335.095;   11.950;  135.000;  -91.000
335.230;  -92.150; -722.000; -738.000
335.365; -121.625;-1084.000; -990.000
335.499; -130.950;-1108.000;-1037.000
335.634;   19.875;    9.000;  534.000
335.769;  -79.175; -755.000; -720.000
335.904;  -54.925; -603.000; -561.000
336.038;  -34.150; -735.000; -657.000
336.173;  -90.575;-1206.000;-1194.000
336.308;   25.425; -116.000; -189.000
336.443;   57.400; -544.000; -634.000
336.577;  -36.925; -936.000; -787.000
336.712;   78.800;   -4.000;  -12.000
336.847;  -12.175; -724.000; -607.000
336.981;   64.250; -272.000; -208.000
337.116;  325.175;  615.000;  501.000
337.250;  140.025; -434.000; -421.000
337.385;  449.300; -297.000; -208.000
337.520;  209.125; -632.000; -603.000
337.654;  -28.775; -215.000; -126.000
337.789; -125.225; -989.000; -933.000
337.923;  -45.075; -104.000; -205.000
338.058; -100.925; -673.000; -738.000
338.192;  -67.200; -611.000; -488.000
338.327;   -8.975;  -18.000; -155.000
338.461;  -60.525; -299.000; -469.000
338.596; -100.375; -780.000; -638.000
338.730;  -92.775; -767.000; -803.000
338.865;  140.375;  -46.000; -140.000
338.999;    9.450; -846.000; -702.000
339.134;    6.000; -634.000; -536.000
339.268;   34.975; -741.000; -603.000
339.403;  581.050; -740.000; -775.000
339.537;  265.575; -894.000; -820.000
339.671;  -93.875; -829.000; -813.000
339.806;  -39.600; -556.000; -512.000
339.940;   38.575; -261.000; -235.000
340.074;  -96.400; -685.000; -510.000
340.209;  -43.900; -351.000; -230.000
340.343; -100.625; -517.000; -573.000
340.477;  133.250;  998.000; 1036.000
340.612;    5.775;-1033.000; -900.000
340.746;  240.375; -199.000; -243.000
340.880; -100.075; -924.000; -785.000
341.014;  -17.400;  -45.000; -154.000
341.149; -129.450; -756.000; -718.000
341.283; -120.200; -839.000; -754.000
341.417; -130.525;-1124.000; -938.000
341.551;  -34.075; -768.000; -708.000
341.685;  -60.675; -633.000; -611.000
341.820;  -62.150; -562.000; -493.000
341.954;  -61.250; -218.000; -349.000
342.088; -146.225;-1102.000;-1019.000
342.222;   48.225;  565.000;  618.000
342.356;  -73.100; -395.000; -335.000
342.490; -123.200; -880.000; -841.000
342.624;  -59.550; -339.000; -242.000
342.758;  -64.175; -364.000; -312.000
342.892;  -89.200; -710.000; -585.000
343.026;  -45.550;  -58.000; -116.000
343.160;  -66.050; -426.000; -376.000
343.294;  -87.225; -474.000; -337.000
343.428;  -69.350; -488.000; -448.000
343.562;  -35.400; -172.000;  -23.000
343.696;  -41.500; -385.000; -314.000
343.830;  -54.250; -362.000; -356.000
343.964;  -13.925; -231.000; -168.000
344.098;  324.200;  199.000;   70.000
344.232;  278.825; -266.000; -127.000
344.366;   62.000; -567.000; -453.000
344.500;  -41.175; -665.000; -744.000
344.634;  -26.400; -324.000; -164.000
344.768;  -58.675; -531.000; -341.000
344.902;    4.750;  278.000;  256.000
345.035;  -68.650; -556.000; -496.000
345.169; -132.850; -933.000; -656.000
345.303;  -65.250; -308.000; -482.000
345.437; -101.300; -826.000; -717.000
345.571;  -65.075; -675.000; -594.000
345.704;  -73.800; -309.000; -532.000
345.838;  -25.800; -331.000; -284.000
345.972;  -64.175; -543.000; -495.000
346.106;  249.825; -179.000; -190.000
346.239;  480.950; -312.000; -243.000
346.373;   -8.200; -343.000; -302.000
346.507; -136.475; -950.000; -962.000
346.640;   19.025;  -30.000;   13.000
346.774;  -90.225; -650.000; -797.000
346.908;  -20.175; -138.000;  -11.000
347.041; -102.825; -646.000; -593.000
347.175;   -5.875;  259.000;   27.000
347.309; -103.600; -698.000; -628.000
347.442; -113.075; -883.000; -732.000
347.576;  114.550;  670.000;  668.000
347.709;   50.675; -123.000;  -52.000
347.843; -122.300; -933.000; -825.000
347.976;   10.000;  235.000;  294.000
348.110; -176.500;-1268.000;-1186.000
348.243;  -98.950; -679.000; -772.000
348.377;    1.625;  -26.000;   60.000
348.510;   43.575;  403.000;  540.000
348.644;  -47.675;  -37.000; -159.000
348.777;  -12.050;  180.000;  191.000
348.911;  -48.375; -142.000; -112.000
349.044;   87.425;  471.000;  448.000
349.178;  -19.025;-1069.000;-1006.000
349.311;   86.525;  141.000;  255.000
349.444;   35.475; -927.000; -813.000
349.578;  -25.225; -347.000; -200.000
349.711; -114.250; -959.000; -862.000
349.845;  -68.800; -661.000; -591.000
349.978; -164.275;-1224.000;-1137.000
350.111;  -89.450; -546.000; -612.000
350.244; -112.000; -596.000; -700.000
350.378;  -53.500; -392.000; -393.000
350.511;  -74.950; -393.000; -426.000
350.644; -100.475; -808.000; -806.000
350.778;   17.950;  168.000;  104.000
350.911;  -15.800;  134.000;  140.000
351.044;  -98.650; -685.000; -615.000
351.177;  -33.500; -321.000; -281.000
351.310;  -20.200;    3.000; -131.000
351.444; -115.175; -888.000; -788.000
351.577;   31.350;  140.000;   90.000
351.710;   73.225;  593.000;  417.000
351.843;  -37.125; -165.000;  -77.000
351.976;  -11.600;  149.000;  -79.000
352.109; -105.800; -621.000; -612.000
352.242;  -44.500; -464.000; -419.000
352.376;  -93.275; -580.000; -636.000
352.509;   10.600; -437.000; -356.000
352.642; -100.850; -654.000; -604.000
352.775;    7.225; -141.000;  -98.000
352.908; -122.125; -933.000; -904.000
353.041; -107.750; -814.000; -824.000
353.174;  -61.325; -551.000; -424.000
353.307;  -96.475; -753.000; -764.000
353.440;   60.425;  541.000;  453.000
353.573; -102.125; -957.000;-1008.000
353.706;  -49.525; -384.000; -558.000
353.839;  -35.600; -264.000; -220.000
353.971;  -95.650; -657.000; -512.000
354.104; -103.200; -896.000; -835.000
354.237;  -73.375; -627.000; -662.000
354.370;  -97.225; -846.000; -879.000
354.503; -175.725;-1231.000;-1308.000
354.636;  -26.925; -529.000; -348.000
354.769; -116.575; -937.000; -860.000
354.902;  -29.100; -230.000; -139.000
355.034;  -20.750; -164.000; -220.000
355.167;  -11.625; -262.000; -162.000
355.300;  -62.400;-1061.000; -880.000
355.433; 1454.400;  -71.000;  -14.000
355.565; 2272.725; -402.000; -384.000
355.698;  574.450; -356.000; -296.000
355.831;    7.100; -882.000; -801.000
355.964;   26.750; -285.000; -170.000
356.096;  -64.075; -856.000; -843.000
356.229;   13.300; -523.000; -530.000
356.362;  518.700; -373.000; -266.000
356.494;  931.100; -229.000; -162.000
356.627;  352.975;  269.000;  377.000
356.760;  882.925;  120.000;   53.000
356.892; 1511.250; -286.000; -601.000
357.025;  362.725;  403.000;  389.000
357.157;  245.850; -167.000; -179.000
357.290; 1182.575; -856.000; -713.000
357.423;  372.550; -667.000; -556.000
357.555;  111.950; -217.000; -228.000
357.688;  138.075; -483.000; -364.000
357.820;  198.225; -870.000; -877.000
357.953; 1614.600; -563.000; -589.000
358.085;  254.850; -632.000; -612.000
358.218;  152.025;-1131.000; -932.000
358.350;   50.400;  -58.000;  312.000
358.483; -162.575;-1300.000;-1187.000
358.615; -128.800;-1182.000;-1078.000
358.747; -139.925;-1187.000;-1058.000
358.880;  -41.425; -810.000; -744.000
359.012;  -21.100; -376.000; -202.000
359.145;  -68.200; -480.000; -511.000
359.277;  -62.825; -962.000; -913.000
359.409; 1355.825;  536.000;  231.000
359.542;  323.150; -738.000; -688.000
359.674;   25.175;   46.000;   13.000
359.806;  -72.375; -565.000; -438.000
359.939;  -39.850; -617.000; -516.000
360.071;   42.800; -583.000; -579.000
360.203;  -35.175; -411.000; -364.000
360.335;   18.600;  164.000;  -16.000
360.468;   96.850; -249.000; -307.000
360.600; 1390.825; -547.000; -454.000
360.732; 4215.425; -546.000; -423.000
360.864;  642.225;-1216.000;-1044.000
360.996;   71.475; -516.000; -554.000
361.129;  -47.675; -389.000; -598.000
361.261;  -16.350;  110.000; -113.000
361.393;  -62.650; -252.000; -214.000
361.525;  -10.875;   94.000;  244.000
361.657; -102.650; -821.000; -703.000
361.789;  -29.600; -139.000; -155.000
361.921;  -30.675; -642.000; -593.000
362.053;   90.725;  524.000;  541.000
362.185;   -0.275;  288.000;   72.000
362.318; -112.325; -709.000; -705.000
362.450;   37.925;  294.000;  444.000
362.582;  -79.350; -913.000; -870.000
362.714;  -63.875; -353.000; -332.000
362.846;  -97.600; -606.000; -490.000
362.978; -140.600; -941.000; -811.000
363.109;  -28.650; -161.000; -260.000
363.241;  151.925; -739.000; -749.000
363.373;  652.650; -649.000; -564.000
363.505; 1050.525; -186.000;  -91.000
363.637;  237.825; -787.000; -601.000
363.769; -135.250;-1067.000;-1080.000
363.901;  -79.500; -596.000; -654.000
364.033; -141.875;-1103.000;-1062.000
364.165;  -26.525; -283.000; -283.000
364.296;  104.450; -316.000; -177.000
364.428;  182.050;-1344.000;-1220.000
364.560;  -61.325; -679.000; -661.000
364.692;  -59.450; -738.000; -835.000
364.824;   -3.125; -588.000; -456.000
364.955;  511.075; -402.000; -564.000
365.087; 1696.750;-1097.000; -852.000
365.219;  109.500; -686.000; -816.000
365.351;  -60.575; -526.000; -572.000
365.482;   26.425;  300.000;  240.000
365.614;  -58.075; -402.000; -314.000
365.746; -104.325; -729.000; -752.000
365.877;  -92.625; -706.000; -672.000
366.009;  426.225;  -35.000;  -62.000
366.141;  -17.550;-1249.000;-1134.000
366.272; -102.250; -803.000; -719.000
366.404; -122.100;-1005.000; -874.000
366.535;  -26.650; -139.000;  -12.000
366.667; -104.675; -644.000; -649.000
366.799;   14.725;  353.000;  203.000
366.930; -136.275; -862.000; -996.000
367.062;  177.775; -639.000; -613.000
367.193;  346.925; -872.000; -842.000
367.325;  -53.775; -580.000; -684.000
367.456;    4.375; -246.000;   31.000
367.588;  254.850; -371.000; -318.000
367.719;   35.050;  -44.000;  -45.000
367.851;  -45.800; -222.000; -241.000
367.982; -123.225; -875.000; -732.000
368.113;    0.175; -475.000; -358.000
368.245; -148.475; -960.000; -841.000
368.376;  -48.425; -254.000; -302.000
368.508;  -55.900; -188.000; -263.000
368.639; -160.800;-1166.000;-1034.000
368.770;  -77.525; -670.000; -589.000
368.902; -119.400; -836.000; -926.000
369.033; -114.450; -906.000; -855.000
369.164;  -45.275; -720.000; -653.000
369.296; -104.750; -452.000; -601.000
369.427;  -28.650; -209.000; -144.000
369.558;  -85.400; -593.000; -377.000
369.689;  -81.725; -721.000; -569.000
369.821; -130.100; -951.000; -845.000
369.952;  -33.550;   42.000; -108.000
370.083;  -51.675; -229.000; -108.000
370.214; -104.050; -735.000; -650.000
370.345;  -17.275;   65.000;   81.000
370.477; -116.875; -810.000; -790.000
370.608;   28.950; -328.000; -264.000
370.739; -112.225;-1233.000;-1292.000
370.870; -118.400;-1102.000; -923.000
371.001;  -13.425; -378.000; -467.000
371.132;  -84.400; -754.000; -735.000
371.263;  -35.650;  -42.000; -148.000
371.394; -134.200; -841.000; -748.000
371.525;   21.125;  345.000;  225.000
371.657; -119.275; -808.000; -670.000
371.788;   22.950;  103.000;  199.000
371.919;   17.275; -384.000; -304.000
372.050; 1414.700;  -91.000; -156.000
372.181;  420.325; -188.000; -294.000
372.311;   96.100;   42.000; -127.000
372.442;  -41.550; -457.000; -451.000
372.573;  -48.825; -444.000; -340.000
372.704; -148.825;-1008.000; -980.000
372.835;  -10.950; -228.000; -289.000
372.966;  -90.025; -646.000; -554.000
373.097;  -90.300; -575.000; -711.000
373.228;  -87.350; -717.000; -542.000
373.359;  -49.100; -824.000; -536.000
373.490;  204.175; -881.000; -727.000
373.620;  283.700;-1001.000; -803.000
373.751;  584.500; -332.000; -396.000
373.882;  247.375; -663.000; -733.000
374.013;  -31.900; -449.000; -262.000
374.143;  -81.300; -581.000; -659.000
374.274; -122.350; -987.000; -908.000
374.405;   57.125; -388.000; -276.000
374.536;  112.050; -526.000; -387.000
374.666;  345.050; -759.000; -807.000
374.797;    3.175; -817.000; -868.000
374.928;  216.175; -710.000; -560.000
375.058;  203.650; -535.000; -500.000
375.189;    6.775;  -59.000;  -93.000
375.320; -108.475; -928.000;-1034.000
375.450;  -27.700; -625.000; -616.000
375.581;  -59.800; -526.000; -436.000
375.712;  -55.750; -574.000; -250.000
375.842;   20.325; -438.000; -415.000
375.973;   -0.175; -554.000; -513.000
376.103;  -94.525; -665.000; -648.000
376.234;  -96.675; -531.000; -552.000
376.364; -114.850; -944.000; -867.000
376.495;  144.850;  925.000;  529.000
376.625;  -70.975; -472.000; -485.000
376.756;  -57.200; -709.000; -678.000
376.886; -145.825;-1178.000;-1026.000
377.017;  143.850;-1048.000;-1061.000
377.147;  656.500; -786.000; -782.000
377.278;   84.825;  174.000;  228.000
377.408; -120.125; -801.000; -815.000
377.538; -103.850; -707.000; -693.000
377.669;  -78.625; -537.000; -613.000
377.799; -120.425; -645.000; -635.000
377.929;  -83.125; -610.000; -428.000
378.060; -125.150; -781.000; -847.000
378.190;  -34.875; -726.000; -531.000
378.320;  -52.050; -401.000; -406.000
378.451;  -21.100; -131.000;  -22.000
378.581;  -29.175;  -67.000; -110.000
378.711;   96.700; 1035.000;  866.000
378.841;  -76.925; -533.000; -675.000
378.972; -113.350; -871.000; -751.000
379.102;  -63.800; -652.000; -579.000
379.232;  -34.550; -126.000;  -73.000
379.362; -121.225;-1001.000; -885.000
379.492;  -55.475; -373.000; -424.000
379.623;   38.200;    0.000;  111.000
379.753; -109.400;-1107.000; -974.000
379.883;   95.325;   59.000;  156.000
380.013;  -91.875;-1081.000;-1017.000
380.143; -124.250;-1097.000;-1056.000
380.273; -111.550; -985.000; -861.000
380.403;    4.500; -344.000; -257.000
380.533;  -52.575; -651.000; -664.000
380.663;   21.650;  173.000;  128.000
380.793; -159.200;-1027.000;-1074.000
380.923;  -47.925; -103.000;  -34.000
381.053; -106.175; -613.000; -623.000
381.183;  -54.625; -106.000; -248.000
381.313;  -64.875; -656.000; -470.000
381.443;  -55.200; -692.000; -473.000
381.573;  -25.525; -402.000; -409.000
381.703;  -71.375;-1249.000;-1095.000
381.833; -187.700;-1454.000;-1336.000
381.963;   28.400; -134.000;  -87.000
382.093;  431.600; -925.000; -909.000
382.223;  113.625; -713.000; -602.000
382.353;  -98.450; -801.000; -608.000
382.482;   36.100;-1091.000; -964.000
382.612;  195.900; -872.000; -644.000
382.742;   93.650; -695.000; -622.000
382.872;  -10.050; -565.000; -551.000
383.002;   17.750;  347.000; -132.000
383.131;  -40.600; -226.000; -160.000
383.261;  -49.675; -706.000; -768.000
383.391;  320.050; -552.000; -377.000
383.521; 5023.850;  451.000;  263.000
383.650; 1544.825; -947.000; -904.000
383.780;   41.700; -783.000; -656.000
383.910;   92.900;  880.000;  802.000
384.039;  -82.725; -794.000; -656.000
384.169;  -81.975;-1205.000;-1017.000
384.299;  -87.975; -650.000; -662.000
384.428; -113.875; -764.000; -680.000
384.558;  -69.650; -308.000; -275.000
384.687;  -81.375; -414.000; -334.000
384.817;  -11.825;   75.000;   -2.000
384.947;  -41.600; -234.000; -141.000
385.076;  152.925;  982.000;  912.000
385.206;   36.975;  369.000;  480.000
385.335;  -68.900; -549.000; -417.000
385.465; -104.550; -655.000; -663.000
385.594;   10.500;  -53.000;  -44.000
385.724;   48.025; -868.000; -838.000
385.853;   -3.000; -296.000; -270.000
385.982;  384.825; -743.000; -787.000
386.112;  753.125;-1052.000; -871.000
386.241;   -0.225; -307.000; -312.000
386.371;  -15.950; -174.000;  -87.000
386.500;  -49.625; -825.000; -789.000
386.629;  -17.100; -874.000; -817.000
386.759;   66.675;  -43.000;   68.000
386.888;  -18.050; -170.000; -250.000
387.017; -109.950; -648.000; -620.000
387.147; -111.575; -771.000; -798.000
387.276;  -58.925; -410.000; -397.000
387.405;  -37.575; -398.000; -342.000
387.535;  -66.075; -452.000; -361.000
387.664;  -66.000; -692.000; -620.000
387.793;  -18.025; -198.000; -113.000
387.922;  164.050;  255.000;  200.000
388.052;  -60.925; -576.000; -423.000
388.181;  -65.050; -342.000; -472.000
388.310;  -96.450; -889.000; -710.000
388.439; -101.825; -749.000; -742.000
388.568;   33.300;  365.000;  244.000
388.697;  296.650; -756.000; -653.000
388.826;    4.200; -768.000; -666.000
388.956;  -39.250; -285.000; -307.000
389.085;  -63.150; -347.000; -287.000
389.214; -121.875; -842.000; -872.000
389.343;  -78.175; -645.000; -413.000
389.472;  536.125;  126.000;  149.000
389.601;  650.750;   91.000;    0.000
389.730;  -25.225; -568.000; -687.000
389.859;    8.925;  226.000;   46.000
389.988;   31.350; -423.000; -408.000
390.117;   49.300; -168.000; -146.000
390.246;  -52.175; -331.000; -320.000
390.375;  -42.475; -673.000; -626.000
390.504;  -85.475; -703.000; -621.000
390.633; -123.075; -672.000; -726.000
390.761;  -97.825; -732.000; -645.000
390.890;  -42.450;   -4.000; -130.000
391.019;  -69.575; -421.000; -441.000
391.148; -131.325; -826.000; -855.000
391.277;  -94.900; -576.000; -493.000
391.406; -116.775; -821.000; -805.000
391.534;   -6.400;  574.000; -301.000
391.663; -107.550; -583.000; -645.000
391.792; -101.750; -673.000; -701.000
391.921;  -16.375;   -3.000;   15.000
392.050;   -0.025; -287.000; -228.000
392.178; -131.600;-1206.000;-1061.000
392.307;  -23.925; -758.000; -712.000
392.436;  -42.950; -427.000; -641.000
392.564;   -6.000;  166.000;   -6.000
392.693; -102.775; -860.000; -682.000
392.822;   12.850; -529.000; -534.000
392.950;  -44.400; -880.000; -714.000
393.079;   69.750; -188.000; -328.000
393.208;  -51.800; -488.000; -511.000
393.336;  -15.125; -170.000; -145.000
393.465;  -49.575; -317.000; -199.000
393.593;  -13.500;   62.000;   79.000
393.722; -162.100;-1121.000; -916.000
393.850;  -39.250; -188.000;  -61.000
393.979; -143.375; -926.000; -805.000
394.107;  -65.900; -517.000; -537.000
394.236;  -41.575; -570.000; -507.000
394.364;  102.225;  383.000;  206.000
394.493;   84.375; -911.000; -767.000
394.621;   15.275; -955.000; -916.000
394.750; 1145.300; -873.000; -923.000
394.878; 4517.675; -247.000; -149.000
395.007; 6588.075; -721.000; -807.000
395.135;  591.050; -790.000; -721.000
395.263;  -50.450;-1038.000;-1040.000
395.392;   -5.400;  -25.000; -107.000
395.520; -123.625; -818.000; -679.000
395.648; -116.950; -865.000; -915.000
395.777;  -77.375; -366.000; -405.000
395.905;  -89.725; -449.000; -564.000
396.033;  -14.575;  217.000;  172.000
396.162;  121.325; -399.000; -453.000
396.290;  143.550;  -17.000;   -2.000
396.418;  -48.250; -555.000; -514.000
396.546;  -91.400; -571.000; -466.000
396.674; -129.675; -850.000; -878.000
396.803;  -40.550;  -72.000;  -23.000
396.931;  -27.350; -179.000; -199.000
397.059; -116.600;-1026.000; -989.000
397.187; -139.900;-1026.000; -975.000
397.315; -147.100; -884.000; -649.000
397.443; -103.550; -592.000; -443.000
397.572; -107.300; -578.000; -424.000
397.700;  -88.000; -607.000; -614.000
397.828;  -44.125;  120.000;  -90.000
397.956;  -40.100; -508.000; -478.000
398.084;  -31.700; -767.000; -626.000
398.212;   -5.725;  137.000;  124.000
398.340;   -5.100;  -56.000;  159.000
398.468;  -43.900; -390.000; -169.000
398.596; -154.350; -993.000; -953.000
398.724; -118.250; -762.000; -767.000
398.852; -160.800;-1024.000; -976.000
398.980;  -91.950; -560.000; -560.000
399.108;  -87.800; -982.000; -735.000
399.236;   -7.325;   13.000;    8.000
399.363;   -9.550;  222.000;  196.000
399.491;  -59.975; -404.000; -398.000
399.619; -120.325; -829.000; -800.000
399.747;  -92.700; -859.000; -771.000
399.875;   42.800;  220.000;  234.000
400.003;  -59.050; -359.000; -284.000
400.130; -101.275; -421.000; -341.000
400.258;  -31.850;  -83.000;   38.000
400.386;  -64.525; -352.000; -168.000
400.514;  -87.600; -526.000; -587.000
400.641; -145.850; -928.000; -802.000
400.769; -147.150; -979.000; -888.000
400.897; -139.625; -838.000; -793.000
401.025;  -41.950; -166.000; -152.000
401.152;  -16.675;  220.000;   38.000
401.280;  -92.750; -430.000; -429.000
401.408; -117.150; -712.000; -576.000
401.535; -114.050; -735.000; -758.000
401.663; -182.625;-1134.000;-1054.000
401.790;  -92.400; -514.000; -525.000
401.918;   13.825;  436.000;  405.000
402.046;  -24.525;  134.000;  122.000
402.173;  -49.725;  -18.000;    7.000
402.301;  -86.725; -519.000; -397.000
402.428;   21.025;  528.000;  383.000
402.556; -147.250;-1188.000; -913.000
402.683;  -50.100;  -20.000;   -1.000
402.811;  -33.825;  -37.000; -206.000
402.938;  -39.100;   20.000;   27.000
403.066;   -8.250; -574.000; -558.000
403.193;  111.050;  299.000;  239.000
403.321;   63.125; -396.000; -574.000
403.448;  132.175;   83.000;   27.000
403.575;   34.675;  -90.000;  -46.000
403.703;  -87.100; -732.000; -557.000
403.830;  -63.000; -531.000; -496.000
403.957; -128.800;-1117.000;-1023.000
404.085;   26.175;  -61.000; -172.000
404.212;  114.025;  -50.000;   63.000
404.339;  427.775; -566.000; -306.000
404.467; 9006.500; -612.000; -524.000
404.594; 5562.650; -287.000; -227.000
404.721;  966.200; -869.000; -764.000
404.848;  102.450; -113.000; -202.000
404.976;  -99.100; -856.000; -783.000
405.103;  -11.800;  -14.000;  -82.000
405.230;   -5.825;  190.000;  226.000
405.357;   40.825;  117.000;   44.000
405.484;  428.600;  -49.000;    5.000
405.612;  104.200; -548.000; -563.000
405.739;  -50.325; -488.000; -243.000
405.866;   72.050;  669.000;  385.000
405.993;  -62.850; -398.000; -102.000
406.120; -138.025; -801.000; -887.000
406.247;  -81.650; -323.000; -342.000
406.374;  128.875;  540.000;  629.000
406.501;  -78.050; -632.000; -702.000
406.628; -104.725; -621.000; -589.000
406.755; -121.200; -803.000; -620.000
406.882;  -56.075; -228.000; -277.000
407.009; -120.750; -719.000; -628.000
407.136;  -43.175; -480.000; -401.000
407.263;  -58.850; -939.000; -829.000
407.390; -102.275; -692.000; -614.000
407.517; -194.600;-1139.000;-1187.000
407.644;  -74.050; -332.000; -256.000
407.771;  -80.025; -249.000; -287.000
407.898;  -13.350;  168.000;  328.000
408.025;  -85.200; -421.000; -313.000
408.151;  -30.475;   82.000;  153.000
408.278;  -66.425; -267.000; -216.000
408.405; -129.125; -931.000; -899.000
408.532; -103.075; -549.000; -542.000
408.659; -129.600; -677.000; -648.000
408.785; -199.075;-1298.000;-1170.000
408.912;  -73.350; -412.000; -296.000
409.039; -128.275; -610.000; -686.000
409.166; -100.425; -591.000; -555.000
409.292; -118.350; -571.000; -534.000
409.419; -130.075; -665.000; -649.000
409.546;  -83.550; -431.000; -192.000
409.672; -112.875; -713.000; -545.000
409.799;  -37.500;  -36.000;   34.000
409.926;  -43.425; -180.000; -179.000
410.052; -187.600;-1127.000;-1091.000
410.179;  -82.425; -368.000; -392.000
410.305;  -95.100; -375.000; -493.000
410.432;  -51.100; -220.000; -333.000
410.558;  -92.175; -305.000; -380.000
410.685; -112.350; -688.000; -431.000
410.812; -108.125; -409.000; -588.000
410.938; -142.300; -964.000; -808.000
411.065; -113.900; -671.000; -645.000
411.191;  -36.975; -189.000; -174.000
411.317; -128.375; -823.000; -742.000
411.444;  -75.775; -317.000; -246.000
411.570;  -76.225; -339.000; -294.000
411.697; -123.975; -758.000; -752.000
411.823; -178.450; -989.000; -999.000
411.949;  -55.750;  -56.000;   17.000
412.076; -129.625; -539.000; -519.000
412.202; -139.950; -758.000; -757.000
412.329; -144.000; -798.000; -752.000
412.455; -102.775; -821.000; -657.000
412.581;  -29.150;  -15.000;  172.000
412.707;  -90.475; -540.000; -457.000
412.834;  -20.650;  156.000;  219.000
412.960; -108.375; -785.000; -784.000
413.086; -103.200; -743.000; -701.000
413.212;  104.650;  604.000;  578.000
413.339;  -96.575; -685.000; -701.000
413.465;  -53.750; -364.000; -310.000
413.591; -115.650; -757.000; -474.000
413.717;  -59.325; -358.000; -366.000
413.843; -144.475; -839.000; -861.000
413.969;  -56.800;  -47.000; -292.000
414.096; -102.200; -679.000; -679.000
414.222;   -8.275;  -33.000;   85.000
414.348;  -75.675; -652.000; -385.000
414.474;   -1.300;   38.000;  -52.000
414.600;  -11.250; -126.000; -144.000
414.726;   -0.075;  -96.000;  -55.000
414.852;  -33.975; -365.000; -342.000
414.978;   34.750;  104.000;  -18.000
415.104;   59.625;   38.000;   80.000
415.230;   44.250; -329.000; -330.000
415.356;   46.975; -409.000; -514.000
415.482;  231.725;   13.000;  -35.000
415.608;  406.750; -247.000; -323.000
415.734; 1342.675;   67.000;   38.000
415.860;27832.700; -875.000; -767.000
415.986;23062.550; -685.000; -607.000
416.111; 2147.275; -798.000; -652.000
416.237;  482.950; -424.000; -571.000
416.363; 1684.725; -765.000; -733.000
416.489; 6808.450; -324.000; -251.000
416.615;  950.800; -707.000; -742.000
416.741;   67.800; -677.000; -784.000
416.866;  -61.750; -673.000; -736.000
416.992;  -87.750; -801.000; -818.000
417.118;  -24.600;  -41.000;  -80.000
417.244;  -82.750; -798.000; -531.000
417.369;  -84.250; -801.000; -612.000
417.495;  -17.900; -325.000; -254.000
417.621;  -86.650;-1015.000; -803.000
417.746;    8.050; -579.000; -572.000
417.872;   67.575; -254.000; -144.000
417.998;  123.625; -515.000; -530.000
418.123; 1578.750;-1073.000; -845.000
418.249; 8644.500; -512.000; -601.000
418.374; 1471.925; -916.000; -824.000
418.500;  226.150; -383.000; -482.000
418.626;  164.950;   70.000;  -59.000
418.751;  150.350; -549.000; -448.000
418.877;  324.975; -637.000; -643.000
419.002; 2559.800; -688.000; -560.000
419.128;19619.700; -930.000; -721.000
419.253; 5587.625; -967.000; -837.000
419.379;  778.375; -391.000; -338.000
419.504;  596.725;  325.000;  415.000
419.629;  816.925; -393.000; -212.000
419.755; 5350.150; -317.000; -254.000
419.880;34851.225;  -98.000;   67.000
420.006;17666.800; -280.000; -221.000
420.131;43896.025; -662.000; -775.000
420.256; 7205.900; -315.000; -316.000
420.382;  980.025; -665.000; -687.000
420.507;  171.800; -649.000; -778.000
420.632;   35.100; -337.000; -339.000
420.758;   45.175; -251.000; -425.000
420.883;  -96.175; -876.000; -672.000
421.008; -108.725; -775.000; -619.000
421.133;  -87.925; -509.000; -467.000
421.259;  -61.750; -325.000; -259.000
421.384; -134.525; -834.000; -693.000
421.509; -115.325;-1052.000; -862.000
421.634;  206.100; -936.000; -820.000
421.759;  110.000; -359.000; -327.000
421.885;  -98.025; -717.000; -656.000
422.010;  -93.700; -673.000; -542.000
422.135; -148.550; -695.000; -727.000
422.260;   22.875;  340.000;  280.000
422.385;  -53.125;   12.000;  -98.000
422.510;   -1.775;  151.000;  -26.000
422.635;  -21.075;  -87.000;  -43.000
422.760;   -3.225; -766.000; -791.000
422.885;    9.200;  -57.000;  -80.000
423.010;  -35.225; -112.000; -169.000
423.135;  -98.900; -481.000; -561.000
423.260;  -48.975; -150.000; -245.000
423.385;   25.975;  476.000;  222.000
423.510;    2.100;   71.000;  -22.000
423.635;    5.600;  133.000;   45.000
423.760;   49.525;  383.000;  328.000
423.885;   57.125;  336.000;  391.000
424.010;    0.125;  -68.000;  -13.000
424.135;  -29.325;    5.000;  -33.000
424.259;  -82.800; -654.000; -457.000
424.384;  -52.825; -279.000; -272.000
424.509;  -39.175; -260.000; -186.000
424.634;  -89.575; -761.000; -623.000
424.759;  -28.800; -688.000; -544.000
424.883;    0.625; -506.000; -527.000
425.008;  189.000; -502.000; -410.000
425.133; 2896.400; -679.000; -653.000
425.258; 1601.325; -517.000; -381.000
425.382;  543.225; -867.000; -774.000
425.507; 1252.000; -487.000; -543.000
425.632;  384.850; -802.000; -663.000
425.756;  692.300; -256.000; -146.000
425.881;10026.550; -831.000; -857.000
426.006;31019.575; -604.000; -355.000
426.130; 5156.225; -696.000; -508.000
426.255;  699.000; -611.000; -491.000
426.379;  288.700; -189.000; -577.000
426.504;  507.950;  660.000;  544.000
426.629; 5785.950; -519.000; -466.000
426.753; 4554.125;   64.000;  -46.000
426.878;  559.125; -252.000; -288.000
427.002;  303.825; -651.000; -668.000
427.127; 2083.275;  -35.000; -158.000
427.251;17379.300;  372.000;  401.000
427.375; 5724.900; -191.000; -173.000
427.500; 1384.925; -616.000; -610.000
427.624;  453.975; -234.000; -400.000
427.749;   80.175; -216.000; -225.000
427.873;  -26.775; -499.000; -412.000
427.997;  -37.000; -222.000; -230.000
428.122;   48.400;  795.000;  703.000
428.246;   39.850;  433.000;  434.000
428.371; -143.000; -869.000; -773.000
428.495; -120.425; -624.000; -646.000
428.619;  -45.475; -186.000; -117.000
428.743;    4.725;   65.000;  132.000
428.868;  -72.000; -732.000; -643.000
428.992;  510.550; -219.000; -326.000
429.116;  212.300; -329.000; -357.000
429.240;  122.275;  419.000;  426.000
429.365;  -50.725; -454.000; -574.000
429.489;  -40.725; -638.000; -647.000
429.613;   41.550; -236.000; -177.000
429.737;   82.875; -563.000; -432.000
429.861;  368.625; -247.000; -133.000
429.985; 7977.675; -425.000; -305.000
430.109;10270.400; -770.000; -908.000
430.234; 1258.000;   76.000;  -50.000
430.358;  130.800; -250.000; -160.000
430.482;  -31.725; -672.000; -564.000
430.606;  -68.725; -655.000; -375.000
430.730;  -43.325; -437.000; -388.000
430.854;  -74.200; -909.000; -835.000
430.978; -101.075; -795.000; -764.000
431.102;  -91.125; -499.000; -422.000
431.226; -118.175; -874.000; -815.000
431.350;   16.450;  345.000;  422.000
431.474;  -81.675; -661.000; -373.000
431.597; -165.650;-1060.000; -848.000
431.721;  -93.575; -276.000; -267.000
431.845; -123.650; -704.000; -472.000
431.969;  -69.125; -304.000; -349.000
432.093;  -86.950; -395.000; -317.000
432.217;  -19.775;   32.000;   82.000
432.341;  -83.150; -523.000; -518.000
432.464;   -6.600;   96.000;   40.000
432.588;  -28.625; -401.000; -329.000
432.712;   19.275;  -52.000;  -52.000
432.836;   53.100;  213.000;  263.000
432.959;   17.375; -372.000; -311.000
433.083;  162.650;   11.000;    2.000
433.207;  567.975;  285.000;  930.000
433.330; 7627.900; -391.000; -200.000
433.454;10692.625; -654.000; -638.000
433.578; 5906.800;  583.000;  278.000
433.701; 1288.600; -623.000; -675.000
433.825;  151.025; -292.000; -299.000
433.949;   53.325;   28.000;  -72.000
434.072;  -21.800; -410.000; -323.000
434.196;  -16.350; -309.000; -117.000
434.319; 3666.150;25482.000;25124.000
434.443;  868.275; -656.000; -603.000
434.566; 4119.650;  281.000;   62.000
434.690;  898.175; -637.000; -383.000
434.813;  136.550; -251.000; -173.000
434.937;  -41.525; -569.000; -696.000
435.060;  -85.000; -423.000; -332.000
435.184;  -11.250; -492.000; -217.000
435.307;   16.375;  159.000;  102.000
435.431;  -40.775;  -40.000;   24.000
435.554;  -83.075; -399.000; -240.000
435.677;  -88.550; -350.000; -258.000
435.801;  -43.900;  -25.000;   49.000
435.924;  -41.825;    1.000;  -67.000
436.048; -145.950;-1019.000; -732.000
436.171;  -71.925; -240.000;  -66.000
436.294;   -4.550; -248.000; -229.000
436.417;  221.250; -963.000; -849.000
436.541;  -30.525; -814.000; -840.000
436.664;  -55.825; -242.000; -316.000
436.787;  -28.125;   13.000;  113.000
436.910; -130.125; -792.000; -422.000
437.034;  -23.600;  142.000;  143.000
437.157;   -5.175;  -11.000;    0.000
437.280;  -73.175; -392.000; -292.000
437.403; -141.375; -982.000; -869.000
437.526;   19.200; -903.000; -865.000
437.649;  539.625; -505.000; -332.000
437.772;    4.550; -692.000; -540.000
437.896;   62.950;  700.000;  544.000
438.019; -104.675; -758.000; -503.000
438.142;  -83.975; -596.000; -506.000
438.265; -130.050; -639.000; -670.000
438.388;   31.725; -520.000; -410.000
438.511;  -70.650; -597.000; -394.000
438.634;  -70.000; -247.000; -125.000
438.757; -149.025; -693.000; -619.000
438.880;  -62.275;  -34.000;  -57.000
439.003; -105.800; -417.000; -437.000
439.126;  -87.000; -287.000; -167.000
439.248;  -64.225;  -98.000; -139.000
439.371;  -48.475;    9.000;  -53.000
439.494;   18.000;  510.000;  439.000
439.617;  -58.500;   65.000;  -88.000
439.740; -175.350; -968.000; -816.000
439.863; -147.200; -755.000; -595.000
439.986; -120.775; -476.000; -431.000
440.108;  -50.575; -161.000; -112.000
440.231; -157.900; -950.000; -836.000
440.354;  -73.350;  -64.000; -150.000
440.477; -113.750; -566.000; -542.000
440.599;  -98.900; -200.000; -225.000
440.722; -127.875; -709.000; -586.000
440.845;   52.175;  751.000;  928.000
440.968; -118.125; -415.000; -311.000
441.090;  -67.400; -199.000;  -33.000
441.213; -171.850;-1021.000; -825.000
441.336;  -45.400; -159.000;   -5.000
441.458; -112.975; -549.000; -396.000
441.581; -124.475; -628.000; -629.000
441.703;  -66.825; -152.000;   13.000
441.826; -120.675; -557.000; -400.000
441.948;  -54.875;   56.000;   51.000
442.071;   15.925;  555.000;  424.000
442.193; -134.125; -531.000; -485.000
442.316;    0.225;  152.000;   97.000
442.438;   66.600; -233.000;  -10.000
442.561;   56.050;  272.000;  262.000
442.683;   58.500; -809.000; -522.000
442.806;  284.125;   -8.000;   74.000
442.928;  -98.725; -859.000; -604.000
443.051;  -79.075; -577.000; -373.000
443.173;  -92.850; -341.000; -339.000
443.295;  -83.300; -263.000; -371.000
443.418;  -86.650; -321.000;  -29.000
443.540;  -49.725; -106.000;   -4.000
443.662; -128.800; -563.000; -465.000
443.785;  -27.025;  335.000;  199.000
443.907; -104.150; -362.000; -208.000
444.029; -130.875; -767.000; -494.000
444.152; -142.050; -644.000; -554.000
444.274;  -33.925;  -18.000;  -24.000
444.396; -131.550; -461.000; -221.000
444.518; -134.950; -691.000; -454.000
444.640; -101.975; -268.000; -111.000
444.763;  -24.400;  388.000;  249.000
444.885; -121.625; -432.000; -392.000
445.007;  -53.450;   35.000;   86.000
445.129; -120.300; -610.000; -515.000
445.251; -118.175; -372.000; -439.000
445.373; -150.000; -537.000; -386.000
445.495;  -20.625;  242.000;  350.000
445.617;   21.550;  853.000;  753.000
445.739;  -91.875; -215.000;  -97.000
445.861;  -61.600; -245.000; -112.000
445.984;  -73.175; -267.000; -101.000
446.105;  -21.750; -418.000; -251.000
446.227;  125.075; -176.000;  -19.000
446.349;  -74.825; -358.000; -249.000
446.471; -121.925; -615.000; -448.000
446.593; -102.900; -316.000;   19.000
446.715;  -51.725;  -67.000;   41.000
446.837;   36.600;  697.000;  832.000
446.959; -121.925; -457.000; -478.000
447.081; -148.100; -628.000; -518.000
447.203;   51.250;  862.000;  834.000
447.325;  -99.925; -270.000;   42.000
447.446;  -22.850;  286.000;  530.000
447.568; -157.550; -921.000; -803.000
447.690;  -81.325; -236.000; -245.000
447.812; -139.325; -798.000; -519.000
447.933;  -28.350;  155.000;  127.000
448.055;  -74.525; -306.000; -261.000
448.177;   12.625;   31.000;   79.000
448.299; -100.300; -935.000; -727.000
448.420;  -13.275;  -25.000;  159.000
448.542;  -56.650;   -3.000;   33.000
448.664;  -30.975;  109.000;  322.000
448.785;  -42.900;  265.000;   83.000
448.907; -100.975; -614.000; -353.000
449.028; -121.375; -771.000; -471.000
449.150;   29.925;  492.000;  589.000
449.272; -173.650;-1044.000; -913.000
449.393;   16.500;  612.000;  694.000
449.515; -145.550; -634.000; -581.000
449.636;  -76.975; -264.000; -155.000
449.758;   44.000;  763.000;  622.000
449.879;  -84.350; -498.000; -396.000
450.001;  -76.525; -149.000;  -49.000
450.122;  -30.550;  -95.000;  162.000
450.244;  -14.525;   37.000;  364.000
450.365;  -73.050; -495.000; -301.000
450.486;  -30.450;   80.000;  268.000
450.608;   42.100;  393.000;  326.000
450.729;   95.025;  578.000;  645.000
450.850;  102.150; -574.000; -466.000
450.972; 1223.275; -552.000; -389.000
451.093; 7963.900;  190.000;  588.000
451.214; 4154.350; -516.000; -337.000
451.336;  696.875;  773.000;  579.000
451.457;  118.350;  264.000;  393.000
451.578;  -28.075; -118.000;  -74.000
451.699;  -99.475; -546.000; -540.000
451.821;  -59.875; -284.000;  -50.000
451.942;   -6.000;  278.000;  285.000
452.063;   59.475;  228.000;  419.000
452.184;  813.400;  -54.000;  -49.000
452.305; 1762.825;  103.000;  170.000
452.427;  351.875; -549.000; -301.000
452.548;   15.300;   23.000;   79.000
452.669;  -67.625; -257.000;  -89.000
452.790;  -56.750;    3.000;  -18.000
452.911;  -28.200;  195.000;  259.000
453.032;  -74.325; -289.000;  -60.000
453.153;  -64.425;  -29.000;   81.000
453.274;   41.075;  737.000;  868.000
453.395;  -64.000;  -51.000;  175.000
453.516;  -10.550; 1317.000; 1388.000
453.637;  -93.800; -205.000; -150.000
453.758;  -66.725;   15.000;   69.000
453.879; -117.425; -462.000; -250.000
454.000;   47.100; 1086.000;  948.000
454.121; -138.575; -554.000; -326.000
454.242; -113.225; -599.000; -383.000
454.362;  -61.475;  -99.000;  114.000
454.483;  -27.425; -309.000; -229.000
454.604;   69.750;  512.000;  580.000
454.725; -120.700; -627.000; -555.000
454.846; -125.600; -474.000; -406.000
454.967;  -42.575;  230.000;  539.000
455.087;  -31.675;  179.000;  153.000
455.208;   21.800;  554.000;  856.000
455.329;  -56.425;  -22.000;   82.000
455.450;   40.975;  473.000;  633.000
455.570;  -70.875; -234.000; -211.000
455.691;  -44.150;  201.000;  407.000
455.812;  -96.450; -270.000;  -92.000
455.932;  -56.575;  107.000;  -97.000
456.053;  -86.350;   36.000;   24.000
456.173; -110.325; -433.000; -355.000
456.294; -124.750; -476.000; -303.000
456.415;  -60.125;  -73.000;   70.000
456.535;  -41.850;  297.000;  273.000
456.656;  -62.450;  132.000;  240.000
456.776;  -65.775;    3.000;  298.000
456.897;  -15.900;  308.000;  513.000
457.017;  -76.000; -153.000;   -3.000
457.138; -104.450; -402.000; -249.000
457.258;  -41.900;  263.000;  224.000
457.379;  -20.275;  509.000;  521.000
457.499;  -25.750;  443.000;  432.000
457.620; -119.775; -407.000; -231.000
457.740; -106.850; -132.000;  -11.000
457.860;  -53.200;   87.000;   44.000
457.981;  -49.525;  132.000;  124.000
458.101;  -69.450;  -89.000;   40.000
458.221;  -26.550;  336.000;  402.000
458.342;  -55.375;   -4.000;  -37.000
458.462;   51.550;  617.000;  352.000
458.582;   19.650; -302.000; -294.000
458.703;   56.325;  303.000;  154.000
458.823;   12.225;   22.000;  163.000
458.943;   45.400;  341.000;  467.000
459.063;    2.375; 1124.000;  192.000
459.183;  -17.500;  328.000;  313.000
459.304;    0.250;  315.000;  517.000
459.424;  -51.375; -246.000;  -89.000
459.544;  466.900;  388.000;  764.000
459.664; 1323.475;  499.000;  506.000
459.784;  517.275; 1004.000; 1175.000
459.904;   68.475;  867.000;  744.000
460.024;   41.175;  867.000;  684.000
460.144;  -10.375;  449.000;  554.000
460.264;    0.525;  515.000;  327.000
460.385;  -92.850; -145.000; -119.000
460.505;   27.650;  905.000;  858.000
460.625;  -81.325;  -17.000;  -68.000
460.745;  -23.600;  396.000;  541.000
460.864;  -45.825;  153.000;  469.000
460.984;   35.500;  499.000;  573.000
461.104;  145.025; 1656.000; 1775.000
461.224;   -0.450;  657.000;  650.000
461.344;  -49.625;  431.000;  360.000
461.464;  -36.275;  258.000;  513.000
461.584;  -30.525;  283.000;  466.000
461.704;  -67.500;   58.000;  108.000
461.824;  -58.800;  238.000;  259.000
461.943;  -49.650;  191.000;  130.000
462.063;  -83.375;    2.000;  324.000
462.183;   24.850;  639.000;  717.000
462.303;   72.800; 1678.000; 1230.000
462.422;   22.750;  781.000;  840.000
462.542;  -39.100;  271.000;  391.000
462.662;   37.300;  353.000;  380.000
462.782;  361.425;  833.000;  572.000
462.901;  750.200;  545.000;  717.000
463.021;  397.750; 1702.000; 1638.000
463.141;   11.075;  337.000;  770.000
463.260;  -18.025;  614.000;  474.000
463.380;   14.550;  902.000;  884.000
463.499;  -29.450;  342.000;  332.000
463.619;  -36.675;  581.000;  559.000
463.738;  100.350; 1644.000;  903.000
463.858;   10.925;  657.000;  811.000
463.978;  -43.100;  542.000;  396.000
464.097;   48.500;  921.000; 1114.000
464.217;  158.650; 1196.000; 1143.000
464.336;  161.325; 1068.000; 1130.000
464.455;  -29.950;  328.000;  659.000
464.575;    5.875;  597.000;  602.000
464.694;  115.650; 1204.000; 1179.000
464.814;  162.250; 1190.000; 1138.000
464.933;   90.825; 1095.000; 1027.000
465.052;   82.725; 1412.000; 1054.000
465.172;   63.675;  922.000;  799.000
465.291;  118.350; 1376.000; 1320.000
465.410;    1.700;  462.000;  735.000
465.530;   72.350; 1355.000; 1310.000
465.649;   48.075; 1209.000; 1273.000
465.768;  131.700; 1673.000; 1508.000
465.888;   44.100;  941.000; 1174.000
466.007;   86.550; 1335.000; 1440.000
466.126;   -5.000;  721.000;  641.000
466.245;   47.300; 1176.000; 1187.000
466.364;   15.125;  950.000; 1060.000
466.484;   34.225; 1024.000; 1213.000
466.603;   18.950; 1101.000; 1222.000
466.722;   97.900; 1490.000; 1769.000
466.841;   64.000; 1151.000; 1401.000
466.960;   30.125; 1069.000;  972.000
467.079;  107.225; 1971.000; 1786.000
467.198;   41.625; 1238.000; 1181.000
467.317;   74.050; 1768.000; 1162.000
467.436;   70.750; 1709.000; 1261.000
467.555;  128.025; 1796.000; 1746.000
467.674;   76.025; 1227.000; 1329.000
467.793;   44.900; 1376.000; 1374.000
467.912;   90.575; 1658.000; 1539.000
468.031;  121.900; 2038.000; 1930.000
468.150;  129.375; 1842.000; 1837.000
468.269;  170.950; 2313.000; 2090.000
468.388;  194.600; 2168.000; 2339.000
468.507;  251.125; 2884.000; 2903.000
468.626;  267.625; 2555.000; 2541.000
468.744;  128.525; 2018.000; 2174.000
468.863;  195.000; 2312.000; 2523.000
468.982;   88.550; 1503.000; 1555.000
469.101;  223.025; 2788.000; 2692.000
469.220;  162.025; 2333.000; 2176.000
469.338;  239.525; 2935.000; 3051.000
469.457;  192.650; 2719.000; 2545.000
469.576;  333.025; 3953.000; 3784.000
469.695;  248.450; 2877.000; 3066.000
469.813;  417.125; 4148.000; 4192.000
469.932;  386.650; 4255.000; 4485.000
470.051;  441.925; 4075.000; 4161.000
470.169; 1021.675; 4470.000; 4338.000
470.288; 2014.675; 4700.000; 4809.000
470.406; 1196.675; 5059.000; 5194.000
470.525;  667.600; 6101.000; 5787.000
470.644;  656.400; 6847.000; 6794.000
470.762;  794.575; 8397.000; 7873.000
470.881;  893.100; 8651.000; 8464.000
470.999; 1086.800; 9685.000; 9151.000
471.118; 1093.125;11174.000;10711.000

