
Integration time [ms]: 200.000
Averaging Nr. [scans]: 10
Smoothing Nr. [pixels]: 0
Data measured with spectrometer [name]: 2101012U2
Wave   ;Sample   ;Dark     ;Reference
[nm]   ;[counts] ;[counts] ;[counts] 

197.733;  157.400;  516.000;  404.000
197.879; -173.300; -610.000; -634.000
198.025; -102.700; -475.000; -420.000
198.171; -165.400; -602.000; -612.000
198.317;  -86.100; -401.000; -316.000
198.463; -140.800; -655.000; -404.000
198.609;   29.200;  181.000; -137.000
198.755; -195.800; -644.000; -410.000
198.901; -129.100; -505.000; -424.000
199.047; -137.300; -615.000; -488.000
199.193;  -92.700; -230.000; -468.000
199.339; -100.500; -222.000; -369.000
199.485;   79.200;  330.000;  271.000
199.631;   49.900;  227.000;  310.000
199.777;  -88.500; -466.000; -398.000
199.923; -137.100; -610.000; -424.000
200.069;   20.700; -141.000;  -58.000
200.215;  110.400;  128.000;  453.000
200.361;  107.900;  243.000;  477.000
200.507; -143.300; -600.000; -373.000
200.653;  -76.300; -371.000; -194.000
200.798;  -77.500; -215.000; -125.000
200.944;  -39.700; -146.000;  -41.000
201.090;   77.600;   61.000;  222.000
201.236;   -5.800; -116.000; -158.000
201.382;  263.200;  874.000;  903.000
201.528;    3.400;  -58.000;  -48.000
201.674; -119.100; -386.000; -293.000
201.819; -114.800; -540.000; -439.000
201.965; -177.500; -699.000; -447.000
202.111;  -37.900; -273.000; -226.000
202.257;  -82.900; -250.000; -238.000
202.402;   34.500;   13.000;  -36.000
202.548;  -51.000; -169.000; -116.000
202.694;  172.100;  410.000; -183.000
202.840; -140.200; -603.000; -531.000
202.985; -154.400; -681.000; -639.000
203.131; -228.300; -832.000; -666.000
203.277;  -26.600; -199.000; -262.000
203.423; -129.500; -434.000; -520.000
203.568;  -69.200; -462.000; -237.000
203.714; -145.200; -535.000; -542.000
203.860; -157.700; -682.000; -641.000
204.005;   24.400;  112.000;  167.000
204.151;  177.400;  561.000;  556.000
204.296;  -94.900; -354.000; -221.000
204.442; -172.500; -600.000; -547.000
204.588; -161.900; -592.000; -579.000
204.733;   33.400;  178.000;  168.000
204.879; -300.500;-1018.000; -822.000
205.025;   27.800;  -99.000;  126.000
205.170;  -21.500;  -17.000;   94.000
205.316;  195.000;  438.000;  661.000
205.461; -144.300; -698.000; -554.000
205.607;  165.000;  609.000;  665.000
205.752; -165.700; -626.000; -551.000
205.898; -131.200; -501.000; -391.000
206.043; -107.100; -578.000; -506.000
206.189; -101.000; -243.000; -285.000
206.334;  170.600;  554.000;  606.000
206.480;  172.800;  409.000;  239.000
206.625; -181.900; -529.000; -552.000
206.771; -106.100; -451.000; -373.000
206.916;  -85.000; -210.000; -537.000
207.062; -167.200; -545.000; -591.000
207.207; -121.400; -546.000; -443.000
207.353;   91.400;  185.000;  460.000
207.498;   21.400;  196.000;   85.000
207.643;  -77.500; -501.000; -370.000
207.789; -280.500;-1069.000; -910.000
207.934; -181.900; -665.000; -713.000
208.080;  -71.800; -154.000;   66.000
208.225;  -19.500;  -22.000;  -57.000
208.370; -158.700; -727.000; -619.000
208.516; -147.900; -741.000; -487.000
208.661;  -43.900; -127.000;  -69.000
208.806;  -50.900; -165.000; -171.000
208.952; -246.100;-1044.000; -731.000
209.097;  173.300;  378.000;  349.000
209.242; -112.100; -307.000; -382.000
209.387;  119.700;  392.000;  350.000
209.533; -108.400; -321.000; -350.000
209.678;  168.500;  472.000;  543.000
209.823; -118.100; -408.000; -310.000
209.969; -229.500; -860.000; -757.000
210.114; -199.600; -907.000; -719.000
210.259; -243.300; -939.000; -889.000
210.404;  -20.100; -171.000;  103.000
210.549;   45.800;  108.000;    3.000
210.695;  -38.400;   -3.000;  -95.000
210.840;   79.900;   94.000;   67.000
210.985; -122.700; -484.000; -303.000
211.130;  156.700;  268.000;  406.000
211.275;   37.100;  207.000;  199.000
211.420;  -84.800; -300.000; -289.000
211.566; -166.000; -536.000; -489.000
211.711;   59.900;  218.000;  157.000
211.856; -141.000; -545.000; -519.000
212.001;   50.400;  151.000;   44.000
212.146;   44.600;  153.000;   49.000
212.291;  -61.200; -210.000; -186.000
212.436;  -31.000; -280.000;   -6.000
212.581; -162.400; -685.000; -653.000
212.726; -159.100; -487.000; -538.000
212.871;  -86.000; -552.000; -217.000
213.016; -293.800;-1172.000;-1029.000
213.161;  126.100;  406.000;  291.000
213.306; -138.100; -435.000; -577.000
213.451; -182.200; -778.000; -689.000
213.596;  -92.000; -455.000; -347.000
213.741; -122.400; -448.000; -538.000
213.886; -140.700; -498.000; -517.000
214.031;  -34.600; -294.000; -124.000
214.176; -132.100; -408.000; -341.000
214.321;  -34.100; -296.000; -157.000
214.466;  -66.600; -163.000;  -43.000
214.611;   11.100;  -61.000;  -10.000
214.756; -255.900; -948.000; -858.000
214.901;   -2.600; -388.000; -226.000
215.046; -223.000; -797.000; -825.000
215.191;   49.600;  128.000;   35.000
215.336;  -26.300; -157.000;  -19.000
215.480; -120.800; -684.000; -505.000
215.625;    2.000; -175.000;  -19.000
215.770; -146.800; -757.000; -662.000
215.915;   -4.300;   -5.000;  -97.000
216.060;   -8.000; -113.000;  -21.000
216.205; -234.400; -731.000; -779.000
216.349; -165.600; -470.000; -533.000
216.494; -273.300; -939.000; -867.000
216.639; -272.000; -823.000; -888.000
216.784; -193.300; -577.000; -525.000
216.929;  104.300;  392.000;  281.000
217.073;   -2.500; -244.000;  -31.000
217.218;   36.000;   78.000;  -47.000
217.363; -179.300; -656.000; -618.000
217.507; -191.400; -623.000; -588.000
217.652; -230.200; -845.000; -874.000
217.797; -171.800; -708.000; -659.000
217.942; -235.600; -856.000; -720.000
218.086;  171.000;  608.000;  539.000
218.231;  -27.700; -174.000;  -26.000
218.376;  -66.100; -337.000; -229.000
218.520;   17.700;  -41.000;   96.000
218.665;  -63.200; -338.000; -204.000
218.810; -101.200; -275.000; -233.000
218.954;   42.500;  201.000;   35.000
219.099; -211.300; -713.000; -963.000
219.243; -149.000; -589.000; -554.000
219.388;  -35.000; -264.000; -136.000
219.532;  -33.900; -116.000; -116.000
219.677; -121.900; -564.000; -521.000
219.822;   24.800;   33.000;   89.000
219.966;   15.100;   17.000;  -99.000
220.111;  -60.200; -328.000;  -40.000
220.255; -207.900; -797.000; -750.000
220.400;  -20.100; -180.000; -146.000
220.544; -130.600; -516.000; -450.000
220.689; -109.500; -422.000; -451.000
220.833;  -26.600; -123.000;  -58.000
220.978;  -80.300; -393.000; -563.000
221.122;   72.600;  319.000;  307.000
221.267; -230.600; -906.000; -837.000
221.411; -113.100; -478.000; -394.000
221.555;   -4.300; -104.000;  -23.000
221.700;  -85.300; -329.000; -222.000
221.844;   89.300;  255.000;  272.000
221.989; -114.500; -328.000; -311.000
222.133;  -84.200; -289.000; -307.000
222.277;   19.900;    5.000;   78.000
222.422;   65.000;  227.000;  113.000
222.566;  -79.900; -381.000; -214.000
222.711; -118.000; -414.000; -479.000
222.855; -171.700; -643.000; -586.000
222.999; -163.800; -642.000; -717.000
223.144;  -28.000; -195.000; -194.000
223.288;  131.100;  423.000;  251.000
223.432;   31.100;  184.000;  230.000
223.576;   50.800;  152.000;  -21.000
223.721;  106.400;  364.000;  273.000
223.865; -103.000; -472.000; -475.000
224.009;  565.500; 1673.000; 1631.000
224.153; -163.500; -660.000; -671.000
224.298; -148.300; -531.000; -489.000
224.442;  -22.200;  -74.000;  -33.000
224.586;   12.400; -169.000; -106.000
224.730; -206.700; -858.000; -670.000
224.875; -224.300; -739.000; -688.000
225.019;   45.800;  102.000;  188.000
225.163;  134.800;  208.000;  341.000
225.307;   42.700;   97.000;  -91.000
225.451;   99.000;  360.000;  481.000
225.595;  100.500;  264.000;  176.000
225.739;  -21.900; -170.000;  -94.000
225.884;   14.700;   86.000;    5.000
226.028; -198.100; -760.000; -626.000
226.172;  -73.900; -260.000; -273.000
226.316; -238.000; -941.000; -902.000
226.460; -142.600; -645.000; -493.000
226.604; -102.300; -406.000; -400.000
226.748; -194.800; -836.000; -733.000
226.892;  -49.100; -227.000; -181.000
227.036;  -85.700; -537.000; -447.000
227.180; -102.700; -551.000; -375.000
227.324; -112.500; -561.000; -580.000
227.468; -232.100; -819.000; -717.000
227.612;   25.300;  242.000;  -28.000
227.756; -218.500; -845.000; -698.000
227.900;  114.200;  342.000;  441.000
228.044; -135.900; -509.000; -290.000
228.188;  113.000;  448.000;  568.000
228.332; -180.100; -546.000; -472.000
228.476;  -31.000; -223.000; -149.000
228.620;  -67.200; -210.000; -150.000
228.764;  177.900;  431.000;  349.000
228.908;  -20.200; -155.000;   30.000
229.052; -124.500; -615.000; -528.000
229.195;  -25.400; -172.000;   13.000
229.339;  -57.800; -235.000; -305.000
229.483;  -59.900;    5.000; -162.000
229.627;   -4.100; -156.000;  139.000
229.771;  -90.400; -218.000; -294.000
229.915;   42.600;  230.000;   79.000
230.059; -184.500; -648.000; -663.000
230.202; -101.000; -370.000; -317.000
230.346;  -35.100; -107.000;  107.000
230.490; -134.000; -489.000; -521.000
230.634; -195.200; -736.000; -553.000
230.777;  165.600;  478.000;  509.000
230.921; -101.600; -450.000; -359.000
231.065;  -64.500; -246.000; -286.000
231.209;   63.800;  261.000;  265.000
231.352;   73.100;   54.000;   40.000
231.496;   55.700;  568.000;  188.000
231.640; -172.100; -693.000; -621.000
231.783;  134.400;  546.000;  525.000
231.927;  -75.200; -294.000; -365.000
232.071; -227.600; -962.000; -736.000
232.214; -215.700; -980.000; -764.000
232.358; -208.100; -683.000; -599.000
232.502;    5.000;  -19.000;    7.000
232.645; -299.000;-1090.000; -927.000
232.789;  -53.900; -257.000; -218.000
232.933;  -75.000; -407.000; -224.000
233.076; -234.900;-1038.000; -897.000
233.220; -195.000; -752.000; -777.000
233.363; -149.800; -669.000; -477.000
233.507;  145.900;  371.000;  129.000
233.650; -186.100; -764.000; -834.000
233.794;  112.600;  438.000;  461.000
233.938; -121.300; -530.000; -362.000
234.081;   -9.400;  -93.000;   31.000
234.225; -119.700; -631.000; -539.000
234.368; -242.400; -773.000; -723.000
234.512;  -94.900; -385.000; -299.000
234.655; -179.600; -582.000; -555.000
234.798; -125.700; -493.000; -466.000
234.942; -254.900; -884.000;-1002.000
235.085; -138.500; -651.000; -443.000
235.229; -142.300; -405.000; -410.000
235.372;  -90.300; -247.000; -191.000
235.516; -127.300; -397.000; -321.000
235.659;   66.200;   92.000;  121.000
235.802;  -21.300;  -38.000;  -22.000
235.946;   38.400;  335.000;  215.000
236.089;   37.600;  126.000;  250.000
236.233;  110.900;  275.000;  298.000
236.376;  -75.900; -235.000; -378.000
236.519; -102.800; -297.000; -319.000
236.663;  -58.000; -215.000; -117.000
236.806; -276.900;-1029.000; -999.000
236.949;  150.800;  543.000;  431.000
237.092;  143.400;  412.000;  391.000
237.236; -181.500; -589.000; -502.000
237.379;  161.900;  352.000;  428.000
237.522; -238.300; -879.000; -768.000
237.666;   -7.300; -271.000;   18.000
237.809; -253.300; -851.000; -823.000
237.952;   85.900;  469.000;  271.000
238.095; -153.800; -447.000; -442.000
238.238;  212.100;  688.000;  700.000
238.382;  -12.000;  166.000;  103.000
238.525; -131.000; -598.000; -511.000
238.668; -286.800;-1060.000; -985.000
238.811; -153.300; -638.000; -643.000
238.954; -112.400; -483.000; -334.000
239.097;  195.300;  617.000;  664.000
239.241;   79.200;  394.000;  326.000
239.384;  -78.600; -254.000; -214.000
239.527;  -98.300; -424.000; -224.000
239.670; -277.000; -994.000;-1091.000
239.813; -213.500; -696.000; -658.000
239.956;  172.000;  579.000;  473.000
240.099; -219.000; -778.000; -725.000
240.242;  152.600;  428.000;  432.000
240.385;  113.800;  466.000;  450.000
240.528; -128.900; -706.000; -473.000
240.671;   58.900;  189.000;  134.000
240.814;  -78.200; -441.000; -158.000
240.957; -204.000; -767.000; -578.000
241.100; -193.800; -779.000; -755.000
241.243; -292.900;-1234.000; -893.000
241.386; -121.600; -508.000; -379.000
241.529; -174.100; -735.000; -547.000
241.672; -161.600; -566.000; -495.000
241.815; -209.900; -832.000; -808.000
241.958;   -4.300; -125.000; -182.000
242.101; -163.400; -545.000; -390.000
242.244;  -56.500; -270.000; -325.000
242.387;  -74.300; -304.000; -246.000
242.530;  136.400;  470.000;  134.000
242.673;  -65.200; -381.000; -309.000
242.815; -235.000; -925.000; -899.000
242.958; -139.100; -482.000; -381.000
243.101;   64.300;  132.000;  187.000
243.244; -163.000; -564.000; -521.000
243.387;  -50.900; -313.000; -316.000
243.530; -184.200; -657.000; -674.000
243.672;    6.100;   43.000;  -92.000
243.815;  -84.300; -355.000; -283.000
243.958;  -17.000;   98.000;  -26.000
244.101;   23.700;   59.000;  -16.000
244.243;   -8.700;  -47.000;  101.000
244.386; -235.300; -761.000; -630.000
244.529;  -34.400; -132.000; -139.000
244.672; -308.100;-1154.000; -951.000
244.814; -209.700; -621.000; -794.000
244.957;  -54.700; -380.000; -304.000
245.100; -161.400; -489.000; -489.000
245.242; -111.400; -387.000; -374.000
245.385;   36.800;  -59.000;  -39.000
245.528; -230.000; -871.000; -705.000
245.670;  179.800;  612.000;  634.000
245.813; -158.100; -599.000; -547.000
245.956;  -56.100; -324.000; -275.000
246.098; -145.500; -508.000; -650.000
246.241;   18.100;  194.000;   48.000
246.383;  -26.400; -119.000;  -73.000
246.526; -154.200; -454.000; -525.000
246.669; -233.100; -889.000; -780.000
246.811;   18.900;  172.000;   -1.000
246.954; -136.200; -512.000; -426.000
247.096;  -13.000;  -84.000;   -6.000
247.239; -130.400; -482.000; -445.000
247.381; -148.400; -647.000; -488.000
247.524;  149.300;  645.000;  679.000
247.666;   11.900;   58.000;   11.000
247.809; -237.600; -887.000; -691.000
247.951;  -31.600;  -75.000;  138.000
248.094;   58.300;  432.000;  308.000
248.236; -337.500;-1262.000;-1238.000
248.378;   13.700; -356.000;  -81.000
248.521;  -27.500; -334.000; -337.000
248.663;  -72.600; -236.000; -267.000
248.806;  -27.800; -300.000; -266.000
248.948; -201.100; -886.000; -763.000
249.090;  -93.700; -428.000; -398.000
249.233; -103.100; -344.000; -381.000
249.375; -102.800; -474.000; -451.000
249.518;  -26.700;  -83.000; -133.000
249.660;   12.900; -103.000;    3.000
249.802; -347.800;-1303.000;-1189.000
249.945; -139.700; -612.000; -540.000
250.087; -225.400; -834.000; -768.000
250.229;  -94.300; -362.000; -480.000
250.371; -126.700; -494.000; -439.000
250.514;  -99.400; -310.000; -244.000
250.656; -111.500;   69.000;  102.000
250.798; -239.900; -849.000; -800.000
250.940;  -97.800; -322.000; -322.000
251.083;  -44.700; -335.000; -111.000
251.225;  144.400;  338.000;  310.000
251.367;  -85.900; -274.000; -373.000
251.509;  -47.700; -265.000; -210.000
251.651; -198.600; -731.000; -671.000
251.794;  111.500;  538.000;  632.000
251.936; -230.100; -821.000; -747.000
252.078; -168.200; -540.000; -461.000
252.220; -130.300; -645.000; -477.000
252.362;  162.700;  344.000;  462.000
252.504; -127.300; -677.000; -584.000
252.646; -223.800; -875.000; -722.000
252.788;   19.800;   14.000; -128.000
252.931;  -53.400; -257.000; -253.000
253.073;  -68.800; -376.000; -317.000
253.215;  -10.700;  141.000;  122.000
253.357;    4.100;   82.000; -153.000
253.499;  -75.400; -374.000; -234.000
253.641; -186.000; -749.000; -594.000
253.783; -179.600; -609.000; -527.000
253.925; -169.000; -586.000; -591.000
254.067; -202.800; -744.000; -667.000
254.209;  -19.400; -391.000; -259.000
254.351; -279.500; -865.000; -883.000
254.493; -113.300; -441.000; -417.000
254.635; -221.400; -936.000; -818.000
254.777; -155.400; -752.000; -687.000
254.918; -121.600; -512.000; -430.000
255.060; -121.400; -551.000; -395.000
255.202;  -94.800; -473.000; -261.000
255.344; -158.400; -658.000; -455.000
255.486; -135.400; -471.000; -406.000
255.628; -202.300; -780.000; -781.000
255.770; -161.900; -676.000; -536.000
255.912; -105.500; -559.000; -468.000
256.053; -184.100; -730.000; -508.000
256.195;  355.200; 1008.000;  903.000
256.337; -198.100; -861.000; -595.000
256.479;  143.500;  532.000;  416.000
256.621;  -71.200; -394.000; -212.000
256.762; -172.500; -789.000; -742.000
256.904;  130.700;  485.000;  487.000
257.046;  -69.400; -381.000; -271.000
257.188; -114.200; -351.000; -264.000
257.329; -138.200; -525.000; -464.000
257.471; -226.900; -939.000; -807.000
257.613; -117.900; -584.000; -498.000
257.755; -308.800;-1073.000; -982.000
257.896;   74.700;  286.000;  392.000
258.038; -146.900; -403.000; -352.000
258.180;  -61.400; -354.000; -279.000
258.321; -157.800; -581.000; -457.000
258.463;   17.600;  -71.000;  133.000
258.605; -145.600; -562.000; -570.000
258.746; -194.100; -886.000; -772.000
258.888; -321.500;-1026.000;-1020.000
259.029;   83.900;  121.000;   -8.000
259.171; -169.400; -614.000; -550.000
259.313;   25.700;  -49.000;  -47.000
259.454; -162.400; -536.000; -414.000
259.596;  -90.800; -483.000; -390.000
259.737; -127.000; -590.000; -474.000
259.879;  104.000;  217.000;  311.000
260.020;  208.600;  901.000;  636.000
260.162;  -44.600; -146.000; -253.000
260.303; -221.700; -768.000; -687.000
260.445; -154.500; -609.000; -613.000
260.586;  102.700;  392.000;  157.000
260.728;  -44.100; -360.000; -248.000
260.869; -121.800; -350.000; -343.000
261.011;  188.200;  706.000;  537.000
261.152; -122.400; -479.000; -319.000
261.293; -152.400; -576.000; -595.000
261.435;  -54.300; -219.000; -184.000
261.576;  -77.100; -455.000; -325.000
261.718;  134.200;  420.000;  470.000
261.859; -257.500; -940.000; -949.000
262.000; -250.900; -951.000;-1016.000
262.142;  -21.100;  -52.000;  -60.000
262.283; -241.300; -808.000; -691.000
262.424; -179.600; -666.000; -625.000
262.566; -301.500;-1161.000; -983.000
262.707; -201.200; -840.000; -830.000
262.848; -229.500; -769.000; -726.000
262.990;  -90.000; -362.000; -345.000
263.131;  168.200;  650.000;  681.000
263.272;   17.400;  -61.000;  -41.000
263.413; -175.300; -589.000; -561.000
263.555;  -89.900; -669.000; -143.000
263.696; -171.500; -550.000; -641.000
263.837;  -93.000; -449.000; -551.000
263.978;   10.700;   -5.000;  -77.000
264.119;  -54.900; -283.000; -264.000
264.261; -213.700; -847.000; -630.000
264.402;   15.400;   33.000;   40.000
264.543; -119.700; -509.000; -524.000
264.684;   18.900;   61.000;  -50.000
264.825; -145.400; -816.000; -538.000
264.966;  -13.800;  -84.000;  -67.000
265.107; -217.400; -646.000; -670.000
265.248; -255.100; -825.000; -812.000
265.390;  -25.400;  152.000;   -9.000
265.531;  -38.500; -238.000; -107.000
265.672; -172.200; -557.000; -630.000
265.813;  146.300;  563.000;  439.000
265.954; -287.700; -959.000; -940.000
266.095;   20.700; -372.000; -322.000
266.236; -161.800; -686.000; -548.000
266.377;  -77.300; -243.000; -297.000
266.518; -125.500; -619.000; -547.000
266.659;   96.900;  170.000;  268.000
266.800;   54.900;   83.000;   85.000
266.941; -128.700; -487.000; -478.000
267.082;   59.200;  354.000;   99.000
267.223;  -71.200; -344.000; -273.000
267.364; -206.300; -892.000; -686.000
267.504;   11.900;    3.000;  135.000
267.645;   20.400;  160.000;   67.000
267.786;  -53.200; -147.000;  -86.000
267.927; -116.400; -473.000; -379.000
268.068;  -31.700; -186.000;  -61.000
268.209; -101.300; -175.000; -413.000
268.350; -105.700; -388.000; -532.000
268.490; -156.000; -648.000; -521.000
268.631;   84.500;  127.000;  225.000
268.772; -212.900; -874.000; -647.000
268.913;  -71.700; -328.000; -476.000
269.054;   30.200; -117.000;   12.000
269.194;  -88.700; -418.000; -402.000
269.335; -319.100;-1137.000;-1074.000
269.476;   -6.800;   33.000;  -35.000
269.617;  -91.600; -347.000; -392.000
269.757; -158.500; -713.000; -646.000
269.898; -208.200; -856.000; -613.000
270.039; -122.400; -415.000; -405.000
270.180; -260.100; -952.000; -816.000
270.320;   -4.300; -190.000; -250.000
270.461;  -45.000; -277.000; -249.000
270.602;  -25.100; -186.000; -156.000
270.742; -229.400; -868.000; -943.000
270.883; -107.700; -442.000; -390.000
271.023; -109.500; -358.000; -357.000
271.164; -139.900; -607.000; -528.000
271.305; -164.700; -666.000; -654.000
271.445; -174.300; -722.000; -683.000
271.586; -112.500; -462.000; -283.000
271.726;  -82.200; -397.000; -322.000
271.867; -128.400; -594.000; -534.000
272.008;  292.700; -473.000; -285.000
272.148;  251.500;  462.000;  468.000
272.289;   28.800; -113.000; -181.000
272.429;   59.200;   19.000;  185.000
272.570; -173.800; -633.000; -737.000
272.710; -181.900; -825.000; -775.000
272.851;  -20.200;  113.000; -130.000
272.991; -315.600;-1173.000;-1077.000
273.131; -124.400; -419.000; -459.000
273.272; -185.400; -683.000; -723.000
273.412;   22.500; -143.000;  -31.000
273.553;  -86.400; -488.000; -507.000
273.693;  315.000;  913.000;  858.000
273.834; -193.700; -894.000; -692.000
273.974; -150.500; -664.000; -615.000
274.114; -167.000; -772.000; -560.000
274.255;  183.300;  414.000;  373.000
274.395;   24.200; -180.000; -125.000
274.535;   76.400;  199.000;  350.000
274.676;   68.400;  225.000;   94.000
274.816;   18.900;  110.000;   34.000
274.956; -162.900; -624.000; -690.000
275.097; -149.800;-1014.000; -922.000
275.237; -217.700; -913.000; -803.000
275.377; -192.200; -778.000; -689.000
275.517; -286.900; -878.000; -937.000
275.658;  -88.100; -590.000; -555.000
275.798; -154.500; -606.000; -413.000
275.938;   40.000;  215.000;  323.000
276.078; -148.400; -626.000; -395.000
276.218;   46.500;   99.000;  104.000
276.359; -221.200;-1026.000;-1024.000
276.499; -138.700; -605.000; -446.000
276.639;  -20.000; -305.000; -151.000
276.779;  -84.400; -475.000; -357.000
276.919; -197.400; -783.000; -624.000
277.059;   16.500; -261.000; -212.000
277.199;  -50.000; -357.000; -259.000
277.340;  128.600;  287.000;  175.000
277.480; -230.500; -840.000; -693.000
277.620;   78.400;  192.000;   16.000
277.760; -371.700;-1533.000;-1294.000
277.900;   62.100;  113.000;   33.000
278.040;   61.100;  137.000;  159.000
278.180;  110.200;  270.000;  170.000
278.320;   -8.800;   21.000;   56.000
278.460; -129.300; -443.000; -469.000
278.600; -166.700; -708.000; -598.000
278.740;  135.800;  448.000;  224.000
278.880; -129.500; -768.000; -791.000
279.020;   37.700; -194.000; -144.000
279.160; -148.700; -672.000; -595.000
279.300; -245.800; -926.000; -873.000
279.440; -178.200; -709.000; -622.000
279.579;  -59.900;-1014.000; -929.000
279.719;  -88.300; -410.000; -394.000
279.859;  129.200;   -4.000;   41.000
279.999;   62.100; -208.000;  101.000
280.139;  -70.700; -435.000; -387.000
280.279; -131.000; -708.000; -745.000
280.419;  -25.000; -229.000; -147.000
280.559;  -48.400; -259.000; -180.000
280.698; -160.200; -790.000; -639.000
280.838; -203.900; -778.000; -800.000
280.978; -195.000; -846.000; -790.000
281.118; -218.700; -811.000; -704.000
281.257;   33.100;   24.000;    6.000
281.397; -233.900;-1094.000; -960.000
281.537; -165.000; -599.000; -712.000
281.677;  -36.300; -150.000; -101.000
281.816; -149.000; -700.000; -630.000
281.956;  -44.200; -193.000; -257.000
282.096; -110.000; -539.000; -396.000
282.235; -165.100; -672.000; -638.000
282.375;  -20.700; -243.000;  -98.000
282.515; -192.300; -715.000; -707.000
282.654;   90.800;   29.000;  106.000
282.794;  115.300;  388.000;  244.000
282.934;  -85.400; -530.000; -491.000
283.073; -239.000;-1030.000; -857.000
283.213;  -87.200; -460.000; -467.000
283.353;  -41.000; -408.000; -349.000
283.492;  -47.300; -264.000; -296.000
283.632;  -77.500; -254.000; -168.000
283.771; -194.600; -859.000; -730.000
283.911;  -56.300; -369.000; -260.000
284.050; -182.600; -794.000; -748.000
284.190; -296.500;-1229.000;-1096.000
284.329; -273.800;-1055.000; -964.000
284.469; -126.900; -516.000; -591.000
284.608; -117.900; -559.000; -598.000
284.748; -148.800; -614.000; -570.000
284.887;    6.700;  -87.000;  -20.000
285.027; -249.600; -844.000; -892.000
285.166;  -28.700; -192.000; -249.000
285.306;   14.100; -116.000;  -33.000
285.445;  -82.500; -229.000; -343.000
285.584; -152.300; -630.000; -494.000
285.724;  -64.900; -282.000; -322.000
285.863; -196.600; -857.000; -507.000
286.002;  -88.300; -366.000; -276.000
286.142; -216.400; -715.000; -622.000
286.281; -110.900; -525.000; -493.000
286.420; -138.800; -554.000; -417.000
286.560;  243.500;  653.000;  623.000
286.699; -256.300; -958.000; -912.000
286.838; -155.000; -590.000; -591.000
286.978; -154.400; -533.000; -537.000
287.117; -263.700;-1085.000; -950.000
287.256;  -45.900; -228.000; -211.000
287.395;  -87.100; -197.000; -378.000
287.535;  -55.500; -370.000; -298.000
287.674; -168.800; -509.000; -484.000
287.813;  150.800;  661.000;  533.000
287.952; -250.400;-1010.000; -871.000
288.091; -287.700;-1049.000; -915.000
288.231;   46.100;   13.000;   15.000
288.370; -337.800;-1217.000;-1200.000
288.509; -152.700; -728.000; -645.000
288.648; -198.400; -770.000; -548.000
288.787;  -41.200; -243.000;  -87.000
288.926; -109.900; -454.000; -475.000
289.065;  267.800;  859.000;  672.000
289.204; -111.700; -377.000; -217.000
289.344; -169.100; -791.000; -690.000
289.483;   72.700;  416.000;  304.000
289.622;  -27.500; -291.000; -149.000
289.761;   -3.400; -309.000; -166.000
289.900; -216.400; -785.000; -626.000
290.039;   -7.300;  -12.000;  -95.000
290.178;  -72.400; -274.000; -180.000
290.317; -133.900; -618.000; -479.000
290.456; -105.100; -463.000; -451.000
290.595; -268.000; -961.000; -833.000
290.734; -237.500; -904.000; -891.000
290.873; -107.300; -456.000; -420.000
291.011; -190.500; -833.000; -843.000
291.150; -175.700; -770.000; -682.000
291.289;  -14.300; -343.000; -110.000
291.428; -167.000; -599.000; -480.000
291.567; -101.000; -370.000; -442.000
291.706;   30.900;  109.000;  154.000
291.845; -147.200; -597.000; -505.000
291.984; -329.400;-1234.000;-1061.000
292.122;  175.000;  602.000;  582.000
292.261;  151.500;  620.000;  463.000
292.400;   37.000; -144.000;  211.000
292.539; -230.100; -959.000; -813.000
292.678;  -51.600; -325.000; -300.000
292.816; -286.300;-1136.000; -965.000
292.955; -146.500; -844.000; -684.000
293.094;  -34.800; -173.000; -337.000
293.233;  -88.400; -556.000; -400.000
293.371;  -26.300; -225.000;  -84.000
293.510; -198.600; -866.000; -780.000
293.649; -245.600; -959.000; -924.000
293.787; -122.200;-1083.000;-1012.000
293.926;   14.800; -113.000;  -32.000
294.065;  -36.300; -379.000; -290.000
294.203;  128.600;  298.000;  406.000
294.342;   54.400;   74.000;  156.000
294.481;11600.100;51180.000; -836.000
294.619;  -58.500; -425.000; -582.000
294.758; -298.600;-1230.000;-1137.000
294.896;  158.000; -125.000;    5.000
295.035; -254.000;-1040.000;-1006.000
295.174; -228.700;-1082.000; -954.000
295.312;  -86.700; -323.000; -203.000
295.451;  -21.000; -307.000; -428.000
295.589;  -86.100; -389.000; -518.000
295.728;   60.900; -292.000; -165.000
295.866;   47.300;  -36.000;  -51.000
296.005; -100.600; -584.000; -341.000
296.143; -127.600; -558.000; -596.000
296.282; -217.700; -957.000; -881.000
296.420; -151.000; -657.000; -557.000
296.559; -155.600; -892.000; -633.000
296.697;   30.800; -847.000; -665.000
296.835;   94.700;-1141.000;-1002.000
296.974;  127.600;  -23.000;   39.000
297.112;   47.300; -443.000; -504.000
297.251; -110.400; -815.000; -755.000
297.389;  141.400; -576.000; -438.000
297.527;   96.200; -145.000;  -83.000
297.666; -111.100; -486.000; -438.000
297.804;  -80.000; -404.000; -264.000
297.942;   30.500; -136.000; -161.000
298.081;   33.100; -183.000;   63.000
298.219;  151.900;  -17.000;  -19.000
298.357;   90.700; -144.000;  -71.000
298.495;   58.000; -810.000; -812.000
298.634;  118.400;  245.000;  219.000
298.772;   91.400; -220.000; -338.000
298.910;  -43.500; -309.000; -182.000
299.048;   -0.700; -130.000; -153.000
299.187;  -68.100; -350.000; -250.000
299.325;   82.800;   52.000;  122.000
299.463;   63.400; -389.000; -299.000
299.601;  209.600; -327.000; -271.000
299.739; -217.100; -908.000; -883.000
299.877; -131.100; -791.000; -703.000
300.016; -109.200;-1095.000; -935.000
300.154;  304.500;  -19.000; -161.000
300.292;   81.500; -428.000; -348.000
300.430;   75.800; -408.000; -291.000
300.568; -200.500; -940.000; -874.000
300.706; -101.700; -366.000; -469.000
300.844; -182.600;-1108.000; -979.000
300.982;  281.500;  246.000;  282.000
301.120; -189.400; -965.000; -866.000
301.258; -122.300; -812.000; -705.000
301.396;  115.800;  104.000;  -41.000
301.534;  130.900; -218.000; -293.000
301.672;   -7.100; -664.000; -521.000
301.810;   27.500; -613.000; -545.000
301.948;  275.300;   53.000;  149.000
302.086; 1044.500; -250.000;  -32.000
302.224; 1573.300; -610.000; -585.000
302.362;   51.700; -558.000; -622.000
302.500;  -58.500; -923.000; -893.000
302.638;  236.300;  128.000;  245.000
302.776;    7.100; -352.000; -408.000
302.913;  132.700;  447.000;  236.000
303.051;    1.800;  -86.000;  -23.000
303.189;  103.600;   90.000;  118.000
303.327;  -37.200; -341.000; -256.000
303.465; -133.400; -832.000; -588.000
303.603; -185.200; -805.000; -604.000
303.740;  218.400;  417.000;  241.000
303.878;    3.600; -800.000; -759.000
304.016; -173.600; -915.000; -790.000
304.154; -260.500;-1123.000;-1152.000
304.291;  -68.700; -505.000; -554.000
304.429;   55.500;  102.000;   74.000
304.567; -261.100; -908.000; -893.000
304.705; -101.400; -408.000; -515.000
304.842;  136.300; -616.000; -540.000
304.980;  157.800;  215.000;   35.000
305.118;   90.400; -367.000; -365.000
305.255; -139.800; -945.000; -927.000
305.393;  107.200;  178.000;  239.000
305.531; -202.200;-1173.000; -956.000
305.668; -118.200; -663.000; -582.000
305.806;  191.200; -358.000; -439.000
305.943;  198.800; -629.000; -637.000
306.081;  120.300; -378.000; -267.000
306.219; -192.500; -863.000; -748.000
306.356;   50.100;  158.000;   27.000
306.494;  282.200;  981.000;  761.000
306.631;   52.200;  -11.000;  -55.000
306.769;   37.200; -613.000; -485.000
306.906;    0.000; -284.000; -258.000
307.044;  -82.000; -473.000; -488.000
307.181; -100.100; -410.000; -332.000
307.319;  134.700;  112.000;   87.000
307.456; -332.900;-1191.000;-1153.000
307.594; -176.800; -980.000; -727.000
307.731;   26.900; -371.000; -164.000
307.868;   42.400;  -15.000;   20.000
308.006; -216.100; -961.000; -847.000
308.143; -118.000; -618.000; -330.000
308.281;  422.300;  -37.000; -254.000
308.418;   31.600; -748.000; -640.000
308.555;  -92.600; -400.000; -250.000
308.693; -106.800; -577.000; -573.000
308.830; -177.000; -712.000; -657.000
308.967;   16.800; -215.000;  -95.000
309.105;  -36.300; -507.000; -396.000
309.242;  101.900; -468.000; -367.000
309.379;  718.100; -577.000; -655.000
309.517;  -70.900; -936.000; -948.000
309.654; -140.700; -910.000; -734.000
309.791; -121.100; -662.000; -580.000
309.928; -226.200; -977.000; -914.000
310.065;  380.600;  819.000;  697.000
310.203;  -26.100; -825.000; -850.000
310.340;    1.100; -465.000; -321.000
310.477;  -91.900; -412.000; -516.000
310.614;  -84.900; -383.000; -473.000
310.751;  -84.000; -427.000; -518.000
310.889;   10.100;    1.000;   11.000
311.026; -291.500;-1161.000; -939.000
311.163;  -43.100; -386.000; -380.000
311.300; -106.500; -512.000; -479.000
311.437;  -96.300; -658.000; -619.000
311.574; -263.400;-1226.000; -985.000
311.711;  -84.100; -595.000; -433.000
311.848;  -28.600; -380.000; -388.000
311.985;   63.400;  270.000;   93.000
312.122; -197.700; -932.000; -762.000
312.259; -189.300; -941.000; -994.000
312.396; -117.700; -508.000; -551.000
312.533; -119.400; -812.000; -790.000
312.670; -226.200;-1070.000; -898.000
312.807;    8.800; -352.000; -367.000
312.944; -106.500; -513.000; -611.000
313.081;  -11.100; -150.000; -415.000
313.218; -182.000;-1111.000; -867.000
313.355;   49.700; -531.000; -449.000
313.492;   31.100; -455.000; -292.000
313.629;  288.400;  815.000;  735.000
313.766; -284.100;-1176.000;-1008.000
313.902;   -6.600; -186.000;   21.000
314.039;  -31.000; -372.000; -289.000
314.176;  102.700;  286.000;  192.000
314.313; -119.400; -569.000; -473.000
314.450; -115.600; -788.000; -684.000
314.587; -113.500; -468.000; -480.000
314.723;   43.800;  -78.000;  130.000
314.860;  101.500;  318.000;  332.000
314.997;   99.200;  223.000;  142.000
315.134;  -45.800; -385.000; -368.000
315.270;  -16.500; -480.000; -496.000
315.407; -226.700;-1094.000; -967.000
315.544;  -89.700; -657.000; -538.000
315.681; -118.500; -681.000; -565.000
315.817;   68.900; -133.000; -176.000
315.954;   49.100; -613.000; -392.000
316.091; -221.500;-1045.000;-1023.000
316.227;   -4.600;  -71.000; -179.000
316.364;   39.200;   23.000;    6.000
316.500;  -71.400; -113.000; -300.000
316.637;  -62.200; -181.000; -302.000
316.774; -134.200; -625.000; -358.000
316.910; -145.300; -598.000; -629.000
317.047; -130.000; -487.000; -351.000
317.183;  -49.600; -435.000; -566.000
317.320;    5.200; -367.000; -321.000
317.456; -110.800; -733.000; -805.000
317.593; -128.200; -598.000; -641.000
317.729;   75.400;  168.000;  -67.000
317.866; -370.300;-1434.000;-1285.000
318.002; -155.900; -708.000; -948.000
318.139; -159.800; -883.000; -867.000
318.275; -191.800;-1003.000; -738.000
318.412;  -91.100; -517.000; -336.000
318.548;  -49.100; -751.000; -720.000
318.685; -204.200; -985.000; -888.000
318.821; -165.000; -762.000; -735.000
318.957;   26.400;   34.000;  -23.000
319.094;  106.600;  297.000;  154.000
319.230; -116.300; -756.000; -742.000
319.367;  203.500; -471.000; -520.000
319.503;  147.100; -538.000; -436.000
319.639; -154.400; -877.000; -793.000
319.775;  -95.200; -750.000; -685.000
319.912;  -85.300; -424.000; -519.000
320.048; -165.800;-1184.000;-1184.000
320.184;  187.400;   59.000;   70.000
320.321;  -81.300; -497.000; -467.000
320.457;  161.200;  475.000;  662.000
320.593;  -79.400; -375.000; -382.000
320.729; -209.000; -732.000; -734.000
320.866;  -90.100; -577.000; -635.000
321.002; -117.500; -759.000; -809.000
321.138;  -36.000; -135.000; -211.000
321.274;  148.100; -148.000; -115.000
321.410;  -55.800; -585.000; -353.000
321.546;  -83.900;-1011.000; -911.000
321.683;  177.400;  400.000;  185.000
321.819;   79.700;  -48.000; -117.000
321.955; -219.100; -743.000; -722.000
322.091;  -84.000; -585.000; -540.000
322.227;  -21.300; -382.000; -202.000
322.363;   13.500; -320.000; -215.000
322.499;  -51.300; -343.000; -331.000
322.635;  328.900;  636.000;  443.000
322.771;   51.900; -139.000;   12.000
322.907;  196.600;  129.000;  327.000
323.043;    3.600; -115.000; -206.000
323.179;  -40.800; -394.000; -363.000
323.315;   27.600; -401.000; -371.000
323.451;  160.600; -328.000; -236.000
323.587;  147.000;  -60.000;  -77.000
323.723;   44.300; -682.000; -601.000
323.859;  -31.300; -258.000;  -76.000
323.995;  -56.500; -467.000; -409.000
324.131; -209.800; -967.000; -892.000
324.267;  -57.000; -254.000; -276.000
324.402; -253.700; -960.000; -983.000
324.538;   31.700; -279.000; -104.000
324.674;   77.500;  164.000;   77.000
324.810;  315.900;  226.000;  308.000
324.946;   56.200; -810.000; -658.000
325.082; -125.200; -568.000; -475.000
325.217;   24.400;  -62.000;   16.000
325.353; -167.200; -764.000; -659.000
325.489; -139.900; -540.000; -506.000
325.625; -115.600; -579.000; -525.000
325.760;  151.600;  517.000;  376.000
325.896;  -18.300; -515.000; -702.000
326.032;  -74.900; -403.000; -352.000
326.168;  -97.100; -462.000; -369.000
326.303;  -67.600; -352.000; -461.000
326.439;  -31.800; -336.000; -276.000
326.575;    9.200; -190.000;  -29.000
326.710;   32.500; -156.000;  -30.000
326.846;   34.500;  146.000;  103.000
326.982; -157.700; -530.000; -548.000
327.117;  -94.300; -481.000; -442.000
327.253; -163.700; -745.000; -742.000
327.388; -316.000;-1137.000;-1153.000
327.524;  -43.300; -811.000; -578.000
327.659;   11.500;  -58.000;  -22.000
327.795;   10.400;   69.000;   45.000
327.931; -147.300; -723.000; -499.000
328.066;  -12.700; -417.000; -276.000
328.202;  -13.100;   12.000; -129.000
328.337;  300.000;  957.000;  713.000
328.473;   13.300;  -12.000;  -74.000
328.608;   -9.000; -256.000; -267.000
328.743; -131.800; -799.000; -664.000
328.879;   83.000;  214.000;  114.000
329.014;  -96.100; -102.000; -122.000
329.150; -119.500; -358.000; -483.000
329.285; -118.500; -465.000; -466.000
329.421;  -47.500; -548.000; -246.000
329.556;   -0.900;  -36.000;   85.000
329.691; -125.900; -633.000; -615.000
329.827; -140.500; -626.000; -480.000
329.962;  -25.900;  131.000; -301.000
330.097; -158.000; -673.000; -585.000
330.233;  -45.000; -410.000; -223.000
330.368; -221.300; -839.000; -628.000
330.503;   17.000;    3.000;   98.000
330.638;   23.000;  -93.000; -125.000
330.774;  -87.600; -609.000; -530.000
330.909;  -59.800; -434.000; -244.000
331.044; -159.600; -714.000; -708.000
331.179; -293.700;-1217.000;-1109.000
331.315;   41.700;   77.000;   20.000
331.450;   51.200;  157.000;  285.000
331.585; -133.300; -805.000; -706.000
331.720; -130.800; -510.000; -460.000
331.855;    1.900;  -35.000; -102.000
331.990;  556.900;   62.000;  138.000
332.126;  273.700; -110.000;   71.000
332.261;   20.300; -379.000; -265.000
332.396;   24.800; -135.000; -242.000
332.531; -175.000;-1074.000;-1031.000
332.666;  111.600; -519.000; -363.000
332.801; -162.400; -726.000; -807.000
332.936;  -15.200; -192.000; -122.000
333.071; -237.100; -870.000; -817.000
333.206;   90.300;  307.000;  379.000
333.341;   97.400;  344.000;  418.000
333.476; -151.000; -627.000; -623.000
333.611;  -34.800; -251.000; -173.000
333.746;  -54.700; -381.000; -464.000
333.881; -193.000; -973.000; -935.000
334.016; -216.800; -936.000; -917.000
334.151; -214.300; -746.000; -702.000
334.286;  101.500;  152.000;  186.000
334.421;   11.600; -125.000; -178.000
334.556; -154.200; -611.000; -567.000
334.690; -137.300; -631.000; -577.000
334.825;  151.500;  381.000;   83.000
334.960; -105.400; -285.000; -413.000
335.095;   59.300;  135.000;  -91.000
335.230; -194.800; -722.000; -738.000
335.365; -242.500;-1084.000; -990.000
335.499; -248.900;-1108.000;-1037.000
335.634;   62.900;    9.000;  534.000
335.769; -172.600; -755.000; -720.000
335.904; -103.800; -603.000; -561.000
336.038;  -75.500; -735.000; -657.000
336.173; -224.100;-1206.000;-1194.000
336.308;   46.200; -116.000; -189.000
336.443;   48.700; -544.000; -634.000
336.577; -138.900; -936.000; -787.000
336.712;  107.500;   -4.000;  -12.000
336.847;  -77.200; -724.000; -607.000
336.981;  105.000; -272.000; -208.000
337.116;  535.200;  615.000;  501.000
337.250;  272.700; -434.000; -421.000
337.385;  523.800; -297.000; -208.000
337.520;  192.100; -632.000; -603.000
337.654;  -60.000; -215.000; -126.000
337.789; -221.700; -989.000; -933.000
337.923;  -22.200; -104.000; -205.000
338.058; -147.800; -673.000; -738.000
338.192;  -99.300; -611.000; -488.000
338.327;   45.900;  -18.000; -155.000
338.461; -100.200; -299.000; -469.000
338.596; -140.300; -780.000; -638.000
338.730; -154.500; -767.000; -803.000
338.865;  193.100;  -46.000; -140.000
338.999;  -85.400; -846.000; -702.000
339.134;  -32.300; -634.000; -536.000
339.268;   31.600; -741.000; -603.000
339.403;  698.000; -740.000; -775.000
339.537;  254.000; -894.000; -820.000
339.671; -170.900; -829.000; -813.000
339.806;  -85.900; -556.000; -512.000
339.940;   79.500; -261.000; -235.000
340.074; -130.300; -685.000; -510.000
340.209;  -50.700; -351.000; -230.000
340.343; -150.800; -517.000; -573.000
340.477;  343.100;  998.000; 1036.000
340.612;  -57.300;-1033.000; -900.000
340.746;  293.100; -199.000; -243.000
340.880; -113.900; -924.000; -785.000
341.014;    1.600;  -45.000; -154.000
341.149; -214.800; -756.000; -718.000
341.283; -186.100; -839.000; -754.000
341.417; -162.800;-1124.000; -938.000
341.551;  230.800; -768.000; -708.000
341.685;  -47.600; -633.000; -611.000
341.820;  -67.900; -562.000; -493.000
341.954;  -67.900; -218.000; -349.000
342.088; -270.800;-1102.000;-1019.000
342.222;  102.700;  565.000;  618.000
342.356; -110.200; -395.000; -335.000
342.490; -147.900; -880.000; -841.000
342.624;  -17.500; -339.000; -242.000
342.758;   35.300; -364.000; -312.000
342.892; -106.700; -710.000; -585.000
343.026;  -47.600;  -58.000; -116.000
343.160;  -66.600; -426.000; -376.000
343.294; -106.100; -474.000; -337.000
343.428;  -17.600; -488.000; -448.000
343.562;    5.800; -172.000;  -23.000
343.696;  -25.900; -385.000; -314.000
343.830;   -0.800; -362.000; -356.000
343.964;   56.500; -231.000; -168.000
344.098; 1519.500;  199.000;   70.000
344.232; 1257.400; -266.000; -127.000
344.366;  163.400; -567.000; -453.000
344.500;  126.800; -665.000; -744.000
344.634;   41.500; -324.000; -164.000
344.768;    9.100; -531.000; -341.000
344.902;   62.300;  278.000;  256.000
345.035; -109.600; -556.000; -496.000
345.169; -227.400; -933.000; -656.000
345.303;  -47.900; -308.000; -482.000
345.437; -129.900; -826.000; -717.000
345.571; -116.000; -675.000; -594.000
345.704; -108.300; -309.000; -532.000
345.838;   11.600; -331.000; -284.000
345.972;  -45.300; -543.000; -495.000
346.106;  364.900; -179.000; -190.000
346.239;  810.600; -312.000; -243.000
346.373;   55.000; -343.000; -302.000
346.507; -247.000; -950.000; -962.000
346.640;  275.200;  -30.000;   13.000
346.774;  -78.200; -650.000; -797.000
346.908;  -20.500; -138.000;  -11.000
347.041; -174.400; -646.000; -593.000
347.175;   48.400;  259.000;   27.000
347.309; -100.900; -698.000; -628.000
347.442; -166.100; -883.000; -732.000
347.576;  507.700;  670.000;  668.000
347.709;  342.900; -123.000;  -52.000
347.843; -135.700; -933.000; -825.000
347.976;  103.100;  235.000;  294.000
348.110; -324.100;-1268.000;-1186.000
348.243; -165.200; -679.000; -772.000
348.377;   54.100;  -26.000;   60.000
348.510;  176.800;  403.000;  540.000
348.644;  -11.200;  -37.000; -159.000
348.777;   43.500;  180.000;  191.000
348.911;  -63.500; -142.000; -112.000
349.044;  332.000;  471.000;  448.000
349.178;  250.000;-1069.000;-1006.000
349.311;  204.500;  141.000;  255.000
349.444;    7.100; -927.000; -813.000
349.578;   -6.000; -347.000; -200.000
349.711; -183.000; -959.000; -862.000
349.845;   -0.700; -661.000; -591.000
349.978; -266.000;-1224.000;-1137.000
350.111; -157.000; -546.000; -612.000
350.244;  -99.400; -596.000; -700.000
350.378;   40.300; -392.000; -393.000
350.511; -107.500; -393.000; -426.000
350.644; -167.800; -808.000; -806.000
350.778;   77.200;  168.000;  104.000
350.911;   76.000;  134.000;  140.000
351.044; -156.200; -685.000; -615.000
351.177;    7.300; -321.000; -281.000
351.310;  -12.800;    3.000; -131.000
351.444; -125.700; -888.000; -788.000
351.577;  240.000;  140.000;   90.000
351.710;  251.200;  593.000;  417.000
351.843;  -30.900; -165.000;  -77.000
351.976;   38.400;  149.000;  -79.000
352.109; -159.900; -621.000; -612.000
352.242;  -29.400; -464.000; -419.000
352.376;  -87.500; -580.000; -636.000
352.509;  278.000; -437.000; -356.000
352.642;   -4.300; -654.000; -604.000
352.775;  143.400; -141.000;  -98.000
352.908; -202.000; -933.000; -904.000
353.041; -185.200; -814.000; -824.000
353.174;  -89.100; -551.000; -424.000
353.307; -137.700; -753.000; -764.000
353.440;  224.700;  541.000;  453.000
353.573; -179.200; -957.000;-1008.000
353.706;  -48.900; -384.000; -558.000
353.839;  -14.900; -264.000; -220.000
353.971; -132.200; -657.000; -512.000
354.104; -151.700; -896.000; -835.000
354.237;  -73.600; -627.000; -662.000
354.370; -134.500; -846.000; -879.000
354.503; -323.500;-1231.000;-1308.000
354.636;  -28.200; -529.000; -348.000
354.769; -192.600; -937.000; -860.000
354.902;   26.600; -230.000; -139.000
355.034;  -14.300; -164.000; -220.000
355.167;   14.700; -262.000; -162.000
355.300; -171.300;-1061.000; -880.000
355.433; 1940.100;  -71.000;  -14.000
355.565; 2941.700; -402.000; -384.000
355.698;  746.900; -356.000; -296.000
355.831;   18.800; -882.000; -801.000
355.964;  162.300; -285.000; -170.000
356.096; -121.700; -856.000; -843.000
356.229;   21.700; -523.000; -530.000
356.362;  654.300; -373.000; -266.000
356.494; 1200.100; -229.000; -162.000
356.627;  914.000;  269.000;  377.000
356.760; 1302.000;  120.000;   53.000
356.892; 1907.600; -286.000; -601.000
357.025; 1227.800;  403.000;  389.000
357.157; 1086.100; -167.000; -179.000
357.290; 1306.900; -856.000; -713.000
357.423;  359.400; -667.000; -556.000
357.555;  215.000; -217.000; -228.000
357.688;  228.700; -483.000; -364.000
357.820;  722.300; -870.000; -877.000
357.953; 6177.900; -563.000; -589.000
358.085; 1240.100; -632.000; -612.000
358.218; 1936.700;-1131.000; -932.000
358.350;  386.800;  -58.000;  312.000
358.483; -223.000;-1300.000;-1187.000
358.615;  -55.200;-1182.000;-1078.000
358.747; -117.900;-1187.000;-1058.000
358.880;   61.000; -810.000; -744.000
359.012;   29.400; -376.000; -202.000
359.145;  -15.900; -480.000; -511.000
359.277;   54.600; -962.000; -913.000
359.409; 5046.600;  536.000;  231.000
359.542; 1259.300; -738.000; -688.000
359.674;  188.300;   46.000;   13.000
359.806;  -94.500; -565.000; -438.000
359.939;  -44.400; -617.000; -516.000
360.071;   57.100; -583.000; -579.000
360.203;  -10.100; -411.000; -364.000
360.335;  121.400;  164.000;  -16.000
360.468;  346.100; -249.000; -307.000
360.600; 4176.600; -547.000; -454.000
360.732; 5398.500; -546.000; -423.000
360.864;  698.300;-1216.000;-1044.000
360.996;  508.600; -516.000; -554.000
361.129;  104.200; -389.000; -598.000
361.261;  124.900;  110.000; -113.000
361.393;  -25.900; -252.000; -214.000
361.525;  101.100;   94.000;  244.000
361.657;  -67.700; -821.000; -703.000
361.789;   48.600; -139.000; -155.000
361.921;  376.400; -642.000; -593.000
362.053;  509.600;  524.000;  541.000
362.185;  123.000;  288.000;   72.000
362.318; -140.000; -709.000; -705.000
362.450;  261.400;  294.000;  444.000
362.582;  120.700; -913.000; -870.000
362.714;  -42.700; -353.000; -332.000
362.846; -131.900; -606.000; -490.000
362.978; -226.200; -941.000; -811.000
363.109;  116.400; -161.000; -260.000
363.241;  791.600; -739.000; -749.000
363.373;  884.400; -649.000; -564.000
363.505; 1358.700; -186.000;  -91.000
363.637;  337.300; -787.000; -601.000
363.769; -227.400;-1067.000;-1080.000
363.901;  -94.400; -596.000; -654.000
364.033; -210.900;-1103.000;-1062.000
364.165;   54.400; -283.000; -283.000
364.296;  184.500; -316.000; -177.000
364.428;  162.100;-1344.000;-1220.000
364.560; -114.600; -679.000; -661.000
364.692;  -89.700; -738.000; -835.000
364.824;  478.700; -588.000; -456.000
364.955;  849.700; -402.000; -564.000
365.087; 1866.600;-1097.000; -852.000
365.219;   91.800; -686.000; -816.000
365.351;  -90.200; -526.000; -572.000
365.482;  163.900;  300.000;  240.000
365.614;  -29.300; -402.000; -314.000
365.746; -160.900; -729.000; -752.000
365.877; -155.700; -706.000; -672.000
366.009;  502.100;  -35.000;  -62.000
366.141; -132.700;-1249.000;-1134.000
366.272; -180.000; -803.000; -719.000
366.404; -177.500;-1005.000; -874.000
366.535;   35.300; -139.000;  -12.000
366.667; -150.000; -644.000; -649.000
366.799;  144.500;  353.000;  203.000
366.930; -192.600; -862.000; -996.000
367.062;  270.200; -639.000; -613.000
367.193;  324.100; -872.000; -842.000
367.325;  -65.600; -580.000; -684.000
367.456;  114.400; -246.000;   31.000
367.588;  366.400; -371.000; -318.000
367.719;   78.800;  -44.000;  -45.000
367.851;    9.500; -222.000; -241.000
367.982;  -76.900; -875.000; -732.000
368.113;  190.500; -475.000; -358.000
368.245; -194.100; -960.000; -841.000
368.376;   -8.100; -254.000; -302.000
368.508;  -11.300; -188.000; -263.000
368.639; -279.700;-1166.000;-1034.000
368.770;  -34.200; -670.000; -589.000
368.902; -105.000; -836.000; -926.000
369.033; -192.600; -906.000; -855.000
369.164;  -46.500; -720.000; -653.000
369.296; -193.600; -452.000; -601.000
369.427;   32.400; -209.000; -144.000
369.558;  -39.200; -593.000; -377.000
369.689; -128.200; -721.000; -569.000
369.821; -258.100; -951.000; -845.000
369.952;    5.400;   42.000; -108.000
370.083;  -46.000; -229.000; -108.000
370.214; -141.400; -735.000; -650.000
370.345;   69.000;   65.000;   81.000
370.477; -142.300; -810.000; -790.000
370.608;  438.600; -328.000; -264.000
370.739; -110.100;-1233.000;-1292.000
370.870;  -66.500;-1102.000; -923.000
371.001;  181.500; -378.000; -467.000
371.132; -111.800; -754.000; -735.000
371.263;   40.400;  -42.000; -148.000
371.394; -268.800; -841.000; -748.000
371.525;  128.600;  345.000;  225.000
371.657; -163.500; -808.000; -670.000
371.788;  211.500;  103.000;  199.000
371.919;  299.100; -384.000; -304.000
372.050; 6171.500;  -91.000; -156.000
372.181; 1757.000; -188.000; -294.000
372.311;  666.600;   42.000; -127.000
372.442;   90.500; -457.000; -451.000
372.573;    0.800; -444.000; -340.000
372.704; -227.100;-1008.000; -980.000
372.835;  175.600; -228.000; -289.000
372.966; -104.800; -646.000; -554.000
373.097; -100.700; -575.000; -711.000
373.228;  -54.400; -717.000; -542.000
373.359;  216.900; -824.000; -536.000
373.490; 1597.200; -881.000; -727.000
373.620; 1940.500;-1001.000; -803.000
373.751; 2999.200; -332.000; -396.000
373.882; 1287.900; -663.000; -733.000
374.013;  117.700; -449.000; -262.000
374.143;  -61.100; -581.000; -659.000
374.274; -181.900; -987.000; -908.000
374.405;  334.200; -388.000; -276.000
374.536;  740.500; -526.000; -387.000
374.666; 1849.100; -759.000; -807.000
374.797;  347.500; -817.000; -868.000
374.928; 1433.000; -710.000; -560.000
375.058; 1451.100; -535.000; -500.000
375.189;  166.700;  -59.000;  -93.000
375.320; -200.600; -928.000;-1034.000
375.450;  -34.600; -625.000; -616.000
375.581;  -68.100; -526.000; -436.000
375.712;  -30.500; -574.000; -250.000
375.842;  517.800; -438.000; -415.000
375.973;  396.200; -554.000; -513.000
376.103;  -80.200; -665.000; -648.000
376.234; -124.700; -531.000; -552.000
376.364;  -90.500; -944.000; -867.000
376.495;  647.100;  925.000;  529.000
376.625;   14.500; -472.000; -485.000
376.756;  121.500; -709.000; -678.000
376.886; -137.000;-1178.000;-1026.000
377.017;  138.900;-1048.000;-1061.000
377.147;  675.600; -786.000; -782.000
377.278;  189.100;  174.000;  228.000
377.408; -212.400; -801.000; -815.000
377.538; -177.000; -707.000; -693.000
377.669; -145.300; -537.000; -613.000
377.799; -155.100; -645.000; -635.000
377.929;  -57.600; -610.000; -428.000
378.060; -219.200; -781.000; -847.000
378.190;  -55.800; -726.000; -531.000
378.320;  -37.300; -401.000; -406.000
378.451;   -3.800; -131.000;  -22.000
378.581;   -7.300;  -67.000; -110.000
378.711;  361.200; 1035.000;  866.000
378.841;  -14.500; -533.000; -675.000
378.972; -133.500; -871.000; -751.000
379.102;  -24.500; -652.000; -579.000
379.232;    7.300; -126.000;  -73.000
379.362; -191.500;-1001.000; -885.000
379.492;   25.400; -373.000; -424.000
379.623;  246.000;    0.000;  111.000
379.753; -165.700;-1107.000; -974.000
379.883;  401.600;   59.000;  156.000
380.013;   50.700;-1081.000;-1017.000
380.143; -178.500;-1097.000;-1056.000
380.273; -140.500; -985.000; -861.000
380.403;   33.800; -344.000; -257.000
380.533;  -26.800; -651.000; -664.000
380.663;  161.300;  173.000;  128.000
380.793; -169.800;-1027.000;-1074.000
380.923;   26.700; -103.000;  -34.000
381.053; -159.700; -613.000; -623.000
381.183;  -31.900; -106.000; -248.000
381.313;   52.200; -656.000; -470.000
381.443;   92.300; -692.000; -473.000
381.573;  381.700; -402.000; -409.000
381.703;  482.100;-1249.000;-1095.000
381.833; -222.200;-1454.000;-1336.000
381.963;  255.900; -134.000;  -87.000
382.093; 2370.800; -925.000; -909.000
382.223;  726.000; -713.000; -602.000
382.353;  -18.500; -801.000; -608.000
382.482;  632.500;-1091.000; -964.000
382.612; 1332.000; -872.000; -644.000
382.742;  729.800; -695.000; -622.000
382.872;  471.700; -565.000; -551.000
383.002;  209.200;  347.000; -132.000
383.131;    7.500; -226.000; -160.000
383.261;  -71.500; -706.000; -768.000
383.391;  563.700; -552.000; -377.000
383.521; 6292.000;  451.000;  263.000
383.650; 1397.800; -947.000; -904.000
383.780;   -1.300; -783.000; -656.000
383.910;  297.800;  880.000;  802.000
384.039;   59.300; -794.000; -656.000
384.169;  362.700;-1205.000;-1017.000
384.299;   -0.800; -650.000; -662.000
384.428; -113.600; -764.000; -680.000
384.558;  -39.300; -308.000; -275.000
384.687;  -41.300; -414.000; -334.000
384.817;   81.600;   75.000;   -2.000
384.947;  102.700; -234.000; -141.000
385.076;  580.000;  982.000;  912.000
385.206;  264.400;  369.000;  480.000
385.335;  -18.900; -549.000; -417.000
385.465; -107.000; -655.000; -663.000
385.594;  314.100;  -53.000;  -44.000
385.724;  645.600; -868.000; -838.000
385.853;  229.800; -296.000; -270.000
385.982; 2335.900; -743.000; -787.000
386.112; 3476.800;-1052.000; -871.000
386.241;  247.300; -307.000; -312.000
386.371;  102.100; -174.000;  -87.000
386.500;   31.700; -825.000; -789.000
386.629;   86.600; -874.000; -817.000
386.759;  193.200;  -43.000;   68.000
386.888;   44.700; -170.000; -250.000
387.017;  -84.800; -648.000; -620.000
387.147;  -98.800; -771.000; -798.000
387.276;   42.300; -410.000; -397.000
387.405;   43.600; -398.000; -342.000
387.535;  -66.900; -452.000; -361.000
387.664;  -61.200; -692.000; -620.000
387.793;  130.200; -198.000; -113.000
387.922;  933.900;  255.000;  200.000
388.052;   67.600; -576.000; -423.000
388.181;   78.800; -342.000; -472.000
388.310;   31.200; -889.000; -710.000
388.439;  -40.300; -749.000; -742.000
388.568;  391.500;  365.000;  244.000
388.697; 1740.600; -756.000; -653.000
388.826;  326.000; -768.000; -666.000
388.956;  102.200; -285.000; -307.000
389.085;  -14.500; -347.000; -287.000
389.214; -149.800; -842.000; -872.000
389.343;  -83.900; -645.000; -413.000
389.472;  853.300;  126.000;  149.000
389.601; 1009.500;   91.000;    0.000
389.730;   42.000; -568.000; -687.000
389.859;  175.400;  226.000;   46.000
389.988;  305.200; -423.000; -408.000
390.117;  276.200; -168.000; -146.000
390.246;   49.600; -331.000; -320.000
390.375;  178.500; -673.000; -626.000
390.504;  -47.500; -703.000; -621.000
390.633; -147.000; -672.000; -726.000
390.761;  -94.000; -732.000; -645.000
390.890;   90.400;   -4.000; -130.000
391.019;  -37.400; -421.000; -441.000
391.148; -205.700; -826.000; -855.000
391.277;  -82.700; -576.000; -493.000
391.406;  -94.500; -821.000; -805.000
391.534;   70.400;  574.000; -301.000
391.663;  -53.500; -583.000; -645.000
391.792; -107.900; -673.000; -701.000
391.921;  237.100;   -3.000;   15.000
392.050;  350.000; -287.000; -228.000
392.178; -111.300;-1206.000;-1061.000
392.307;  239.000; -758.000; -712.000
392.436;  112.900; -427.000; -641.000
392.564;   73.700;  166.000;   -6.000
392.693; -126.500; -860.000; -682.000
392.822;  369.900; -529.000; -534.000
392.950;  161.800; -880.000; -714.000
393.079;  588.600; -188.000; -328.000
393.208;   21.100; -488.000; -511.000
393.336;   37.300; -170.000; -145.000
393.465;  -25.400; -317.000; -199.000
393.593;   59.900;   62.000;   79.000
393.722; -241.700;-1121.000; -916.000
393.850;  -18.800; -188.000;  -61.000
393.979; -243.300; -926.000; -805.000
394.107;  -70.300; -517.000; -537.000
394.236;   16.300; -570.000; -507.000
394.364;  537.100;  383.000;  206.000
394.493;  810.200; -911.000; -767.000
394.621;   58.600; -955.000; -916.000
394.750; 1515.300; -873.000; -923.000
394.878; 6011.300; -247.000; -149.000
395.007; 7679.000; -721.000; -807.000
395.135;  587.900; -790.000; -721.000
395.263; -145.100;-1038.000;-1040.000
395.392;   73.800;  -25.000; -107.000
395.520; -159.100; -818.000; -679.000
395.648; -142.600; -865.000; -915.000
395.777;   32.900; -366.000; -405.000
395.905;  -61.900; -449.000; -564.000
396.033;   99.000;  217.000;  172.000
396.162; 1299.100; -399.000; -453.000
396.290; 1137.800;  -17.000;   -2.000
396.418;  204.000; -555.000; -514.000
396.546; -120.000; -571.000; -466.000
396.674; -141.400; -850.000; -878.000
396.803;   59.200;  -72.000;  -23.000
396.931;  213.400; -179.000; -199.000
397.059;   26.100;-1026.000; -989.000
397.187; -180.400;-1026.000; -975.000
397.315; -216.900; -884.000; -649.000
397.443; -152.500; -592.000; -443.000
397.572; -129.000; -578.000; -424.000
397.700;  -10.900; -607.000; -614.000
397.828;   74.200;  120.000;  -90.000
397.956;  -41.000; -508.000; -478.000
398.084;  -90.000; -767.000; -626.000
398.212;  136.600;  137.000;  124.000
398.340;   78.200;  -56.000;  159.000
398.468;   82.900; -390.000; -169.000
398.596; -221.900; -993.000; -953.000
398.724; -184.000; -762.000; -767.000
398.852; -268.200;-1024.000; -976.000
398.980;  -92.400; -560.000; -560.000
399.108;  -64.500; -982.000; -735.000
399.236;  105.600;   13.000;    8.000
399.363;   81.900;  222.000;  196.000
399.491;  -91.000; -404.000; -398.000
399.619; -208.000; -829.000; -800.000
399.747; -177.200; -859.000; -771.000
399.875;  217.700;  220.000;  234.000
400.003;  -60.600; -359.000; -284.000
400.130; -118.900; -421.000; -341.000
400.258;    4.800;  -83.000;   38.000
400.386; -116.800; -352.000; -168.000
400.514;  -58.600; -526.000; -587.000
400.641; -148.700; -928.000; -802.000
400.769; -212.000; -979.000; -888.000
400.897; -122.100; -838.000; -793.000
401.025;  -20.200; -166.000; -152.000
401.152;   50.600;  220.000;   38.000
401.280; -116.300; -430.000; -429.000
401.408; -188.300; -712.000; -576.000
401.535; -124.600; -735.000; -758.000
401.663; -322.500;-1134.000;-1054.000
401.790; -107.700; -514.000; -525.000
401.918;  138.300;  436.000;  405.000
402.046;   24.400;  134.000;  122.000
402.173;   -8.700;  -18.000;    7.000
402.301;  -99.100; -519.000; -397.000
402.428;  139.600;  528.000;  383.000
402.556; -228.500;-1188.000; -913.000
402.683;   -2.300;  -20.000;   -1.000
402.811;   17.400;  -37.000; -206.000
402.938;   45.500;   20.000;   27.000
403.066;  314.700; -574.000; -558.000
403.193;  604.200;  299.000;  239.000
403.321;  459.500; -396.000; -574.000
403.448;  586.100;   83.000;   27.000
403.575;  287.000;  -90.000;  -46.000
403.703; -169.700; -732.000; -557.000
403.830;  -75.100; -531.000; -496.000
403.957; -208.400;-1117.000;-1023.000
404.085;   80.000;  -61.000; -172.000
404.212;  247.100;  -50.000;   63.000
404.339;  569.600; -566.000; -306.000
404.467;11862.600; -612.000; -524.000
404.594; 7092.800; -287.000; -227.000
404.721; 1554.100; -869.000; -764.000
404.848;  237.900; -113.000; -202.000
404.976; -159.600; -856.000; -783.000
405.103;   50.400;  -14.000;  -82.000
405.230;   66.600;  190.000;  226.000
405.357;  112.000;  117.000;   44.000
405.484;  560.200;  -49.000;    5.000
405.612;  122.200; -548.000; -563.000
405.739;  -44.000; -488.000; -243.000
405.866;  243.600;  669.000;  385.000
405.993;  -33.000; -398.000; -102.000
406.120; -195.200; -801.000; -887.000
406.247;  -46.200; -323.000; -342.000
406.374;  870.400;  540.000;  629.000
406.501;  180.200; -632.000; -702.000
406.628; -111.400; -621.000; -589.000
406.755; -143.800; -803.000; -620.000
406.882;    5.100; -228.000; -277.000
407.009; -155.200; -719.000; -628.000
407.136;  143.000; -480.000; -401.000
407.263;  250.800; -939.000; -829.000
407.390; -124.900; -692.000; -614.000
407.517; -297.700;-1139.000;-1187.000
407.644;  -71.700; -332.000; -256.000
407.771;  -81.200; -249.000; -287.000
407.898;   86.300;  168.000;  328.000
408.025;  -65.900; -421.000; -313.000
408.151;   42.000;   82.000;  153.000
408.278;  -62.800; -267.000; -216.000
408.405; -208.400; -931.000; -899.000
408.532;  -76.600; -549.000; -542.000
408.659; -195.800; -677.000; -648.000
408.785; -341.000;-1298.000;-1170.000
408.912;  -62.600; -412.000; -296.000
409.039; -163.600; -610.000; -686.000
409.166; -142.200; -591.000; -555.000
409.292; -148.800; -571.000; -534.000
409.419; -180.200; -665.000; -649.000
409.546; -131.200; -431.000; -192.000
409.672; -154.300; -713.000; -545.000
409.799;   19.000;  -36.000;   34.000
409.926;  -34.400; -180.000; -179.000
410.052; -288.100;-1127.000;-1091.000
410.179;  -55.900; -368.000; -392.000
410.305; -101.900; -375.000; -493.000
410.432;  -22.700; -220.000; -333.000
410.558; -134.300; -305.000; -380.000
410.685; -165.400; -688.000; -431.000
410.812; -159.000; -409.000; -588.000
410.938; -234.200; -964.000; -808.000
411.065; -138.500; -671.000; -645.000
411.191;   10.300; -189.000; -174.000
411.317; -168.000; -823.000; -742.000
411.444;  -97.200; -317.000; -246.000
411.570;  -70.600; -339.000; -294.000
411.697; -208.000; -758.000; -752.000
411.823; -279.400; -989.000; -999.000
411.949;   -3.400;  -56.000;   17.000
412.076; -139.000; -539.000; -519.000
412.202; -182.200; -758.000; -757.000
412.329; -210.400; -798.000; -752.000
412.455; -162.700; -821.000; -657.000
412.581;   23.800;  -15.000;  172.000
412.707;  -92.000; -540.000; -457.000
412.834;   94.800;  156.000;  219.000
412.960; -108.900; -785.000; -784.000
413.086; -146.500; -743.000; -701.000
413.212;  320.200;  604.000;  578.000
413.339; -113.200; -685.000; -701.000
413.465;   42.300; -364.000; -310.000
413.591; -124.700; -757.000; -474.000
413.717;  -50.500; -358.000; -366.000
413.843; -243.900; -839.000; -861.000
413.969;  -67.300;  -47.000; -292.000
414.096; -156.800; -679.000; -679.000
414.222;   46.100;  -33.000;   85.000
414.348;  -29.300; -652.000; -385.000
414.474;  183.000;   38.000;  -52.000
414.600;    3.400; -126.000; -144.000
414.726;   16.800;  -96.000;  -55.000
414.852;  -69.600; -365.000; -342.000
414.978;  128.000;  104.000;  -18.000
415.104;  150.000;   38.000;   80.000
415.230;  111.700; -329.000; -330.000
415.356;  110.000; -409.000; -514.000
415.482;  410.800;   13.000;  -35.000
415.608;  573.100; -247.000; -323.000
415.734; 2020.500;   67.000;   38.000
415.860;40848.500; -875.000; -767.000
415.986;27244.800; -685.000; -607.000
416.111; 2224.900; -798.000; -652.000
416.237;  536.800; -424.000; -571.000
416.363; 2446.500; -765.000; -733.000
416.489; 8207.900; -324.000; -251.000
416.615;  864.800; -707.000; -742.000
416.741;  -17.600; -677.000; -784.000
416.866; -137.700; -673.000; -736.000
416.992; -179.000; -801.000; -818.000
417.118;   16.800;  -41.000;  -80.000
417.244;  -94.400; -798.000; -531.000
417.369; -103.300; -801.000; -612.000
417.495;   20.300; -325.000; -254.000
417.621; -143.800;-1015.000; -803.000
417.746;   15.600; -579.000; -572.000
417.872;  154.000; -254.000; -144.000
417.998;  180.900; -515.000; -530.000
418.123; 2349.600;-1073.000; -845.000
418.249;10736.400; -512.000; -601.000
418.374; 1367.200; -916.000; -824.000
418.500;  258.900; -383.000; -482.000
418.626;  273.700;   70.000;  -59.000
418.751;  311.500; -549.000; -448.000
418.877;  444.600; -637.000; -643.000
419.002; 3996.700; -688.000; -560.000
419.128;25310.300; -930.000; -721.000
419.253; 5625.600; -967.000; -837.000
419.379;  789.200; -391.000; -338.000
419.504;  846.300;  325.000;  415.000
419.629; 1123.400; -393.000; -212.000
419.755; 7718.600; -317.000; -254.000
419.880;41545.600;  -98.000;   67.000
420.006;23104.500; -280.000; -221.000
420.131;56130.500; -662.000; -775.000
420.256; 7386.300; -315.000; -316.000
420.382; 1051.400; -665.000; -687.000
420.507;  162.100; -649.000; -778.000
420.632;  292.100; -337.000; -339.000
420.758;  402.900; -251.000; -425.000
420.883; -120.000; -876.000; -672.000
421.008; -134.800; -775.000; -619.000
421.133;  -80.100; -509.000; -467.000
421.259;  -27.300; -325.000; -259.000
421.384; -191.900; -834.000; -693.000
421.509;  -86.500;-1052.000; -862.000
421.634; 1853.900; -936.000; -820.000
421.759;  762.400; -359.000; -327.000
421.885; -120.600; -717.000; -656.000
422.010;  -95.000; -673.000; -542.000
422.135; -235.500; -695.000; -727.000
422.260;  143.000;  340.000;  280.000
422.385;  -29.200;   12.000;  -98.000
422.510;  119.800;  151.000;  -26.000
422.635;   95.900;  -87.000;  -43.000
422.760;  223.100; -766.000; -791.000
422.885;  120.300;  -57.000;  -80.000
423.010;  -10.900; -112.000; -169.000
423.135; -123.700; -481.000; -561.000
423.260;   20.800; -150.000; -245.000
423.385;  167.600;  476.000;  222.000
423.510;  141.700;   71.000;  -22.000
423.635;  220.100;  133.000;   45.000
423.760;  179.900;  383.000;  328.000
423.885;  183.600;  336.000;  391.000
424.010;  109.900;  -68.000;  -13.000
424.135;   45.100;    5.000;  -33.000
424.259; -106.200; -654.000; -457.000
424.384;  -52.400; -279.000; -272.000
424.509;   42.500; -260.000; -186.000
424.634; -132.300; -761.000; -623.000
424.759;   -9.700; -688.000; -544.000
424.883;   33.500; -506.000; -527.000
425.008;  413.400; -502.000; -410.000
425.133; 4125.800; -679.000; -653.000
425.258; 1683.100; -517.000; -381.000
425.382; 1862.900; -867.000; -774.000
425.507; 4194.500; -487.000; -543.000
425.632;  725.300; -802.000; -663.000
425.756;  968.200; -256.000; -146.000
425.881;14018.000; -831.000; -857.000
426.006;34038.700; -604.000; -355.000
426.130; 4903.500; -696.000; -508.000
426.255;  700.000; -611.000; -491.000
426.379;  348.900; -189.000; -577.000
426.504;  860.700;  660.000;  544.000
426.629; 8538.900; -519.000; -466.000
426.753; 5181.800;   64.000;  -46.000
426.878;  690.400; -252.000; -288.000
427.002;  396.600; -651.000; -668.000
427.127; 3526.500;  -35.000; -158.000
427.251;23012.200;  372.000;  401.000
427.375; 5822.700; -191.000; -173.000
427.500; 3928.300; -616.000; -610.000
427.624; 1214.600; -234.000; -400.000
427.749;  209.300; -216.000; -225.000
427.873;  -44.900; -499.000; -412.000
427.997;  -30.200; -222.000; -230.000
428.122;  209.300;  795.000;  703.000
428.246;  179.900;  433.000;  434.000
428.371; -226.800; -869.000; -773.000
428.495; -150.500; -624.000; -646.000
428.619;   -3.300; -186.000; -117.000
428.743;   89.400;   65.000;  132.000
428.868;   53.500; -732.000; -643.000
428.992; 2405.600; -219.000; -326.000
429.116;  900.600; -329.000; -357.000
429.240;  483.200;  419.000;  426.000
429.365;  -15.500; -454.000; -574.000
429.489;   -9.100; -638.000; -647.000
429.613;   89.100; -236.000; -177.000
429.737;  129.700; -563.000; -432.000
429.861;  639.500; -247.000; -133.000
429.985;11881.600; -425.000; -305.000
430.109;11652.700; -770.000; -908.000
430.234; 1330.000;   76.000;  -50.000
430.358;  199.200; -250.000; -160.000
430.482;  -62.400; -672.000; -564.000
430.606;  -50.800; -655.000; -375.000
430.730;   93.000; -437.000; -388.000
430.854;  255.800; -909.000; -835.000
430.978;  -59.600; -795.000; -764.000
431.102; -120.400; -499.000; -422.000
431.226; -180.200; -874.000; -815.000
431.350;  181.400;  345.000;  422.000
431.474;  -98.800; -661.000; -373.000
431.597; -254.000;-1060.000; -848.000
431.721;  -91.900; -276.000; -267.000
431.845; -201.600; -704.000; -472.000
431.969;  -97.300; -304.000; -349.000
432.093; -111.300; -395.000; -317.000
432.217;   40.500;   32.000;   82.000
432.341; -129.500; -523.000; -518.000
432.464;   98.000;   96.000;   40.000
432.588;  394.800; -401.000; -329.000
432.712;  195.900;  -52.000;  -52.000
432.836;  155.800;  213.000;  263.000
432.959;   11.700; -372.000; -311.000
433.083;  229.800;   11.000;    2.000
433.207;  851.300;  285.000;  930.000
433.330;10822.600; -391.000; -200.000
433.454;11953.600; -654.000; -638.000
433.578; 7104.800;  583.000;  278.000
433.701; 1223.200; -623.000; -675.000
433.825;  287.000; -292.000; -299.000
433.949;  348.600;   28.000;  -72.000
434.072;  111.200; -410.000; -323.000
434.196;   53.200; -309.000; -117.000
434.319; 7794.400;25482.000;25124.000
434.443; 1641.300; -656.000; -603.000
434.566; 5213.200;  281.000;   62.000
434.690;  787.900; -637.000; -383.000
434.813;  157.200; -251.000; -173.000
434.937; -137.500; -569.000; -696.000
435.060;  -20.600; -423.000; -332.000
435.184;  557.500; -492.000; -217.000
435.307;  279.900;  159.000;  102.000
435.431;   25.200;  -40.000;   24.000
435.554;  -79.800; -399.000; -240.000
435.677; -102.500; -350.000; -258.000
435.801;   -5.100;  -25.000;   49.000
435.924;   24.100;    1.000;  -67.000
436.048; -179.100;-1019.000; -732.000
436.171;  -86.000; -240.000;  -66.000
436.294;    4.700; -248.000; -229.000
436.417;  262.400; -963.000; -849.000
436.541; -131.200; -814.000; -840.000
436.664;  -51.800; -242.000; -316.000
436.787;   30.000;   13.000;  113.000
436.910; -156.000; -792.000; -422.000
437.034;   92.400;  142.000;  143.000
437.157;  142.900;  -11.000;    0.000
437.280;  -57.800; -392.000; -292.000
437.403; -122.900; -982.000; -869.000
437.526; 1099.900; -903.000; -865.000
437.649; 3551.300; -505.000; -332.000
437.772;  429.100; -692.000; -540.000
437.896;  253.500;  700.000;  544.000
438.019; -135.200; -758.000; -503.000
438.142; -108.000; -596.000; -506.000
438.265;   19.700; -639.000; -670.000
438.388; 1026.200; -520.000; -410.000
438.511;  150.500; -597.000; -394.000
438.634;  -53.700; -247.000; -125.000
438.757; -221.000; -693.000; -619.000
438.880;   11.100;  -34.000;  -57.000
439.003; -106.200; -417.000; -437.000
439.126;  -63.700; -287.000; -167.000
439.248;  -46.200;  -98.000; -139.000
439.371;  -43.300;    9.000;  -53.000
439.494;  132.600;  510.000;  439.000
439.617;  -37.800;   65.000;  -88.000
439.740; -308.800; -968.000; -816.000
439.863; -208.700; -755.000; -595.000
439.986; -174.400; -476.000; -431.000
440.108;  -58.300; -161.000; -112.000
440.231; -273.200; -950.000; -836.000
440.354;  -17.100;  -64.000; -150.000
440.477;   72.200; -566.000; -542.000
440.599;   51.000; -200.000; -225.000
440.722; -220.900; -709.000; -586.000
440.845;  190.500;  751.000;  928.000
440.968; -148.800; -415.000; -311.000
441.090;  -63.600; -199.000;  -33.000
441.213; -255.700;-1021.000; -825.000
441.336;  -14.400; -159.000;   -5.000
441.458;  -93.400; -549.000; -396.000
441.581; -148.000; -628.000; -629.000
441.703;  -78.900; -152.000;   13.000
441.826; -186.100; -557.000; -400.000
441.948;  -18.300;   56.000;   51.000
442.071;  149.900;  555.000;  424.000
442.193; -185.100; -531.000; -485.000
442.316;   81.200;  152.000;   97.000
442.438;  153.500; -233.000;  -10.000
442.561;  180.900;  272.000;  262.000
442.683;  912.400; -809.000; -522.000
442.806; 1814.100;   -8.000;   74.000
442.928;  -27.500; -859.000; -604.000
443.051; -102.500; -577.000; -373.000
443.173; -135.500; -341.000; -339.000
443.295; -103.000; -263.000; -371.000
443.418;  -93.400; -321.000;  -29.000
443.540;   33.900; -106.000;   -4.000
443.662; -201.000; -563.000; -465.000
443.785;   45.900;  335.000;  199.000
443.907; -175.800; -362.000; -208.000
444.029; -223.400; -767.000; -494.000
444.152; -232.600; -644.000; -554.000
444.274;  -35.700;  -18.000;  -24.000
444.396; -148.500; -461.000; -221.000
444.518; -198.900; -691.000; -454.000
444.640; -115.100; -268.000; -111.000
444.763;   52.000;  388.000;  249.000
444.885; -155.600; -432.000; -392.000
445.007;   -5.700;   35.000;   86.000
445.129; -160.200; -610.000; -515.000
445.251; -134.200; -372.000; -439.000
445.373; -221.800; -537.000; -386.000
445.495;   67.400;  242.000;  350.000
445.617;  177.000;  853.000;  753.000
445.739;  -57.900; -215.000;  -97.000
445.861;  -19.000; -245.000; -112.000
445.984;  -10.100; -267.000; -101.000
446.105;  381.500; -418.000; -251.000
446.227; 1008.800; -176.000;  -19.000
446.349;   34.000; -358.000; -249.000
446.471; -137.500; -615.000; -448.000
446.593;  -55.900; -316.000;   19.000
446.715;   29.400;  -67.000;   41.000
446.837;  174.300;  697.000;  832.000
446.959; -142.700; -457.000; -478.000
447.081; -185.300; -628.000; -518.000
447.203;  177.700;  862.000;  834.000
447.325; -110.600; -270.000;   42.000
447.446;   34.300;  286.000;  530.000
447.568; -274.500; -921.000; -803.000
447.690;  -62.200; -236.000; -245.000
447.812; -247.200; -798.000; -519.000
447.933;   19.600;  155.000;  127.000
448.055;  -58.500; -306.000; -261.000
448.177;  310.400;   31.000;   79.000
448.299;   87.200; -935.000; -727.000
448.420;   73.300;  -25.000;  159.000
448.542;    4.000;   -3.000;   33.000
448.664;   29.300;  109.000;  322.000
448.785;   -2.000;  265.000;   83.000
448.907;  -83.400; -614.000; -353.000
449.028;   -6.300; -771.000; -471.000
449.150;  176.800;  492.000;  589.000
449.272; -311.300;-1044.000; -913.000
449.393;  144.400;  612.000;  694.000
449.515; -199.600; -634.000; -581.000
449.636;  -56.400; -264.000; -155.000
449.758;  212.300;  763.000;  622.000
449.879; -119.000; -498.000; -396.000
450.001;  -99.300; -149.000;  -49.000
450.122;  -14.000;  -95.000;  162.000
450.244;   25.600;   37.000;  364.000
450.365; -110.000; -495.000; -301.000
450.486;    9.900;   80.000;  268.000
450.608;  118.500;  393.000;  326.000
450.729;  218.300;  578.000;  645.000
450.850;  102.200; -574.000; -466.000
450.972; 1716.600; -552.000; -389.000
451.093;10246.400;  190.000;  588.000
451.214; 3829.400; -516.000; -337.000
451.336;  796.700;  773.000;  579.000
451.457;  189.900;  264.000;  393.000
451.578;  -24.200; -118.000;  -74.000
451.699; -166.400; -546.000; -540.000
451.821;  -48.600; -284.000;  -50.000
451.942;   66.500;  278.000;  285.000
452.063;  138.900;  228.000;  419.000
452.184; 1249.200;  -54.000;  -49.000
452.305; 2166.300;  103.000;  170.000
452.427;  250.100; -549.000; -301.000
452.548;    8.400;   23.000;   79.000
452.669;  -40.500; -257.000;  -89.000
452.790;   10.300;    3.000;  -18.000
452.911;   72.400;  195.000;  259.000
453.032;  -70.900; -289.000;  -60.000
453.153;   -7.500;  -29.000;   81.000
453.274;  221.700;  737.000;  868.000
453.395;  -29.900;  -51.000;  175.000
453.516;  184.100; 1317.000; 1388.000
453.637;  -69.500; -205.000; -150.000
453.758;  -15.100;   15.000;   69.000
453.879; -170.200; -462.000; -250.000
454.000;  227.900; 1086.000;  948.000
454.121; -176.100; -554.000; -326.000
454.242; -163.000; -599.000; -383.000
454.362;  -42.100;  -99.000;  114.000
454.483;  -26.300; -309.000; -229.000
454.604;  166.100;  512.000;  580.000
454.725; -188.900; -627.000; -555.000
454.846; -192.200; -474.000; -406.000
454.967;   16.200;  230.000;  539.000
455.087;  -17.000;  179.000;  153.000
455.208;  144.800;  554.000;  856.000
455.329;  -68.000;  -22.000;   82.000
455.450;  164.400;  473.000;  633.000
455.570;  -82.200; -234.000; -211.000
455.691;   23.800;  201.000;  407.000
455.812; -173.400; -270.000;  -92.000
455.932; -106.100;  107.000;  -97.000
456.053;  -98.000;   36.000;   24.000
456.173; -152.200; -433.000; -355.000
456.294; -206.400; -476.000; -303.000
456.415;  -66.200;  -73.000;   70.000
456.535;  -39.300;  297.000;  273.000
456.656;    3.800;  132.000;  240.000
456.776;  -41.800;    3.000;  298.000
456.897;   74.800;  308.000;  513.000
457.017; -105.800; -153.000;   -3.000
457.138; -129.400; -402.000; -249.000
457.258;   25.700;  263.000;  224.000
457.379;   53.600;  509.000;  521.000
457.499;   -2.100;  443.000;  432.000
457.620; -183.700; -407.000; -231.000
457.740; -103.300; -132.000;  -11.000
457.860;  -40.600;   87.000;   44.000
457.981;  -25.000;  132.000;  124.000
458.101;  -97.000;  -89.000;   40.000
458.221;   39.800;  336.000;  402.000
458.342;  -53.600;   -4.000;  -37.000
458.462;   97.200;  617.000;  352.000
458.582;   41.500; -302.000; -294.000
458.703;   87.600;  303.000;  154.000
458.823;   30.800;   22.000;  163.000
458.943;  109.100;  341.000;  467.000
459.063;   30.800; 1124.000;  192.000
459.183;   17.100;  328.000;  313.000
459.304;   74.400;  315.000;  517.000
459.424;  -49.000; -246.000;  -89.000
459.544;  783.500;  388.000;  764.000
459.664; 1729.600;  499.000;  506.000
459.784;  674.200; 1004.000; 1175.000
459.904;  220.100;  867.000;  744.000
460.024;  217.800;  867.000;  684.000
460.144;   99.100;  449.000;  554.000
460.264;   58.600;  515.000;  327.000
460.385; -121.300; -145.000; -119.000
460.505;  146.700;  905.000;  858.000
460.625; -103.300;  -17.000;  -68.000
460.745;   76.300;  396.000;  541.000
460.864;  -31.400;  153.000;  469.000
460.984;  121.800;  499.000;  573.000
461.104;  365.000; 1656.000; 1775.000
461.224;  122.500;  657.000;  650.000
461.344;   27.200;  431.000;  360.000
461.464;   29.400;  258.000;  513.000
461.584;   15.800;  283.000;  466.000
461.704;  -45.600;   58.000;  108.000
461.824;  -26.900;  238.000;  259.000
461.943;   -0.900;  191.000;  130.000
462.063;  -58.800;    2.000;  324.000
462.183;  123.200;  639.000;  717.000
462.303;  258.800; 1678.000; 1230.000
462.422;  147.400;  781.000;  840.000
462.542;   -1.800;  271.000;  391.000
462.662;  127.600;  353.000;  380.000
462.782;  587.700;  833.000;  572.000
462.901; 1026.500;  545.000;  717.000
463.021;  618.500; 1702.000; 1638.000
463.141;   54.400;  337.000;  770.000
463.260;   11.100;  614.000;  474.000
463.380;  115.800;  902.000;  884.000
463.499;  -26.700;  342.000;  332.000
463.619;    0.300;  581.000;  559.000
463.738;  325.100; 1644.000;  903.000
463.858;  124.700;  657.000;  811.000
463.978;   19.000;  542.000;  396.000
464.097;  204.800;  921.000; 1114.000
464.217;  301.500; 1196.000; 1143.000
464.336;  316.200; 1068.000; 1130.000
464.455;    6.700;  328.000;  659.000
464.575;  125.900;  597.000;  602.000
464.694;  415.600; 1204.000; 1179.000
464.814;  310.500; 1190.000; 1138.000
464.933;  211.900; 1095.000; 1027.000
465.052;  286.400; 1412.000; 1054.000
465.172;  213.000;  922.000;  799.000
465.291;  352.800; 1376.000; 1320.000
465.410;  116.300;  462.000;  735.000
465.530;  282.100; 1355.000; 1310.000
465.649;  207.300; 1209.000; 1273.000
465.768;  374.900; 1673.000; 1508.000
465.888;  191.200;  941.000; 1174.000
466.007;  275.300; 1335.000; 1440.000
466.126;   68.700;  721.000;  641.000
466.245;  166.600; 1176.000; 1187.000
466.364;  128.500;  950.000; 1060.000
466.484;  225.800; 1024.000; 1213.000
466.603;  143.300; 1101.000; 1222.000
466.722;  319.100; 1490.000; 1769.000
466.841;  248.000; 1151.000; 1401.000
466.960;  149.000; 1069.000;  972.000
467.079;  353.700; 1971.000; 1786.000
467.198;  165.200; 1238.000; 1181.000
467.317;  248.800; 1768.000; 1162.000
467.436;  232.000; 1709.000; 1261.000
467.555;  341.200; 1796.000; 1746.000
467.674;  214.600; 1227.000; 1329.000
467.793;  171.300; 1376.000; 1374.000
467.912;  230.100; 1658.000; 1539.000
468.031;  340.900; 2038.000; 1930.000
468.150;  389.700; 1842.000; 1837.000
468.269;  465.500; 2313.000; 2090.000
468.388;  449.400; 2168.000; 2339.000
468.507;  625.900; 2884.000; 2903.000
468.626;  587.400; 2555.000; 2541.000
468.744;  368.800; 2018.000; 2174.000
468.863;  508.200; 2312.000; 2523.000
468.982;  251.400; 1503.000; 1555.000
469.101;  539.100; 2788.000; 2692.000
469.220;  373.700; 2333.000; 2176.000
469.338;  614.600; 2935.000; 3051.000
469.457;  469.800; 2719.000; 2545.000
469.576;  751.100; 3953.000; 3784.000
469.695;  612.600; 2877.000; 3066.000
469.813;  937.000; 4148.000; 4192.000
469.932;  862.600; 4255.000; 4485.000
470.051;  979.700; 4075.000; 4161.000
470.169; 1817.000; 4470.000; 4338.000
470.288; 3022.200; 4700.000; 4809.000
470.406; 1773.500; 5059.000; 5194.000
470.525; 1391.300; 6101.000; 5787.000
470.644; 1398.900; 6847.000; 6794.000
470.762; 1747.200; 8397.000; 7873.000
470.881; 1957.400; 8651.000; 8464.000
470.999; 2134.100; 9685.000; 9151.000
471.118; 2240.400;11174.000;10711.000

