
Integration time [ms]: 100.000
Averaging Nr. [scans]: 40
Smoothing Nr. [pixels]: 0
Data measured with spectrometer [name]: 2101012U2
Wave   ;Sample   ;Dark     ;Reference
[nm]   ;[counts] ;[counts] ;[counts] 

197.733;   51.525;  516.000;  404.000
197.879;  -81.475; -610.000; -634.000
198.025;  -64.925; -475.000; -420.000
198.171;  -68.775; -602.000; -612.000
198.317;  -37.175; -401.000; -316.000
198.463;  -61.650; -655.000; -404.000
198.609;   18.800;  181.000; -137.000
198.755;  -79.075; -644.000; -410.000
198.901;  -89.975; -505.000; -424.000
199.047;  -60.500; -615.000; -488.000
199.193;  -31.825; -230.000; -468.000
199.339;  -40.000; -222.000; -369.000
199.485;   42.400;  330.000;  271.000
199.631;   15.025;  227.000;  310.000
199.777;  -57.525; -466.000; -398.000
199.923;  -52.150; -610.000; -424.000
200.069;   -0.325; -141.000;  -58.000
200.215;   55.525;  128.000;  453.000
200.361;   31.375;  243.000;  477.000
200.507;  -57.325; -600.000; -373.000
200.653;  -37.550; -371.000; -194.000
200.798;  -30.350; -215.000; -125.000
200.944;   -7.250; -146.000;  -41.000
201.090;   35.125;   61.000;  222.000
201.236;    0.050; -116.000; -158.000
201.382;  132.050;  874.000;  903.000
201.528;    0.450;  -58.000;  -48.000
201.674;  -54.375; -386.000; -293.000
201.819;  -66.125; -540.000; -439.000
201.965;  -88.100; -699.000; -447.000
202.111;  -26.025; -273.000; -226.000
202.257;  -40.800; -250.000; -238.000
202.402;    4.900;   13.000;  -36.000
202.548;  -13.875; -169.000; -116.000
202.694;   79.150;  410.000; -183.000
202.840;  -78.000; -603.000; -531.000
202.985;  -90.575; -681.000; -639.000
203.131; -111.050; -832.000; -666.000
203.277;  -29.000; -199.000; -262.000
203.423;  -49.600; -434.000; -520.000
203.568;  -47.475; -462.000; -237.000
203.714;  -46.100; -535.000; -542.000
203.860;  -87.175; -682.000; -641.000
204.005;    9.225;  112.000;  167.000
204.151;   63.725;  561.000;  556.000
204.296;  -44.575; -354.000; -221.000
204.442;  -77.200; -600.000; -547.000
204.588;  -88.650; -592.000; -579.000
204.733;    6.075;  178.000;  168.000
204.879; -128.575;-1018.000; -822.000
205.025;   11.325;  -99.000;  126.000
205.170;    6.400;  -17.000;   94.000
205.316;   80.050;  438.000;  661.000
205.461;  -83.775; -698.000; -554.000
205.607;   85.900;  609.000;  665.000
205.752;  -79.800; -626.000; -551.000
205.898;  -61.850; -501.000; -391.000
206.043;  -62.250; -578.000; -506.000
206.189;  -60.500; -243.000; -285.000
206.334;   78.000;  554.000;  606.000
206.480;   56.750;  409.000;  239.000
206.625;  -73.275; -529.000; -552.000
206.771;  -49.275; -451.000; -373.000
206.916;  -33.300; -210.000; -537.000
207.062;  -88.625; -545.000; -591.000
207.207;  -55.750; -546.000; -443.000
207.353;   47.175;  185.000;  460.000
207.498;    9.250;  196.000;   85.000
207.643;  -45.525; -501.000; -370.000
207.789; -124.025;-1069.000; -910.000
207.934; -107.650; -665.000; -713.000
208.080;  -21.875; -154.000;   66.000
208.225;  -21.875;  -22.000;  -57.000
208.370;  -85.225; -727.000; -619.000
208.516;  -81.375; -741.000; -487.000
208.661;  -24.150; -127.000;  -69.000
208.806;  -35.800; -165.000; -171.000
208.952; -116.900;-1044.000; -731.000
209.097;   64.675;  378.000;  349.000
209.242;  -28.000; -307.000; -382.000
209.387;   59.750;  392.000;  350.000
209.533;  -47.100; -321.000; -350.000
209.678;   64.400;  472.000;  543.000
209.823;  -53.175; -408.000; -310.000
209.969; -102.625; -860.000; -757.000
210.114; -104.350; -907.000; -719.000
210.259; -126.550; -939.000; -889.000
210.404;   -5.675; -171.000;  103.000
210.549;    0.975;  108.000;    3.000
210.695;  -19.525;   -3.000;  -95.000
210.840;   21.075;   94.000;   67.000
210.985;  -46.700; -484.000; -303.000
211.130;   55.900;  268.000;  406.000
211.275;   17.900;  207.000;  199.000
211.420;  -50.100; -300.000; -289.000
211.566;  -84.025; -536.000; -489.000
211.711;   15.800;  218.000;  157.000
211.856;  -73.725; -545.000; -519.000
212.001;   18.275;  151.000;   44.000
212.146;   21.425;  153.000;   49.000
212.291;  -29.225; -210.000; -186.000
212.436;  -17.200; -280.000;   -6.000
212.581;  -83.250; -685.000; -653.000
212.726;  -83.125; -487.000; -538.000
212.871;  -53.300; -552.000; -217.000
213.016; -144.225;-1172.000;-1029.000
213.161;   56.275;  406.000;  291.000
213.306;  -70.350; -435.000; -577.000
213.451;  -99.475; -778.000; -689.000
213.596;  -44.600; -455.000; -347.000
213.741;  -61.875; -448.000; -538.000
213.886;  -65.675; -498.000; -517.000
214.031;  -23.500; -294.000; -124.000
214.176;  -48.975; -408.000; -341.000
214.321;  -20.475; -296.000; -157.000
214.466;  -23.375; -163.000;  -43.000
214.611;   -9.600;  -61.000;  -10.000
214.756; -120.925; -948.000; -858.000
214.901;  -33.200; -388.000; -226.000
215.046; -114.825; -797.000; -825.000
215.191;    4.350;  128.000;   35.000
215.336;  -20.025; -157.000;  -19.000
215.480;  -66.550; -684.000; -505.000
215.625;  -11.275; -175.000;  -19.000
215.770;  -96.725; -757.000; -662.000
215.915;   -2.150;   -5.000;  -97.000
216.060;   -9.700; -113.000;  -21.000
216.205; -110.025; -731.000; -779.000
216.349;  -66.800; -470.000; -533.000
216.494; -122.350; -939.000; -867.000
216.639; -131.000; -823.000; -888.000
216.784;  -88.875; -577.000; -525.000
216.929;   49.525;  392.000;  281.000
217.073;   -9.350; -244.000;  -31.000
217.218;   -5.600;   78.000;  -47.000
217.363;  -93.550; -656.000; -618.000
217.507;  -83.400; -623.000; -588.000
217.652; -106.275; -845.000; -874.000
217.797;  -99.275; -708.000; -659.000
217.942; -116.800; -856.000; -720.000
218.086;   67.025;  608.000;  539.000
218.231;  -16.275; -174.000;  -26.000
218.376;  -38.175; -337.000; -229.000
218.520;    9.925;  -41.000;   96.000
218.665;  -34.325; -338.000; -204.000
218.810;  -34.475; -275.000; -233.000
218.954;   18.250;  201.000;   35.000
219.099; -118.400; -713.000; -963.000
219.243;  -73.725; -589.000; -554.000
219.388;  -20.250; -264.000; -136.000
219.532;  -19.950; -116.000; -116.000
219.677;  -66.900; -564.000; -521.000
219.822;   -1.225;   33.000;   89.000
219.966;    8.375;   17.000;  -99.000
220.111;  -54.875; -328.000;  -40.000
220.255;  -94.200; -797.000; -750.000
220.400;  -30.525; -180.000; -146.000
220.544;  -63.775; -516.000; -450.000
220.689;  -43.600; -422.000; -451.000
220.833;  -24.825; -123.000;  -58.000
220.978;  -47.925; -393.000; -563.000
221.122;   26.500;  319.000;  307.000
221.267; -125.950; -906.000; -837.000
221.411;  -70.000; -478.000; -394.000
221.555;  -10.825; -104.000;  -23.000
221.700;  -41.000; -329.000; -222.000
221.844;   23.350;  255.000;  272.000
221.989;  -52.450; -328.000; -311.000
222.133;  -44.175; -289.000; -307.000
222.277;  -14.625;    5.000;   78.000
222.422;   11.600;  227.000;  113.000
222.566;  -32.600; -381.000; -214.000
222.711;  -70.000; -414.000; -479.000
222.855;  -82.925; -643.000; -586.000
222.999;  -84.125; -642.000; -717.000
223.144;  -14.725; -195.000; -194.000
223.288;   36.625;  423.000;  251.000
223.432;   37.675;  184.000;  230.000
223.576;   -1.400;  152.000;  -21.000
223.721;   34.000;  364.000;  273.000
223.865;  -63.550; -472.000; -475.000
224.009;  261.050; 1673.000; 1631.000
224.153;  -76.150; -660.000; -671.000
224.298;  -55.400; -531.000; -489.000
224.442;  -15.825;  -74.000;  -33.000
224.586;  -10.325; -169.000; -106.000
224.730;  -94.625; -858.000; -670.000
224.875;  -97.050; -739.000; -688.000
225.019;    0.250;  102.000;  188.000
225.163;   61.775;  208.000;  341.000
225.307;   -0.275;   97.000;  -91.000
225.451;   61.325;  360.000;  481.000
225.595;   15.950;  264.000;  176.000
225.739;  -28.725; -170.000;  -94.000
225.884;    0.225;   86.000;    5.000
226.028;  -88.875; -760.000; -626.000
226.172;  -48.725; -260.000; -273.000
226.316; -126.275; -941.000; -902.000
226.460;  -80.450; -645.000; -493.000
226.604;  -54.200; -406.000; -400.000
226.748; -111.925; -836.000; -733.000
226.892;  -26.725; -227.000; -181.000
227.036;  -44.875; -537.000; -447.000
227.180;  -54.750; -551.000; -375.000
227.324;  -73.200; -561.000; -580.000
227.468; -116.100; -819.000; -717.000
227.612;    6.525;  242.000;  -28.000
227.756; -106.525; -845.000; -698.000
227.900;   27.975;  342.000;  441.000
228.044;  -63.425; -509.000; -290.000
228.188;   55.025;  448.000;  568.000
228.332;  -82.050; -546.000; -472.000
228.476;  -39.675; -223.000; -149.000
228.620;  -24.825; -210.000; -150.000
228.764;   59.875;  431.000;  349.000
228.908;  -13.250; -155.000;   30.000
229.052;  -69.700; -615.000; -528.000
229.195;  -10.925; -172.000;   13.000
229.339;  -40.850; -235.000; -305.000
229.483;  -30.450;    5.000; -162.000
229.627;   -7.825; -156.000;  139.000
229.771;  -46.125; -218.000; -294.000
229.915;   -2.300;  230.000;   79.000
230.059;  -87.675; -648.000; -663.000
230.202;  -55.325; -370.000; -317.000
230.346;  -17.025; -107.000;  107.000
230.490;  -79.125; -489.000; -521.000
230.634; -105.775; -736.000; -553.000
230.777;   66.475;  478.000;  509.000
230.921;  -52.675; -450.000; -359.000
231.065;  -55.125; -246.000; -286.000
231.209;   15.600;  261.000;  265.000
231.352;   22.050;   54.000;   40.000
231.496;   17.275;  568.000;  188.000
231.640;  -92.550; -693.000; -621.000
231.783;   70.450;  546.000;  525.000
231.927;  -48.525; -294.000; -365.000
232.071; -125.375; -962.000; -736.000
232.214; -119.025; -980.000; -764.000
232.358; -101.300; -683.000; -599.000
232.502;    8.900;  -19.000;    7.000
232.645; -136.900;-1090.000; -927.000
232.789;  -31.750; -257.000; -218.000
232.933;  -41.875; -407.000; -224.000
233.076; -136.400;-1038.000; -897.000
233.220; -112.400; -752.000; -777.000
233.363;  -91.550; -669.000; -477.000
233.507;   63.325;  371.000;  129.000
233.650; -104.850; -764.000; -834.000
233.794;   28.550;  438.000;  461.000
233.938;  -69.400; -530.000; -362.000
234.081;  -23.350;  -93.000;   31.000
234.225;  -65.600; -631.000; -539.000
234.368; -112.725; -773.000; -723.000
234.512;  -51.825; -385.000; -299.000
234.655;  -86.400; -582.000; -555.000
234.798;  -59.650; -493.000; -466.000
234.942; -123.300; -884.000;-1002.000
235.085;  -85.400; -651.000; -443.000
235.229;  -68.975; -405.000; -410.000
235.372;  -47.475; -247.000; -191.000
235.516;  -59.825; -397.000; -321.000
235.659;   24.775;   92.000;  121.000
235.802;  -19.475;  -38.000;  -22.000
235.946;   11.300;  335.000;  215.000
236.089;   28.875;  126.000;  250.000
236.233;   42.500;  275.000;  298.000
236.376;  -49.500; -235.000; -378.000
236.519;  -48.925; -297.000; -319.000
236.663;  -24.475; -215.000; -117.000
236.806; -128.200;-1029.000; -999.000
236.949;   62.150;  543.000;  431.000
237.092;   48.525;  412.000;  391.000
237.236;  -79.000; -589.000; -502.000
237.379;   56.150;  352.000;  428.000
237.522; -110.775; -879.000; -768.000
237.666;  -12.875; -271.000;   18.000
237.809; -119.200; -851.000; -823.000
237.952;   30.325;  469.000;  271.000
238.095;  -76.075; -447.000; -442.000
238.238;   79.400;  688.000;  700.000
238.382;   -5.275;  166.000;  103.000
238.525;  -74.775; -598.000; -511.000
238.668; -151.325;-1060.000; -985.000
238.811;  -78.300; -638.000; -643.000
238.954;  -62.650; -483.000; -334.000
239.097;   79.575;  617.000;  664.000
239.241;   25.700;  394.000;  326.000
239.384;  -36.875; -254.000; -214.000
239.527;  -68.000; -424.000; -224.000
239.670; -148.800; -994.000;-1091.000
239.813; -124.225; -696.000; -658.000
239.956;   80.600;  579.000;  473.000
240.099; -106.175; -778.000; -725.000
240.242;   56.100;  428.000;  432.000
240.385;   47.150;  466.000;  450.000
240.528;  -77.950; -706.000; -473.000
240.671;   33.250;  189.000;  134.000
240.814;  -52.125; -441.000; -158.000
240.957; -101.950; -767.000; -578.000
241.100; -100.850; -779.000; -755.000
241.243; -140.850;-1234.000; -893.000
241.386;  -61.500; -508.000; -379.000
241.529;  -93.600; -735.000; -547.000
241.672;  -77.100; -566.000; -495.000
241.815; -116.075; -832.000; -808.000
241.958;  -26.475; -125.000; -182.000
242.101;  -78.275; -545.000; -390.000
242.244;  -50.150; -270.000; -325.000
242.387;  -38.850; -304.000; -246.000
242.530;   37.325;  470.000;  134.000
242.673;  -46.175; -381.000; -309.000
242.815; -127.500; -925.000; -899.000
242.958;  -66.200; -482.000; -381.000
243.101;   -3.300;  132.000;  187.000
243.244;  -77.075; -564.000; -521.000
243.387;  -55.925; -313.000; -316.000
243.530;  -93.350; -657.000; -674.000
243.672;   -3.425;   43.000;  -92.000
243.815;  -51.700; -355.000; -283.000
243.958;  -23.575;   98.000;  -26.000
244.101;    6.300;   59.000;  -16.000
244.243;  -28.700;  -47.000;  101.000
244.386; -112.325; -761.000; -630.000
244.529;  -29.050; -132.000; -139.000
244.672; -149.500;-1154.000; -951.000
244.814; -104.400; -621.000; -794.000
244.957;  -51.325; -380.000; -304.000
245.100;  -80.675; -489.000; -489.000
245.242;  -61.075; -387.000; -374.000
245.385;  -12.025;  -59.000;  -39.000
245.528; -127.075; -871.000; -705.000
245.670;   85.200;  612.000;  634.000
245.813;  -88.225; -599.000; -547.000
245.956;  -32.750; -324.000; -275.000
246.098;  -67.375; -508.000; -650.000
246.241;    3.475;  194.000;   48.000
246.383;  -16.975; -119.000;  -73.000
246.526;  -80.175; -454.000; -525.000
246.669; -106.200; -889.000; -780.000
246.811;    2.050;  172.000;   -1.000
246.954;  -56.375; -512.000; -426.000
247.096;  -26.375;  -84.000;   -6.000
247.239;  -68.625; -482.000; -445.000
247.381;  -84.550; -647.000; -488.000
247.524;   81.200;  645.000;  679.000
247.666;   -9.850;   58.000;   11.000
247.809; -113.700; -887.000; -691.000
247.951;  -14.275;  -75.000;  138.000
248.094;   41.075;  432.000;  308.000
248.236; -154.225;-1262.000;-1238.000
248.378;    7.075; -356.000;  -81.000
248.521;  -32.450; -334.000; -337.000
248.663;  -40.100; -236.000; -267.000
248.806;  -28.875; -300.000; -266.000
248.948;  -89.750; -886.000; -763.000
249.090;  -47.425; -428.000; -398.000
249.233;  -48.975; -344.000; -381.000
249.375;  -70.150; -474.000; -451.000
249.518;  -29.525;  -83.000; -133.000
249.660;  -20.650; -103.000;    3.000
249.802; -163.975;-1303.000;-1189.000
249.945;  -73.325; -612.000; -540.000
250.087; -121.350; -834.000; -768.000
250.229;  -60.075; -362.000; -480.000
250.371;  -76.325; -494.000; -439.000
250.514;  -55.775; -310.000; -244.000
250.656;  -70.625;   69.000;  102.000
250.798; -125.675; -849.000; -800.000
250.940;  -71.700; -322.000; -322.000
251.083;  -36.925; -335.000; -111.000
251.225;   61.125;  338.000;  310.000
251.367;  -49.825; -274.000; -373.000
251.509;  -35.600; -265.000; -210.000
251.651; -100.975; -731.000; -671.000
251.794;   48.075;  538.000;  632.000
251.936; -119.400; -821.000; -747.000
252.078;  -77.700; -540.000; -461.000
252.220;  -88.825; -645.000; -477.000
252.362;   88.700;  344.000;  462.000
252.504;  -77.550; -677.000; -584.000
252.646; -109.750; -875.000; -722.000
252.788;   -6.725;   14.000; -128.000
252.931;  -44.825; -257.000; -253.000
253.073;  -45.550; -376.000; -317.000
253.215;    2.650;  141.000;  122.000
253.357;  -28.050;   82.000; -153.000
253.499;  -52.250; -374.000; -234.000
253.641;  -95.175; -749.000; -594.000
253.783;  -80.050; -609.000; -527.000
253.925;  -93.400; -586.000; -591.000
254.067; -113.725; -744.000; -667.000
254.209;  -40.500; -391.000; -259.000
254.351; -149.750; -865.000; -883.000
254.493;  -66.325; -441.000; -417.000
254.635; -132.425; -936.000; -818.000
254.777;  -92.450; -752.000; -687.000
254.918;  -79.250; -512.000; -430.000
255.060;  -53.350; -551.000; -395.000
255.202;  -61.475; -473.000; -261.000
255.344;  -85.950; -658.000; -455.000
255.486;  -59.600; -471.000; -406.000
255.628; -106.300; -780.000; -781.000
255.770;  -88.825; -676.000; -536.000
255.912;  -72.925; -559.000; -468.000
256.053; -102.475; -730.000; -508.000
256.195;  142.600; 1008.000;  903.000
256.337; -100.075; -861.000; -595.000
256.479;   48.675;  532.000;  416.000
256.621;  -41.050; -394.000; -212.000
256.762;  -96.175; -789.000; -742.000
256.904;   39.400;  485.000;  487.000
257.046;  -61.900; -381.000; -271.000
257.188;  -43.400; -351.000; -264.000
257.329;  -76.500; -525.000; -464.000
257.471; -117.900; -939.000; -807.000
257.613;  -66.300; -584.000; -498.000
257.755; -138.425;-1073.000; -982.000
257.896;   31.700;  286.000;  392.000
258.038;  -64.475; -403.000; -352.000
258.180;  -47.775; -354.000; -279.000
258.321;  -86.125; -581.000; -457.000
258.463;   -6.250;  -71.000;  133.000
258.605;  -91.850; -562.000; -570.000
258.746; -110.325; -886.000; -772.000
258.888; -140.575;-1026.000;-1020.000
259.029;    3.775;  121.000;   -8.000
259.171;  -85.675; -614.000; -550.000
259.313;    2.025;  -49.000;  -47.000
259.454;  -86.000; -536.000; -414.000
259.596;  -63.450; -483.000; -390.000
259.737;  -74.500; -590.000; -474.000
259.879;   29.450;  217.000;  311.000
260.020;   94.375;  901.000;  636.000
260.162;  -33.300; -146.000; -253.000
260.303; -116.425; -768.000; -687.000
260.445;  -92.650; -609.000; -613.000
260.586;   24.650;  392.000;  157.000
260.728;  -46.750; -360.000; -248.000
260.869; -111.925; -350.000; -343.000
261.011;   87.000;  706.000;  537.000
261.152;  -63.475; -479.000; -319.000
261.293;  -89.600; -576.000; -595.000
261.435;  -49.175; -219.000; -184.000
261.576;  -63.625; -455.000; -325.000
261.718;   42.825;  420.000;  470.000
261.859; -133.800; -940.000; -949.000
262.000; -130.975; -951.000;-1016.000
262.142;  -21.375;  -52.000;  -60.000
262.283; -113.950; -808.000; -691.000
262.424;  -96.000; -666.000; -625.000
262.566; -152.925;-1161.000; -983.000
262.707; -124.175; -840.000; -830.000
262.848; -120.325; -769.000; -726.000
262.990;  -44.750; -362.000; -345.000
263.131;   81.175;  650.000;  681.000
263.272;   -6.200;  -61.000;  -41.000
263.413;  -86.275; -589.000; -561.000
263.555;  -78.525; -669.000; -143.000
263.696;  -89.600; -550.000; -641.000
263.837;  -69.875; -449.000; -551.000
263.978;   -5.075;   -5.000;  -77.000
264.119;  -45.550; -283.000; -264.000
264.261; -102.925; -847.000; -630.000
264.402;  -20.825;   33.000;   40.000
264.543;  -74.925; -509.000; -524.000
264.684;  -27.200;   61.000;  -50.000
264.825;  -75.275; -816.000; -538.000
264.966;   -5.625;  -84.000;  -67.000
265.107; -117.900; -646.000; -670.000
265.248; -138.700; -825.000; -812.000
265.390;  -20.400;  152.000;   -9.000
265.531;  -29.725; -238.000; -107.000
265.672;  -81.400; -557.000; -630.000
265.813;   50.375;  563.000;  439.000
265.954; -133.525; -959.000; -940.000
266.095;  -19.575; -372.000; -322.000
266.236;  -83.450; -686.000; -548.000
266.377;  -45.325; -243.000; -297.000
266.518;  -63.925; -619.000; -547.000
266.659;   30.850;  170.000;  268.000
266.800;   11.500;   83.000;   85.000
266.941;  -79.100; -487.000; -478.000
267.082;    4.450;  354.000;   99.000
267.223;  -58.150; -344.000; -273.000
267.364; -106.950; -892.000; -686.000
267.504;  -10.950;    3.000;  135.000
267.645;   -1.425;  160.000;   67.000
267.786;  -37.125; -147.000;  -86.000
267.927;  -75.950; -473.000; -379.000
268.068;  -32.250; -186.000;  -61.000
268.209;  -43.850; -175.000; -413.000
268.350;  -64.275; -388.000; -532.000
268.490;  -93.025; -648.000; -521.000
268.631;   11.425;  127.000;  225.000
268.772; -109.300; -874.000; -647.000
268.913;  -60.325; -328.000; -476.000
269.054;  -25.150; -117.000;   12.000
269.194;  -67.825; -418.000; -402.000
269.335; -159.825;-1137.000;-1074.000
269.476;  -32.700;   33.000;  -35.000
269.617;  -52.400; -347.000; -392.000
269.757;  -94.450; -713.000; -646.000
269.898; -116.375; -856.000; -613.000
270.039;  -69.225; -415.000; -405.000
270.180; -131.500; -952.000; -816.000
270.320;  -36.050; -190.000; -250.000
270.461;  -49.350; -277.000; -249.000
270.602;  -16.000; -186.000; -156.000
270.742; -117.325; -868.000; -943.000
270.883;  -57.425; -442.000; -390.000
271.023;  -63.000; -358.000; -357.000
271.164;  -87.225; -607.000; -528.000
271.305; -102.525; -666.000; -654.000
271.445;  -93.775; -722.000; -683.000
271.586;  -58.375; -462.000; -283.000
271.726;  -52.025; -397.000; -322.000
271.867;  -55.425; -594.000; -534.000
272.008;  207.000; -473.000; -285.000
272.148;  144.025;  462.000;  468.000
272.289;   10.375; -113.000; -181.000
272.429;   12.250;   19.000;  185.000
272.570;  -85.900; -633.000; -737.000
272.710;  -95.075; -825.000; -775.000
272.851;  -23.475;  113.000; -130.000
272.991; -156.525;-1173.000;-1077.000
273.131;  -69.625; -419.000; -459.000
273.272; -103.150; -683.000; -723.000
273.412;    6.225; -143.000;  -31.000
273.553;  -62.375; -488.000; -507.000
273.693;  135.500;  913.000;  858.000
273.834;  -86.025; -894.000; -692.000
273.974;  -70.975; -664.000; -615.000
274.114;  -93.700; -772.000; -560.000
274.255;   86.750;  414.000;  373.000
274.395;   18.050; -180.000; -125.000
274.535;   34.825;  199.000;  350.000
274.676;   38.150;  225.000;   94.000
274.816;   -5.800;  110.000;   34.000
274.956;  -88.300; -624.000; -690.000
275.097;  -66.475;-1014.000; -922.000
275.237; -109.950; -913.000; -803.000
275.377; -107.950; -778.000; -689.000
275.517; -142.650; -878.000; -937.000
275.658;  -62.375; -590.000; -555.000
275.798;  -67.900; -606.000; -413.000
275.938;   10.275;  215.000;  323.000
276.078; -104.325; -626.000; -395.000
276.218;    2.550;   99.000;  104.000
276.359; -120.525;-1026.000;-1024.000
276.499;  -71.400; -605.000; -446.000
276.639;  -21.650; -305.000; -151.000
276.779;  -51.350; -475.000; -357.000
276.919; -104.300; -783.000; -624.000
277.059;  -26.050; -261.000; -212.000
277.199;  -35.800; -357.000; -259.000
277.340;   58.975;  287.000;  175.000
277.480; -100.775; -840.000; -693.000
277.620;   20.425;  192.000;   16.000
277.760; -190.250;-1533.000;-1294.000
277.900;   26.650;  113.000;   33.000
278.040;   26.925;  137.000;  159.000
278.180;   35.775;  270.000;  170.000
278.320;    1.650;   21.000;   56.000
278.460;  -70.600; -443.000; -469.000
278.600;  -91.425; -708.000; -598.000
278.740;   37.275;  448.000;  224.000
278.880;  -51.300; -768.000; -791.000
279.020;  -10.625; -194.000; -144.000
279.160;  -84.800; -672.000; -595.000
279.300; -117.150; -926.000; -873.000
279.440;  -84.300; -709.000; -622.000
279.579;   -7.325;-1014.000; -929.000
279.719;  -48.300; -410.000; -394.000
279.859;   74.425;   -4.000;   41.000
279.999;   43.650; -208.000;  101.000
280.139;  -21.700; -435.000; -387.000
280.279;  -63.750; -708.000; -745.000
280.419;  -23.725; -229.000; -147.000
280.559;  -29.325; -259.000; -180.000
280.698;  -81.375; -790.000; -639.000
280.838;  -93.375; -778.000; -800.000
280.978; -108.125; -846.000; -790.000
281.118; -118.550; -811.000; -704.000
281.257;    4.125;   24.000;    6.000
281.397; -111.200;-1094.000; -960.000
281.537;  -84.325; -599.000; -712.000
281.677;  -26.500; -150.000; -101.000
281.816;  -92.575; -700.000; -630.000
281.956;  -37.500; -193.000; -257.000
282.096;  -64.850; -539.000; -396.000
282.235;  -98.975; -672.000; -638.000
282.375;  -25.600; -243.000;  -98.000
282.515;  -96.125; -715.000; -707.000
282.654;   23.625;   29.000;  106.000
282.794;   17.650;  388.000;  244.000
282.934;  -65.725; -530.000; -491.000
283.073; -127.975;-1030.000; -857.000
283.213;  -50.450; -460.000; -467.000
283.353;  -26.625; -408.000; -349.000
283.492;  -32.125; -264.000; -296.000
283.632;  -51.325; -254.000; -168.000
283.771; -103.925; -859.000; -730.000
283.911;  -47.000; -369.000; -260.000
284.050; -121.750; -794.000; -748.000
284.190; -150.325;-1229.000;-1096.000
284.329; -153.750;-1055.000; -964.000
284.469;  -59.625; -516.000; -591.000
284.608;  -55.275; -559.000; -598.000
284.748;  -93.175; -614.000; -570.000
284.887;  -14.375;  -87.000;  -20.000
285.027; -109.375; -844.000; -892.000
285.166;  -32.800; -192.000; -249.000
285.306;    3.250; -116.000;  -33.000
285.445;  -48.500; -229.000; -343.000
285.584;  -94.075; -630.000; -494.000
285.724;  -52.750; -282.000; -322.000
285.863; -117.350; -857.000; -507.000
286.002;  -67.000; -366.000; -276.000
286.142; -106.250; -715.000; -622.000
286.281;  -80.600; -525.000; -493.000
286.420;  -74.100; -554.000; -417.000
286.560;   91.050;  653.000;  623.000
286.699; -127.525; -958.000; -912.000
286.838;  -92.300; -590.000; -591.000
286.978;  -92.375; -533.000; -537.000
287.117; -138.375;-1085.000; -950.000
287.256;  -32.750; -228.000; -211.000
287.395;  -61.400; -197.000; -378.000
287.535;  -43.025; -370.000; -298.000
287.674;  -75.100; -509.000; -484.000
287.813;   49.025;  661.000;  533.000
287.952; -122.750;-1010.000; -871.000
288.091; -147.600;-1049.000; -915.000
288.231;   10.175;   13.000;   15.000
288.370; -160.125;-1217.000;-1200.000
288.509;  -94.875; -728.000; -645.000
288.648;  -82.075; -770.000; -548.000
288.787;  -52.400; -243.000;  -87.000
288.926;  -55.000; -454.000; -475.000
289.065;  111.075;  859.000;  672.000
289.204;  -52.000; -377.000; -217.000
289.344;  -92.750; -791.000; -690.000
289.483;   30.350;  416.000;  304.000
289.622;  -20.650; -291.000; -149.000
289.761;  -13.725; -309.000; -166.000
289.900; -116.800; -785.000; -626.000
290.039;  -19.025;  -12.000;  -95.000
290.178;  -42.800; -274.000; -180.000
290.317;  -80.850; -618.000; -479.000
290.456;  -61.925; -463.000; -451.000
290.595; -138.150; -961.000; -833.000
290.734; -147.800; -904.000; -891.000
290.873;  -69.625; -456.000; -420.000
291.011; -114.575; -833.000; -843.000
291.150;  -94.200; -770.000; -682.000
291.289;  -20.850; -343.000; -110.000
291.428;  -99.325; -599.000; -480.000
291.567;  -52.575; -370.000; -442.000
291.706;   -6.350;  109.000;  154.000
291.845;  -96.675; -597.000; -505.000
291.984; -158.675;-1234.000;-1061.000
292.122;   58.800;  602.000;  582.000
292.261;   47.500;  620.000;  463.000
292.400;    5.550; -144.000;  211.000
292.539; -119.825; -959.000; -813.000
292.678;  -44.100; -325.000; -300.000
292.816; -154.725;-1136.000; -965.000
292.955;  -96.900; -844.000; -684.000
293.094;  -17.025; -173.000; -337.000
293.233;  -68.675; -556.000; -400.000
293.371;  -30.500; -225.000;  -84.000
293.510; -127.800; -866.000; -780.000
293.649; -123.450; -959.000; -924.000
293.787;  -40.000;-1083.000;-1012.000
293.926;   10.800; -113.000;  -32.000
294.065;  -44.275; -379.000; -290.000
294.203;   50.900;  298.000;  406.000
294.342;   30.125;   74.000;  156.000
294.481; 5435.200;51180.000; -836.000
294.619;  -43.825; -425.000; -582.000
294.758; -135.450;-1230.000;-1137.000
294.896;   89.700; -125.000;    5.000
295.035; -117.200;-1040.000;-1006.000
295.174; -113.600;-1082.000; -954.000
295.312;  -44.775; -323.000; -203.000
295.451;    3.025; -307.000; -428.000
295.589;  -44.075; -389.000; -518.000
295.728;   15.000; -292.000; -165.000
295.866;   16.825;  -36.000;  -51.000
296.005;  -77.425; -584.000; -341.000
296.143;  -63.475; -558.000; -596.000
296.282;  -96.550; -957.000; -881.000
296.420;  -86.900; -657.000; -557.000
296.559;  -86.225; -892.000; -633.000
296.697;   39.625; -847.000; -665.000
296.835;   92.600;-1141.000;-1002.000
296.974;   61.700;  -23.000;   39.000
297.112;   23.075; -443.000; -504.000
297.251;  -72.400; -815.000; -755.000
297.389;  114.975; -576.000; -438.000
297.527;   35.725; -145.000;  -83.000
297.666;  -69.225; -486.000; -438.000
297.804;  -53.975; -404.000; -264.000
297.942;  -16.450; -136.000; -161.000
298.081;  -15.525; -183.000;   63.000
298.219;   76.950;  -17.000;  -19.000
298.357;   72.125; -144.000;  -71.000
298.495;   42.525; -810.000; -812.000
298.634;  103.125;  245.000;  219.000
298.772;   72.775; -220.000; -338.000
298.910;  -29.000; -309.000; -182.000
299.048;  -23.700; -130.000; -153.000
299.187;  -31.825; -350.000; -250.000
299.325;   23.525;   52.000;  122.000
299.463;   79.875; -389.000; -299.000
299.601;  138.500; -327.000; -271.000
299.739;  -90.225; -908.000; -883.000
299.877;  -94.050; -791.000; -703.000
300.016;  -20.825;-1095.000; -935.000
300.154;  190.050;  -19.000; -161.000
300.292;   83.550; -428.000; -348.000
300.430;   54.175; -408.000; -291.000
300.568;  -92.600; -940.000; -874.000
300.706;  -28.275; -366.000; -469.000
300.844;  -58.800;-1108.000; -979.000
300.982;  131.825;  246.000;  282.000
301.120;  -97.500; -965.000; -866.000
301.258;  -71.825; -812.000; -705.000
301.396;   45.325;  104.000;  -41.000
301.534;  103.300; -218.000; -293.000
301.672;    9.025; -664.000; -521.000
301.810;   61.050; -613.000; -545.000
301.948;  154.925;   53.000;  149.000
302.086;  695.325; -250.000;  -32.000
302.224; 1133.150; -610.000; -585.000
302.362;   49.825; -558.000; -622.000
302.500;    6.725; -923.000; -893.000
302.638;  126.825;  128.000;  245.000
302.776;   -3.300; -352.000; -408.000
302.913;   27.925;  447.000;  236.000
303.051;   29.375;  -86.000;  -23.000
303.189;   53.525;   90.000;  118.000
303.327;  -32.600; -341.000; -256.000
303.465;  -78.500; -832.000; -588.000
303.603;  -92.600; -805.000; -604.000
303.740;  123.925;  417.000;  241.000
303.878;   47.675; -800.000; -759.000
304.016;  -86.475; -915.000; -790.000
304.154; -108.225;-1123.000;-1152.000
304.291;  -36.825; -505.000; -554.000
304.429;    1.250;  102.000;   74.000
304.567; -119.000; -908.000; -893.000
304.705;  -52.350; -408.000; -515.000
304.842;  121.225; -616.000; -540.000
304.980;   63.425;  215.000;   35.000
305.118;   73.200; -367.000; -365.000
305.255;  -46.200; -945.000; -927.000
305.393;   49.700;  178.000;  239.000
305.531;  -88.250;-1173.000; -956.000
305.668;  -65.825; -663.000; -582.000
305.806;  134.275; -358.000; -439.000
305.943;  122.350; -629.000; -637.000
306.081;   64.700; -378.000; -267.000
306.219; -108.975; -863.000; -748.000
306.356;    2.025;  158.000;   27.000
306.494;   98.725;  981.000;  761.000
306.631;    0.675;  -11.000;  -55.000
306.769;    9.975; -613.000; -485.000
306.906;   -7.675; -284.000; -258.000
307.044;  -77.625; -473.000; -488.000
307.181;  -73.650; -410.000; -332.000
307.319;    9.050;  112.000;   87.000
307.456; -161.825;-1191.000;-1153.000
307.594;  -94.925; -980.000; -727.000
307.731;   -9.525; -371.000; -164.000
307.868;   -5.275;  -15.000;   20.000
308.006; -117.325; -961.000; -847.000
308.143;  -65.950; -618.000; -330.000
308.281;  183.925;  -37.000; -254.000
308.418;   -5.425; -748.000; -640.000
308.555;  -62.100; -400.000; -250.000
308.693;  -89.075; -577.000; -573.000
308.830; -104.875; -712.000; -657.000
308.967;  -16.550; -215.000;  -95.000
309.105;  -55.425; -507.000; -396.000
309.242;   48.000; -468.000; -367.000
309.379;  366.675; -577.000; -655.000
309.517;  -57.425; -936.000; -948.000
309.654; -103.300; -910.000; -734.000
309.791;  -86.500; -662.000; -580.000
309.928; -118.000; -977.000; -914.000
310.065;  193.350;  819.000;  697.000
310.203;   10.025; -825.000; -850.000
310.340;  -13.275; -465.000; -321.000
310.477;  -89.200; -412.000; -516.000
310.614;  -71.525; -383.000; -473.000
310.751;  -73.625; -427.000; -518.000
310.889;  -26.100;    1.000;   11.000
311.026; -155.500;-1161.000; -939.000
311.163;  -46.275; -386.000; -380.000
311.300;  -70.100; -512.000; -479.000
311.437;  -89.400; -658.000; -619.000
311.574; -141.700;-1226.000; -985.000
311.711;  -66.350; -595.000; -433.000
311.848;  -40.800; -380.000; -388.000
311.985;    6.200;  270.000;   93.000
312.122; -110.500; -932.000; -762.000
312.259; -131.375; -941.000; -994.000
312.396;  -73.175; -508.000; -551.000
312.533; -100.650; -812.000; -790.000
312.670; -131.350;-1070.000; -898.000
312.807;  -51.725; -352.000; -367.000
312.944;  -68.875; -513.000; -611.000
313.081;  -38.300; -150.000; -415.000
313.218; -103.725;-1111.000; -867.000
313.355;   11.775; -531.000; -449.000
313.492;   22.600; -455.000; -292.000
313.629;  138.800;  815.000;  735.000
313.766; -153.900;-1176.000;-1008.000
313.902;  -17.650; -186.000;   21.000
314.039;  -46.175; -372.000; -289.000
314.176;   18.000;  286.000;  192.000
314.313;  -61.750; -569.000; -473.000
314.450;  -78.450; -788.000; -684.000
314.587;  -56.075; -468.000; -480.000
314.723;   -2.800;  -78.000;  130.000
314.860;   21.050;  318.000;  332.000
314.997;   26.550;  223.000;  142.000
315.134;  -39.000; -385.000; -368.000
315.270;  -30.775; -480.000; -496.000
315.407; -126.475;-1094.000; -967.000
315.544;  -54.700; -657.000; -538.000
315.681;  -66.025; -681.000; -565.000
315.817;   24.800; -133.000; -176.000
315.954;   24.675; -613.000; -392.000
316.091; -125.900;-1045.000;-1023.000
316.227;  -24.950;  -71.000; -179.000
316.364;    3.550;   23.000;    6.000
316.500;  -32.900; -113.000; -300.000
316.637;  -51.775; -181.000; -302.000
316.774;  -89.825; -625.000; -358.000
316.910; -113.100; -598.000; -629.000
317.047;  -63.425; -487.000; -351.000
317.183;  -50.450; -435.000; -566.000
317.320;  -13.200; -367.000; -321.000
317.456;  -84.975; -733.000; -805.000
317.593;  -98.625; -598.000; -641.000
317.729;    0.000;  168.000;  -67.000
317.866; -190.700;-1434.000;-1285.000
318.002;  -94.325; -708.000; -948.000
318.139;  -79.800; -883.000; -867.000
318.275; -103.475;-1003.000; -738.000
318.412;  -66.175; -517.000; -336.000
318.548;  -16.450; -751.000; -720.000
318.685;  -82.500; -985.000; -888.000
318.821;  -94.025; -762.000; -735.000
318.957;  -10.625;   34.000;  -23.000
319.094;   36.675;  297.000;  154.000
319.230;  -57.450; -756.000; -742.000
319.367;  159.275; -471.000; -520.000
319.503;   77.250; -538.000; -436.000
319.639; -103.925; -877.000; -793.000
319.775;  -35.125; -750.000; -685.000
319.912;  -54.700; -424.000; -519.000
320.048;  -78.650;-1184.000;-1184.000
320.184;   64.675;   59.000;   70.000
320.321;  -70.250; -497.000; -467.000
320.457;   51.350;  475.000;  662.000
320.593;  -68.775; -375.000; -382.000
320.729;  -99.550; -732.000; -734.000
320.866;  -63.875; -577.000; -635.000
321.002;  -74.600; -759.000; -809.000
321.138;   -0.200; -135.000; -211.000
321.274;   83.975; -148.000; -115.000
321.410;  -11.000; -585.000; -353.000
321.546;  -19.900;-1011.000; -911.000
321.683;   66.175;  400.000;  185.000
321.819;   24.350;  -48.000; -117.000
321.955;  -96.625; -743.000; -722.000
322.091;  -50.525; -585.000; -540.000
322.227;    4.825; -382.000; -202.000
322.363;  -21.400; -320.000; -215.000
322.499;  -51.525; -343.000; -331.000
322.635;  179.775;  636.000;  443.000
322.771;   34.350; -139.000;   12.000
322.907;   86.550;  129.000;  327.000
323.043;  -17.275; -115.000; -206.000
323.179;  -30.900; -394.000; -363.000
323.315;   45.900; -401.000; -371.000
323.451;  130.100; -328.000; -236.000
323.587;   76.450;  -60.000;  -77.000
323.723;   38.500; -682.000; -601.000
323.859;  -20.825; -258.000;  -76.000
323.995;  -33.225; -467.000; -409.000
324.131; -119.400; -967.000; -892.000
324.267;  -53.850; -254.000; -276.000
324.402; -123.000; -960.000; -983.000
324.538;  -20.450; -279.000; -104.000
324.674;   24.150;  164.000;   77.000
324.810;  140.200;  226.000;  308.000
324.946;   20.475; -810.000; -658.000
325.082;  -92.350; -568.000; -475.000
325.217;  -23.625;  -62.000;   16.000
325.353; -109.975; -764.000; -659.000
325.489;  -83.250; -540.000; -506.000
325.625;  -78.350; -579.000; -525.000
325.760;   57.300;  517.000;  376.000
325.896;  -33.025; -515.000; -702.000
326.032;  -56.100; -403.000; -352.000
326.168;  -57.050; -462.000; -369.000
326.303;  -64.000; -352.000; -461.000
326.439;  -31.475; -336.000; -276.000
326.575;    8.000; -190.000;  -29.000
326.710;   -2.050; -156.000;  -30.000
326.846;   -7.975;  146.000;  103.000
326.982;  -94.975; -530.000; -548.000
327.117;  -69.400; -481.000; -442.000
327.253;  -94.925; -745.000; -742.000
327.388; -156.925;-1137.000;-1153.000
327.524;  -46.350; -811.000; -578.000
327.659;  -16.200;  -58.000;  -22.000
327.795;  -29.450;   69.000;   45.000
327.931;  -79.225; -723.000; -499.000
328.066;  -26.900; -417.000; -276.000
328.202;   -9.275;   12.000; -129.000
328.337;   97.400;  957.000;  713.000
328.473;   40.850;  -12.000;  -74.000
328.608;  -14.125; -256.000; -267.000
328.743;  -62.225; -799.000; -664.000
328.879;    1.375;  214.000;  114.000
329.014;  -33.200; -102.000; -122.000
329.150;  -96.050; -358.000; -483.000
329.285;  -71.325; -465.000; -466.000
329.421;  -50.025; -548.000; -246.000
329.556;  -26.950;  -36.000;   85.000
329.691; -103.450; -633.000; -615.000
329.827;  -79.150; -626.000; -480.000
329.962;  -40.025;  131.000; -301.000
330.097; -107.650; -673.000; -585.000
330.233;  -61.450; -410.000; -223.000
330.368; -123.800; -839.000; -628.000
330.503;  -29.950;    3.000;   98.000
330.638;    2.675;  -93.000; -125.000
330.774;  -50.325; -609.000; -530.000
330.909;  -45.675; -434.000; -244.000
331.044; -108.900; -714.000; -708.000
331.179; -169.775;-1217.000;-1109.000
331.315;   -1.975;   77.000;   20.000
331.450;   18.250;  157.000;  285.000
331.585;  -82.850; -805.000; -706.000
331.720;  -82.775; -510.000; -460.000
331.855;   -5.125;  -35.000; -102.000
331.990;  232.325;   62.000;  138.000
332.126;  116.775; -110.000;   71.000
332.261;  -10.300; -379.000; -265.000
332.396;   -3.475; -135.000; -242.000
332.531;  -90.600;-1074.000;-1031.000
332.666;   13.025; -519.000; -363.000
332.801; -100.875; -726.000; -807.000
332.936;  -22.275; -192.000; -122.000
333.071; -153.750; -870.000; -817.000
333.206;   12.500;  307.000;  379.000
333.341;   18.275;  344.000;  418.000
333.476;  -90.850; -627.000; -623.000
333.611;  -39.625; -251.000; -173.000
333.746;  -58.225; -381.000; -464.000
333.881; -111.725; -973.000; -935.000
334.016; -126.925; -936.000; -917.000
334.151; -119.300; -746.000; -702.000
334.286;   15.650;  152.000;  186.000
334.421;   -5.800; -125.000; -178.000
334.556;  -99.125; -611.000; -567.000
334.690;  -85.700; -631.000; -577.000
334.825;   68.575;  381.000;   83.000
334.960;  -58.325; -285.000; -413.000
335.095;   -2.650;  135.000;  -91.000
335.230;  -97.275; -722.000; -738.000
335.365; -140.350;-1084.000; -990.000
335.499; -113.375;-1108.000;-1037.000
335.634;   22.575;    9.000;  534.000
335.769;  -94.550; -755.000; -720.000
335.904;  -43.025; -603.000; -561.000
336.038;  -47.575; -735.000; -657.000
336.173; -104.675;-1206.000;-1194.000
336.308;   22.200; -116.000; -189.000
336.443;   36.750; -544.000; -634.000
336.577;  -64.125; -936.000; -787.000
336.712;   68.450;   -4.000;  -12.000
336.847;  -13.375; -724.000; -607.000
336.981;   80.100; -272.000; -208.000
337.116;  325.025;  615.000;  501.000
337.250;  198.425; -434.000; -421.000
337.385;  242.025; -297.000; -208.000
337.520;   62.025; -632.000; -603.000
337.654;  -28.550; -215.000; -126.000
337.789; -134.675; -989.000; -933.000
337.923;  -35.700; -104.000; -205.000
338.058;  -97.500; -673.000; -738.000
338.192;  -13.100; -611.000; -488.000
338.327;  -13.225;  -18.000; -155.000
338.461;  -64.825; -299.000; -469.000
338.596;  -97.000; -780.000; -638.000
338.730; -107.450; -767.000; -803.000
338.865;   77.300;  -46.000; -140.000
338.999;  -48.650; -846.000; -702.000
339.134;  -42.725; -634.000; -536.000
339.268;   29.225; -741.000; -603.000
339.403;  354.375; -740.000; -775.000
339.537;  102.100; -894.000; -820.000
339.671; -121.950; -829.000; -813.000
339.806;  -70.425; -556.000; -512.000
339.940;   -5.575; -261.000; -235.000
340.074;  -89.875; -685.000; -510.000
340.209;  -63.150; -351.000; -230.000
340.343;  -74.925; -517.000; -573.000
340.477;  147.500;  998.000; 1036.000
340.612;  -65.475;-1033.000; -900.000
340.746;  128.500; -199.000; -243.000
340.880;  -49.025; -924.000; -785.000
341.014;  -18.050;  -45.000; -154.000
341.149; -101.975; -756.000; -718.000
341.283; -108.675; -839.000; -754.000
341.417;  -81.125;-1124.000; -938.000
341.551;  170.450; -768.000; -708.000
341.685;  -23.125; -633.000; -611.000
341.820;  -56.125; -562.000; -493.000
341.954;  -41.350; -218.000; -349.000
342.088; -166.075;-1102.000;-1019.000
342.222;   71.325;  565.000;  618.000
342.356;  -64.225; -395.000; -335.000
342.490;  -84.175; -880.000; -841.000
342.624;  -48.025; -339.000; -242.000
342.758;   11.000; -364.000; -312.000
342.892;  -53.775; -710.000; -585.000
343.026;  -30.775;  -58.000; -116.000
343.160;  -61.775; -426.000; -376.000
343.294;  -88.450; -474.000; -337.000
343.428;  -11.775; -488.000; -448.000
343.562;   -3.475; -172.000;  -23.000
343.696;  -24.575; -385.000; -314.000
343.830;  -10.975; -362.000; -356.000
343.964;   16.825; -231.000; -168.000
344.098; 1098.225;  199.000;   70.000
344.232;  911.200; -266.000; -127.000
344.366;  112.825; -567.000; -453.000
344.500;   81.925; -665.000; -744.000
344.634;   49.300; -324.000; -164.000
344.768;   -0.850; -531.000; -341.000
344.902;   26.500;  278.000;  256.000
345.035;  -84.500; -556.000; -496.000
345.169; -119.500; -933.000; -656.000
345.303;  -34.875; -308.000; -482.000
345.437;  -51.750; -826.000; -717.000
345.571;  -73.800; -675.000; -594.000
345.704;  -69.825; -309.000; -532.000
345.838;  -16.000; -331.000; -284.000
345.972;  -27.200; -543.000; -495.000
346.106;  148.075; -179.000; -190.000
346.239;  441.825; -312.000; -243.000
346.373;    6.700; -343.000; -302.000
346.507; -141.300; -950.000; -962.000
346.640;  187.425;  -30.000;   13.000
346.774;  -35.650; -650.000; -797.000
346.908;  -35.800; -138.000;  -11.000
347.041;  -91.900; -646.000; -593.000
347.175;   -4.675;  259.000;   27.000
347.309;  -77.650; -698.000; -628.000
347.442; -107.850; -883.000; -732.000
347.576;  318.950;  670.000;  668.000
347.709;  241.075; -123.000;  -52.000
347.843;  -80.775; -933.000; -825.000
347.976;   34.300;  235.000;  294.000
348.110; -172.200;-1268.000;-1186.000
348.243; -125.275; -679.000; -772.000
348.377;    4.200;  -26.000;   60.000
348.510;   44.500;  403.000;  540.000
348.644;  -31.950;  -37.000; -159.000
348.777;   -6.400;  180.000;  191.000
348.911;  -49.850; -142.000; -112.000
349.044;  181.800;  471.000;  448.000
349.178;  207.025;-1069.000;-1006.000
349.311;  117.650;  141.000;  255.000
349.444;   -7.275; -927.000; -813.000
349.578;  -19.400; -347.000; -200.000
349.711;  -84.500; -959.000; -862.000
349.845;   17.500; -661.000; -591.000
349.978; -134.775;-1224.000;-1137.000
350.111;  -82.275; -546.000; -612.000
350.244;  -71.300; -596.000; -700.000
350.378;   29.900; -392.000; -393.000
350.511;  -75.175; -393.000; -426.000
350.644;  -93.575; -808.000; -806.000
350.778;    9.125;  168.000;  104.000
350.911;  -13.150;  134.000;  140.000
351.044;  -79.725; -685.000; -615.000
351.177;  -18.200; -321.000; -281.000
351.310;   -5.900;    3.000; -131.000
351.444;  -65.650; -888.000; -788.000
351.577;  135.275;  140.000;   90.000
351.710;   78.300;  593.000;  417.000
351.843;  -24.050; -165.000;  -77.000
351.976;   -2.950;  149.000;  -79.000
352.109;  -81.525; -621.000; -612.000
352.242;  -35.800; -464.000; -419.000
352.376;  -54.125; -580.000; -636.000
352.509;  223.875; -437.000; -356.000
352.642;   41.400; -654.000; -604.000
352.775;   74.125; -141.000;  -98.000
352.908; -108.975; -933.000; -904.000
353.041;  -96.275; -814.000; -824.000
353.174;  -55.850; -551.000; -424.000
353.307;  -85.625; -753.000; -764.000
353.440;   74.050;  541.000;  453.000
353.573; -110.125; -957.000;-1008.000
353.706;  -40.275; -384.000; -558.000
353.839;  -20.025; -264.000; -220.000
353.971;  -89.300; -657.000; -512.000
354.104;  -84.975; -896.000; -835.000
354.237;  -17.650; -627.000; -662.000
354.370;  -79.325; -846.000; -879.000
354.503; -177.625;-1231.000;-1308.000
354.636;  -43.250; -529.000; -348.000
354.769; -123.550; -937.000; -860.000
354.902;    4.875; -230.000; -139.000
355.034;  -27.875; -164.000; -220.000
355.167;  -35.750; -262.000; -162.000
355.300;  -93.825;-1061.000; -880.000
355.433;  920.250;  -71.000;  -14.000
355.565; 1432.650; -402.000; -384.000
355.698;  364.350; -356.000; -296.000
355.831;    3.850; -882.000; -801.000
355.964;   96.925; -285.000; -170.000
356.096;  -62.525; -856.000; -843.000
356.229;    5.250; -523.000; -530.000
356.362;  289.525; -373.000; -266.000
356.494;  555.825; -229.000; -162.000
356.627;  537.800;  269.000;  377.000
356.760;  659.775;  120.000;   53.000
356.892;  925.425; -286.000; -601.000
357.025;  772.300;  403.000;  389.000
357.157;  712.725; -167.000; -179.000
357.290;  614.225; -856.000; -713.000
357.423;  193.300; -667.000; -556.000
357.555;  140.450; -217.000; -228.000
357.688;  155.825; -483.000; -364.000
357.820;  542.300; -870.000; -877.000
357.953; 4322.325; -563.000; -589.000
358.085;  978.000; -632.000; -612.000
358.218; 1442.350;-1131.000; -932.000
358.350;  241.675;  -58.000;  312.000
358.483; -105.950;-1300.000;-1187.000
358.615;    5.725;-1182.000;-1078.000
358.747;  -18.600;-1187.000;-1058.000
358.880;   47.325; -810.000; -744.000
359.012;   13.225; -376.000; -202.000
359.145;  -51.400; -480.000; -511.000
359.277;   99.200; -962.000; -913.000
359.409; 3551.650;  536.000;  231.000
359.542;  959.500; -738.000; -688.000
359.674;   84.550;   46.000;   13.000
359.806;  -44.050; -565.000; -438.000
359.939;  -43.900; -617.000; -516.000
360.071;  -22.900; -583.000; -579.000
360.203;  -15.950; -411.000; -364.000
360.335;   58.000;  164.000;  -16.000
360.468;  215.575; -249.000; -307.000
360.600; 2846.950; -547.000; -454.000
360.732; 2731.550; -546.000; -423.000
360.864;  379.725;-1216.000;-1044.000
360.996;  336.575; -516.000; -554.000
361.129;   70.550; -389.000; -598.000
361.261;   20.650;  110.000; -113.000
361.393;  -24.200; -252.000; -214.000
361.525;   33.725;   94.000;  244.000
361.657;  -14.325; -821.000; -703.000
361.789;   19.525; -139.000; -155.000
361.921;  315.250; -642.000; -593.000
362.053;  311.500;  524.000;  541.000
362.185;   67.475;  288.000;   72.000
362.318;  -75.775; -709.000; -705.000
362.450;  152.050;  294.000;  444.000
362.582;  159.350; -913.000; -870.000
362.714;  -23.800; -353.000; -332.000
362.846;  -69.750; -606.000; -490.000
362.978; -138.100; -941.000; -811.000
363.109;   72.450; -161.000; -260.000
363.241;  538.200; -739.000; -749.000
363.373;  412.675; -649.000; -564.000
363.505;  627.150; -186.000;  -91.000
363.637;  156.700; -787.000; -601.000
363.769;  -94.700;-1067.000;-1080.000
363.901;  -62.575; -596.000; -654.000
364.033;  -97.800;-1103.000;-1062.000
364.165;   -0.225; -283.000; -283.000
364.296;   79.725; -316.000; -177.000
364.428;   52.625;-1344.000;-1220.000
364.560;  -68.075; -679.000; -661.000
364.692;  -73.725; -738.000; -835.000
364.824;  332.975; -588.000; -456.000
364.955;  463.275; -402.000; -564.000
365.087;  827.500;-1097.000; -852.000
365.219;   18.825; -686.000; -816.000
365.351;  -55.800; -526.000; -572.000
365.482;   53.825;  300.000;  240.000
365.614;  -45.725; -402.000; -314.000
365.746;  -96.550; -729.000; -752.000
365.877; -100.550; -706.000; -672.000
366.009;  242.400;  -35.000;  -62.000
366.141;  -87.000;-1249.000;-1134.000
366.272; -114.125; -803.000; -719.000
366.404; -105.050;-1005.000; -874.000
366.535;   -9.600; -139.000;  -12.000
366.667; -100.075; -644.000; -649.000
366.799;   25.325;  353.000;  203.000
366.930; -107.350; -862.000; -996.000
367.062;  112.375; -639.000; -613.000
367.193;  139.650; -872.000; -842.000
367.325;  -58.425; -580.000; -684.000
367.456;   79.750; -246.000;   31.000
367.588;  157.200; -371.000; -318.000
367.719;   23.400;  -44.000;  -45.000
367.851;  -21.300; -222.000; -241.000
367.982;  -40.775; -875.000; -732.000
368.113;  143.500; -475.000; -358.000
368.245; -120.675; -960.000; -841.000
368.376;  -25.925; -254.000; -302.000
368.508;  -24.550; -188.000; -263.000
368.639; -140.200;-1166.000;-1034.000
368.770;    0.175; -670.000; -589.000
368.902;  -55.925; -836.000; -926.000
369.033;  -94.300; -906.000; -855.000
369.164;  -61.275; -720.000; -653.000
369.296; -108.650; -452.000; -601.000
369.427;   12.350; -209.000; -144.000
369.558;  -40.250; -593.000; -377.000
369.689;  -89.475; -721.000; -569.000
369.821; -123.400; -951.000; -845.000
369.952;  -20.550;   42.000; -108.000
370.083;  -48.425; -229.000; -108.000
370.214;  -78.175; -735.000; -650.000
370.345;  -10.425;   65.000;   81.000
370.477;  -86.200; -810.000; -790.000
370.608;  294.825; -328.000; -264.000
370.739;  -21.600;-1233.000;-1292.000
370.870;   -5.075;-1102.000; -923.000
371.001;  114.350; -378.000; -467.000
371.132;  -66.475; -754.000; -735.000
371.263;  -32.800;  -42.000; -148.000
371.394; -131.650; -841.000; -748.000
371.525;   34.675;  345.000;  225.000
371.657;  -71.450; -808.000; -670.000
371.788;   75.375;  103.000;  199.000
371.919;  206.550; -384.000; -304.000
372.050; 4283.250;  -91.000; -156.000
372.181; 1305.125; -188.000; -294.000
372.311;  456.700;   42.000; -127.000
372.442;   56.425; -457.000; -451.000
372.573;  -18.225; -444.000; -340.000
372.704; -122.650;-1008.000; -980.000
372.835;  121.850; -228.000; -289.000
372.966;  -55.900; -646.000; -554.000
373.097;  -66.375; -575.000; -711.000
373.228;  -22.525; -717.000; -542.000
373.359;  188.125; -824.000; -536.000
373.490; 1153.850; -881.000; -727.000
373.620; 1422.325;-1001.000; -803.000
373.751; 2165.375; -332.000; -396.000
373.882;  977.925; -663.000; -733.000
374.013;   87.475; -449.000; -262.000
374.143;  -44.275; -581.000; -659.000
374.274;  -75.450; -987.000; -908.000
374.405;  206.500; -388.000; -276.000
374.536;  556.150; -526.000; -387.000
374.666; 1387.525; -759.000; -807.000
374.797;  318.925; -817.000; -868.000
374.928; 1048.250; -710.000; -560.000
375.058; 1100.450; -535.000; -500.000
375.189;   91.900;  -59.000;  -93.000
375.320;  -97.125; -928.000;-1034.000
375.450;  -35.250; -625.000; -616.000
375.581;  -35.350; -526.000; -436.000
375.712;  -30.425; -574.000; -250.000
375.842;  386.375; -438.000; -415.000
375.973;  275.175; -554.000; -513.000
376.103;  -19.875; -665.000; -648.000
376.234;  -96.025; -531.000; -552.000
376.364;   -0.675; -944.000; -867.000
376.495;  366.650;  925.000;  529.000
376.625;   19.400; -472.000; -485.000
376.756;   92.625; -709.000; -678.000
376.886;  -57.150;-1178.000;-1026.000
377.017;   31.350;-1048.000;-1061.000
377.147;  334.025; -786.000; -782.000
377.278;   51.475;  174.000;  228.000
377.408; -118.125; -801.000; -815.000
377.538; -104.325; -707.000; -693.000
377.669;  -74.775; -537.000; -613.000
377.799;  -70.000; -645.000; -635.000
377.929;  -54.425; -610.000; -428.000
378.060; -131.375; -781.000; -847.000
378.190;  -51.525; -726.000; -531.000
378.320;  -68.750; -401.000; -406.000
378.451;    2.850; -131.000;  -22.000
378.581;    0.050;  -67.000; -110.000
378.711;  161.925; 1035.000;  866.000
378.841;  -10.675; -533.000; -675.000
378.972;  -50.950; -871.000; -751.000
379.102;    1.950; -652.000; -579.000
379.232;  -26.250; -126.000;  -73.000
379.362;  -84.675;-1001.000; -885.000
379.492;   33.825; -373.000; -424.000
379.623;  111.050;    0.000;  111.000
379.753;  -76.650;-1107.000; -974.000
379.883;  233.850;   59.000;  156.000
380.013;   38.050;-1081.000;-1017.000
380.143; -103.225;-1097.000;-1056.000
380.273;  -90.625; -985.000; -861.000
380.403;   -7.150; -344.000; -257.000
380.533;  -10.600; -651.000; -664.000
380.663;   62.075;  173.000;  128.000
380.793;  -77.450;-1027.000;-1074.000
380.923;  -18.100; -103.000;  -34.000
381.053;  -89.775; -613.000; -623.000
381.183;  -44.025; -106.000; -248.000
381.313;   80.825; -656.000; -470.000
381.443;   54.375; -692.000; -473.000
381.573;  260.325; -402.000; -409.000
381.703;  366.325;-1249.000;-1095.000
381.833; -106.050;-1454.000;-1336.000
381.963;  124.825; -134.000;  -87.000
382.093; 1670.675; -925.000; -909.000
382.223;  525.875; -713.000; -602.000
382.353;    9.875; -801.000; -608.000
382.482;  489.750;-1091.000; -964.000
382.612;  929.175; -872.000; -644.000
382.742;  530.225; -695.000; -622.000
382.872;  341.100; -565.000; -551.000
383.002;   62.775;  347.000; -132.000
383.131;  -18.725; -226.000; -160.000
383.261;  -38.350; -706.000; -768.000
383.391;  304.025; -552.000; -377.000
383.521; 2976.900;  451.000;  263.000
383.650;  710.800; -947.000; -904.000
383.780;  -26.850; -783.000; -656.000
383.910;  122.950;  880.000;  802.000
384.039;   39.975; -794.000; -656.000
384.169;  286.125;-1205.000;-1017.000
384.299;  -11.950; -650.000; -662.000
384.428;  -86.500; -764.000; -680.000
384.558;  -60.800; -308.000; -275.000
384.687;  -39.325; -414.000; -334.000
384.817;   16.100;   75.000;   -2.000
384.947;   43.000; -234.000; -141.000
385.076;  311.425;  982.000;  912.000
385.206;  115.700;  369.000;  480.000
385.335;  -33.725; -549.000; -417.000
385.465;  -64.700; -655.000; -663.000
385.594;  146.950;  -53.000;  -44.000
385.724;  532.000; -868.000; -838.000
385.853;  144.800; -296.000; -270.000
385.982; 1640.450; -743.000; -787.000
386.112; 2632.650;-1052.000; -871.000
386.241;  183.450; -307.000; -312.000
386.371;   23.225; -174.000;  -87.000
386.500;   28.200; -825.000; -789.000
386.629;   27.425; -874.000; -817.000
386.759;   72.700;  -43.000;   68.000
386.888;    3.875; -170.000; -250.000
387.017;  -68.725; -648.000; -620.000
387.147;  -88.500; -771.000; -798.000
387.276;   11.825; -410.000; -397.000
387.405;   28.925; -398.000; -342.000
387.535;  -48.175; -452.000; -361.000
387.664;  -66.400; -692.000; -620.000
387.793;   75.500; -198.000; -113.000
387.922;  622.800;  255.000;  200.000
388.052;   45.300; -576.000; -423.000
388.181;   22.175; -342.000; -472.000
388.310;   33.075; -889.000; -710.000
388.439;  -41.050; -749.000; -742.000
388.568;  235.675;  365.000;  244.000
388.697; 1276.400; -756.000; -653.000
388.826;  266.850; -768.000; -666.000
388.956;   68.200; -285.000; -307.000
389.085;  -26.100; -347.000; -287.000
389.214; -117.275; -842.000; -872.000
389.343;  -56.550; -645.000; -413.000
389.472;  382.275;  126.000;  149.000
389.601;  527.675;   91.000;    0.000
389.730;   24.075; -568.000; -687.000
389.859;   79.450;  226.000;   46.000
389.988;  222.700; -423.000; -408.000
390.117;  168.950; -168.000; -146.000
390.246;   -1.350; -331.000; -320.000
390.375;  146.025; -673.000; -626.000
390.504;  -50.925; -703.000; -621.000
390.633;  -93.225; -672.000; -726.000
390.761;  -65.775; -732.000; -645.000
390.890;   45.600;   -4.000; -130.000
391.019;  -23.625; -421.000; -441.000
391.148; -113.975; -826.000; -855.000
391.277;  -57.600; -576.000; -493.000
391.406;  -64.900; -821.000; -805.000
391.534;   15.375;  574.000; -301.000
391.663;  -56.150; -583.000; -645.000
391.792;  -72.925; -673.000; -701.000
391.921;  148.200;   -3.000;   15.000
392.050;  232.575; -287.000; -228.000
392.178;  -11.200;-1206.000;-1061.000
392.307;  196.325; -758.000; -712.000
392.436;  110.100; -427.000; -641.000
392.564;    7.875;  166.000;   -6.000
392.693;  -79.225; -860.000; -682.000
392.822;  260.425; -529.000; -534.000
392.950;  141.375; -880.000; -714.000
393.079;  408.650; -188.000; -328.000
393.208;   52.375; -488.000; -511.000
393.336;  -14.975; -170.000; -145.000
393.465;  -33.325; -317.000; -199.000
393.593;   -0.050;   62.000;   79.000
393.722; -152.125;-1121.000; -916.000
393.850;  -27.150; -188.000;  -61.000
393.979; -155.600; -926.000; -805.000
394.107;  -58.100; -517.000; -537.000
394.236;   -9.925; -570.000; -507.000
394.364;  227.100;  383.000;  206.000
394.493;  395.050; -911.000; -767.000
394.621;  -22.575; -955.000; -916.000
394.750;  660.125; -873.000; -923.000
394.878; 2776.125; -247.000; -149.000
395.007; 3820.325; -721.000; -807.000
395.135;  290.325; -790.000; -721.000
395.263;  -77.775;-1038.000;-1040.000
395.392;   -1.175;  -25.000; -107.000
395.520; -147.350; -818.000; -679.000
395.648;  -90.725; -865.000; -915.000
395.777;    1.300; -366.000; -405.000
395.905;  -33.475; -449.000; -564.000
396.033;   10.200;  217.000;  172.000
396.162;  647.750; -399.000; -453.000
396.290;  582.225;  -17.000;   -2.000
396.418;  134.975; -555.000; -514.000
396.546;  -72.550; -571.000; -466.000
396.674; -101.825; -850.000; -878.000
396.803;   19.000;  -72.000;  -23.000
396.931;  126.825; -179.000; -199.000
397.059;   93.075;-1026.000; -989.000
397.187; -106.000;-1026.000; -975.000
397.315; -121.200; -884.000; -649.000
397.443; -102.300; -592.000; -443.000
397.572;  -89.275; -578.000; -424.000
397.700;    7.175; -607.000; -614.000
397.828;   33.000;  120.000;  -90.000
397.956;  -55.500; -508.000; -478.000
398.084;  -65.600; -767.000; -626.000
398.212;   41.850;  137.000;  124.000
398.340;   21.675;  -56.000;  159.000
398.468;   40.150; -390.000; -169.000
398.596; -122.775; -993.000; -953.000
398.724; -116.125; -762.000; -767.000
398.852; -157.325;-1024.000; -976.000
398.980;  -64.550; -560.000; -560.000
399.108;  -56.450; -982.000; -735.000
399.236;   35.175;   13.000;    8.000
399.363;   11.150;  222.000;  196.000
399.491;  -76.550; -404.000; -398.000
399.619; -121.925; -829.000; -800.000
399.747;  -93.325; -859.000; -771.000
399.875;  103.300;  220.000;  234.000
400.003;  -66.950; -359.000; -284.000
400.130;  -78.075; -421.000; -341.000
400.258;  -42.025;  -83.000;   38.000
400.386;  -67.575; -352.000; -168.000
400.514;  -35.425; -526.000; -587.000
400.641;  -83.100; -928.000; -802.000
400.769; -149.275; -979.000; -888.000
400.897;  -93.625; -838.000; -793.000
401.025;  -29.900; -166.000; -152.000
401.152;  -13.175;  220.000;   38.000
401.280;  -87.250; -430.000; -429.000
401.408; -112.525; -712.000; -576.000
401.535; -110.350; -735.000; -758.000
401.663; -180.575;-1134.000;-1054.000
401.790;  -88.125; -514.000; -525.000
401.918;   42.075;  436.000;  405.000
402.046;  -28.300;  134.000;  122.000
402.173;  -33.700;  -18.000;    7.000
402.301;  -81.450; -519.000; -397.000
402.428;   38.500;  528.000;  383.000
402.556; -140.525;-1188.000; -913.000
402.683;  -32.400;  -20.000;   -1.000
402.811;  -34.275;  -37.000; -206.000
402.938;  -12.000;   20.000;   27.000
403.066;  237.525; -574.000; -558.000
403.193;  409.275;  299.000;  239.000
403.321;  318.300; -396.000; -574.000
403.448;  385.325;   83.000;   27.000
403.575;  178.550;  -90.000;  -46.000
403.703;  -78.050; -732.000; -557.000
403.830;  -63.900; -531.000; -496.000
403.957; -131.450;-1117.000;-1023.000
404.085;    5.025;  -61.000; -172.000
404.212;  109.675;  -50.000;   63.000
404.339;  263.125; -566.000; -306.000
404.467; 5474.375; -612.000; -524.000
404.594; 3851.300; -287.000; -227.000
404.721; 1010.325; -869.000; -764.000
404.848;   76.125; -113.000; -202.000
404.976;  -95.975; -856.000; -783.000
405.103;  -21.425;  -14.000;  -82.000
405.230;   -8.250;  190.000;  226.000
405.357;   16.675;  117.000;   44.000
405.484;  253.400;  -49.000;    5.000
405.612;   47.325; -548.000; -563.000
405.739;  -56.125; -488.000; -243.000
405.866;   70.525;  669.000;  385.000
405.993;  -45.250; -398.000; -102.000
406.120; -140.600; -801.000; -887.000
406.247;  -32.800; -323.000; -342.000
406.374;  531.175;  540.000;  629.000
406.501;  162.100; -632.000; -702.000
406.628;  -82.675; -621.000; -589.000
406.755;  -97.350; -803.000; -620.000
406.882;  -29.425; -228.000; -277.000
407.009;  -99.325; -719.000; -628.000
407.136;   60.925; -480.000; -401.000
407.263;  209.300; -939.000; -829.000
407.390;  -78.575; -692.000; -614.000
407.517; -161.550;-1139.000;-1187.000
407.644;  -70.450; -332.000; -256.000
407.771;  -72.975; -249.000; -287.000
407.898;  -11.400;  168.000;  328.000
408.025;  -65.425; -421.000; -313.000
408.151;  -20.150;   82.000;  153.000
408.278;  -72.825; -267.000; -216.000
408.405; -106.925; -931.000; -899.000
408.532;  -70.900; -549.000; -542.000
408.659; -113.975; -677.000; -648.000
408.785; -193.025;-1298.000;-1170.000
408.912;  -75.525; -412.000; -296.000
409.039; -109.725; -610.000; -686.000
409.166; -112.575; -591.000; -555.000
409.292; -114.600; -571.000; -534.000
409.419; -124.525; -665.000; -649.000
409.546;  -80.775; -431.000; -192.000
409.672; -110.775; -713.000; -545.000
409.799;  -13.950;  -36.000;   34.000
409.926;  -47.775; -180.000; -179.000
410.052; -174.025;-1127.000;-1091.000
410.179;  -53.200; -368.000; -392.000
410.305;  -81.475; -375.000; -493.000
410.432;  -46.350; -220.000; -333.000
410.558;  -92.500; -305.000; -380.000
410.685; -124.700; -688.000; -431.000
410.812; -102.925; -409.000; -588.000
410.938; -144.675; -964.000; -808.000
411.065;  -92.675; -671.000; -645.000
411.191;  -26.700; -189.000; -174.000
411.317;  -98.800; -823.000; -742.000
411.444;  -65.800; -317.000; -246.000
411.570;  -79.800; -339.000; -294.000
411.697; -140.125; -758.000; -752.000
411.823; -177.150; -989.000; -999.000
411.949;  -37.550;  -56.000;   17.000
412.076; -119.375; -539.000; -519.000
412.202; -115.900; -758.000; -757.000
412.329; -125.950; -798.000; -752.000
412.455; -119.275; -821.000; -657.000
412.581;  -19.825;  -15.000;  172.000
412.707;  -66.250; -540.000; -457.000
412.834;   21.500;  156.000;  219.000
412.960;  -74.950; -785.000; -784.000
413.086; -102.950; -743.000; -701.000
413.212;  162.325;  604.000;  578.000
413.339;  -50.750; -685.000; -701.000
413.465;   19.075; -364.000; -310.000
413.591;  -86.875; -757.000; -474.000
413.717;  -50.025; -358.000; -366.000
413.843; -136.675; -839.000; -861.000
413.969;  -67.475;  -47.000; -292.000
414.096;  -99.275; -679.000; -679.000
414.222;  -11.325;  -33.000;   85.000
414.348;  -10.050; -652.000; -385.000
414.474;  115.325;   38.000;  -52.000
414.600;  -17.400; -126.000; -144.000
414.726;  -16.150;  -96.000;  -55.000
414.852;  -54.500; -365.000; -342.000
414.978;   16.950;  104.000;  -18.000
415.104;   32.850;   38.000;   80.000
415.230;   30.050; -329.000; -330.000
415.356;   44.925; -409.000; -514.000
415.482;  197.850;   13.000;  -35.000
415.608;  257.775; -247.000; -323.000
415.734;  938.825;   67.000;   38.000
415.860;19263.950; -875.000; -767.000
415.986;14249.625; -685.000; -607.000
416.111; 1243.700; -798.000; -652.000
416.237;  226.525; -424.000; -571.000
416.363; 1065.950; -765.000; -733.000
416.489; 3961.725; -324.000; -251.000
416.615;  438.200; -707.000; -742.000
416.741;  -38.450; -677.000; -784.000
416.866;  -84.850; -673.000; -736.000
416.992; -137.500; -801.000; -818.000
417.118;  -24.775;  -41.000;  -80.000
417.244;  -61.800; -798.000; -531.000
417.369;  -69.475; -801.000; -612.000
417.495;   -3.050; -325.000; -254.000
417.621;  -76.825;-1015.000; -803.000
417.746;    5.100; -579.000; -572.000
417.872;   57.700; -254.000; -144.000
417.998;   35.900; -515.000; -530.000
418.123;  976.125;-1073.000; -845.000
418.249; 5177.500; -512.000; -601.000
418.374;  741.775; -916.000; -824.000
418.500;   92.450; -383.000; -482.000
418.626;  126.900;   70.000;  -59.000
418.751;   98.200; -549.000; -448.000
418.877;  183.425; -637.000; -643.000
419.002; 1684.925; -688.000; -560.000
419.128;12060.025; -930.000; -721.000
419.253; 3025.425; -967.000; -837.000
419.379;  393.825; -391.000; -338.000
419.504;  375.350;  325.000;  415.000
419.629;  511.175; -393.000; -212.000
419.755; 3294.350; -317.000; -254.000
419.880;19976.875;  -98.000;   67.000
420.006;10878.000; -280.000; -221.000
420.131;28412.275; -662.000; -775.000
420.256; 4194.725; -315.000; -316.000
420.382;  572.425; -665.000; -687.000
420.507;   74.725; -649.000; -778.000
420.632;  174.550; -337.000; -339.000
420.758;  300.175; -251.000; -425.000
420.883;  -75.325; -876.000; -672.000
421.008;  -99.700; -775.000; -619.000
421.133;  -71.725; -509.000; -467.000
421.259;  -50.825; -325.000; -259.000
421.384; -103.000; -834.000; -693.000
421.509;  -31.175;-1052.000; -862.000
421.634; 1444.575; -936.000; -820.000
421.759;  644.125; -359.000; -327.000
421.885;  -51.625; -717.000; -656.000
422.010;  -76.850; -673.000; -542.000
422.135; -130.750; -695.000; -727.000
422.260;   25.375;  340.000;  280.000
422.385;  -50.900;   12.000;  -98.000
422.510;   14.725;  151.000;  -26.000
422.635;   33.575;  -87.000;  -43.000
422.760;  124.775; -766.000; -791.000
422.885;   71.175;  -57.000;  -80.000
423.010;  -26.150; -112.000; -169.000
423.135;  -99.925; -481.000; -561.000
423.260;   -4.750; -150.000; -245.000
423.385;   86.125;  476.000;  222.000
423.510;   29.500;   71.000;  -22.000
423.635;  108.750;  133.000;   45.000
423.760;   48.750;  383.000;  328.000
423.885;   61.600;  336.000;  391.000
424.010;   16.400;  -68.000;  -13.000
424.135;   -7.850;    5.000;  -33.000
424.259; -100.100; -654.000; -457.000
424.384;  -63.700; -279.000; -272.000
424.509;  -41.475; -260.000; -186.000
424.634; -101.300; -761.000; -623.000
424.759;  -36.475; -688.000; -544.000
424.883;  -22.225; -506.000; -527.000
425.008;  159.300; -502.000; -410.000
425.133; 1955.800; -679.000; -653.000
425.258;  915.375; -517.000; -381.000
425.382; 1218.200; -867.000; -774.000
425.507; 3128.125; -487.000; -543.000
425.632;  507.550; -802.000; -663.000
425.756;  446.225; -256.000; -146.000
425.881; 6024.300; -831.000; -857.000
426.006;16547.225; -604.000; -355.000
426.130; 2711.925; -696.000; -508.000
426.255;  333.425; -611.000; -491.000
426.379;  162.150; -189.000; -577.000
426.504;  356.625;  660.000;  544.000
426.629; 3932.650; -519.000; -466.000
426.753; 2766.800;   64.000;  -46.000
426.878;  309.350; -252.000; -288.000
427.002;  133.250; -651.000; -668.000
427.127; 1561.400;  -35.000; -158.000
427.251;10925.725;  372.000;  401.000
427.375; 3200.750; -191.000; -173.000
427.500; 2674.375; -616.000; -610.000
427.624;  942.350; -234.000; -400.000
427.749;   99.250; -216.000; -225.000
427.873;  -41.025; -499.000; -412.000
427.997;  -45.700; -222.000; -230.000
428.122;   88.450;  795.000;  703.000
428.246;   74.675;  433.000;  434.000
428.371; -124.275; -869.000; -773.000
428.495; -103.425; -624.000; -646.000
428.619;  -12.675; -186.000; -117.000
428.743;   32.525;   65.000;  132.000
428.868;   51.350; -732.000; -643.000
428.992; 1666.075; -219.000; -326.000
429.116;  700.875; -329.000; -357.000
429.240;  324.250;  419.000;  426.000
429.365;  -22.775; -454.000; -574.000
429.489;  -37.050; -638.000; -647.000
429.613;   31.925; -236.000; -177.000
429.737;   37.100; -563.000; -432.000
429.861;  253.350; -247.000; -133.000
429.985; 5319.125; -425.000; -305.000
430.109; 5934.800; -770.000; -908.000
430.234;  682.775;   76.000;  -50.000
430.358;   68.325; -250.000; -160.000
430.482;  -69.200; -672.000; -564.000
430.606;  -68.950; -655.000; -375.000
430.730;    6.500; -437.000; -388.000
430.854;  184.250; -909.000; -835.000
430.978;  -67.300; -795.000; -764.000
431.102;  -92.975; -499.000; -422.000
431.226; -116.125; -874.000; -815.000
431.350;   19.750;  345.000;  422.000
431.474;  -74.750; -661.000; -373.000
431.597; -148.375;-1060.000; -848.000
431.721;  -96.150; -276.000; -267.000
431.845; -139.350; -704.000; -472.000
431.969;  -80.500; -304.000; -349.000
432.093;  -93.150; -395.000; -317.000
432.217;  -28.475;   32.000;   82.000
432.341;  -85.725; -523.000; -518.000
432.464;    5.425;   96.000;   40.000
432.588;  268.950; -401.000; -329.000
432.712;  114.850;  -52.000;  -52.000
432.836;   42.900;  213.000;  263.000
432.959;  -28.925; -372.000; -311.000
433.083;   68.800;   11.000;    2.000
433.207;  355.950;  285.000;  930.000
433.330; 4789.825; -391.000; -200.000
433.454; 6017.125; -654.000; -638.000
433.578; 3491.100;  583.000;  278.000
433.701;  659.500; -623.000; -675.000
433.825;  167.275; -292.000; -299.000
433.949;  208.875;   28.000;  -72.000
434.072;   84.050; -410.000; -323.000
434.196;  -19.275; -309.000; -117.000
434.319; 3677.250;25482.000;25124.000
434.443;  731.200; -656.000; -603.000
434.566; 2573.200;  281.000;   62.000
434.690;  436.925; -637.000; -383.000
434.813;   53.450; -251.000; -173.000
434.937;  -89.125; -569.000; -696.000
435.060;  -21.025; -423.000; -332.000
435.184;  394.425; -492.000; -217.000
435.307;  218.025;  159.000;  102.000
435.431;   -5.525;  -40.000;   24.000
435.554;  -77.475; -399.000; -240.000
435.677;  -83.425; -350.000; -258.000
435.801;  -47.250;  -25.000;   49.000
435.924;  -15.600;    1.000;  -67.000
436.048; -101.150;-1019.000; -732.000
436.171;  -65.825; -240.000;  -66.000
436.294;  -30.700; -248.000; -229.000
436.417;   72.675; -963.000; -849.000
436.541;  -88.850; -814.000; -840.000
436.664;  -63.525; -242.000; -316.000
436.787;  -30.350;   13.000;  113.000
436.910; -115.500; -792.000; -422.000
437.034;   15.625;  142.000;  143.000
437.157;   56.050;  -11.000;    0.000
437.280;  -30.675; -392.000; -292.000
437.403;  -79.475; -982.000; -869.000
437.526;  810.450; -903.000; -865.000
437.649; 2860.125; -505.000; -332.000
437.772;  455.600; -692.000; -540.000
437.896;  118.025;  700.000;  544.000
438.019;  -93.800; -758.000; -503.000
438.142;  -82.700; -596.000; -506.000
438.265;    4.850; -639.000; -670.000
438.388;  711.850; -520.000; -410.000
438.511;  164.625; -597.000; -394.000
438.634;  -41.325; -247.000; -125.000
438.757; -126.675; -693.000; -619.000
438.880;  -10.975;  -34.000;  -57.000
439.003;  -69.150; -417.000; -437.000
439.126;  -65.225; -287.000; -167.000
439.248;  -58.375;  -98.000; -139.000
439.371;  -55.775;    9.000;  -53.000
439.494;   26.025;  510.000;  439.000
439.617;  -61.550;   65.000;  -88.000
439.740; -183.100; -968.000; -816.000
439.863; -146.750; -755.000; -595.000
439.986; -116.275; -476.000; -431.000
440.108;  -61.300; -161.000; -112.000
440.231; -152.900; -950.000; -836.000
440.354;  -44.400;  -64.000; -150.000
440.477;   51.675; -566.000; -542.000
440.599;   11.625; -200.000; -225.000
440.722; -119.375; -709.000; -586.000
440.845;   50.250;  751.000;  928.000
440.968; -104.475; -415.000; -311.000
441.090;  -69.300; -199.000;  -33.000
441.213; -172.825;-1021.000; -825.000
441.336;  -58.825; -159.000;   -5.000
441.458;  -69.625; -549.000; -396.000
441.581;  -76.050; -628.000; -629.000
441.703;  -67.575; -152.000;   13.000
441.826; -128.750; -557.000; -400.000
441.948;  -58.200;   56.000;   51.000
442.071;   23.825;  555.000;  424.000
442.193; -115.250; -531.000; -485.000
442.316;   14.925;  152.000;   97.000
442.438;   54.925; -233.000;  -10.000
442.561;   85.625;  272.000;  262.000
442.683;  690.175; -809.000; -522.000
442.806; 1439.600;   -8.000;   74.000
442.928;   55.650; -859.000; -604.000
443.051;  -74.325; -577.000; -373.000
443.173;  -78.125; -341.000; -339.000
443.295; -101.525; -263.000; -371.000
443.418;  -60.025; -321.000;  -29.000
443.540;   -3.375; -106.000;   -4.000
443.662; -108.100; -563.000; -465.000
443.785;  -24.275;  335.000;  199.000
443.907;  -96.875; -362.000; -208.000
444.029; -137.700; -767.000; -494.000
444.152; -142.125; -644.000; -554.000
444.274;  -43.375;  -18.000;  -24.000
444.396; -114.600; -461.000; -221.000
444.518; -136.425; -691.000; -454.000
444.640; -114.250; -268.000; -111.000
444.763;  -34.600;  388.000;  249.000
444.885; -115.050; -432.000; -392.000
445.007;  -33.625;   35.000;   86.000
445.129; -119.300; -610.000; -515.000
445.251; -100.525; -372.000; -439.000
445.373; -131.200; -537.000; -386.000
445.495;   -5.725;  242.000;  350.000
445.617;   47.025;  853.000;  753.000
445.739;  -76.650; -215.000;  -97.000
445.861;  -31.525; -245.000; -112.000
445.984;  -47.575; -267.000; -101.000
446.105;  258.450; -418.000; -251.000
446.227;  730.250; -176.000;  -19.000
446.349;   38.925; -358.000; -249.000
446.471;  -88.200; -615.000; -448.000
446.593;  -62.600; -316.000;   19.000
446.715;    2.650;  -67.000;   41.000
446.837;   67.250;  697.000;  832.000
446.959; -104.750; -457.000; -478.000
447.081; -134.550; -628.000; -518.000
447.203;   44.000;  862.000;  834.000
447.325;  -89.025; -270.000;   42.000
447.446;   -9.250;  286.000;  530.000
447.568; -148.375; -921.000; -803.000
447.690;  -83.475; -236.000; -245.000
447.812; -157.800; -798.000; -519.000
447.933;  -30.775;  155.000;  127.000
448.055;  -65.675; -306.000; -261.000
448.177;  160.825;   31.000;   79.000
448.299;  148.300; -935.000; -727.000
448.420;   41.250;  -25.000;  159.000
448.542;  -48.000;   -3.000;   33.000
448.664;  -34.950;  109.000;  322.000
448.785;  -43.600;  265.000;   83.000
448.907;  -79.675; -614.000; -353.000
449.028;   -0.700; -771.000; -471.000
449.150;   58.600;  492.000;  589.000
449.272; -169.000;-1044.000; -913.000
449.393;   20.425;  612.000;  694.000
449.515; -143.600; -634.000; -581.000
449.636;  -62.100; -264.000; -155.000
449.758;   91.700;  763.000;  622.000
449.879; -108.100; -498.000; -396.000
450.001;  -78.275; -149.000;  -49.000
450.122;  -47.750;  -95.000;  162.000
450.244;  -27.825;   37.000;  364.000
450.365;  -99.500; -495.000; -301.000
450.486;  -39.700;   80.000;  268.000
450.608;    8.950;  393.000;  326.000
450.729;   77.100;  578.000;  645.000
450.850;  -10.825; -574.000; -466.000
450.972;  689.325; -552.000; -389.000
451.093; 4627.175;  190.000;  588.000
451.214; 2052.775; -516.000; -337.000
451.336;  380.200;  773.000;  579.000
451.457;   49.900;  264.000;  393.000
451.578;  -47.625; -118.000;  -74.000
451.699; -120.750; -546.000; -540.000
451.821;  -85.600; -284.000;  -50.000
451.942;  -12.275;  278.000;  285.000
452.063;   28.275;  228.000;  419.000
452.184;  520.500;  -54.000;  -49.000
452.305; 1050.400;  103.000;  170.000
452.427;  130.175; -549.000; -301.000
452.548;  -21.950;   23.000;   79.000
452.669;  -51.425; -257.000;  -89.000
452.790;  -40.500;    3.000;  -18.000
452.911;    2.575;  195.000;  259.000
453.032;  -57.325; -289.000;  -60.000
453.153;  -43.150;  -29.000;   81.000
453.274;   49.725;  737.000;  868.000
453.395;  -47.350;  -51.000;  175.000
453.516;  125.325; 1317.000; 1388.000
453.637;  -62.025; -205.000; -150.000
453.758;  -57.125;   15.000;   69.000
453.879; -111.250; -462.000; -250.000
454.000;   52.975; 1086.000;  948.000
454.121; -111.725; -554.000; -326.000
454.242; -118.150; -599.000; -383.000
454.362;  -51.450;  -99.000;  114.000
454.483;  -42.300; -309.000; -229.000
454.604;   62.700;  512.000;  580.000
454.725; -130.775; -627.000; -555.000
454.846; -127.900; -474.000; -406.000
454.967;  -34.375;  230.000;  539.000
455.087;  -34.650;  179.000;  153.000
455.208;   -3.150;  554.000;  856.000
455.329;  -61.475;  -22.000;   82.000
455.450;   26.075;  473.000;  633.000
455.570;  -85.625; -234.000; -211.000
455.691;  -50.200;  201.000;  407.000
455.812; -111.250; -270.000;  -92.000
455.932;  -71.950;  107.000;  -97.000
456.053;  -84.625;   36.000;   24.000
456.173; -121.425; -433.000; -355.000
456.294; -136.750; -476.000; -303.000
456.415;  -71.025;  -73.000;   70.000
456.535;  -33.625;  297.000;  273.000
456.656;  -53.450;  132.000;  240.000
456.776;  -73.200;    3.000;  298.000
456.897;  -10.800;  308.000;  513.000
457.017;  -72.725; -153.000;   -3.000
457.138; -116.425; -402.000; -249.000
457.258;  -20.450;  263.000;  224.000
457.379;  -29.975;  509.000;  521.000
457.499;  -32.400;  443.000;  432.000
457.620; -134.625; -407.000; -231.000
457.740;  -93.275; -132.000;  -11.000
457.860;  -64.200;   87.000;   44.000
457.981;  -47.850;  132.000;  124.000
458.101;  -84.975;  -89.000;   40.000
458.221;  -21.625;  336.000;  402.000
458.342;  -63.325;   -4.000;  -37.000
458.462;   15.325;  617.000;  352.000
458.582;  -55.275; -302.000; -294.000
458.703;   -4.625;  303.000;  154.000
458.823;  -31.675;   22.000;  163.000
458.943;   25.900;  341.000;  467.000
459.063;  -30.800; 1124.000;  192.000
459.183;  -24.350;  328.000;  313.000
459.304;   11.800;  315.000;  517.000
459.424;  -57.025; -246.000;  -89.000
459.544;  303.425;  388.000;  764.000
459.664;  786.425;  499.000;  506.000
459.784;  302.125; 1004.000; 1175.000
459.904;   54.750;  867.000;  744.000
460.024;   67.100;  867.000;  684.000
460.144;    7.525;  449.000;  554.000
460.264;  -17.625;  515.000;  327.000
460.385;  -97.200; -145.000; -119.000
460.505;   21.500;  905.000;  858.000
460.625; -107.275;  -17.000;  -68.000
460.745;  -34.000;  396.000;  541.000
460.864;  -55.375;  153.000;  469.000
460.984;   12.925;  499.000;  573.000
461.104;  138.800; 1656.000; 1775.000
461.224;    3.850;  657.000;  650.000
461.344;  -23.300;  431.000;  360.000
461.464;  -37.900;  258.000;  513.000
461.584;   -9.175;  283.000;  466.000
461.704;  -53.375;   58.000;  108.000
461.824;  -63.925;  238.000;  259.000
461.943;  -38.800;  191.000;  130.000
462.063;  -72.075;    2.000;  324.000
462.183;   28.675;  639.000;  717.000
462.303;   97.625; 1678.000; 1230.000
462.422;   17.650;  781.000;  840.000
462.542;  -47.975;  271.000;  391.000
462.662;   26.025;  353.000;  380.000
462.782;  225.050;  833.000;  572.000
462.901;  469.425;  545.000;  717.000
463.021;  292.950; 1702.000; 1638.000
463.141;   -2.625;  337.000;  770.000
463.260;   -8.750;  614.000;  474.000
463.380;    9.400;  902.000;  884.000
463.499;  -40.275;  342.000;  332.000
463.619;  -36.650;  581.000;  559.000
463.738;  109.500; 1644.000;  903.000
463.858;    3.675;  657.000;  811.000
463.978;  -33.525;  542.000;  396.000
464.097;   44.450;  921.000; 1114.000
464.217;   98.925; 1196.000; 1143.000
464.336;   94.975; 1068.000; 1130.000
464.455;  -40.175;  328.000;  659.000
464.575;   42.525;  597.000;  602.000
464.694;  183.050; 1204.000; 1179.000
464.814;  119.200; 1190.000; 1138.000
464.933;   78.875; 1095.000; 1027.000
465.052;  112.525; 1412.000; 1054.000
465.172;   90.800;  922.000;  799.000
465.291;  136.150; 1376.000; 1320.000
465.410;   37.700;  462.000;  735.000
465.530;   68.100; 1355.000; 1310.000
465.649;   56.025; 1209.000; 1273.000
465.768;  119.075; 1673.000; 1508.000
465.888;   48.375;  941.000; 1174.000
466.007;   76.350; 1335.000; 1440.000
466.126;    3.300;  721.000;  641.000
466.245;   34.250; 1176.000; 1187.000
466.364;   18.700;  950.000; 1060.000
466.484;   50.300; 1024.000; 1213.000
466.603;   29.175; 1101.000; 1222.000
466.722;  126.550; 1490.000; 1769.000
466.841;   89.500; 1151.000; 1401.000
466.960;   38.950; 1069.000;  972.000
467.079;  125.275; 1971.000; 1786.000
467.198;   32.650; 1238.000; 1181.000
467.317;   93.075; 1768.000; 1162.000
467.436;   65.475; 1709.000; 1261.000
467.555;  129.550; 1796.000; 1746.000
467.674;   65.175; 1227.000; 1329.000
467.793;   54.400; 1376.000; 1374.000
467.912;   81.325; 1658.000; 1539.000
468.031;  144.325; 2038.000; 1930.000
468.150;  139.150; 1842.000; 1837.000
468.269;  200.725; 2313.000; 2090.000
468.388;  178.575; 2168.000; 2339.000
468.507;  263.125; 2884.000; 2903.000
468.626;  234.025; 2555.000; 2541.000
468.744;  139.125; 2018.000; 2174.000
468.863;  186.775; 2312.000; 2523.000
468.982;  101.950; 1503.000; 1555.000
469.101;  229.250; 2788.000; 2692.000
469.220;  153.625; 2333.000; 2176.000
469.338;  252.450; 2935.000; 3051.000
469.457;  203.700; 2719.000; 2545.000
469.576;  354.025; 3953.000; 3784.000
469.695;  241.975; 2877.000; 3066.000
469.813;  422.250; 4148.000; 4192.000
469.932;  408.625; 4255.000; 4485.000
470.051;  411.000; 4075.000; 4161.000
470.169;  821.350; 4470.000; 4338.000
470.288; 1412.400; 4700.000; 4809.000
470.406;  867.825; 5059.000; 5194.000
470.525;  634.025; 6101.000; 5787.000
470.644;  633.750; 6847.000; 6794.000
470.762;  809.950; 8397.000; 7873.000
470.881;  897.300; 8651.000; 8464.000
470.999; 1022.600; 9685.000; 9151.000
471.118; 1093.975;11174.000;10711.000

