
Integration time [ms]: 100.000
Averaging Nr. [scans]: 40
Smoothing Nr. [pixels]: 0
Data measured with spectrometer [name]: 2101012U2
Wave   ;Sample   ;Dark     ;Reference
[nm]   ;[counts] ;[counts] ;[counts] 

197.733;   46.825;  516.000;  404.000
197.879;  -70.300; -610.000; -634.000
198.025;  -58.850; -475.000; -420.000
198.171;  -65.425; -602.000; -612.000
198.317;  -23.225; -401.000; -316.000
198.463;  -69.650; -655.000; -404.000
198.609;   22.850;  181.000; -137.000
198.755;  -80.550; -644.000; -410.000
198.901;  -71.150; -505.000; -424.000
199.047;  -67.075; -615.000; -488.000
199.193;  -49.175; -230.000; -468.000
199.339;  -33.625; -222.000; -369.000
199.485;   31.175;  330.000;  271.000
199.631;   23.425;  227.000;  310.000
199.777;  -54.975; -466.000; -398.000
199.923;  -68.100; -610.000; -424.000
200.069;    3.825; -141.000;  -58.000
200.215;   61.725;  128.000;  453.000
200.361;   43.825;  243.000;  477.000
200.507;  -69.950; -600.000; -373.000
200.653;  -35.850; -371.000; -194.000
200.798;  -26.800; -215.000; -125.000
200.944;   -9.825; -146.000;  -41.000
201.090;   34.025;   61.000;  222.000
201.236;  -18.700; -116.000; -158.000
201.382;  119.975;  874.000;  903.000
201.528;    0.775;  -58.000;  -48.000
201.674;  -26.475; -386.000; -293.000
201.819;  -58.825; -540.000; -439.000
201.965;  -93.000; -699.000; -447.000
202.111;  -13.650; -273.000; -226.000
202.257;  -40.000; -250.000; -238.000
202.402;   -1.725;   13.000;  -36.000
202.548;  -21.500; -169.000; -116.000
202.694;   80.800;  410.000; -183.000
202.840;  -72.325; -603.000; -531.000
202.985;  -77.650; -681.000; -639.000
203.131; -108.100; -832.000; -666.000
203.277;  -12.400; -199.000; -262.000
203.423;  -44.775; -434.000; -520.000
203.568;  -36.425; -462.000; -237.000
203.714;  -63.850; -535.000; -542.000
203.860;  -68.325; -682.000; -641.000
204.005;   32.500;  112.000;  167.000
204.151;   73.625;  561.000;  556.000
204.296;  -36.900; -354.000; -221.000
204.442;  -70.600; -600.000; -547.000
204.588;  -73.175; -592.000; -579.000
204.733;   22.400;  178.000;  168.000
204.879; -127.950;-1018.000; -822.000
205.025;   -3.150;  -99.000;  126.000
205.170;    3.600;  -17.000;   94.000
205.316;   67.325;  438.000;  661.000
205.461;  -88.050; -698.000; -554.000
205.607;   74.275;  609.000;  665.000
205.752;  -76.175; -626.000; -551.000
205.898;  -48.600; -501.000; -391.000
206.043;  -72.625; -578.000; -506.000
206.189;  -56.100; -243.000; -285.000
206.334;   73.725;  554.000;  606.000
206.480;   75.275;  409.000;  239.000
206.625;  -80.600; -529.000; -552.000
206.771;  -62.725; -451.000; -373.000
206.916;  -20.975; -210.000; -537.000
207.062;  -77.600; -545.000; -591.000
207.207;  -53.300; -546.000; -443.000
207.353;   52.725;  185.000;  460.000
207.498;   20.500;  196.000;   85.000
207.643;  -43.800; -501.000; -370.000
207.789; -123.975;-1069.000; -910.000
207.934;  -89.650; -665.000; -713.000
208.080;  -16.175; -154.000;   66.000
208.225;  -20.175;  -22.000;  -57.000
208.370;  -69.475; -727.000; -619.000
208.516;  -67.075; -741.000; -487.000
208.661;  -24.125; -127.000;  -69.000
208.806;  -28.425; -165.000; -171.000
208.952; -102.125;-1044.000; -731.000
209.097;   69.550;  378.000;  349.000
209.242;  -50.225; -307.000; -382.000
209.387;   48.225;  392.000;  350.000
209.533;  -54.650; -321.000; -350.000
209.678;   79.150;  472.000;  543.000
209.823;  -42.775; -408.000; -310.000
209.969; -100.800; -860.000; -757.000
210.114;  -96.075; -907.000; -719.000
210.259; -111.950; -939.000; -889.000
210.404;   -9.100; -171.000;  103.000
210.549;    5.050;  108.000;    3.000
210.695;  -20.025;   -3.000;  -95.000
210.840;   38.350;   94.000;   67.000
210.985;  -50.775; -484.000; -303.000
211.130;   71.800;  268.000;  406.000
211.275;   16.800;  207.000;  199.000
211.420;  -50.100; -300.000; -289.000
211.566;  -67.550; -536.000; -489.000
211.711;   30.000;  218.000;  157.000
211.856;  -67.525; -545.000; -519.000
212.001;   -6.500;  151.000;   44.000
212.146;   31.175;  153.000;   49.000
212.291;  -21.475; -210.000; -186.000
212.436;  -26.175; -280.000;   -6.000
212.581;  -86.950; -685.000; -653.000
212.726;  -62.725; -487.000; -538.000
212.871;  -49.925; -552.000; -217.000
213.016; -138.075;-1172.000;-1029.000
213.161;   63.050;  406.000;  291.000
213.306;  -74.000; -435.000; -577.000
213.451;  -89.775; -778.000; -689.000
213.596;  -48.675; -455.000; -347.000
213.741;  -55.925; -448.000; -538.000
213.886;  -76.100; -498.000; -517.000
214.031;  -19.000; -294.000; -124.000
214.176;  -41.000; -408.000; -341.000
214.321;  -25.875; -296.000; -157.000
214.466;  -18.475; -163.000;  -43.000
214.611;   -7.475;  -61.000;  -10.000
214.756; -103.475; -948.000; -858.000
214.901;  -23.600; -388.000; -226.000
215.046; -103.750; -797.000; -825.000
215.191;   10.550;  128.000;   35.000
215.336;  -14.350; -157.000;  -19.000
215.480;  -69.150; -684.000; -505.000
215.625;   -8.850; -175.000;  -19.000
215.770;  -77.825; -757.000; -662.000
215.915;   -8.125;   -5.000;  -97.000
216.060;  -11.350; -113.000;  -21.000
216.205; -100.300; -731.000; -779.000
216.349;  -85.575; -470.000; -533.000
216.494; -129.700; -939.000; -867.000
216.639; -120.450; -823.000; -888.000
216.784;  -84.050; -577.000; -525.000
216.929;   41.425;  392.000;  281.000
217.073;   -9.950; -244.000;  -31.000
217.218;    4.125;   78.000;  -47.000
217.363;  -87.200; -656.000; -618.000
217.507;  -82.075; -623.000; -588.000
217.652; -113.950; -845.000; -874.000
217.797;  -85.425; -708.000; -659.000
217.942; -101.975; -856.000; -720.000
218.086;   68.975;  608.000;  539.000
218.231;  -15.300; -174.000;  -26.000
218.376;  -46.975; -337.000; -229.000
218.520;    6.675;  -41.000;   96.000
218.665;  -29.400; -338.000; -204.000
218.810;  -30.875; -275.000; -233.000
218.954;   18.375;  201.000;   35.000
219.099; -119.000; -713.000; -963.000
219.243;  -75.500; -589.000; -554.000
219.388;  -35.400; -264.000; -136.000
219.532;  -14.650; -116.000; -116.000
219.677;  -72.325; -564.000; -521.000
219.822;   11.350;   33.000;   89.000
219.966;   12.850;   17.000;  -99.000
220.111;  -38.025; -328.000;  -40.000
220.255;  -90.575; -797.000; -750.000
220.400;  -13.375; -180.000; -146.000
220.544;  -70.900; -516.000; -450.000
220.689;  -51.125; -422.000; -451.000
220.833;   -4.750; -123.000;  -58.000
220.978;  -52.775; -393.000; -563.000
221.122;   28.075;  319.000;  307.000
221.267; -118.625; -906.000; -837.000
221.411;  -64.800; -478.000; -394.000
221.555;    0.500; -104.000;  -23.000
221.700;  -45.375; -329.000; -222.000
221.844;   26.450;  255.000;  272.000
221.989;  -44.125; -328.000; -311.000
222.133;  -32.550; -289.000; -307.000
222.277;   12.525;    5.000;   78.000
222.422;   16.675;  227.000;  113.000
222.566;  -27.300; -381.000; -214.000
222.711;  -55.450; -414.000; -479.000
222.855;  -71.600; -643.000; -586.000
222.999;  -86.150; -642.000; -717.000
223.144;  -12.675; -195.000; -194.000
223.288;   46.350;  423.000;  251.000
223.432;   18.750;  184.000;  230.000
223.576;   21.425;  152.000;  -21.000
223.721;   49.250;  364.000;  273.000
223.865;  -47.000; -472.000; -475.000
224.009;  206.900; 1673.000; 1631.000
224.153;  -85.475; -660.000; -671.000
224.298;  -59.175; -531.000; -489.000
224.442;  -17.325;  -74.000;  -33.000
224.586;    2.550; -169.000; -106.000
224.730; -103.725; -858.000; -670.000
224.875; -105.425; -739.000; -688.000
225.019;   13.700;  102.000;  188.000
225.163;   52.950;  208.000;  341.000
225.307;   14.975;   97.000;  -91.000
225.451;   47.600;  360.000;  481.000
225.595;   10.100;  264.000;  176.000
225.739;  -15.925; -170.000;  -94.000
225.884;   -3.325;   86.000;    5.000
226.028; -113.150; -760.000; -626.000
226.172;  -41.050; -260.000; -273.000
226.316; -119.350; -941.000; -902.000
226.460;  -57.300; -645.000; -493.000
226.604;  -47.275; -406.000; -400.000
226.748;  -98.950; -836.000; -733.000
226.892;  -24.325; -227.000; -181.000
227.036;  -57.550; -537.000; -447.000
227.180;  -45.850; -551.000; -375.000
227.324;  -61.125; -561.000; -580.000
227.468; -116.300; -819.000; -717.000
227.612;    7.825;  242.000;  -28.000
227.756;  -84.250; -845.000; -698.000
227.900;   43.550;  342.000;  441.000
228.044;  -61.025; -509.000; -290.000
228.188;   54.750;  448.000;  568.000
228.332;  -79.850; -546.000; -472.000
228.476;  -24.250; -223.000; -149.000
228.620;  -21.675; -210.000; -150.000
228.764;   67.600;  431.000;  349.000
228.908;  -12.175; -155.000;   30.000
229.052;  -67.475; -615.000; -528.000
229.195;   -2.025; -172.000;   13.000
229.339;  -29.925; -235.000; -305.000
229.483;  -18.850;    5.000; -162.000
229.627;   -5.800; -156.000;  139.000
229.771;  -37.550; -218.000; -294.000
229.915;   18.650;  230.000;   79.000
230.059;  -80.100; -648.000; -663.000
230.202;  -42.225; -370.000; -317.000
230.346;   -1.725; -107.000;  107.000
230.490;  -71.800; -489.000; -521.000
230.634; -112.075; -736.000; -553.000
230.777;   71.725;  478.000;  509.000
230.921;  -55.750; -450.000; -359.000
231.065;  -33.850; -246.000; -286.000
231.209;   22.325;  261.000;  265.000
231.352;   16.250;   54.000;   40.000
231.496;   18.575;  568.000;  188.000
231.640;  -78.975; -693.000; -621.000
231.783;   70.300;  546.000;  525.000
231.927;  -46.850; -294.000; -365.000
232.071; -114.350; -962.000; -736.000
232.214; -101.900; -980.000; -764.000
232.358;  -93.900; -683.000; -599.000
232.502;    6.950;  -19.000;    7.000
232.645; -133.500;-1090.000; -927.000
232.789;  -24.375; -257.000; -218.000
232.933;  -44.100; -407.000; -224.000
233.076; -126.900;-1038.000; -897.000
233.220; -110.125; -752.000; -777.000
233.363;  -72.575; -669.000; -477.000
233.507;   57.600;  371.000;  129.000
233.650;  -94.600; -764.000; -834.000
233.794;   51.525;  438.000;  461.000
233.938;  -62.650; -530.000; -362.000
234.081;   -7.225;  -93.000;   31.000
234.225;  -72.825; -631.000; -539.000
234.368; -111.325; -773.000; -723.000
234.512;  -54.500; -385.000; -299.000
234.655; -102.600; -582.000; -555.000
234.798;  -74.200; -493.000; -466.000
234.942; -134.675; -884.000;-1002.000
235.085;  -73.775; -651.000; -443.000
235.229;  -80.400; -405.000; -410.000
235.372;  -53.950; -247.000; -191.000
235.516;  -54.625; -397.000; -321.000
235.659;   16.500;   92.000;  121.000
235.802;   -8.125;  -38.000;  -22.000
235.946;   16.675;  335.000;  215.000
236.089;   12.825;  126.000;  250.000
236.233;   41.350;  275.000;  298.000
236.376;  -38.975; -235.000; -378.000
236.519;  -46.225; -297.000; -319.000
236.663;  -26.675; -215.000; -117.000
236.806; -133.825;-1029.000; -999.000
236.949;   73.575;  543.000;  431.000
237.092;   63.850;  412.000;  391.000
237.236;  -81.300; -589.000; -502.000
237.379;   61.200;  352.000;  428.000
237.522; -125.000; -879.000; -768.000
237.666;  -11.425; -271.000;   18.000
237.809; -127.800; -851.000; -823.000
237.952;   22.325;  469.000;  271.000
238.095;  -53.000; -447.000; -442.000
238.238;   64.875;  688.000;  700.000
238.382;   -2.175;  166.000;  103.000
238.525;  -66.925; -598.000; -511.000
238.668; -120.975;-1060.000; -985.000
238.811;  -75.750; -638.000; -643.000
238.954;  -58.950; -483.000; -334.000
239.097;   93.500;  617.000;  664.000
239.241;   23.300;  394.000;  326.000
239.384;  -32.325; -254.000; -214.000
239.527;  -61.025; -424.000; -224.000
239.670; -164.900; -994.000;-1091.000
239.813; -108.850; -696.000; -658.000
239.956;   71.300;  579.000;  473.000
240.099; -107.325; -778.000; -725.000
240.242;   61.875;  428.000;  432.000
240.385;   45.450;  466.000;  450.000
240.528;  -81.825; -706.000; -473.000
240.671;   29.775;  189.000;  134.000
240.814;  -47.625; -441.000; -158.000
240.957;  -95.575; -767.000; -578.000
241.100;  -91.125; -779.000; -755.000
241.243; -141.500;-1234.000; -893.000
241.386;  -63.725; -508.000; -379.000
241.529;  -86.525; -735.000; -547.000
241.672;  -66.575; -566.000; -495.000
241.815; -118.225; -832.000; -808.000
241.958;  -20.325; -125.000; -182.000
242.101;  -72.500; -545.000; -390.000
242.244;  -44.175; -270.000; -325.000
242.387;  -43.225; -304.000; -246.000
242.530;   46.075;  470.000;  134.000
242.673;  -48.900; -381.000; -309.000
242.815; -133.100; -925.000; -899.000
242.958;  -71.300; -482.000; -381.000
243.101;    7.825;  132.000;  187.000
243.244;  -75.800; -564.000; -521.000
243.387;  -44.325; -313.000; -316.000
243.530;  -99.275; -657.000; -674.000
243.672;    1.750;   43.000;  -92.000
243.815;  -47.125; -355.000; -283.000
243.958;  -12.275;   98.000;  -26.000
244.101;   11.625;   59.000;  -16.000
244.243;  -15.700;  -47.000;  101.000
244.386; -117.950; -761.000; -630.000
244.529;   -9.350; -132.000; -139.000
244.672; -156.625;-1154.000; -951.000
244.814;  -83.975; -621.000; -794.000
244.957;  -39.275; -380.000; -304.000
245.100;  -77.000; -489.000; -489.000
245.242;  -56.450; -387.000; -374.000
245.385;   -7.550;  -59.000;  -39.000
245.528; -113.975; -871.000; -705.000
245.670;   91.675;  612.000;  634.000
245.813;  -89.350; -599.000; -547.000
245.956;  -42.025; -324.000; -275.000
246.098;  -68.450; -508.000; -650.000
246.241;   -5.275;  194.000;   48.000
246.383;  -25.425; -119.000;  -73.000
246.526;  -74.025; -454.000; -525.000
246.669; -117.725; -889.000; -780.000
246.811;   13.200;  172.000;   -1.000
246.954;  -65.625; -512.000; -426.000
247.096;  -29.250;  -84.000;   -6.000
247.239;  -77.200; -482.000; -445.000
247.381;  -72.225; -647.000; -488.000
247.524;   80.250;  645.000;  679.000
247.666;  -10.675;   58.000;   11.000
247.809; -108.900; -887.000; -691.000
247.951;  -22.175;  -75.000;  138.000
248.094;   15.750;  432.000;  308.000
248.236; -167.025;-1262.000;-1238.000
248.378;   -1.450; -356.000;  -81.000
248.521;  -25.675; -334.000; -337.000
248.663;  -41.550; -236.000; -267.000
248.806;  -19.175; -300.000; -266.000
248.948; -102.475; -886.000; -763.000
249.090;  -39.800; -428.000; -398.000
249.233;  -53.300; -344.000; -381.000
249.375;  -65.525; -474.000; -451.000
249.518;  -30.275;  -83.000; -133.000
249.660;   -7.725; -103.000;    3.000
249.802; -171.725;-1303.000;-1189.000
249.945;  -77.225; -612.000; -540.000
250.087;  -98.575; -834.000; -768.000
250.229;  -55.375; -362.000; -480.000
250.371;  -62.725; -494.000; -439.000
250.514;  -50.400; -310.000; -244.000
250.656;  -56.725;   69.000;  102.000
250.798; -117.875; -849.000; -800.000
250.940;  -58.000; -322.000; -322.000
251.083;  -38.475; -335.000; -111.000
251.225;   60.850;  338.000;  310.000
251.367;  -37.075; -274.000; -373.000
251.509;  -23.400; -265.000; -210.000
251.651; -104.475; -731.000; -671.000
251.794;   55.100;  538.000;  632.000
251.936; -112.675; -821.000; -747.000
252.078;  -72.675; -540.000; -461.000
252.220;  -73.400; -645.000; -477.000
252.362;   80.250;  344.000;  462.000
252.504;  -80.250; -677.000; -584.000
252.646; -107.250; -875.000; -722.000
252.788;   -4.375;   14.000; -128.000
252.931;  -51.825; -257.000; -253.000
253.073;  -56.300; -376.000; -317.000
253.215;    0.225;  141.000;  122.000
253.357;  -19.800;   82.000; -153.000
253.499;  -44.525; -374.000; -234.000
253.641;  -92.825; -749.000; -594.000
253.783;  -88.975; -609.000; -527.000
253.925;  -93.900; -586.000; -591.000
254.067;  -99.775; -744.000; -667.000
254.209;  -24.500; -391.000; -259.000
254.351; -138.650; -865.000; -883.000
254.493;  -54.625; -441.000; -417.000
254.635; -112.000; -936.000; -818.000
254.777; -101.675; -752.000; -687.000
254.918;  -56.050; -512.000; -430.000
255.060;  -43.625; -551.000; -395.000
255.202;  -55.175; -473.000; -261.000
255.344;  -88.600; -658.000; -455.000
255.486;  -84.200; -471.000; -406.000
255.628; -110.325; -780.000; -781.000
255.770;  -79.025; -676.000; -536.000
255.912;  -61.025; -559.000; -468.000
256.053;  -89.700; -730.000; -508.000
256.195;  149.650; 1008.000;  903.000
256.337;  -98.425; -861.000; -595.000
256.479;   61.975;  532.000;  416.000
256.621;  -34.950; -394.000; -212.000
256.762;  -86.050; -789.000; -742.000
256.904;   46.250;  485.000;  487.000
257.046;  -43.225; -381.000; -271.000
257.188;  -48.475; -351.000; -264.000
257.329;  -74.025; -525.000; -464.000
257.471; -107.225; -939.000; -807.000
257.613;  -80.550; -584.000; -498.000
257.755; -141.175;-1073.000; -982.000
257.896;   25.925;  286.000;  392.000
258.038;  -71.600; -403.000; -352.000
258.180;  -35.725; -354.000; -279.000
258.321;  -95.725; -581.000; -457.000
258.463;  -21.550;  -71.000;  133.000
258.605;  -71.300; -562.000; -570.000
258.746;  -99.400; -886.000; -772.000
258.888; -156.100;-1026.000;-1020.000
259.029;   24.125;  121.000;   -8.000
259.171;  -88.550; -614.000; -550.000
259.313;  -19.225;  -49.000;  -47.000
259.454;  -65.375; -536.000; -414.000
259.596;  -57.775; -483.000; -390.000
259.737;  -73.525; -590.000; -474.000
259.879;   25.575;  217.000;  311.000
260.020;   92.000;  901.000;  636.000
260.162;  -33.675; -146.000; -253.000
260.303; -105.700; -768.000; -687.000
260.445;  -92.875; -609.000; -613.000
260.586;   46.975;  392.000;  157.000
260.728;  -49.275; -360.000; -248.000
260.869; -112.725; -350.000; -343.000
261.011;   70.600;  706.000;  537.000
261.152;  -62.375; -479.000; -319.000
261.293;  -89.650; -576.000; -595.000
261.435;  -32.675; -219.000; -184.000
261.576;  -53.750; -455.000; -325.000
261.718;   36.700;  420.000;  470.000
261.859; -132.625; -940.000; -949.000
262.000; -125.925; -951.000;-1016.000
262.142;  -20.475;  -52.000;  -60.000
262.283;  -98.475; -808.000; -691.000
262.424; -106.375; -666.000; -625.000
262.566; -157.575;-1161.000; -983.000
262.707; -107.175; -840.000; -830.000
262.848; -125.025; -769.000; -726.000
262.990;  -61.300; -362.000; -345.000
263.131;   82.450;  650.000;  681.000
263.272;   -7.700;  -61.000;  -41.000
263.413;  -90.150; -589.000; -561.000
263.555;  -66.025; -669.000; -143.000
263.696;  -86.325; -550.000; -641.000
263.837;  -65.375; -449.000; -551.000
263.978;   -0.925;   -5.000;  -77.000
264.119;  -51.675; -283.000; -264.000
264.261;  -99.225; -847.000; -630.000
264.402;    0.575;   33.000;   40.000
264.543;  -82.100; -509.000; -524.000
264.684;  -21.225;   61.000;  -50.000
264.825;  -70.825; -816.000; -538.000
264.966;  -13.100;  -84.000;  -67.000
265.107; -102.450; -646.000; -670.000
265.248; -120.925; -825.000; -812.000
265.390;  -27.825;  152.000;   -9.000
265.531;  -36.650; -238.000; -107.000
265.672;  -75.275; -557.000; -630.000
265.813;   60.050;  563.000;  439.000
265.954; -126.175; -959.000; -940.000
266.095;   -7.775; -372.000; -322.000
266.236;  -99.600; -686.000; -548.000
266.377;  -42.775; -243.000; -297.000
266.518;  -76.525; -619.000; -547.000
266.659;   35.775;  170.000;  268.000
266.800;   12.900;   83.000;   85.000
266.941;  -71.325; -487.000; -478.000
267.082;   19.725;  354.000;   99.000
267.223;  -51.200; -344.000; -273.000
267.364; -122.875; -892.000; -686.000
267.504;  -12.500;    3.000;  135.000
267.645;   11.450;  160.000;   67.000
267.786;  -37.450; -147.000;  -86.000
267.927;  -71.275; -473.000; -379.000
268.068;  -20.650; -186.000;  -61.000
268.209;  -49.900; -175.000; -413.000
268.350;  -61.300; -388.000; -532.000
268.490;  -82.200; -648.000; -521.000
268.631;   28.000;  127.000;  225.000
268.772; -111.175; -874.000; -647.000
268.913;  -52.525; -328.000; -476.000
269.054;  -13.650; -117.000;   12.000
269.194;  -58.650; -418.000; -402.000
269.335; -166.775;-1137.000;-1074.000
269.476;  -34.400;   33.000;  -35.000
269.617;  -43.175; -347.000; -392.000
269.757;  -96.025; -713.000; -646.000
269.898; -104.550; -856.000; -613.000
270.039;  -60.350; -415.000; -405.000
270.180; -136.025; -952.000; -816.000
270.320;  -33.150; -190.000; -250.000
270.461;  -46.725; -277.000; -249.000
270.602;   -8.075; -186.000; -156.000
270.742; -110.925; -868.000; -943.000
270.883;  -73.375; -442.000; -390.000
271.023;  -52.550; -358.000; -357.000
271.164;  -71.700; -607.000; -528.000
271.305; -103.475; -666.000; -654.000
271.445;  -91.125; -722.000; -683.000
271.586;  -65.175; -462.000; -283.000
271.726;  -50.550; -397.000; -322.000
271.867;  -61.600; -594.000; -534.000
272.008;  149.975; -473.000; -285.000
272.148;  121.925;  462.000;  468.000
272.289;    1.225; -113.000; -181.000
272.429;   18.675;   19.000;  185.000
272.570;  -99.900; -633.000; -737.000
272.710;  -88.200; -825.000; -775.000
272.851;  -19.800;  113.000; -130.000
272.991; -152.125;-1173.000;-1077.000
273.131;  -78.625; -419.000; -459.000
273.272; -101.425; -683.000; -723.000
273.412;   -9.400; -143.000;  -31.000
273.553;  -56.600; -488.000; -507.000
273.693;  115.000;  913.000;  858.000
273.834;  -88.650; -894.000; -692.000
273.974;  -80.350; -664.000; -615.000
274.114;  -98.650; -772.000; -560.000
274.255;   60.775;  414.000;  373.000
274.395;   -3.025; -180.000; -125.000
274.535;   21.225;  199.000;  350.000
274.676;   25.300;  225.000;   94.000
274.816;   -3.275;  110.000;   34.000
274.956;  -82.650; -624.000; -690.000
275.097;  -69.100;-1014.000; -922.000
275.237; -103.300; -913.000; -803.000
275.377; -101.725; -778.000; -689.000
275.517; -136.125; -878.000; -937.000
275.658;  -64.625; -590.000; -555.000
275.798;  -77.150; -606.000; -413.000
275.938;   13.075;  215.000;  323.000
276.078; -100.600; -626.000; -395.000
276.218;    0.225;   99.000;  104.000
276.359; -126.900;-1026.000;-1024.000
276.499;  -73.125; -605.000; -446.000
276.639;  -18.800; -305.000; -151.000
276.779;  -56.675; -475.000; -357.000
276.919;  -88.425; -783.000; -624.000
277.059;  -16.700; -261.000; -212.000
277.199;  -41.625; -357.000; -259.000
277.340;   44.875;  287.000;  175.000
277.480; -119.350; -840.000; -693.000
277.620;   15.025;  192.000;   16.000
277.760; -196.600;-1533.000;-1294.000
277.900;   -2.500;  113.000;   33.000
278.040;   11.400;  137.000;  159.000
278.180;   30.750;  270.000;  170.000
278.320;   -8.350;   21.000;   56.000
278.460;  -68.175; -443.000; -469.000
278.600;  -94.300; -708.000; -598.000
278.740;   30.625;  448.000;  224.000
278.880;  -76.050; -768.000; -791.000
279.020;  -23.350; -194.000; -144.000
279.160;  -85.550; -672.000; -595.000
279.300; -119.525; -926.000; -873.000
279.440;  -86.400; -709.000; -622.000
279.579;  -24.025;-1014.000; -929.000
279.719;  -43.100; -410.000; -394.000
279.859;   63.325;   -4.000;   41.000
279.999;   17.525; -208.000;  101.000
280.139;  -29.850; -435.000; -387.000
280.279;  -71.625; -708.000; -745.000
280.419;  -25.900; -229.000; -147.000
280.559;  -36.225; -259.000; -180.000
280.698;  -87.600; -790.000; -639.000
280.838;  -99.550; -778.000; -800.000
280.978;  -98.400; -846.000; -790.000
281.118; -116.250; -811.000; -704.000
281.257;   -4.900;   24.000;    6.000
281.397; -121.275;-1094.000; -960.000
281.537; -100.025; -599.000; -712.000
281.677;  -10.025; -150.000; -101.000
281.816;  -81.325; -700.000; -630.000
281.956;  -34.450; -193.000; -257.000
282.096;  -70.850; -539.000; -396.000
282.235; -105.000; -672.000; -638.000
282.375;  -27.025; -243.000;  -98.000
282.515;  -93.375; -715.000; -707.000
282.654;    6.525;   29.000;  106.000
282.794;   30.400;  388.000;  244.000
282.934;  -43.325; -530.000; -491.000
283.073; -118.775;-1030.000; -857.000
283.213;  -66.000; -460.000; -467.000
283.353;  -35.475; -408.000; -349.000
283.492;  -31.075; -264.000; -296.000
283.632;  -48.700; -254.000; -168.000
283.771;  -96.425; -859.000; -730.000
283.911;  -54.475; -369.000; -260.000
284.050; -112.075; -794.000; -748.000
284.190; -162.475;-1229.000;-1096.000
284.329; -156.100;-1055.000; -964.000
284.469;  -72.550; -516.000; -591.000
284.608;  -64.575; -559.000; -598.000
284.748;  -86.900; -614.000; -570.000
284.887;  -11.550;  -87.000;  -20.000
285.027; -126.500; -844.000; -892.000
285.166;  -36.075; -192.000; -249.000
285.306;    0.200; -116.000;  -33.000
285.445;  -51.775; -229.000; -343.000
285.584;  -98.250; -630.000; -494.000
285.724;  -57.175; -282.000; -322.000
285.863; -122.450; -857.000; -507.000
286.002;  -48.750; -366.000; -276.000
286.142; -103.175; -715.000; -622.000
286.281;  -66.000; -525.000; -493.000
286.420;  -82.525; -554.000; -417.000
286.560;   84.350;  653.000;  623.000
286.699; -136.125; -958.000; -912.000
286.838;  -82.150; -590.000; -591.000
286.978;  -81.825; -533.000; -537.000
287.117; -149.175;-1085.000; -950.000
287.256;  -33.075; -228.000; -211.000
287.395;  -49.875; -197.000; -378.000
287.535;  -66.500; -370.000; -298.000
287.674;  -79.650; -509.000; -484.000
287.813;   44.825;  661.000;  533.000
287.952; -127.000;-1010.000; -871.000
288.091; -148.250;-1049.000; -915.000
288.231;   -4.225;   13.000;   15.000
288.370; -167.175;-1217.000;-1200.000
288.509;  -97.775; -728.000; -645.000
288.648;  -82.000; -770.000; -548.000
288.787;  -39.825; -243.000;  -87.000
288.926;  -67.700; -454.000; -475.000
289.065;   98.100;  859.000;  672.000
289.204;  -55.575; -377.000; -217.000
289.344;  -84.800; -791.000; -690.000
289.483;   19.400;  416.000;  304.000
289.622;  -31.775; -291.000; -149.000
289.761;  -12.400; -309.000; -166.000
289.900;  -99.675; -785.000; -626.000
290.039;  -15.350;  -12.000;  -95.000
290.178;  -32.550; -274.000; -180.000
290.317;  -77.400; -618.000; -479.000
290.456;  -67.400; -463.000; -451.000
290.595; -144.200; -961.000; -833.000
290.734; -137.825; -904.000; -891.000
290.873;  -66.475; -456.000; -420.000
291.011; -126.850; -833.000; -843.000
291.150; -109.825; -770.000; -682.000
291.289;  -38.200; -343.000; -110.000
291.428;  -98.650; -599.000; -480.000
291.567;  -59.625; -370.000; -442.000
291.706;  -13.100;  109.000;  154.000
291.845;  -97.500; -597.000; -505.000
291.984; -163.750;-1234.000;-1061.000
292.122;   72.200;  602.000;  582.000
292.261;   40.725;  620.000;  463.000
292.400;   -2.300; -144.000;  211.000
292.539; -116.975; -959.000; -813.000
292.678;  -29.600; -325.000; -300.000
292.816; -153.525;-1136.000; -965.000
292.955;  -98.325; -844.000; -684.000
293.094;  -40.150; -173.000; -337.000
293.233;  -70.500; -556.000; -400.000
293.371;  -36.350; -225.000;  -84.000
293.510; -119.450; -866.000; -780.000
293.649; -127.125; -959.000; -924.000
293.787;  -84.875;-1083.000;-1012.000
293.926;   -3.200; -113.000;  -32.000
294.065;  -47.250; -379.000; -290.000
294.203;   49.225;  298.000;  406.000
294.342;   19.325;   74.000;  156.000
294.481; 5436.125;51180.000; -836.000
294.619;  -35.450; -425.000; -582.000
294.758; -153.625;-1230.000;-1137.000
294.896;   42.950; -125.000;    5.000
295.035; -124.850;-1040.000;-1006.000
295.174; -139.900;-1082.000; -954.000
295.312;  -40.650; -323.000; -203.000
295.451;  -24.700; -307.000; -428.000
295.589;  -42.150; -389.000; -518.000
295.728;   16.425; -292.000; -165.000
295.866;   -3.350;  -36.000;  -51.000
296.005;  -62.700; -584.000; -341.000
296.143;  -66.975; -558.000; -596.000
296.282; -107.475; -957.000; -881.000
296.420;  -96.400; -657.000; -557.000
296.559;  -86.750; -892.000; -633.000
296.697;   16.550; -847.000; -665.000
296.835;   10.575;-1141.000;-1002.000
296.974;   45.975;  -23.000;   39.000
297.112;   -9.475; -443.000; -504.000
297.251;  -70.775; -815.000; -755.000
297.389;   51.225; -576.000; -438.000
297.527;   32.050; -145.000;  -83.000
297.666;  -57.075; -486.000; -438.000
297.804;  -43.175; -404.000; -264.000
297.942;   -2.075; -136.000; -161.000
298.081;   -5.025; -183.000;   63.000
298.219;   37.575;  -17.000;  -19.000
298.357;   37.875; -144.000;  -71.000
298.495;   -5.000; -810.000; -812.000
298.634;   45.075;  245.000;  219.000
298.772;   16.625; -220.000; -338.000
298.910;  -55.125; -309.000; -182.000
299.048;  -29.600; -130.000; -153.000
299.187;  -35.375; -350.000; -250.000
299.325;    3.675;   52.000;  122.000
299.463;   24.725; -389.000; -299.000
299.601;   69.725; -327.000; -271.000
299.739; -122.250; -908.000; -883.000
299.877;  -93.175; -791.000; -703.000
300.016;  -58.750;-1095.000; -935.000
300.154;  115.975;  -19.000; -161.000
300.292;   27.025; -428.000; -348.000
300.430;   14.000; -408.000; -291.000
300.568; -113.000; -940.000; -874.000
300.706;  -62.400; -366.000; -469.000
300.844;  -85.025;-1108.000; -979.000
300.982;   98.775;  246.000;  282.000
301.120; -108.325; -965.000; -866.000
301.258;  -76.700; -812.000; -705.000
301.396;   28.975;  104.000;  -41.000
301.534;   55.875; -218.000; -293.000
301.672;  -30.475; -664.000; -521.000
301.810;   -4.150; -613.000; -545.000
301.948;   88.750;   53.000;  149.000
302.086;  536.825; -250.000;  -32.000
302.224;  787.325; -610.000; -585.000
302.362;    8.500; -558.000; -622.000
302.500;  -40.700; -923.000; -893.000
302.638;   74.800;  128.000;  245.000
302.776;   -3.900; -352.000; -408.000
302.913;   34.350;  447.000;  236.000
303.051;   -9.500;  -86.000;  -23.000
303.189;   31.025;   90.000;  118.000
303.327;  -46.175; -341.000; -256.000
303.465;  -99.850; -832.000; -588.000
303.603;  -90.900; -805.000; -604.000
303.740;   84.575;  417.000;  241.000
303.878;   -5.450; -800.000; -759.000
304.016; -102.675; -915.000; -790.000
304.154; -117.700;-1123.000;-1152.000
304.291;  -49.675; -505.000; -554.000
304.429;   -2.775;  102.000;   74.000
304.567; -133.050; -908.000; -893.000
304.705;  -65.900; -408.000; -515.000
304.842;   69.725; -616.000; -540.000
304.980;   38.400;  215.000;   35.000
305.118;   18.500; -367.000; -365.000
305.255;  -88.750; -945.000; -927.000
305.393;   50.300;  178.000;  239.000
305.531; -103.400;-1173.000; -956.000
305.668;  -65.875; -663.000; -582.000
305.806;   97.225; -358.000; -439.000
305.943;   67.350; -629.000; -637.000
306.081;   41.625; -378.000; -267.000
306.219;  -99.325; -863.000; -748.000
306.356;    7.400;  158.000;   27.000
306.494;  101.400;  981.000;  761.000
306.631;  -15.900;  -11.000;  -55.000
306.769;  -21.100; -613.000; -485.000
306.906;  -28.075; -284.000; -258.000
307.044;  -68.075; -473.000; -488.000
307.181;  -71.100; -410.000; -332.000
307.319;   -0.375;  112.000;   87.000
307.456; -173.325;-1191.000;-1153.000
307.594; -102.500; -980.000; -727.000
307.731;  -13.100; -371.000; -164.000
307.868;  -11.000;  -15.000;   20.000
308.006; -144.975; -961.000; -847.000
308.143;  -71.750; -618.000; -330.000
308.281;  137.050;  -37.000; -254.000
308.418;  -33.550; -748.000; -640.000
308.555;  -64.775; -400.000; -250.000
308.693;  -81.875; -577.000; -573.000
308.830;  -99.150; -712.000; -657.000
308.967;  -18.050; -215.000;  -95.000
309.105;  -61.325; -507.000; -396.000
309.242;   13.400; -468.000; -367.000
309.379;  259.625; -577.000; -655.000
309.517;  -82.475; -936.000; -948.000
309.654; -101.400; -910.000; -734.000
309.791;  -79.100; -662.000; -580.000
309.928; -116.550; -977.000; -914.000
310.065;  164.775;  819.000;  697.000
310.203;  -25.375; -825.000; -850.000
310.340;  -37.950; -465.000; -321.000
310.477;  -88.975; -412.000; -516.000
310.614;  -77.100; -383.000; -473.000
310.751;  -71.700; -427.000; -518.000
310.889;  -41.125;    1.000;   11.000
311.026; -153.950;-1161.000; -939.000
311.163;  -58.600; -386.000; -380.000
311.300;  -85.075; -512.000; -479.000
311.437;  -87.325; -658.000; -619.000
311.574; -162.450;-1226.000; -985.000
311.711;  -68.575; -595.000; -433.000
311.848;  -42.075; -380.000; -388.000
311.985;   -2.125;  270.000;   93.000
312.122; -119.975; -932.000; -762.000
312.259; -137.850; -941.000; -994.000
312.396;  -76.450; -508.000; -551.000
312.533; -102.550; -812.000; -790.000
312.670; -149.075;-1070.000; -898.000
312.807;  -45.825; -352.000; -367.000
312.944;  -70.900; -513.000; -611.000
313.081;  -36.425; -150.000; -415.000
313.218; -103.650;-1111.000; -867.000
313.355;  -10.550; -531.000; -449.000
313.492;  -10.875; -455.000; -292.000
313.629;  115.725;  815.000;  735.000
313.766; -156.875;-1176.000;-1008.000
313.902;  -10.450; -186.000;   21.000
314.039;  -48.925; -372.000; -289.000
314.176;   20.450;  286.000;  192.000
314.313;  -80.875; -569.000; -473.000
314.450;  -78.675; -788.000; -684.000
314.587;  -69.475; -468.000; -480.000
314.723;  -16.150;  -78.000;  130.000
314.860;   20.425;  318.000;  332.000
314.997;   13.875;  223.000;  142.000
315.134;  -33.475; -385.000; -368.000
315.270;  -36.025; -480.000; -496.000
315.407; -124.200;-1094.000; -967.000
315.544;  -62.925; -657.000; -538.000
315.681;  -57.900; -681.000; -565.000
315.817;   12.075; -133.000; -176.000
315.954;    0.975; -613.000; -392.000
316.091; -139.400;-1045.000;-1023.000
316.227;  -31.650;  -71.000; -179.000
316.364;    0.400;   23.000;    6.000
316.500;  -42.325; -113.000; -300.000
316.637;  -41.975; -181.000; -302.000
316.774; -104.900; -625.000; -358.000
316.910;  -91.025; -598.000; -629.000
317.047;  -72.975; -487.000; -351.000
317.183;  -60.525; -435.000; -566.000
317.320;  -11.200; -367.000; -321.000
317.456;  -80.650; -733.000; -805.000
317.593; -102.900; -598.000; -641.000
317.729;   -4.075;  168.000;  -67.000
317.866; -195.725;-1434.000;-1285.000
318.002; -103.700; -708.000; -948.000
318.139; -111.500; -883.000; -867.000
318.275; -115.950;-1003.000; -738.000
318.412;  -63.400; -517.000; -336.000
318.548;  -42.850; -751.000; -720.000
318.685; -106.300; -985.000; -888.000
318.821; -106.425; -762.000; -735.000
318.957;  -12.175;   34.000;  -23.000
319.094;   38.650;  297.000;  154.000
319.230;  -62.100; -756.000; -742.000
319.367;  100.025; -471.000; -520.000
319.503;   22.150; -538.000; -436.000
319.639; -105.475; -877.000; -793.000
319.775;  -67.425; -750.000; -685.000
319.912;  -71.500; -424.000; -519.000
320.048;  -87.875;-1184.000;-1184.000
320.184;   71.075;   59.000;   70.000
320.321;  -72.050; -497.000; -467.000
320.457;   64.625;  475.000;  662.000
320.593;  -62.300; -375.000; -382.000
320.729; -103.525; -732.000; -734.000
320.866;  -60.550; -577.000; -635.000
321.002;  -89.250; -759.000; -809.000
321.138;  -21.900; -135.000; -211.000
321.274;   56.925; -148.000; -115.000
321.410;  -38.225; -585.000; -353.000
321.546;  -53.650;-1011.000; -911.000
321.683;   46.325;  400.000;  185.000
321.819;  -19.775;  -48.000; -117.000
321.955; -119.700; -743.000; -722.000
322.091;  -55.100; -585.000; -540.000
322.227;  -22.900; -382.000; -202.000
322.363;  -33.550; -320.000; -215.000
322.499;  -48.825; -343.000; -331.000
322.635;  126.025;  636.000;  443.000
322.771;   25.175; -139.000;   12.000
322.907;   69.550;  129.000;  327.000
323.043;  -37.575; -115.000; -206.000
323.179;  -61.650; -394.000; -363.000
323.315;   -6.775; -401.000; -371.000
323.451;   61.550; -328.000; -236.000
323.587;   70.100;  -60.000;  -77.000
323.723;   -6.225; -682.000; -601.000
323.859;  -15.000; -258.000;  -76.000
323.995;  -40.550; -467.000; -409.000
324.131; -123.650; -967.000; -892.000
324.267;  -56.175; -254.000; -276.000
324.402; -124.950; -960.000; -983.000
324.538;  -27.700; -279.000; -104.000
324.674;   22.775;  164.000;   77.000
324.810;   88.800;  226.000;  308.000
324.946;   -8.075; -810.000; -658.000
325.082;  -78.325; -568.000; -475.000
325.217;  -13.850;  -62.000;   16.000
325.353; -111.250; -764.000; -659.000
325.489;  -89.250; -540.000; -506.000
325.625;  -85.075; -579.000; -525.000
325.760;   56.100;  517.000;  376.000
325.896;  -29.125; -515.000; -702.000
326.032;  -58.025; -403.000; -352.000
326.168;  -70.925; -462.000; -369.000
326.303;  -68.600; -352.000; -461.000
326.439;  -24.925; -336.000; -276.000
326.575;  -18.125; -190.000;  -29.000
326.710;  -27.300; -156.000;  -30.000
326.846;   -4.525;  146.000;  103.000
326.982; -108.900; -530.000; -548.000
327.117;  -67.600; -481.000; -442.000
327.253;  -90.275; -745.000; -742.000
327.388; -148.175;-1137.000;-1153.000
327.524;  -71.900; -811.000; -578.000
327.659;  -25.025;  -58.000;  -22.000
327.795;   -9.550;   69.000;   45.000
327.931;  -80.750; -723.000; -499.000
328.066;  -45.850; -417.000; -276.000
328.202;  -31.575;   12.000; -129.000
328.337;   97.525;  957.000;  713.000
328.473;   29.500;  -12.000;  -74.000
328.608;  -35.475; -256.000; -267.000
328.743;  -90.725; -799.000; -664.000
328.879;   10.425;  214.000;  114.000
329.014;  -45.375; -102.000; -122.000
329.150;  -84.325; -358.000; -483.000
329.285;  -82.600; -465.000; -466.000
329.421;  -52.200; -548.000; -246.000
329.556;  -25.325;  -36.000;   85.000
329.691; -100.500; -633.000; -615.000
329.827;  -90.425; -626.000; -480.000
329.962;  -48.525;  131.000; -301.000
330.097;  -80.075; -673.000; -585.000
330.233;  -67.750; -410.000; -223.000
330.368; -124.400; -839.000; -628.000
330.503;  -16.200;    3.000;   98.000
330.638;    6.475;  -93.000; -125.000
330.774;  -74.125; -609.000; -530.000
330.909;  -52.275; -434.000; -244.000
331.044; -103.425; -714.000; -708.000
331.179; -168.850;-1217.000;-1109.000
331.315;    5.425;   77.000;   20.000
331.450;    8.675;  157.000;  285.000
331.585; -102.050; -805.000; -706.000
331.720;  -79.175; -510.000; -460.000
331.855;  -22.425;  -35.000; -102.000
331.990;  264.325;   62.000;  138.000
332.126;  132.100; -110.000;   71.000
332.261;  -22.500; -379.000; -265.000
332.396;   -6.975; -135.000; -242.000
332.531;  -87.275;-1074.000;-1031.000
332.666;   26.250; -519.000; -363.000
332.801;  -91.600; -726.000; -807.000
332.936;  -29.050; -192.000; -122.000
333.071; -155.300; -870.000; -817.000
333.206;    7.625;  307.000;  379.000
333.341;   21.550;  344.000;  418.000
333.476;  -93.475; -627.000; -623.000
333.611;  -42.250; -251.000; -173.000
333.746;  -52.325; -381.000; -464.000
333.881; -125.050; -973.000; -935.000
334.016; -128.950; -936.000; -917.000
334.151; -128.900; -746.000; -702.000
334.286;    6.150;  152.000;  186.000
334.421;  -35.675; -125.000; -178.000
334.556;  -96.200; -611.000; -567.000
334.690;  -99.475; -631.000; -577.000
334.825;   40.350;  381.000;   83.000
334.960;  -63.350; -285.000; -413.000
335.095;   -2.875;  135.000;  -91.000
335.230;  -96.050; -722.000; -738.000
335.365; -150.050;-1084.000; -990.000
335.499; -131.200;-1108.000;-1037.000
335.634;   17.350;    9.000;  534.000
335.769; -114.850; -755.000; -720.000
335.904;  -74.825; -603.000; -561.000
336.038;  -67.275; -735.000; -657.000
336.173; -128.425;-1206.000;-1194.000
336.308;   -4.775; -116.000; -189.000
336.443;   16.225; -544.000; -634.000
336.577;  -75.600; -936.000; -787.000
336.712;   42.775;   -4.000;  -12.000
336.847;  -37.450; -724.000; -607.000
336.981;   35.550; -272.000; -208.000
337.116;  251.550;  615.000;  501.000
337.250;  115.850; -434.000; -421.000
337.385;  280.950; -297.000; -208.000
337.520;   83.850; -632.000; -603.000
337.654;  -40.100; -215.000; -126.000
337.789; -138.175; -989.000; -933.000
337.923;  -33.025; -104.000; -205.000
338.058;  -95.600; -673.000; -738.000
338.192;  -40.825; -611.000; -488.000
338.327;  -19.000;  -18.000; -155.000
338.461;  -87.700; -299.000; -469.000
338.596;  -96.850; -780.000; -638.000
338.730;  -93.125; -767.000; -803.000
338.865;   93.425;  -46.000; -140.000
338.999;  -48.350; -846.000; -702.000
339.134;  -36.325; -634.000; -536.000
339.268;    8.825; -741.000; -603.000
339.403;  374.000; -740.000; -775.000
339.537;  133.250; -894.000; -820.000
339.671; -124.450; -829.000; -813.000
339.806;  -60.600; -556.000; -512.000
339.940;    7.800; -261.000; -235.000
340.074;  -97.650; -685.000; -510.000
340.209;  -54.100; -351.000; -230.000
340.343;  -93.475; -517.000; -573.000
340.477;  143.800;  998.000; 1036.000
340.612;  -52.525;-1033.000; -900.000
340.746;  142.725; -199.000; -243.000
340.880;  -75.700; -924.000; -785.000
341.014;  -30.300;  -45.000; -154.000
341.149; -112.825; -756.000; -718.000
341.283; -115.375; -839.000; -754.000
341.417; -116.975;-1124.000; -938.000
341.551;   82.525; -768.000; -708.000
341.685;  -54.050; -633.000; -611.000
341.820;  -65.325; -562.000; -493.000
341.954;  -55.025; -218.000; -349.000
342.088; -160.200;-1102.000;-1019.000
342.222;   57.375;  565.000;  618.000
342.356;  -72.200; -395.000; -335.000
342.490; -101.200; -880.000; -841.000
342.624;  -55.725; -339.000; -242.000
342.758;  -13.525; -364.000; -312.000
342.892;  -89.800; -710.000; -585.000
343.026;  -29.125;  -58.000; -116.000
343.160;  -75.100; -426.000; -376.000
343.294;  -91.200; -474.000; -337.000
343.428;  -53.700; -488.000; -448.000
343.562;  -26.500; -172.000;  -23.000
343.696;  -43.350; -385.000; -314.000
343.830;  -36.175; -362.000; -356.000
343.964;    2.725; -231.000; -168.000
344.098;  760.275;  199.000;   70.000
344.232;  627.525; -266.000; -127.000
344.366;   63.250; -567.000; -453.000
344.500;   21.750; -665.000; -744.000
344.634;    6.150; -324.000; -164.000
344.768;  -27.500; -531.000; -341.000
344.902;    5.175;  278.000;  256.000
345.035;  -84.200; -556.000; -496.000
345.169; -148.825; -933.000; -656.000
345.303;  -40.125; -308.000; -482.000
345.437;  -83.725; -826.000; -717.000
345.571;  -77.100; -675.000; -594.000
345.704;  -63.400; -309.000; -532.000
345.838;  -26.350; -331.000; -284.000
345.972;  -37.675; -543.000; -495.000
346.106;  155.775; -179.000; -190.000
346.239;  374.575; -312.000; -243.000
346.373;  -20.625; -343.000; -302.000
346.507; -147.725; -950.000; -962.000
346.640;  105.950;  -30.000;   13.000
346.774;  -57.700; -650.000; -797.000
346.908;  -23.575; -138.000;  -11.000
347.041; -104.100; -646.000; -593.000
347.175;   -6.950;  259.000;   27.000
347.309;  -81.000; -698.000; -628.000
347.442; -103.525; -883.000; -732.000
347.576;  236.800;  670.000;  668.000
347.709;  130.100; -123.000;  -52.000
347.843; -103.250; -933.000; -825.000
347.976;   19.000;  235.000;  294.000
348.110; -180.300;-1268.000;-1186.000
348.243; -115.800; -679.000; -772.000
348.377;    0.250;  -26.000;   60.000
348.510;   34.375;  403.000;  540.000
348.644;  -36.250;  -37.000; -159.000
348.777;   -3.025;  180.000;  191.000
348.911;  -45.950; -142.000; -112.000
349.044;  140.425;  471.000;  448.000
349.178;  120.450;-1069.000;-1006.000
349.311;   95.300;  141.000;  255.000
349.444;   -3.675; -927.000; -813.000
349.578;  -37.625; -347.000; -200.000
349.711; -108.650; -959.000; -862.000
349.845;  -19.450; -661.000; -591.000
349.978; -138.625;-1224.000;-1137.000
350.111;  -83.000; -546.000; -612.000
350.244;  -85.350; -596.000; -700.000
350.378;  -19.975; -392.000; -393.000
350.511;  -90.475; -393.000; -426.000
350.644; -104.450; -808.000; -806.000
350.778;    2.100;  168.000;  104.000
350.911;  -17.200;  134.000;  140.000
351.044;  -95.675; -685.000; -615.000
351.177;  -45.900; -321.000; -281.000
351.310;  -31.775;    3.000; -131.000
351.444;  -85.175; -888.000; -788.000
351.577;   84.925;  140.000;   90.000
351.710;  103.325;  593.000;  417.000
351.843;  -39.000; -165.000;  -77.000
351.976;  -14.725;  149.000;  -79.000
352.109;  -93.050; -621.000; -612.000
352.242;  -29.950; -464.000; -419.000
352.376;  -79.475; -580.000; -636.000
352.509;  110.375; -437.000; -356.000
352.642;  -28.525; -654.000; -604.000
352.775;   36.725; -141.000;  -98.000
352.908; -116.875; -933.000; -904.000
353.041; -113.500; -814.000; -824.000
353.174;  -55.625; -551.000; -424.000
353.307;  -89.550; -753.000; -764.000
353.440;   68.200;  541.000;  453.000
353.573; -121.600; -957.000;-1008.000
353.706;  -71.200; -384.000; -558.000
353.839;  -38.675; -264.000; -220.000
353.971; -102.900; -657.000; -512.000
354.104;  -87.750; -896.000; -835.000
354.237;  -43.800; -627.000; -662.000
354.370;  -92.100; -846.000; -879.000
354.503; -191.100;-1231.000;-1308.000
354.636;  -48.100; -529.000; -348.000
354.769; -130.950; -937.000; -860.000
354.902;  -30.450; -230.000; -139.000
355.034;   -4.150; -164.000; -220.000
355.167;  -40.900; -262.000; -162.000
355.300;  -96.625;-1061.000; -880.000
355.433;  974.375;  -71.000;  -14.000
355.565; 1571.200; -402.000; -384.000
355.698;  399.300; -356.000; -296.000
355.831;   -5.175; -882.000; -801.000
355.964;   54.625; -285.000; -170.000
356.096;  -89.175; -856.000; -843.000
356.229;  -18.925; -523.000; -530.000
356.362;  325.075; -373.000; -266.000
356.494;  607.425; -229.000; -162.000
356.627;  415.325;  269.000;  377.000
356.760;  646.825;  120.000;   53.000
356.892; 1013.225; -286.000; -601.000
357.025;  541.900;  403.000;  389.000
357.157;  489.450; -167.000; -179.000
357.290;  725.750; -856.000; -713.000
357.423;  199.925; -667.000; -556.000
357.555;   95.800; -217.000; -228.000
357.688;  120.125; -483.000; -364.000
357.820;  389.850; -870.000; -877.000
357.953; 3348.475; -563.000; -589.000
358.085;  670.500; -632.000; -612.000
358.218;  823.950;-1131.000; -932.000
358.350;  145.575;  -58.000;  312.000
358.483; -132.425;-1300.000;-1187.000
358.615;  -50.175;-1182.000;-1078.000
358.747;  -79.525;-1187.000;-1058.000
358.880;  -17.725; -810.000; -744.000
359.012;   -9.600; -376.000; -202.000
359.145;  -51.900; -480.000; -511.000
359.277;   39.925; -962.000; -913.000
359.409; 2711.850;  536.000;  231.000
359.542;  704.825; -738.000; -688.000
359.674;   47.900;   46.000;   13.000
359.806;  -55.775; -565.000; -438.000
359.939;  -36.975; -617.000; -516.000
360.071;   -6.500; -583.000; -579.000
360.203;  -28.925; -411.000; -364.000
360.335;   37.500;  164.000;  -16.000
360.468;  165.900; -249.000; -307.000
360.600; 2250.700; -547.000; -454.000
360.732; 2987.875; -546.000; -423.000
360.864;  404.200;-1216.000;-1044.000
360.996;  213.425; -516.000; -554.000
361.129;   28.275; -389.000; -598.000
361.261;    9.050;  110.000; -113.000
361.393;  -46.350; -252.000; -214.000
361.525;    6.425;   94.000;  244.000
361.657;  -40.175; -821.000; -703.000
361.789;   -0.050; -139.000; -155.000
361.921;  137.400; -642.000; -593.000
362.053;  206.925;  524.000;  541.000
362.185;   40.225;  288.000;   72.000
362.318; -108.950; -709.000; -705.000
362.450;   97.900;  294.000;  444.000
362.582;   15.925; -913.000; -870.000
362.714;  -40.100; -353.000; -332.000
362.846; -105.250; -606.000; -490.000
362.978; -140.525; -941.000; -811.000
363.109;   23.450; -161.000; -260.000
363.241;  336.900; -739.000; -749.000
363.373;  438.950; -649.000; -564.000
363.505;  708.700; -186.000;  -91.000
363.637;  136.875; -787.000; -601.000
363.769; -120.025;-1067.000;-1080.000
363.901;  -87.225; -596.000; -654.000
364.033; -128.275;-1103.000;-1062.000
364.165;  -13.550; -283.000; -283.000
364.296;   70.050; -316.000; -177.000
364.428;   67.850;-1344.000;-1220.000
364.560;  -78.950; -679.000; -661.000
364.692;  -78.400; -738.000; -835.000
364.824;  181.300; -588.000; -456.000
364.955;  410.400; -402.000; -564.000
365.087; 1029.100;-1097.000; -852.000
365.219;   25.650; -686.000; -816.000
365.351;  -69.550; -526.000; -572.000
365.482;   48.700;  300.000;  240.000
365.614;  -64.575; -402.000; -314.000
365.746; -106.500; -729.000; -752.000
365.877;  -99.075; -706.000; -672.000
366.009;  272.350;  -35.000;  -62.000
366.141;  -74.525;-1249.000;-1134.000
366.272; -114.625; -803.000; -719.000
366.404; -121.575;-1005.000; -874.000
366.535;  -18.275; -139.000;  -12.000
366.667;  -97.950; -644.000; -649.000
366.799;   20.025;  353.000;  203.000
366.930; -117.675; -862.000; -996.000
367.062;  111.825; -639.000; -613.000
367.193;  173.300; -872.000; -842.000
367.325;  -72.425; -580.000; -684.000
367.456;   19.725; -246.000;   31.000
367.588;  149.750; -371.000; -318.000
367.719;   26.525;  -44.000;  -45.000
367.851;  -33.600; -222.000; -241.000
367.982;  -83.225; -875.000; -732.000
368.113;   59.000; -475.000; -358.000
368.245; -122.475; -960.000; -841.000
368.376;  -38.700; -254.000; -302.000
368.508;  -57.250; -188.000; -263.000
368.639; -158.550;-1166.000;-1034.000
368.770;  -34.300; -670.000; -589.000
368.902;  -79.175; -836.000; -926.000
369.033; -111.250; -906.000; -855.000
369.164;  -60.450; -720.000; -653.000
369.296; -122.950; -452.000; -601.000
369.427;  -17.700; -209.000; -144.000
369.558;  -61.300; -593.000; -377.000
369.689;  -96.100; -721.000; -569.000
369.821; -131.325; -951.000; -845.000
369.952;  -27.325;   42.000; -108.000
370.083;  -48.150; -229.000; -108.000
370.214;  -86.250; -735.000; -650.000
370.345;  -16.325;   65.000;   81.000
370.477;  -96.400; -810.000; -790.000
370.608;  182.425; -328.000; -264.000
370.739;  -79.025;-1233.000;-1292.000
370.870;  -58.400;-1102.000; -923.000
371.001;   50.325; -378.000; -467.000
371.132;  -83.800; -754.000; -735.000
371.263;  -29.225;  -42.000; -148.000
371.394; -133.975; -841.000; -748.000
371.525;   20.775;  345.000;  225.000
371.657; -113.125; -808.000; -670.000
371.788;   50.225;  103.000;  199.000
371.919;  129.275; -384.000; -304.000
372.050; 3112.650;  -91.000; -156.000
372.181;  941.650; -188.000; -294.000
372.311;  290.950;   42.000; -127.000
372.442;   21.775; -457.000; -451.000
372.573;  -40.050; -444.000; -340.000
372.704; -126.850;-1008.000; -980.000
372.835;   51.025; -228.000; -289.000
372.966;  -74.675; -646.000; -554.000
373.097;  -86.425; -575.000; -711.000
373.228;  -60.575; -717.000; -542.000
373.359;   84.150; -824.000; -536.000
373.490;  718.150; -881.000; -727.000
373.620;  933.150;-1001.000; -803.000
373.751; 1442.575; -332.000; -396.000
373.882;  644.900; -663.000; -733.000
374.013;   42.900; -449.000; -262.000
374.143;  -63.325; -581.000; -659.000
374.274; -109.725; -987.000; -908.000
374.405;  118.325; -388.000; -276.000
374.536;  350.325; -526.000; -387.000
374.666;  858.250; -759.000; -807.000
374.797;  133.125; -817.000; -868.000
374.928;  666.575; -710.000; -560.000
375.058;  710.250; -535.000; -500.000
375.189;   48.125;  -59.000;  -93.000
375.320; -116.600; -928.000;-1034.000
375.450;  -60.100; -625.000; -616.000
375.581;  -59.475; -526.000; -436.000
375.712;  -42.650; -574.000; -250.000
375.842;  216.450; -438.000; -415.000
375.973;  155.975; -554.000; -513.000
376.103;  -65.525; -665.000; -648.000
376.234; -105.325; -531.000; -552.000
376.364;  -51.450; -944.000; -867.000
376.495;  279.075;  925.000;  529.000
376.625;  -11.650; -472.000; -485.000
376.756;   14.050; -709.000; -678.000
376.886; -104.075;-1178.000;-1026.000
377.017;   35.000;-1048.000;-1061.000
377.147;  384.700; -786.000; -782.000
377.278;   52.075;  174.000;  228.000
377.408; -125.125; -801.000; -815.000
377.538; -121.475; -707.000; -693.000
377.669;  -88.725; -537.000; -613.000
377.799; -105.950; -645.000; -635.000
377.929;  -73.925; -610.000; -428.000
378.060; -142.100; -781.000; -847.000
378.190;  -71.950; -726.000; -531.000
378.320;  -62.550; -401.000; -406.000
378.451;  -23.225; -131.000;  -22.000
378.581;  -26.600;  -67.000; -110.000
378.711;  129.025; 1035.000;  866.000
378.841;  -38.600; -533.000; -675.000
378.972;  -84.800; -871.000; -751.000
379.102;  -34.475; -652.000; -579.000
379.232;  -18.250; -126.000;  -73.000
379.362; -127.200;-1001.000; -885.000
379.492;  -12.650; -373.000; -424.000
379.623;   86.200;    0.000;  111.000
379.753; -121.025;-1107.000; -974.000
379.883;  142.700;   59.000;  156.000
380.013;  -40.125;-1081.000;-1017.000
380.143; -121.750;-1097.000;-1056.000
380.273; -110.000; -985.000; -861.000
380.403;  -20.025; -344.000; -257.000
380.533;  -39.725; -651.000; -664.000
380.663;   53.975;  173.000;  128.000
380.793; -115.775;-1027.000;-1074.000
380.923;  -36.075; -103.000;  -34.000
381.053; -102.975; -613.000; -623.000
381.183;  -38.325; -106.000; -248.000
381.313;    2.800; -656.000; -470.000
381.443;   11.500; -692.000; -473.000
381.573;  114.850; -402.000; -409.000
381.703;  170.225;-1249.000;-1095.000
381.833; -139.925;-1454.000;-1336.000
381.963;   83.500; -134.000;  -87.000
382.093; 1206.675; -925.000; -909.000
382.223;  369.600; -713.000; -602.000
382.353;  -37.750; -801.000; -608.000
382.482;  271.700;-1091.000; -964.000
382.612;  620.050; -872.000; -644.000
382.742;  351.350; -695.000; -622.000
382.872;  174.000; -565.000; -551.000
383.002;   44.775;  347.000; -132.000
383.131;  -29.825; -226.000; -160.000
383.261;  -56.750; -706.000; -768.000
383.391;  262.050; -552.000; -377.000
383.521; 3421.525;  451.000;  263.000
383.650;  863.025; -947.000; -904.000
383.780;  -18.300; -783.000; -656.000
383.910;  105.575;  880.000;  802.000
384.039;  -19.600; -794.000; -656.000
384.169;  125.550;-1205.000;-1017.000
384.299;  -57.075; -650.000; -662.000
384.428;  -97.700; -764.000; -680.000
384.558;  -72.625; -308.000; -275.000
384.687;  -69.000; -414.000; -334.000
384.817;  -23.900;   75.000;   -2.000
384.947;  -10.975; -234.000; -141.000
385.076;  241.775;  982.000;  912.000
385.206;   81.625;  369.000;  480.000
385.335;  -54.825; -549.000; -417.000
385.465; -106.025; -655.000; -663.000
385.594;   85.000;  -53.000;  -44.000
385.724;  314.825; -868.000; -838.000
385.853;   68.875; -296.000; -270.000
385.982; 1088.800; -743.000; -787.000
386.112; 1813.800;-1052.000; -871.000
386.241;  101.300; -307.000; -312.000
386.371;   -6.550; -174.000;  -87.000
386.500;  -27.050; -825.000; -789.000
386.629;   -1.050; -874.000; -817.000
386.759;   62.575;  -43.000;   68.000
386.888;  -21.025; -170.000; -250.000
387.017; -102.275; -648.000; -620.000
387.147; -109.650; -771.000; -798.000
387.276;  -13.775; -410.000; -397.000
387.405;  -17.925; -398.000; -342.000
387.535;  -48.150; -452.000; -361.000
387.664;  -68.850; -692.000; -620.000
387.793;   46.675; -198.000; -113.000
387.922;  409.775;  255.000;  200.000
388.052;  -10.850; -576.000; -423.000
388.181;  -27.500; -342.000; -472.000
388.310;  -48.025; -889.000; -710.000
388.439;  -75.775; -749.000; -742.000
388.568;  128.075;  365.000;  244.000
388.697;  842.500; -756.000; -653.000
388.826;  135.175; -768.000; -666.000
388.956;   30.225; -285.000; -307.000
389.085;  -42.400; -347.000; -287.000
389.214; -108.600; -842.000; -872.000
389.343;  -74.825; -645.000; -413.000
389.472;  399.350;  126.000;  149.000
389.601;  505.000;   91.000;    0.000
389.730;  -13.075; -568.000; -687.000
389.859;   44.250;  226.000;   46.000
389.988;  144.425; -423.000; -408.000
390.117;  102.625; -168.000; -146.000
390.246;  -36.800; -331.000; -320.000
390.375;   55.875; -673.000; -626.000
390.504;  -73.575; -703.000; -621.000
390.633; -113.775; -672.000; -726.000
390.761;  -87.475; -732.000; -645.000
390.890;   -5.875;   -4.000; -130.000
391.019;  -48.425; -421.000; -441.000
391.148; -122.925; -826.000; -855.000
391.277;  -82.975; -576.000; -493.000
391.406;  -93.300; -821.000; -805.000
391.534;   -2.825;  574.000; -301.000
391.663;  -83.525; -583.000; -645.000
391.792; -110.300; -673.000; -701.000
391.921;   66.525;   -3.000;   15.000
392.050;  123.475; -287.000; -228.000
392.178;  -80.275;-1206.000;-1061.000
392.307;   90.050; -758.000; -712.000
392.436;   30.025; -427.000; -641.000
392.564;    8.550;  166.000;   -6.000
392.693; -108.475; -860.000; -682.000
392.822;  134.125; -529.000; -534.000
392.950;   56.125; -880.000; -714.000
393.079;  234.100; -188.000; -328.000
393.208;   -0.775; -488.000; -511.000
393.336;  -27.050; -170.000; -145.000
393.465;  -64.300; -317.000; -199.000
393.593;   -5.950;   62.000;   79.000
393.722; -157.925;-1121.000; -916.000
393.850;  -37.750; -188.000;  -61.000
393.979; -155.675; -926.000; -805.000
394.107;  -73.000; -517.000; -537.000
394.236;  -35.300; -570.000; -507.000
394.364;  155.600;  383.000;  206.000
394.493;  273.525; -911.000; -767.000
394.621;  -29.550; -955.000; -916.000
394.750;  711.725; -873.000; -923.000
394.878; 3030.450; -247.000; -149.000
395.007; 4193.500; -721.000; -807.000
395.135;  304.975; -790.000; -721.000
395.263;  -72.825;-1038.000;-1040.000
395.392;   -7.475;  -25.000; -107.000
395.520; -140.600; -818.000; -679.000
395.648; -117.550; -865.000; -915.000
395.777;  -44.950; -366.000; -405.000
395.905;  -67.425; -449.000; -564.000
396.033;   -6.175;  217.000;  172.000
396.162;  447.275; -399.000; -453.000
396.290;  426.725;  -17.000;   -2.000
396.418;   47.925; -555.000; -514.000
396.546;  -93.200; -571.000; -466.000
396.674; -113.650; -850.000; -878.000
396.803;  -13.350;  -72.000;  -23.000
396.931;   38.975; -179.000; -199.000
397.059;  -13.475;-1026.000; -989.000
397.187; -140.225;-1026.000; -975.000
397.315; -135.100; -884.000; -649.000
397.443; -108.250; -592.000; -443.000
397.572;  -96.300; -578.000; -424.000
397.700;  -38.025; -607.000; -614.000
397.828;   17.125;  120.000;  -90.000
397.956;  -61.300; -508.000; -478.000
398.084;  -64.300; -767.000; -626.000
398.212;   19.375;  137.000;  124.000
398.340;   -6.600;  -56.000;  159.000
398.468;   -8.075; -390.000; -169.000
398.596; -135.900; -993.000; -953.000
398.724; -123.675; -762.000; -767.000
398.852; -162.300;-1024.000; -976.000
398.980;  -74.025; -560.000; -560.000
399.108;  -81.025; -982.000; -735.000
399.236;   12.200;   13.000;    8.000
399.363;    3.300;  222.000;  196.000
399.491;  -75.375; -404.000; -398.000
399.619; -132.000; -829.000; -800.000
399.747; -117.675; -859.000; -771.000
399.875;   58.600;  220.000;  234.000
400.003;  -66.225; -359.000; -284.000
400.130;  -99.950; -421.000; -341.000
400.258;  -22.875;  -83.000;   38.000
400.386;  -63.250; -352.000; -168.000
400.514;  -58.275; -526.000; -587.000
400.641;  -97.100; -928.000; -802.000
400.769; -157.050; -979.000; -888.000
400.897; -135.050; -838.000; -793.000
401.025;  -34.650; -166.000; -152.000
401.152;  -11.275;  220.000;   38.000
401.280;  -90.425; -430.000; -429.000
401.408; -122.500; -712.000; -576.000
401.535; -119.725; -735.000; -758.000
401.663; -187.050;-1134.000;-1054.000
401.790;  -99.875; -514.000; -525.000
401.918;   25.175;  436.000;  405.000
402.046;  -23.150;  134.000;  122.000
402.173;  -47.100;  -18.000;    7.000
402.301;  -83.300; -519.000; -397.000
402.428;   18.425;  528.000;  383.000
402.556; -146.275;-1188.000; -913.000
402.683;  -44.350;  -20.000;   -1.000
402.811;  -51.975;  -37.000; -206.000
402.938;  -28.450;   20.000;   27.000
403.066;  128.525; -574.000; -558.000
403.193;  275.800;  299.000;  239.000
403.321;  194.125; -396.000; -574.000
403.448;  256.800;   83.000;   27.000
403.575;  104.150;  -90.000;  -46.000
403.703; -109.850; -732.000; -557.000
403.830;  -64.650; -531.000; -496.000
403.957; -144.550;-1117.000;-1023.000
404.085;    1.925;  -61.000; -172.000
404.212;  101.825;  -50.000;   63.000
404.339;  263.000; -566.000; -306.000
404.467; 5975.050; -612.000; -524.000
404.594; 3841.625; -287.000; -227.000
404.721;  837.325; -869.000; -764.000
404.848;   61.450; -113.000; -202.000
404.976; -107.500; -856.000; -783.000
405.103;  -32.825;  -14.000;  -82.000
405.230;   -8.750;  190.000;  226.000
405.357;   18.875;  117.000;   44.000
405.484;  266.625;  -49.000;    5.000
405.612;   45.800; -548.000; -563.000
405.739;  -66.600; -488.000; -243.000
405.866;   70.425;  669.000;  385.000
405.993;  -43.600; -398.000; -102.000
406.120; -140.725; -801.000; -887.000
406.247;  -61.500; -323.000; -342.000
406.374;  341.300;  540.000;  629.000
406.501;   39.500; -632.000; -702.000
406.628;  -96.000; -621.000; -589.000
406.755; -106.475; -803.000; -620.000
406.882;  -49.325; -228.000; -277.000
407.009; -115.700; -719.000; -628.000
407.136;    6.450; -480.000; -401.000
407.263;   53.250; -939.000; -829.000
407.390;  -92.150; -692.000; -614.000
407.517; -187.450;-1139.000;-1187.000
407.644;  -78.150; -332.000; -256.000
407.771; -135.550; -249.000; -287.000
407.898;  -15.950;  168.000;  328.000
408.025;  -82.475; -421.000; -313.000
408.151;  -21.175;   82.000;  153.000
408.278;  -72.675; -267.000; -216.000
408.405; -127.150; -931.000; -899.000
408.532;  -86.000; -549.000; -542.000
408.659; -130.950; -677.000; -648.000
408.785; -209.975;-1298.000;-1170.000
408.912;  -70.525; -412.000; -296.000
409.039; -110.800; -610.000; -686.000
409.166; -110.350; -591.000; -555.000
409.292; -121.800; -571.000; -534.000
409.419; -112.250; -665.000; -649.000
409.546;  -98.000; -431.000; -192.000
409.672; -109.875; -713.000; -545.000
409.799;  -38.825;  -36.000;   34.000
409.926;  -53.025; -180.000; -179.000
410.052; -174.500;-1127.000;-1091.000
410.179;  -81.600; -368.000; -392.000
410.305;  -99.225; -375.000; -493.000
410.432;  -55.200; -220.000; -333.000
410.558; -100.125; -305.000; -380.000
410.685; -123.750; -688.000; -431.000
410.812;  -99.500; -409.000; -588.000
410.938; -154.975; -964.000; -808.000
411.065; -100.700; -671.000; -645.000
411.191;  -35.625; -189.000; -174.000
411.317; -121.450; -823.000; -742.000
411.444;  -73.175; -317.000; -246.000
411.570;  -72.000; -339.000; -294.000
411.697; -120.325; -758.000; -752.000
411.823; -179.025; -989.000; -999.000
411.949;  -45.725;  -56.000;   17.000
412.076; -105.800; -539.000; -519.000
412.202; -121.350; -758.000; -757.000
412.329; -148.625; -798.000; -752.000
412.455; -124.625; -821.000; -657.000
412.581;  -27.700;  -15.000;  172.000
412.707;  -76.375; -540.000; -457.000
412.834;   11.150;  156.000;  219.000
412.960;  -91.525; -785.000; -784.000
413.086; -105.225; -743.000; -701.000
413.212;  111.250;  604.000;  578.000
413.339;  -76.600; -685.000; -701.000
413.465;  -17.675; -364.000; -310.000
413.591;  -99.925; -757.000; -474.000
413.717;  -60.700; -358.000; -366.000
413.843; -145.975; -839.000; -861.000
413.969;  -69.075;  -47.000; -292.000
414.096; -116.900; -679.000; -679.000
414.222;  -17.975;  -33.000;   85.000
414.348;  -64.100; -652.000; -385.000
414.474;   45.375;   38.000;  -52.000
414.600;  -26.725; -126.000; -144.000
414.726;  -29.125;  -96.000;  -55.000
414.852;  -73.900; -365.000; -342.000
414.978;   24.475;  104.000;  -18.000
415.104;   34.225;   38.000;   80.000
415.230;    6.525; -329.000; -330.000
415.356;   41.275; -409.000; -514.000
415.482;  191.350;   13.000;  -35.000
415.608;  266.650; -247.000; -323.000
415.734;  968.475;   67.000;   38.000
415.860;20204.825; -875.000; -767.000
415.986;15190.400; -685.000; -607.000
416.111; 1317.250; -798.000; -652.000
416.237;  273.700; -424.000; -571.000
416.363; 1181.550; -765.000; -733.000
416.489; 4431.600; -324.000; -251.000
416.615;  497.425; -707.000; -742.000
416.741;  -28.000; -677.000; -784.000
416.866;  -93.775; -673.000; -736.000
416.992; -121.950; -801.000; -818.000
417.118;  -21.900;  -41.000;  -80.000
417.244;  -84.525; -798.000; -531.000
417.369;  -75.875; -801.000; -612.000
417.495;  -20.625; -325.000; -254.000
417.621;  -92.550;-1015.000; -803.000
417.746;  -12.950; -579.000; -572.000
417.872;   46.475; -254.000; -144.000
417.998;   37.025; -515.000; -530.000
418.123; 1077.275;-1073.000; -845.000
418.249; 5657.325; -512.000; -601.000
418.374;  836.000; -916.000; -824.000
418.500;  107.200; -383.000; -482.000
418.626;  114.650;   70.000;  -59.000
418.751;  107.900; -549.000; -448.000
418.877;  202.150; -637.000; -643.000
419.002; 1818.125; -688.000; -560.000
419.128;13129.875; -930.000; -721.000
419.253; 3344.850; -967.000; -837.000
419.379;  428.650; -391.000; -338.000
419.504;  413.650;  325.000;  415.000
419.629;  553.100; -393.000; -212.000
419.755; 3669.025; -317.000; -254.000
419.880;22637.775;  -98.000;   67.000
420.006;11942.700; -280.000; -221.000
420.131;30727.900; -662.000; -775.000
420.256; 4559.225; -315.000; -316.000
420.382;  614.750; -665.000; -687.000
420.507;   78.525; -649.000; -778.000
420.632;   92.025; -337.000; -339.000
420.758;  175.025; -251.000; -425.000
420.883; -102.650; -876.000; -672.000
421.008; -104.900; -775.000; -619.000
421.133;  -92.150; -509.000; -467.000
421.259;  -48.425; -325.000; -259.000
421.384; -129.100; -834.000; -693.000
421.509;  -85.050;-1052.000; -862.000
421.634;  804.475; -936.000; -820.000
421.759;  387.325; -359.000; -327.000
421.885;  -77.950; -717.000; -656.000
422.010;  -87.550; -673.000; -542.000
422.135; -148.200; -695.000; -727.000
422.260;   17.325;  340.000;  280.000
422.385;  -42.375;   12.000;  -98.000
422.510;    5.875;  151.000;  -26.000
422.635;   17.350;  -87.000;  -43.000
422.760;   63.550; -766.000; -791.000
422.885;   49.300;  -57.000;  -80.000
423.010;  -31.450; -112.000; -169.000
423.135;  -98.275; -481.000; -561.000
423.260;  -40.575; -150.000; -245.000
423.385;   42.975;  476.000;  222.000
423.510;   13.425;   71.000;  -22.000
423.635;   48.500;  133.000;   45.000
423.760;   38.725;  383.000;  328.000
423.885;   49.050;  336.000;  391.000
424.010;    6.625;  -68.000;  -13.000
424.135;  -28.725;    5.000;  -33.000
424.259;  -97.400; -654.000; -457.000
424.384;  -61.525; -279.000; -272.000
424.509;  -27.675; -260.000; -186.000
424.634;  -98.075; -761.000; -623.000
424.759;  -48.625; -688.000; -544.000
424.883;  -21.850; -506.000; -527.000
425.008;  152.875; -502.000; -410.000
425.133; 2052.050; -679.000; -653.000
425.258;  989.025; -517.000; -381.000
425.382;  865.900; -867.000; -774.000
425.507; 2322.325; -487.000; -543.000
425.632;  408.000; -802.000; -663.000
425.756;  464.400; -256.000; -146.000
425.881; 6896.850; -831.000; -857.000
426.006;19410.275; -604.000; -355.000
426.130; 3079.400; -696.000; -508.000
426.255;  393.200; -611.000; -491.000
426.379;  164.900; -189.000; -577.000
426.504;  357.400;  660.000;  544.000
426.629; 4057.800; -519.000; -466.000
426.753; 2922.125;   64.000;  -46.000
426.878;  343.725; -252.000; -288.000
427.002;  143.900; -651.000; -668.000
427.127; 1578.675;  -35.000; -158.000
427.251;11932.650;  372.000;  401.000
427.375; 3537.350; -191.000; -173.000
427.500; 2022.650; -616.000; -610.000
427.624;  696.300; -234.000; -400.000
427.749;   57.050; -216.000; -225.000
427.873;  -47.200; -499.000; -412.000
427.997;  -62.075; -222.000; -230.000
428.122;   48.650;  795.000;  703.000
428.246;   68.075;  433.000;  434.000
428.371; -134.050; -869.000; -773.000
428.495; -112.200; -624.000; -646.000
428.619;  -37.800; -186.000; -117.000
428.743;   -2.125;   65.000;  132.000
428.868;  -25.125; -732.000; -643.000
428.992; 1173.250; -219.000; -326.000
429.116;  477.250; -329.000; -357.000
429.240;  202.300;  419.000;  426.000
429.365;  -21.425; -454.000; -574.000
429.489;  -65.525; -638.000; -647.000
429.613;    6.050; -236.000; -177.000
429.737;   21.750; -563.000; -432.000
429.861;  253.875; -247.000; -133.000
429.985; 5642.675; -425.000; -305.000
430.109; 6506.775; -770.000; -908.000
430.234;  762.375;   76.000;  -50.000
430.358;   76.925; -250.000; -160.000
430.482;  -76.750; -672.000; -564.000
430.606;  -81.075; -655.000; -375.000
430.730;  -20.925; -437.000; -388.000
430.854;   67.975; -909.000; -835.000
430.978; -104.675; -795.000; -764.000
431.102;  -96.250; -499.000; -422.000
431.226; -144.200; -874.000; -815.000
431.350;    7.750;  345.000;  422.000
431.474; -102.125; -661.000; -373.000
431.597; -159.150;-1060.000; -848.000
431.721;  -90.550; -276.000; -267.000
431.845; -144.450; -704.000; -472.000
431.969;  -87.425; -304.000; -349.000
432.093;  -98.500; -395.000; -317.000
432.217;  -34.925;   32.000;   82.000
432.341;  -93.975; -523.000; -518.000
432.464;  -19.575;   96.000;   40.000
432.588;  111.925; -401.000; -329.000
432.712;   64.525;  -52.000;  -52.000
432.836;   35.900;  213.000;  263.000
432.959;  -23.800; -372.000; -311.000
433.083;   91.625;   11.000;    2.000
433.207;  371.075;  285.000;  930.000
433.330; 5226.225; -391.000; -200.000
433.454; 6631.800; -654.000; -638.000
433.578; 3768.650;  583.000;  278.000
433.701;  717.200; -623.000; -675.000
433.825;  116.700; -292.000; -299.000
433.949;   95.275;   28.000;  -72.000
434.072;   26.050; -410.000; -323.000
434.196;  -33.625; -309.000; -117.000
434.319; 3635.125;25482.000;25124.000
434.443;  663.500; -656.000; -603.000
434.566; 2741.000;  281.000;   62.000
434.690;  481.225; -637.000; -383.000
434.813;   56.625; -251.000; -173.000
434.937;  -93.125; -569.000; -696.000
435.060;  -61.825; -423.000; -332.000
435.184;  165.375; -492.000; -217.000
435.307;  118.725;  159.000;  102.000
435.431;  -23.350;  -40.000;   24.000
435.554;  -94.450; -399.000; -240.000
435.677; -103.625; -350.000; -258.000
435.801;  -54.875;  -25.000;   49.000
435.924;  -19.575;    1.000;  -67.000
436.048; -138.150;-1019.000; -732.000
436.171;  -79.325; -240.000;  -66.000
436.294;  -35.350; -248.000; -229.000
436.417;   94.725; -963.000; -849.000
436.541;  -99.625; -814.000; -840.000
436.664;  -51.175; -242.000; -316.000
436.787;  -45.675;   13.000;  113.000
436.910; -131.625; -792.000; -422.000
437.034;  -11.625;  142.000;  143.000
437.157;   12.250;  -11.000;    0.000
437.280;  -57.800; -392.000; -292.000
437.403; -123.450; -982.000; -869.000
437.526;  390.800; -903.000; -865.000
437.649; 1619.025; -505.000; -332.000
437.772;  202.375; -692.000; -540.000
437.896;   87.450;  700.000;  544.000
438.019; -112.625; -758.000; -503.000
438.142; -104.825; -596.000; -506.000
438.265;  -52.900; -639.000; -670.000
438.388;  395.650; -520.000; -410.000
438.511;   49.600; -597.000; -394.000
438.634;  -67.225; -247.000; -125.000
438.757; -126.900; -693.000; -619.000
438.880;  -26.800;  -34.000;  -57.000
439.003;  -93.800; -417.000; -437.000
439.126;  -81.425; -287.000; -167.000
439.248;  -79.425;  -98.000; -139.000
439.371;  -61.575;    9.000;  -53.000
439.494;   26.225;  510.000;  439.000
439.617;  -66.250;   65.000;  -88.000
439.740; -186.275; -968.000; -816.000
439.863; -145.175; -755.000; -595.000
439.986; -123.850; -476.000; -431.000
440.108;  -47.875; -161.000; -112.000
440.231; -181.725; -950.000; -836.000
440.354;  -47.275;  -64.000; -150.000
440.477;  -21.250; -566.000; -542.000
440.599;  -35.500; -200.000; -225.000
440.722; -145.625; -709.000; -586.000
440.845;   59.100;  751.000;  928.000
440.968; -111.125; -415.000; -311.000
441.090;  -61.025; -199.000;  -33.000
441.213; -170.000;-1021.000; -825.000
441.336;  -59.925; -159.000;   -5.000
441.458;  -91.775; -549.000; -396.000
441.581; -110.950; -628.000; -629.000
441.703;  -83.650; -152.000;   13.000
441.826; -120.375; -557.000; -400.000
441.948;  -61.100;   56.000;   51.000
442.071;   16.425;  555.000;  424.000
442.193; -137.225; -531.000; -485.000
442.316;   -4.775;  152.000;   97.000
442.438;   37.225; -233.000;  -10.000
442.561;   57.900;  272.000;  262.000
442.683;  357.675; -809.000; -522.000
442.806;  862.300;   -8.000;   74.000
442.928;  -15.375; -859.000; -604.000
443.051;  -89.175; -577.000; -373.000
443.173;  -93.050; -341.000; -339.000
443.295;  -90.925; -263.000; -371.000
443.418;  -75.325; -321.000;  -29.000
443.540;  -31.000; -106.000;   -4.000
443.662; -125.650; -563.000; -465.000
443.785;  -33.000;  335.000;  199.000
443.907;  -88.625; -362.000; -208.000
444.029; -137.850; -767.000; -494.000
444.152; -154.025; -644.000; -554.000
444.274;  -46.950;  -18.000;  -24.000
444.396; -125.900; -461.000; -221.000
444.518; -137.500; -691.000; -454.000
444.640; -101.225; -268.000; -111.000
444.763;  -24.725;  388.000;  249.000
444.885; -112.575; -432.000; -392.000
445.007;  -60.175;   35.000;   86.000
445.129; -119.475; -610.000; -515.000
445.251; -111.375; -372.000; -439.000
445.373; -125.725; -537.000; -386.000
445.495;   -0.775;  242.000;  350.000
445.617;   45.950;  853.000;  753.000
445.739;  -79.300; -215.000;  -97.000
445.861;  -51.825; -245.000; -112.000
445.984;  -41.350; -267.000; -101.000
446.105;  111.325; -418.000; -251.000
446.227;  466.500; -176.000;  -19.000
446.349;  -21.700; -358.000; -249.000
446.471; -107.775; -615.000; -448.000
446.593;  -69.000; -316.000;   19.000
446.715;  -29.750;  -67.000;   41.000
446.837;   47.450;  697.000;  832.000
446.959; -118.025; -457.000; -478.000
447.081; -136.275; -628.000; -518.000
447.203;   47.975;  862.000;  834.000
447.325;  -94.950; -270.000;   42.000
447.446;  -14.125;  286.000;  530.000
447.568; -145.300; -921.000; -803.000
447.690;  -83.500; -236.000; -245.000
447.812; -150.725; -798.000; -519.000
447.933;  -51.300;  155.000;  127.000
448.055;  -75.575; -306.000; -261.000
448.177;  109.350;   31.000;   79.000
448.299;   23.600; -935.000; -727.000
448.420;   -6.425;  -25.000;  159.000
448.542;  -55.625;   -3.000;   33.000
448.664;  -33.000;  109.000;  322.000
448.785;  -44.400;  265.000;   83.000
448.907;  -99.175; -614.000; -353.000
449.028;  -56.375; -771.000; -471.000
449.150;   45.550;  492.000;  589.000
449.272; -186.725;-1044.000; -913.000
449.393;   16.250;  612.000;  694.000
449.515; -147.100; -634.000; -581.000
449.636;  -61.775; -264.000; -155.000
449.758;   60.500;  763.000;  622.000
449.879; -105.075; -498.000; -396.000
450.001;  -84.000; -149.000;  -49.000
450.122;  -46.300;  -95.000;  162.000
450.244;  -19.950;   37.000;  364.000
450.365;  -90.100; -495.000; -301.000
450.486;  -36.975;   80.000;  268.000
450.608;    9.350;  393.000;  326.000
450.729;   75.750;  578.000;  645.000
450.850;   13.725; -574.000; -466.000
450.972;  762.375; -552.000; -389.000
451.093; 5212.400;  190.000;  588.000
451.214; 2385.700; -516.000; -337.000
451.336;  412.650;  773.000;  579.000
451.457;   70.250;  264.000;  393.000
451.578;  -55.000; -118.000;  -74.000
451.699; -129.650; -546.000; -540.000
451.821;  -67.200; -284.000;  -50.000
451.942;  -19.325;  278.000;  285.000
452.063;   30.925;  228.000;  419.000
452.184;  562.025;  -54.000;  -49.000
452.305; 1131.150;  103.000;  170.000
452.427;  157.375; -549.000; -301.000
452.548;  -26.375;   23.000;   79.000
452.669;  -54.750; -257.000;  -89.000
452.790;  -56.200;    3.000;  -18.000
452.911;   -9.050;  195.000;  259.000
453.032;  -94.400; -289.000;  -60.000
453.153;  -64.600;  -29.000;   81.000
453.274;   48.650;  737.000;  868.000
453.395;  -57.625;  -51.000;  175.000
453.516;  120.850; 1317.000; 1388.000
453.637;  -80.050; -205.000; -150.000
453.758;  -65.100;   15.000;   69.000
453.879; -117.150; -462.000; -250.000
454.000;   50.275; 1086.000;  948.000
454.121; -114.575; -554.000; -326.000
454.242; -127.750; -599.000; -383.000
454.362;  -73.525;  -99.000;  114.000
454.483;  -51.700; -309.000; -229.000
454.604;   26.950;  512.000;  580.000
454.725; -133.125; -627.000; -555.000
454.846; -135.550; -474.000; -406.000
454.967;  -32.425;  230.000;  539.000
455.087;  -57.025;  179.000;  153.000
455.208;    6.550;  554.000;  856.000
455.329;  -71.875;  -22.000;   82.000
455.450;   26.075;  473.000;  633.000
455.570;  -91.900; -234.000; -211.000
455.691;  -58.050;  201.000;  407.000
455.812; -108.225; -270.000;  -92.000
455.932;  -62.150;  107.000;  -97.000
456.053;  -89.850;   36.000;   24.000
456.173; -131.650; -433.000; -355.000
456.294; -129.425; -476.000; -303.000
456.415;  -67.075;  -73.000;   70.000
456.535;  -47.175;  297.000;  273.000
456.656;  -54.775;  132.000;  240.000
456.776;  -85.750;    3.000;  298.000
456.897;  -14.950;  308.000;  513.000
457.017;  -77.575; -153.000;   -3.000
457.138; -128.525; -402.000; -249.000
457.258;  -35.375;  263.000;  224.000
457.379;  -23.750;  509.000;  521.000
457.499;  -34.075;  443.000;  432.000
457.620; -124.575; -407.000; -231.000
457.740; -105.325; -132.000;  -11.000
457.860;  -73.300;   87.000;   44.000
457.981;  -54.975;  132.000;  124.000
458.101;  -66.500;  -89.000;   40.000
458.221;  -14.975;  336.000;  402.000
458.342;  -71.075;   -4.000;  -37.000
458.462;   27.925;  617.000;  352.000
458.582;  -42.950; -302.000; -294.000
458.703;    4.475;  303.000;  154.000
458.823;  -34.025;   22.000;  163.000
458.943;   21.650;  341.000;  467.000
459.063;  -17.325; 1124.000;  192.000
459.183;  -34.400;  328.000;  313.000
459.304;   -9.400;  315.000;  517.000
459.424;  -67.350; -246.000;  -89.000
459.544;  331.575;  388.000;  764.000
459.664;  886.475;  499.000;  506.000
459.784;  329.475; 1004.000; 1175.000
459.904;   50.950;  867.000;  744.000
460.024;   42.725;  867.000;  684.000
460.144;   -2.375;  449.000;  554.000
460.264;  -13.900;  515.000;  327.000
460.385;  -76.450; -145.000; -119.000
460.505;   22.125;  905.000;  858.000
460.625; -102.925;  -17.000;  -68.000
460.745;  -31.125;  396.000;  541.000
460.864;  -58.000;  153.000;  469.000
460.984;    1.300;  499.000;  573.000
461.104;  131.950; 1656.000; 1775.000
461.224;    2.175;  657.000;  650.000
461.344;  -42.625;  431.000;  360.000
461.464;  -55.450;  258.000;  513.000
461.584;  -25.875;  283.000;  466.000
461.704;  -61.750;   58.000;  108.000
461.824;  -57.250;  238.000;  259.000
461.943;  -50.600;  191.000;  130.000
462.063;  -75.650;    2.000;  324.000
462.183;    7.925;  639.000;  717.000
462.303;   97.050; 1678.000; 1230.000
462.422;   11.825;  781.000;  840.000
462.542;  -49.100;  271.000;  391.000
462.662;   24.350;  353.000;  380.000
462.782;  245.825;  833.000;  572.000
462.901;  490.050;  545.000;  717.000
463.021;  289.600; 1702.000; 1638.000
463.141;  -19.200;  337.000;  770.000
463.260;  -15.950;  614.000;  474.000
463.380;    3.025;  902.000;  884.000
463.499;  -42.450;  342.000;  332.000
463.619;  -50.075;  581.000;  559.000
463.738;  121.900; 1644.000;  903.000
463.858;    8.025;  657.000;  811.000
463.978;  -32.900;  542.000;  396.000
464.097;   42.750;  921.000; 1114.000
464.217;  131.775; 1196.000; 1143.000
464.336;  111.425; 1068.000; 1130.000
464.455;  -28.675;  328.000;  659.000
464.575;   22.525;  597.000;  602.000
464.694;  156.775; 1204.000; 1179.000
464.814;  124.275; 1190.000; 1138.000
464.933;   67.525; 1095.000; 1027.000
465.052;   87.275; 1412.000; 1054.000
465.172;   70.800;  922.000;  799.000
465.291;  133.500; 1376.000; 1320.000
465.410;   11.275;  462.000;  735.000
465.530;   76.850; 1355.000; 1310.000
465.649;   55.225; 1209.000; 1273.000
465.768;  120.825; 1673.000; 1508.000
465.888;   45.475;  941.000; 1174.000
466.007;   81.175; 1335.000; 1440.000
466.126;  -11.075;  721.000;  641.000
466.245;   48.125; 1176.000; 1187.000
466.364;   19.750;  950.000; 1060.000
466.484;   68.125; 1024.000; 1213.000
466.603;   26.650; 1101.000; 1222.000
466.722;  107.750; 1490.000; 1769.000
466.841;   80.625; 1151.000; 1401.000
466.960;   26.375; 1069.000;  972.000
467.079;  146.400; 1971.000; 1786.000
467.198;   44.500; 1238.000; 1181.000
467.317;   71.575; 1768.000; 1162.000
467.436;   64.800; 1709.000; 1261.000
467.555;  122.675; 1796.000; 1746.000
467.674;   46.450; 1227.000; 1329.000
467.793;   51.500; 1376.000; 1374.000
467.912;   91.575; 1658.000; 1539.000
468.031;  132.825; 2038.000; 1930.000
468.150;  129.300; 1842.000; 1837.000
468.269;  197.700; 2313.000; 2090.000
468.388;  183.750; 2168.000; 2339.000
468.507;  238.000; 2884.000; 2903.000
468.626;  281.400; 2555.000; 2541.000
468.744;  139.825; 2018.000; 2174.000
468.863;  186.150; 2312.000; 2523.000
468.982;   94.850; 1503.000; 1555.000
469.101;  224.800; 2788.000; 2692.000
469.220;  154.000; 2333.000; 2176.000
469.338;  238.600; 2935.000; 3051.000
469.457;  181.575; 2719.000; 2545.000
469.576;  342.125; 3953.000; 3784.000
469.695;  237.575; 2877.000; 3066.000
469.813;  413.575; 4148.000; 4192.000
469.932;  397.325; 4255.000; 4485.000
470.051;  404.100; 4075.000; 4161.000
470.169;  852.950; 4470.000; 4338.000
470.288; 1518.175; 4700.000; 4809.000
470.406;  904.875; 5059.000; 5194.000
470.525;  642.100; 6101.000; 5787.000
470.644;  652.450; 6847.000; 6794.000
470.762;  808.900; 8397.000; 7873.000
470.881;  910.350; 8651.000; 8464.000
470.999; 1032.575; 9685.000; 9151.000
471.118; 1123.775;11174.000;10711.000

