
Integration time [ms]: 100.000
Averaging Nr. [scans]: 40
Smoothing Nr. [pixels]: 0
Data measured with spectrometer [name]: 2101012U2
Wave   ;Sample   ;Dark     ;Reference
[nm]   ;[counts] ;[counts] ;[counts] 

197.733;   58.550;  516.000;  404.000
197.879;  -75.000; -610.000; -634.000
198.025;  -51.625; -475.000; -420.000
198.171;  -68.950; -602.000; -612.000
198.317;  -22.000; -401.000; -316.000
198.463;  -56.250; -655.000; -404.000
198.609;   22.350;  181.000; -137.000
198.755;  -72.675; -644.000; -410.000
198.901;  -55.100; -505.000; -424.000
199.047;  -62.450; -615.000; -488.000
199.193;  -30.625; -230.000; -468.000
199.339;  -48.600; -222.000; -369.000
199.485;   54.975;  330.000;  271.000
199.631;   11.450;  227.000;  310.000
199.777;  -52.475; -466.000; -398.000
199.923;  -53.800; -610.000; -424.000
200.069;  -16.525; -141.000;  -58.000
200.215;   52.200;  128.000;  453.000
200.361;   37.000;  243.000;  477.000
200.507;  -60.575; -600.000; -373.000
200.653;  -28.350; -371.000; -194.000
200.798;  -21.625; -215.000; -125.000
200.944;    2.725; -146.000;  -41.000
201.090;   37.250;   61.000;  222.000
201.236;   10.900; -116.000; -158.000
201.382;  146.550;  874.000;  903.000
201.528;  -16.625;  -58.000;  -48.000
201.674;  -31.075; -386.000; -293.000
201.819;  -65.325; -540.000; -439.000
201.965;  -74.775; -699.000; -447.000
202.111;  -30.125; -273.000; -226.000
202.257;  -36.650; -250.000; -238.000
202.402;   -1.725;   13.000;  -36.000
202.548;  -16.400; -169.000; -116.000
202.694;   83.950;  410.000; -183.000
202.840;  -64.475; -603.000; -531.000
202.985;  -76.850; -681.000; -639.000
203.131; -108.575; -832.000; -666.000
203.277;  -25.400; -199.000; -262.000
203.423;  -51.775; -434.000; -520.000
203.568;  -32.125; -462.000; -237.000
203.714;  -57.200; -535.000; -542.000
203.860;  -75.475; -682.000; -641.000
204.005;   17.825;  112.000;  167.000
204.151;   82.125;  561.000;  556.000
204.296;  -48.150; -354.000; -221.000
204.442;  -76.800; -600.000; -547.000
204.588;  -73.225; -592.000; -579.000
204.733;   20.550;  178.000;  168.000
204.879; -125.375;-1018.000; -822.000
205.025;   14.350;  -99.000;  126.000
205.170;   -4.650;  -17.000;   94.000
205.316;   78.125;  438.000;  661.000
205.461;  -86.875; -698.000; -554.000
205.607;   76.525;  609.000;  665.000
205.752;  -77.725; -626.000; -551.000
205.898;  -58.475; -501.000; -391.000
206.043;  -65.450; -578.000; -506.000
206.189;  -40.925; -243.000; -285.000
206.334;   69.275;  554.000;  606.000
206.480;   54.350;  409.000;  239.000
206.625;  -68.975; -529.000; -552.000
206.771;  -49.725; -451.000; -373.000
206.916;  -38.300; -210.000; -537.000
207.062;  -82.125; -545.000; -591.000
207.207;  -60.050; -546.000; -443.000
207.353;   45.000;  185.000;  460.000
207.498;   15.625;  196.000;   85.000
207.643;  -54.800; -501.000; -370.000
207.789; -121.300;-1069.000; -910.000
207.934;  -90.875; -665.000; -713.000
208.080;  -24.525; -154.000;   66.000
208.225;  -14.700;  -22.000;  -57.000
208.370;  -75.650; -727.000; -619.000
208.516;  -82.925; -741.000; -487.000
208.661;  -33.175; -127.000;  -69.000
208.806;  -30.400; -165.000; -171.000
208.952; -127.650;-1044.000; -731.000
209.097;   67.675;  378.000;  349.000
209.242;  -42.425; -307.000; -382.000
209.387;   51.975;  392.000;  350.000
209.533;  -53.350; -321.000; -350.000
209.678;   82.325;  472.000;  543.000
209.823;  -48.750; -408.000; -310.000
209.969; -101.675; -860.000; -757.000
210.114;  -98.100; -907.000; -719.000
210.259; -118.025; -939.000; -889.000
210.404;   -6.875; -171.000;  103.000
210.549;    7.825;  108.000;    3.000
210.695;   -8.050;   -3.000;  -95.000
210.840;   34.275;   94.000;   67.000
210.985;  -50.500; -484.000; -303.000
211.130;   67.825;  268.000;  406.000
211.275;   36.825;  207.000;  199.000
211.420;  -50.425; -300.000; -289.000
211.566;  -69.075; -536.000; -489.000
211.711;   12.525;  218.000;  157.000
211.856;  -65.275; -545.000; -519.000
212.001;   14.125;  151.000;   44.000
212.146;   24.475;  153.000;   49.000
212.291;  -29.525; -210.000; -186.000
212.436;  -25.175; -280.000;   -6.000
212.581;  -74.650; -685.000; -653.000
212.726;  -67.825; -487.000; -538.000
212.871;  -51.925; -552.000; -217.000
213.016; -130.025;-1172.000;-1029.000
213.161;   55.850;  406.000;  291.000
213.306;  -79.575; -435.000; -577.000
213.451;  -96.500; -778.000; -689.000
213.596;  -47.150; -455.000; -347.000
213.741;  -52.900; -448.000; -538.000
213.886;  -70.525; -498.000; -517.000
214.031;  -28.225; -294.000; -124.000
214.176;  -49.725; -408.000; -341.000
214.321;  -29.500; -296.000; -157.000
214.466;  -26.800; -163.000;  -43.000
214.611;   -5.500;  -61.000;  -10.000
214.756; -121.700; -948.000; -858.000
214.901;  -35.225; -388.000; -226.000
215.046; -123.850; -797.000; -825.000
215.191;   19.925;  128.000;   35.000
215.336;  -23.900; -157.000;  -19.000
215.480;  -68.575; -684.000; -505.000
215.625;   -3.700; -175.000;  -19.000
215.770;  -86.900; -757.000; -662.000
215.915;   -4.600;   -5.000;  -97.000
216.060;   -7.375; -113.000;  -21.000
216.205; -113.725; -731.000; -779.000
216.349;  -65.800; -470.000; -533.000
216.494; -116.500; -939.000; -867.000
216.639; -118.200; -823.000; -888.000
216.784;  -67.850; -577.000; -525.000
216.929;   60.600;  392.000;  281.000
217.073;    0.125; -244.000;  -31.000
217.218;    3.700;   78.000;  -47.000
217.363;  -83.425; -656.000; -618.000
217.507;  -72.700; -623.000; -588.000
217.652; -129.425; -845.000; -874.000
217.797;  -81.800; -708.000; -659.000
217.942; -103.900; -856.000; -720.000
218.086;   55.950;  608.000;  539.000
218.231;   -7.800; -174.000;  -26.000
218.376;  -26.300; -337.000; -229.000
218.520;   10.175;  -41.000;   96.000
218.665;  -34.750; -338.000; -204.000
218.810;  -36.525; -275.000; -233.000
218.954;   26.675;  201.000;   35.000
219.099; -111.425; -713.000; -963.000
219.243;  -63.050; -589.000; -554.000
219.388;  -38.475; -264.000; -136.000
219.532;   -7.275; -116.000; -116.000
219.677;  -75.525; -564.000; -521.000
219.822;   -1.550;   33.000;   89.000
219.966;    1.700;   17.000;  -99.000
220.111;  -30.075; -328.000;  -40.000
220.255;  -93.875; -797.000; -750.000
220.400;   -8.125; -180.000; -146.000
220.544;  -57.975; -516.000; -450.000
220.689;  -58.250; -422.000; -451.000
220.833;  -10.175; -123.000;  -58.000
220.978;  -42.150; -393.000; -563.000
221.122;   20.150;  319.000;  307.000
221.267; -126.500; -906.000; -837.000
221.411;  -59.850; -478.000; -394.000
221.555;   -2.625; -104.000;  -23.000
221.700;  -41.675; -329.000; -222.000
221.844;   21.675;  255.000;  272.000
221.989;  -44.775; -328.000; -311.000
222.133;  -41.825; -289.000; -307.000
222.277;    1.825;    5.000;   78.000
222.422;    9.450;  227.000;  113.000
222.566;  -31.500; -381.000; -214.000
222.711;  -54.075; -414.000; -479.000
222.855;  -88.675; -643.000; -586.000
222.999;  -81.250; -642.000; -717.000
223.144;  -23.875; -195.000; -194.000
223.288;   57.475;  423.000;  251.000
223.432;   34.175;  184.000;  230.000
223.576;   15.000;  152.000;  -21.000
223.721;   37.750;  364.000;  273.000
223.865;  -51.850; -472.000; -475.000
224.009;  257.950; 1673.000; 1631.000
224.153;  -80.800; -660.000; -671.000
224.298;  -67.450; -531.000; -489.000
224.442;  -20.350;  -74.000;  -33.000
224.586;   -6.700; -169.000; -106.000
224.730; -108.100; -858.000; -670.000
224.875; -105.675; -739.000; -688.000
225.019;   14.000;  102.000;  188.000
225.163;   41.750;  208.000;  341.000
225.307;   15.625;   97.000;  -91.000
225.451;   46.950;  360.000;  481.000
225.595;   27.950;  264.000;  176.000
225.739;  -11.525; -170.000;  -94.000
225.884;   -2.325;   86.000;    5.000
226.028;  -94.675; -760.000; -626.000
226.172;  -41.875; -260.000; -273.000
226.316; -126.750; -941.000; -902.000
226.460;  -59.025; -645.000; -493.000
226.604;  -62.625; -406.000; -400.000
226.748;  -90.750; -836.000; -733.000
226.892;  -38.475; -227.000; -181.000
227.036;  -40.950; -537.000; -447.000
227.180;  -58.450; -551.000; -375.000
227.324;  -77.575; -561.000; -580.000
227.468;  -97.950; -819.000; -717.000
227.612;    8.775;  242.000;  -28.000
227.756;  -99.300; -845.000; -698.000
227.900;   44.975;  342.000;  441.000
228.044;  -55.775; -509.000; -290.000
228.188;   61.625;  448.000;  568.000
228.332;  -77.750; -546.000; -472.000
228.476;  -23.925; -223.000; -149.000
228.620;  -25.050; -210.000; -150.000
228.764;   64.325;  431.000;  349.000
228.908;  -23.900; -155.000;   30.000
229.052;  -71.150; -615.000; -528.000
229.195;  -13.275; -172.000;   13.000
229.339;  -36.825; -235.000; -305.000
229.483;  -14.675;    5.000; -162.000
229.627;   -1.075; -156.000;  139.000
229.771;  -39.650; -218.000; -294.000
229.915;   14.175;  230.000;   79.000
230.059;  -96.100; -648.000; -663.000
230.202;  -44.800; -370.000; -317.000
230.346;  -11.300; -107.000;  107.000
230.490;  -63.175; -489.000; -521.000
230.634; -100.350; -736.000; -553.000
230.777;   87.400;  478.000;  509.000
230.921;  -57.975; -450.000; -359.000
231.065;  -38.900; -246.000; -286.000
231.209;   25.850;  261.000;  265.000
231.352;   22.500;   54.000;   40.000
231.496;   28.575;  568.000;  188.000
231.640;  -81.175; -693.000; -621.000
231.783;   51.725;  546.000;  525.000
231.927;  -42.400; -294.000; -365.000
232.071; -128.925; -962.000; -736.000
232.214; -116.625; -980.000; -764.000
232.358;  -97.300; -683.000; -599.000
232.502;    1.700;  -19.000;    7.000
232.645; -132.925;-1090.000; -927.000
232.789;  -16.075; -257.000; -218.000
232.933;  -37.325; -407.000; -224.000
233.076; -132.225;-1038.000; -897.000
233.220; -114.925; -752.000; -777.000
233.363;  -69.625; -669.000; -477.000
233.507;   63.625;  371.000;  129.000
233.650; -104.700; -764.000; -834.000
233.794;   54.750;  438.000;  461.000
233.938;  -66.075; -530.000; -362.000
234.081;  -24.400;  -93.000;   31.000
234.225;  -76.625; -631.000; -539.000
234.368; -125.550; -773.000; -723.000
234.512;  -36.300; -385.000; -299.000
234.655;  -92.175; -582.000; -555.000
234.798;  -64.150; -493.000; -466.000
234.942; -138.175; -884.000;-1002.000
235.085;  -79.100; -651.000; -443.000
235.229;  -69.100; -405.000; -410.000
235.372;  -43.175; -247.000; -191.000
235.516;  -56.850; -397.000; -321.000
235.659;   13.350;   92.000;  121.000
235.802;  -19.250;  -38.000;  -22.000
235.946;   27.650;  335.000;  215.000
236.089;   14.725;  126.000;  250.000
236.233;   39.175;  275.000;  298.000
236.376;  -41.000; -235.000; -378.000
236.519;  -49.475; -297.000; -319.000
236.663;  -16.600; -215.000; -117.000
236.806; -139.100;-1029.000; -999.000
236.949;   70.975;  543.000;  431.000
237.092;   55.425;  412.000;  391.000
237.236;  -92.100; -589.000; -502.000
237.379;   65.600;  352.000;  428.000
237.522; -116.975; -879.000; -768.000
237.666;  -29.575; -271.000;   18.000
237.809; -121.350; -851.000; -823.000
237.952;   29.175;  469.000;  271.000
238.095;  -71.875; -447.000; -442.000
238.238;   72.750;  688.000;  700.000
238.382;   -8.250;  166.000;  103.000
238.525;  -75.275; -598.000; -511.000
238.668; -145.800;-1060.000; -985.000
238.811;  -94.525; -638.000; -643.000
238.954;  -69.825; -483.000; -334.000
239.097;   93.025;  617.000;  664.000
239.241;   35.475;  394.000;  326.000
239.384;  -34.900; -254.000; -214.000
239.527;  -59.150; -424.000; -224.000
239.670; -145.575; -994.000;-1091.000
239.813; -103.825; -696.000; -658.000
239.956;   71.325;  579.000;  473.000
240.099; -102.950; -778.000; -725.000
240.242;   53.200;  428.000;  432.000
240.385;   50.700;  466.000;  450.000
240.528;  -84.500; -706.000; -473.000
240.671;   11.050;  189.000;  134.000
240.814;  -35.000; -441.000; -158.000
240.957;  -91.250; -767.000; -578.000
241.100; -103.625; -779.000; -755.000
241.243; -145.500;-1234.000; -893.000
241.386;  -70.025; -508.000; -379.000
241.529;  -93.075; -735.000; -547.000
241.672;  -68.725; -566.000; -495.000
241.815; -125.050; -832.000; -808.000
241.958;  -22.800; -125.000; -182.000
242.101;  -84.450; -545.000; -390.000
242.244;  -50.000; -270.000; -325.000
242.387;  -50.600; -304.000; -246.000
242.530;   63.100;  470.000;  134.000
242.673;  -55.475; -381.000; -309.000
242.815; -125.025; -925.000; -899.000
242.958;  -84.025; -482.000; -381.000
243.101;   10.250;  132.000;  187.000
243.244;  -80.875; -564.000; -521.000
243.387;  -57.600; -313.000; -316.000
243.530; -104.875; -657.000; -674.000
243.672;   -4.925;   43.000;  -92.000
243.815;  -43.900; -355.000; -283.000
243.958;   -4.075;   98.000;  -26.000
244.101;   -2.150;   59.000;  -16.000
244.243;  -15.000;  -47.000;  101.000
244.386; -111.850; -761.000; -630.000
244.529;  -23.700; -132.000; -139.000
244.672; -149.650;-1154.000; -951.000
244.814; -104.550; -621.000; -794.000
244.957;  -43.675; -380.000; -304.000
245.100;  -83.200; -489.000; -489.000
245.242;  -53.975; -387.000; -374.000
245.385;   -8.325;  -59.000;  -39.000
245.528; -115.800; -871.000; -705.000
245.670;   82.575;  612.000;  634.000
245.813;  -74.525; -599.000; -547.000
245.956;  -30.100; -324.000; -275.000
246.098;  -81.075; -508.000; -650.000
246.241;    8.400;  194.000;   48.000
246.383;  -11.450; -119.000;  -73.000
246.526;  -84.600; -454.000; -525.000
246.669; -116.575; -889.000; -780.000
246.811;    5.575;  172.000;   -1.000
246.954;  -69.450; -512.000; -426.000
247.096;  -27.925;  -84.000;   -6.000
247.239;  -58.875; -482.000; -445.000
247.381;  -76.275; -647.000; -488.000
247.524;   81.475;  645.000;  679.000
247.666;  -19.775;   58.000;   11.000
247.809; -109.250; -887.000; -691.000
247.951;   -8.625;  -75.000;  138.000
248.094;   31.725;  432.000;  308.000
248.236; -158.225;-1262.000;-1238.000
248.378;   -4.175; -356.000;  -81.000
248.521;  -27.925; -334.000; -337.000
248.663;  -32.600; -236.000; -267.000
248.806;   -7.225; -300.000; -266.000
248.948;  -93.650; -886.000; -763.000
249.090;  -45.625; -428.000; -398.000
249.233;  -52.600; -344.000; -381.000
249.375;  -51.500; -474.000; -451.000
249.518;  -18.450;  -83.000; -133.000
249.660;   -8.150; -103.000;    3.000
249.802; -179.925;-1303.000;-1189.000
249.945;  -70.850; -612.000; -540.000
250.087; -103.300; -834.000; -768.000
250.229;  -46.475; -362.000; -480.000
250.371;  -74.800; -494.000; -439.000
250.514;  -53.250; -310.000; -244.000
250.656;  -56.050;   69.000;  102.000
250.798; -124.425; -849.000; -800.000
250.940;  -64.675; -322.000; -322.000
251.083;  -31.825; -335.000; -111.000
251.225;   46.850;  338.000;  310.000
251.367;  -48.950; -274.000; -373.000
251.509;  -35.800; -265.000; -210.000
251.651;  -96.225; -731.000; -671.000
251.794;   56.575;  538.000;  632.000
251.936; -108.325; -821.000; -747.000
252.078;  -65.525; -540.000; -461.000
252.220;  -78.300; -645.000; -477.000
252.362;   88.625;  344.000;  462.000
252.504;  -68.725; -677.000; -584.000
252.646; -109.925; -875.000; -722.000
252.788;  -12.275;   14.000; -128.000
252.931;  -38.725; -257.000; -253.000
253.073;  -53.825; -376.000; -317.000
253.215;    4.000;  141.000;  122.000
253.357;  -20.075;   82.000; -153.000
253.499;  -38.700; -374.000; -234.000
253.641;  -81.975; -749.000; -594.000
253.783;  -88.275; -609.000; -527.000
253.925;  -81.900; -586.000; -591.000
254.067; -105.875; -744.000; -667.000
254.209;  -23.900; -391.000; -259.000
254.351; -144.375; -865.000; -883.000
254.493;  -54.250; -441.000; -417.000
254.635; -133.525; -936.000; -818.000
254.777;  -87.650; -752.000; -687.000
254.918;  -65.175; -512.000; -430.000
255.060;  -74.800; -551.000; -395.000
255.202;  -46.550; -473.000; -261.000
255.344;  -84.650; -658.000; -455.000
255.486;  -77.100; -471.000; -406.000
255.628; -116.375; -780.000; -781.000
255.770;  -95.975; -676.000; -536.000
255.912;  -72.475; -559.000; -468.000
256.053;  -97.900; -730.000; -508.000
256.195;  135.625; 1008.000;  903.000
256.337; -111.275; -861.000; -595.000
256.479;   55.025;  532.000;  416.000
256.621;  -40.975; -394.000; -212.000
256.762;  -89.250; -789.000; -742.000
256.904;   57.800;  485.000;  487.000
257.046;  -44.675; -381.000; -271.000
257.188;  -55.300; -351.000; -264.000
257.329;  -79.800; -525.000; -464.000
257.471; -100.675; -939.000; -807.000
257.613;  -68.950; -584.000; -498.000
257.755; -141.275;-1073.000; -982.000
257.896;   20.650;  286.000;  392.000
258.038;  -65.875; -403.000; -352.000
258.180;  -49.200; -354.000; -279.000
258.321;  -85.400; -581.000; -457.000
258.463;   -4.950;  -71.000;  133.000
258.605;  -81.200; -562.000; -570.000
258.746;  -96.150; -886.000; -772.000
258.888; -137.725;-1026.000;-1020.000
259.029;   13.700;  121.000;   -8.000
259.171;  -92.275; -614.000; -550.000
259.313;   -6.275;  -49.000;  -47.000
259.454;  -78.250; -536.000; -414.000
259.596;  -59.650; -483.000; -390.000
259.737;  -79.050; -590.000; -474.000
259.879;   20.900;  217.000;  311.000
260.020;   85.675;  901.000;  636.000
260.162;  -35.625; -146.000; -253.000
260.303; -116.950; -768.000; -687.000
260.445;  -80.175; -609.000; -613.000
260.586;   19.300;  392.000;  157.000
260.728;  -49.925; -360.000; -248.000
260.869; -129.875; -350.000; -343.000
261.011;   69.000;  706.000;  537.000
261.152;  -73.525; -479.000; -319.000
261.293;  -79.050; -576.000; -595.000
261.435;  -35.650; -219.000; -184.000
261.576;  -48.800; -455.000; -325.000
261.718;   45.300;  420.000;  470.000
261.859; -122.475; -940.000; -949.000
262.000; -136.775; -951.000;-1016.000
262.142;  -25.625;  -52.000;  -60.000
262.283; -120.775; -808.000; -691.000
262.424;  -97.475; -666.000; -625.000
262.566; -145.750;-1161.000; -983.000
262.707; -120.250; -840.000; -830.000
262.848; -114.575; -769.000; -726.000
262.990;  -48.225; -362.000; -345.000
263.131;   76.575;  650.000;  681.000
263.272;  -12.500;  -61.000;  -41.000
263.413;  -89.600; -589.000; -561.000
263.555;  -64.975; -669.000; -143.000
263.696;  -82.675; -550.000; -641.000
263.837;  -71.550; -449.000; -551.000
263.978;  -14.300;   -5.000;  -77.000
264.119;  -51.775; -283.000; -264.000
264.261; -118.150; -847.000; -630.000
264.402;   -8.200;   33.000;   40.000
264.543;  -69.900; -509.000; -524.000
264.684;  -10.950;   61.000;  -50.000
264.825;  -73.600; -816.000; -538.000
264.966;   -7.300;  -84.000;  -67.000
265.107; -116.625; -646.000; -670.000
265.248; -107.700; -825.000; -812.000
265.390;   -5.200;  152.000;   -9.000
265.531;  -24.975; -238.000; -107.000
265.672;  -80.125; -557.000; -630.000
265.813;   61.500;  563.000;  439.000
265.954; -148.600; -959.000; -940.000
266.095;  -18.900; -372.000; -322.000
266.236;  -95.425; -686.000; -548.000
266.377;  -36.950; -243.000; -297.000
266.518;  -66.275; -619.000; -547.000
266.659;   22.725;  170.000;  268.000
266.800;   12.325;   83.000;   85.000
266.941;  -80.375; -487.000; -478.000
267.082;    5.075;  354.000;   99.000
267.223;  -53.975; -344.000; -273.000
267.364; -114.350; -892.000; -686.000
267.504;  -19.225;    3.000;  135.000
267.645;    2.625;  160.000;   67.000
267.786;  -38.375; -147.000;  -86.000
267.927;  -73.550; -473.000; -379.000
268.068;  -25.625; -186.000;  -61.000
268.209;  -51.975; -175.000; -413.000
268.350;  -69.425; -388.000; -532.000
268.490;  -77.700; -648.000; -521.000
268.631;   25.925;  127.000;  225.000
268.772; -111.125; -874.000; -647.000
268.913;  -62.075; -328.000; -476.000
269.054;   -6.675; -117.000;   12.000
269.194;  -46.800; -418.000; -402.000
269.335; -153.925;-1137.000;-1074.000
269.476;  -24.825;   33.000;  -35.000
269.617;  -39.025; -347.000; -392.000
269.757;  -88.625; -713.000; -646.000
269.898;  -94.625; -856.000; -613.000
270.039;  -69.675; -415.000; -405.000
270.180; -138.150; -952.000; -816.000
270.320;  -45.725; -190.000; -250.000
270.461;  -43.725; -277.000; -249.000
270.602;  -14.675; -186.000; -156.000
270.742; -128.850; -868.000; -943.000
270.883;  -65.300; -442.000; -390.000
271.023;  -47.775; -358.000; -357.000
271.164;  -85.575; -607.000; -528.000
271.305;  -83.150; -666.000; -654.000
271.445; -104.900; -722.000; -683.000
271.586;  -61.775; -462.000; -283.000
271.726;  -59.125; -397.000; -322.000
271.867;  -41.200; -594.000; -534.000
272.008;  190.900; -473.000; -285.000
272.148;  137.700;  462.000;  468.000
272.289;    2.450; -113.000; -181.000
272.429;    8.450;   19.000;  185.000
272.570;  -98.825; -633.000; -737.000
272.710;  -92.475; -825.000; -775.000
272.851;  -28.375;  113.000; -130.000
272.991; -159.900;-1173.000;-1077.000
273.131;  -70.025; -419.000; -459.000
273.272;  -90.275; -683.000; -723.000
273.412;   18.325; -143.000;  -31.000
273.553;  -48.900; -488.000; -507.000
273.693;  147.550;  913.000;  858.000
273.834;  -98.375; -894.000; -692.000
273.974;  -70.250; -664.000; -615.000
274.114;  -97.400; -772.000; -560.000
274.255;   71.750;  414.000;  373.000
274.395;   10.650; -180.000; -125.000
274.535;   34.150;  199.000;  350.000
274.676;   21.300;  225.000;   94.000
274.816;    7.900;  110.000;   34.000
274.956;  -73.650; -624.000; -690.000
275.097;  -44.550;-1014.000; -922.000
275.237; -118.125; -913.000; -803.000
275.377;  -98.175; -778.000; -689.000
275.517; -146.850; -878.000; -937.000
275.658;  -57.000; -590.000; -555.000
275.798;  -67.625; -606.000; -413.000
275.938;   26.000;  215.000;  323.000
276.078;  -99.775; -626.000; -395.000
276.218;   -2.625;   99.000;  104.000
276.359; -128.750;-1026.000;-1024.000
276.499;  -71.350; -605.000; -446.000
276.639;  -30.925; -305.000; -151.000
276.779;  -42.150; -475.000; -357.000
276.919;  -98.900; -783.000; -624.000
277.059;  -34.075; -261.000; -212.000
277.199;  -39.500; -357.000; -259.000
277.340;   42.850;  287.000;  175.000
277.480; -104.600; -840.000; -693.000
277.620;   13.175;  192.000;   16.000
277.760; -195.900;-1533.000;-1294.000
277.900;   16.475;  113.000;   33.000
278.040;   23.350;  137.000;  159.000
278.180;   22.675;  270.000;  170.000
278.320;   -7.425;   21.000;   56.000
278.460;  -83.200; -443.000; -469.000
278.600;  -87.000; -708.000; -598.000
278.740;   55.050;  448.000;  224.000
278.880;  -43.550; -768.000; -791.000
279.020;   -9.225; -194.000; -144.000
279.160;  -98.025; -672.000; -595.000
279.300; -133.425; -926.000; -873.000
279.440;  -90.250; -709.000; -622.000
279.579;   -6.700;-1014.000; -929.000
279.719;  -35.950; -410.000; -394.000
279.859;   69.475;   -4.000;   41.000
279.999;   40.950; -208.000;  101.000
280.139;  -22.525; -435.000; -387.000
280.279;  -70.500; -708.000; -745.000
280.419;   -6.875; -229.000; -147.000
280.559;  -32.675; -259.000; -180.000
280.698;  -83.250; -790.000; -639.000
280.838;  -85.100; -778.000; -800.000
280.978;  -94.750; -846.000; -790.000
281.118; -109.075; -811.000; -704.000
281.257;   -0.450;   24.000;    6.000
281.397; -109.550;-1094.000; -960.000
281.537;  -84.225; -599.000; -712.000
281.677;  -30.575; -150.000; -101.000
281.816;  -90.400; -700.000; -630.000
281.956;  -26.150; -193.000; -257.000
282.096;  -67.150; -539.000; -396.000
282.235;  -95.475; -672.000; -638.000
282.375;  -22.500; -243.000;  -98.000
282.515; -101.225; -715.000; -707.000
282.654;   22.200;   29.000;  106.000
282.794;   31.725;  388.000;  244.000
282.934;  -52.500; -530.000; -491.000
283.073; -127.950;-1030.000; -857.000
283.213;  -56.150; -460.000; -467.000
283.353;  -31.625; -408.000; -349.000
283.492;  -37.100; -264.000; -296.000
283.632;  -39.000; -254.000; -168.000
283.771;  -97.075; -859.000; -730.000
283.911;  -43.675; -369.000; -260.000
284.050; -109.400; -794.000; -748.000
284.190; -160.825;-1229.000;-1096.000
284.329; -143.625;-1055.000; -964.000
284.469;  -60.150; -516.000; -591.000
284.608;  -66.625; -559.000; -598.000
284.748;  -73.625; -614.000; -570.000
284.887;  -11.925;  -87.000;  -20.000
285.027; -110.825; -844.000; -892.000
285.166;  -30.900; -192.000; -249.000
285.306;   15.175; -116.000;  -33.000
285.445;  -46.225; -229.000; -343.000
285.584;  -88.725; -630.000; -494.000
285.724;  -57.700; -282.000; -322.000
285.863; -119.825; -857.000; -507.000
286.002;  -42.700; -366.000; -276.000
286.142; -108.950; -715.000; -622.000
286.281;  -77.050; -525.000; -493.000
286.420;  -77.025; -554.000; -417.000
286.560;   86.425;  653.000;  623.000
286.699; -142.650; -958.000; -912.000
286.838;  -87.725; -590.000; -591.000
286.978;  -80.775; -533.000; -537.000
287.117; -136.275;-1085.000; -950.000
287.256;  -32.450; -228.000; -211.000
287.395;  -63.175; -197.000; -378.000
287.535;  -62.400; -370.000; -298.000
287.674;  -82.375; -509.000; -484.000
287.813;   48.950;  661.000;  533.000
287.952; -132.450;-1010.000; -871.000
288.091; -149.350;-1049.000; -915.000
288.231;   24.300;   13.000;   15.000
288.370; -174.650;-1217.000;-1200.000
288.509;  -93.425; -728.000; -645.000
288.648;  -84.175; -770.000; -548.000
288.787;  -31.900; -243.000;  -87.000
288.926;  -68.900; -454.000; -475.000
289.065;  100.400;  859.000;  672.000
289.204;  -51.900; -377.000; -217.000
289.344; -105.050; -791.000; -690.000
289.483;   23.425;  416.000;  304.000
289.622;  -35.100; -291.000; -149.000
289.761;  -12.250; -309.000; -166.000
289.900; -111.825; -785.000; -626.000
290.039;  -10.200;  -12.000;  -95.000
290.178;  -48.550; -274.000; -180.000
290.317;  -77.925; -618.000; -479.000
290.456;  -67.275; -463.000; -451.000
290.595; -131.775; -961.000; -833.000
290.734; -148.650; -904.000; -891.000
290.873;  -52.025; -456.000; -420.000
291.011; -113.825; -833.000; -843.000
291.150;  -95.325; -770.000; -682.000
291.289;  -25.025; -343.000; -110.000
291.428; -105.200; -599.000; -480.000
291.567;  -53.550; -370.000; -442.000
291.706;    9.025;  109.000;  154.000
291.845;  -90.775; -597.000; -505.000
291.984; -167.025;-1234.000;-1061.000
292.122;   56.300;  602.000;  582.000
292.261;   40.950;  620.000;  463.000
292.400;   -0.825; -144.000;  211.000
292.539; -124.325; -959.000; -813.000
292.678;  -28.025; -325.000; -300.000
292.816; -156.650;-1136.000; -965.000
292.955;  -83.775; -844.000; -684.000
293.094;  -24.950; -173.000; -337.000
293.233;  -64.425; -556.000; -400.000
293.371;  -39.350; -225.000;  -84.000
293.510; -102.100; -866.000; -780.000
293.649; -126.725; -959.000; -924.000
293.787;  -52.100;-1083.000;-1012.000
293.926;   -5.850; -113.000;  -32.000
294.065;  -44.675; -379.000; -290.000
294.203;   53.425;  298.000;  406.000
294.342;   20.175;   74.000;  156.000
294.481; 6196.875;51180.000; -836.000
294.619;  -30.900; -425.000; -582.000
294.758; -143.450;-1230.000;-1137.000
294.896;   74.150; -125.000;    5.000
295.035; -127.625;-1040.000;-1006.000
295.174; -127.650;-1082.000; -954.000
295.312;  -34.225; -323.000; -203.000
295.451;  -17.425; -307.000; -428.000
295.589;  -47.675; -389.000; -518.000
295.728;   18.800; -292.000; -165.000
295.866;   -2.575;  -36.000;  -51.000
296.005;  -67.625; -584.000; -341.000
296.143;  -62.675; -558.000; -596.000
296.282; -111.150; -957.000; -881.000
296.420;  -80.625; -657.000; -557.000
296.559;  -84.275; -892.000; -633.000
296.697;   50.550; -847.000; -665.000
296.835;   74.675;-1141.000;-1002.000
296.974;   42.000;  -23.000;   39.000
297.112;   16.075; -443.000; -504.000
297.251;  -77.325; -815.000; -755.000
297.389;   98.300; -576.000; -438.000
297.527;   51.550; -145.000;  -83.000
297.666;  -50.600; -486.000; -438.000
297.804;  -55.525; -404.000; -264.000
297.942;  -22.900; -136.000; -161.000
298.081;   -9.475; -183.000;   63.000
298.219;   80.375;  -17.000;  -19.000
298.357;   67.175; -144.000;  -71.000
298.495;   48.475; -810.000; -812.000
298.634;   95.575;  245.000;  219.000
298.772;   72.300; -220.000; -338.000
298.910;  -26.200; -309.000; -182.000
299.048;  -30.525; -130.000; -153.000
299.187;  -42.225; -350.000; -250.000
299.325;   12.900;   52.000;  122.000
299.463;   62.350; -389.000; -299.000
299.601;  113.325; -327.000; -271.000
299.739;  -97.300; -908.000; -883.000
299.877;  -77.575; -791.000; -703.000
300.016;  -26.725;-1095.000; -935.000
300.154;  188.350;  -19.000; -161.000
300.292;   69.550; -428.000; -348.000
300.430;   38.125; -408.000; -291.000
300.568;  -91.025; -940.000; -874.000
300.706;  -42.050; -366.000; -469.000
300.844;  -66.725;-1108.000; -979.000
300.982;  122.575;  246.000;  282.000
301.120; -103.525; -965.000; -866.000
301.258;  -77.675; -812.000; -705.000
301.396;   52.025;  104.000;  -41.000
301.534;   96.875; -218.000; -293.000
301.672;   16.100; -664.000; -521.000
301.810;   35.350; -613.000; -545.000
301.948;  128.775;   53.000;  149.000
302.086;  693.375; -250.000;  -32.000
302.224; 1092.425; -610.000; -585.000
302.362;   40.775; -558.000; -622.000
302.500;    2.975; -923.000; -893.000
302.638;  107.225;  128.000;  245.000
302.776;   -0.600; -352.000; -408.000
302.913;   33.900;  447.000;  236.000
303.051;    4.450;  -86.000;  -23.000
303.189;   64.925;   90.000;  118.000
303.327;  -36.625; -341.000; -256.000
303.465;  -83.025; -832.000; -588.000
303.603;  -83.475; -805.000; -604.000
303.740;  115.625;  417.000;  241.000
303.878;   24.200; -800.000; -759.000
304.016;  -80.275; -915.000; -790.000
304.154; -117.675;-1123.000;-1152.000
304.291;  -24.625; -505.000; -554.000
304.429;   12.300;  102.000;   74.000
304.567; -122.325; -908.000; -893.000
304.705;  -57.225; -408.000; -515.000
304.842;  122.800; -616.000; -540.000
304.980;   76.700;  215.000;   35.000
305.118;   37.800; -367.000; -365.000
305.255;  -62.025; -945.000; -927.000
305.393;   53.675;  178.000;  239.000
305.531;  -89.750;-1173.000; -956.000
305.668;  -58.675; -663.000; -582.000
305.806;  139.275; -358.000; -439.000
305.943;  127.950; -629.000; -637.000
306.081;   68.075; -378.000; -267.000
306.219; -110.450; -863.000; -748.000
306.356;    3.775;  158.000;   27.000
306.494;   81.350;  981.000;  761.000
306.631;    0.750;  -11.000;  -55.000
306.769;   14.175; -613.000; -485.000
306.906;  -21.325; -284.000; -258.000
307.044;  -60.175; -473.000; -488.000
307.181;  -50.150; -410.000; -332.000
307.319;    3.950;  112.000;   87.000
307.456; -171.625;-1191.000;-1153.000
307.594;  -94.825; -980.000; -727.000
307.731;  -19.500; -371.000; -164.000
307.868;    5.175;  -15.000;   20.000
308.006; -131.025; -961.000; -847.000
308.143;  -77.300; -618.000; -330.000
308.281;  201.175;  -37.000; -254.000
308.418;    3.750; -748.000; -640.000
308.555;  -67.450; -400.000; -250.000
308.693;  -81.025; -577.000; -573.000
308.830; -115.150; -712.000; -657.000
308.967;  -16.125; -215.000;  -95.000
309.105;  -46.550; -507.000; -396.000
309.242;   51.200; -468.000; -367.000
309.379;  373.225; -577.000; -655.000
309.517;  -57.450; -936.000; -948.000
309.654; -109.100; -910.000; -734.000
309.791;  -72.025; -662.000; -580.000
309.928; -109.575; -977.000; -914.000
310.065;  180.850;  819.000;  697.000
310.203;    1.075; -825.000; -850.000
310.340;  -16.950; -465.000; -321.000
310.477;  -67.700; -412.000; -516.000
310.614;  -70.750; -383.000; -473.000
310.751;  -83.200; -427.000; -518.000
310.889;  -21.325;    1.000;   11.000
311.026; -157.550;-1161.000; -939.000
311.163;  -40.825; -386.000; -380.000
311.300;  -84.450; -512.000; -479.000
311.437;  -93.350; -658.000; -619.000
311.574; -157.600;-1226.000; -985.000
311.711;  -58.875; -595.000; -433.000
311.848;  -38.900; -380.000; -388.000
311.985;    1.700;  270.000;   93.000
312.122; -135.125; -932.000; -762.000
312.259; -120.075; -941.000; -994.000
312.396;  -88.700; -508.000; -551.000
312.533; -102.425; -812.000; -790.000
312.670; -128.000;-1070.000; -898.000
312.807;  -38.825; -352.000; -367.000
312.944;  -83.725; -513.000; -611.000
313.081;  -30.075; -150.000; -415.000
313.218; -105.950;-1111.000; -867.000
313.355;   18.850; -531.000; -449.000
313.492;    5.800; -455.000; -292.000
313.629;  119.800;  815.000;  735.000
313.766; -156.450;-1176.000;-1008.000
313.902;  -25.850; -186.000;   21.000
314.039;  -35.950; -372.000; -289.000
314.176;   11.900;  286.000;  192.000
314.313;  -70.675; -569.000; -473.000
314.450;  -91.125; -788.000; -684.000
314.587;  -58.975; -468.000; -480.000
314.723;    3.000;  -78.000;  130.000
314.860;   31.800;  318.000;  332.000
314.997;   35.575;  223.000;  142.000
315.134;  -45.400; -385.000; -368.000
315.270;  -29.700; -480.000; -496.000
315.407; -101.350;-1094.000; -967.000
315.544;  -46.675; -657.000; -538.000
315.681;  -60.025; -681.000; -565.000
315.817;   25.100; -133.000; -176.000
315.954;   -0.450; -613.000; -392.000
316.091; -117.500;-1045.000;-1023.000
316.227;  -21.375;  -71.000; -179.000
316.364;   -4.500;   23.000;    6.000
316.500;  -50.825; -113.000; -300.000
316.637;  -46.175; -181.000; -302.000
316.774;  -77.200; -625.000; -358.000
316.910;  -86.375; -598.000; -629.000
317.047;  -75.650; -487.000; -351.000
317.183;  -42.175; -435.000; -566.000
317.320;  -21.175; -367.000; -321.000
317.456;  -68.100; -733.000; -805.000
317.593;  -76.675; -598.000; -641.000
317.729;   -3.350;  168.000;  -67.000
317.866; -206.075;-1434.000;-1285.000
318.002;  -95.275; -708.000; -948.000
318.139;  -80.050; -883.000; -867.000
318.275; -110.175;-1003.000; -738.000
318.412;  -67.475; -517.000; -336.000
318.548;  -28.600; -751.000; -720.000
318.685;  -98.975; -985.000; -888.000
318.821;  -90.875; -762.000; -735.000
318.957;   -9.675;   34.000;  -23.000
319.094;   18.550;  297.000;  154.000
319.230;  -69.075; -756.000; -742.000
319.367;  147.075; -471.000; -520.000
319.503;   75.075; -538.000; -436.000
319.639; -102.475; -877.000; -793.000
319.775;  -54.850; -750.000; -685.000
319.912;  -45.925; -424.000; -519.000
320.048;  -89.625;-1184.000;-1184.000
320.184;   56.400;   59.000;   70.000
320.321;  -49.200; -497.000; -467.000
320.457;   58.225;  475.000;  662.000
320.593;  -72.100; -375.000; -382.000
320.729; -100.650; -732.000; -734.000
320.866;  -72.325; -577.000; -635.000
321.002;  -87.175; -759.000; -809.000
321.138;   -2.700; -135.000; -211.000
321.274;   92.125; -148.000; -115.000
321.410;  -16.500; -585.000; -353.000
321.546;  -20.425;-1011.000; -911.000
321.683;   55.950;  400.000;  185.000
321.819;    6.075;  -48.000; -117.000
321.955; -108.275; -743.000; -722.000
322.091;  -38.600; -585.000; -540.000
322.227;   -0.950; -382.000; -202.000
322.363;  -10.375; -320.000; -215.000
322.499;  -31.175; -343.000; -331.000
322.635;  182.125;  636.000;  443.000
322.771;   34.175; -139.000;   12.000
322.907;   92.625;  129.000;  327.000
323.043;   -6.150; -115.000; -206.000
323.179;  -39.875; -394.000; -363.000
323.315;   37.875; -401.000; -371.000
323.451;  107.125; -328.000; -236.000
323.587;   65.650;  -60.000;  -77.000
323.723;   35.575; -682.000; -601.000
323.859;   -1.900; -258.000;  -76.000
323.995;  -20.300; -467.000; -409.000
324.131; -119.400; -967.000; -892.000
324.267;  -52.175; -254.000; -276.000
324.402; -132.175; -960.000; -983.000
324.538;  -18.850; -279.000; -104.000
324.674;   15.125;  164.000;   77.000
324.810;  126.950;  226.000;  308.000
324.946;   16.150; -810.000; -658.000
325.082;  -78.875; -568.000; -475.000
325.217;  -17.875;  -62.000;   16.000
325.353;  -93.625; -764.000; -659.000
325.489;  -84.425; -540.000; -506.000
325.625;  -76.500; -579.000; -525.000
325.760;   47.250;  517.000;  376.000
325.896;  -37.875; -515.000; -702.000
326.032;  -55.725; -403.000; -352.000
326.168;  -65.875; -462.000; -369.000
326.303;  -60.250; -352.000; -461.000
326.439;  -24.900; -336.000; -276.000
326.575;    7.425; -190.000;  -29.000
326.710;   -2.625; -156.000;  -30.000
326.846;  -14.225;  146.000;  103.000
326.982; -109.425; -530.000; -548.000
327.117;  -73.375; -481.000; -442.000
327.253;  -98.650; -745.000; -742.000
327.388; -157.225;-1137.000;-1153.000
327.524;  -54.075; -811.000; -578.000
327.659;  -22.800;  -58.000;  -22.000
327.795;  -20.350;   69.000;   45.000
327.931;  -91.400; -723.000; -499.000
328.066;  -37.225; -417.000; -276.000
328.202;   -2.925;   12.000; -129.000
328.337;   86.400;  957.000;  713.000
328.473;   34.000;  -12.000;  -74.000
328.608;  -21.950; -256.000; -267.000
328.743;  -67.275; -799.000; -664.000
328.879;   22.675;  214.000;  114.000
329.014;  -18.275; -102.000; -122.000
329.150;  -78.300; -358.000; -483.000
329.285;  -84.875; -465.000; -466.000
329.421;  -67.050; -548.000; -246.000
329.556;  -34.400;  -36.000;   85.000
329.691;  -96.650; -633.000; -615.000
329.827;  -87.275; -626.000; -480.000
329.962;  -54.275;  131.000; -301.000
330.097; -105.700; -673.000; -585.000
330.233;  -57.200; -410.000; -223.000
330.368; -119.850; -839.000; -628.000
330.503;  -28.925;    3.000;   98.000
330.638;   14.350;  -93.000; -125.000
330.774;  -58.350; -609.000; -530.000
330.909;  -43.875; -434.000; -244.000
331.044; -101.650; -714.000; -708.000
331.179; -165.875;-1217.000;-1109.000
331.315;    5.425;   77.000;   20.000
331.450;   22.025;  157.000;  285.000
331.585;  -90.950; -805.000; -706.000
331.720;  -82.125; -510.000; -460.000
331.855;  -23.050;  -35.000; -102.000
331.990;  248.375;   62.000;  138.000
332.126;  111.650; -110.000;   71.000
332.261;  -27.050; -379.000; -265.000
332.396;    2.300; -135.000; -242.000
332.531; -101.200;-1074.000;-1031.000
332.666;   38.350; -519.000; -363.000
332.801;  -99.175; -726.000; -807.000
332.936;  -28.950; -192.000; -122.000
333.071; -145.900; -870.000; -817.000
333.206;    3.550;  307.000;  379.000
333.341;   28.575;  344.000;  418.000
333.476;  -80.300; -627.000; -623.000
333.611;  -40.850; -251.000; -173.000
333.746;  -54.525; -381.000; -464.000
333.881; -118.000; -973.000; -935.000
334.016; -133.675; -936.000; -917.000
334.151; -119.075; -746.000; -702.000
334.286;   37.725;  152.000;  186.000
334.421;   -4.175; -125.000; -178.000
334.556;  -83.500; -611.000; -567.000
334.690;  -78.250; -631.000; -577.000
334.825;   43.600;  381.000;   83.000
334.960;  -54.075; -285.000; -413.000
335.095;   -2.250;  135.000;  -91.000
335.230;  -98.450; -722.000; -738.000
335.365; -138.050;-1084.000; -990.000
335.499; -118.800;-1108.000;-1037.000
335.634;   29.775;    9.000;  534.000
335.769;  -98.875; -755.000; -720.000
335.904;  -69.325; -603.000; -561.000
336.038;  -49.400; -735.000; -657.000
336.173; -113.350;-1206.000;-1194.000
336.308;    7.425; -116.000; -189.000
336.443;   15.775; -544.000; -634.000
336.577;  -73.350; -936.000; -787.000
336.712;   72.175;   -4.000;  -12.000
336.847;  -20.250; -724.000; -607.000
336.981;   81.850; -272.000; -208.000
337.116;  316.750;  615.000;  501.000
337.250;  176.200; -434.000; -421.000
337.385;  244.550; -297.000; -208.000
337.520;   83.550; -632.000; -603.000
337.654;  -54.875; -215.000; -126.000
337.789; -129.350; -989.000; -933.000
337.923;  -34.175; -104.000; -205.000
338.058;  -92.025; -673.000; -738.000
338.192;  -34.100; -611.000; -488.000
338.327;  -26.300;  -18.000; -155.000
338.461;  -61.450; -299.000; -469.000
338.596;  -92.900; -780.000; -638.000
338.730;  -95.525; -767.000; -803.000
338.865;   78.550;  -46.000; -140.000
338.999;  -50.825; -846.000; -702.000
339.134;  -24.150; -634.000; -536.000
339.268;   13.500; -741.000; -603.000
339.403;  370.350; -740.000; -775.000
339.537;  110.400; -894.000; -820.000
339.671; -124.275; -829.000; -813.000
339.806;  -53.025; -556.000; -512.000
339.940;    7.575; -261.000; -235.000
340.074;  -97.775; -685.000; -510.000
340.209;  -50.125; -351.000; -230.000
340.343;  -79.800; -517.000; -573.000
340.477;  146.075;  998.000; 1036.000
340.612;  -57.575;-1033.000; -900.000
340.746;  127.675; -199.000; -243.000
340.880;  -65.625; -924.000; -785.000
341.014;  -34.275;  -45.000; -154.000
341.149; -112.500; -756.000; -718.000
341.283; -113.350; -839.000; -754.000
341.417;  -95.925;-1124.000; -938.000
341.551;  144.525; -768.000; -708.000
341.685;  -33.975; -633.000; -611.000
341.820;  -55.575; -562.000; -493.000
341.954;  -58.225; -218.000; -349.000
342.088; -156.800;-1102.000;-1019.000
342.222;   62.300;  565.000;  618.000
342.356;  -55.900; -395.000; -335.000
342.490;  -99.100; -880.000; -841.000
342.624;  -55.550; -339.000; -242.000
342.758;   14.275; -364.000; -312.000
342.892;  -61.950; -710.000; -585.000
343.026;  -33.050;  -58.000; -116.000
343.160;  -68.425; -426.000; -376.000
343.294;  -76.675; -474.000; -337.000
343.428;  -12.925; -488.000; -448.000
343.562;  -13.100; -172.000;  -23.000
343.696;  -38.850; -385.000; -314.000
343.830;  -12.450; -362.000; -356.000
343.964;    2.475; -231.000; -168.000
344.098; 1009.175;  199.000;   70.000
344.232;  856.650; -266.000; -127.000
344.366;  104.400; -567.000; -453.000
344.500;   75.950; -665.000; -744.000
344.634;   35.525; -324.000; -164.000
344.768;  -13.425; -531.000; -341.000
344.902;   22.850;  278.000;  256.000
345.035;  -73.600; -556.000; -496.000
345.169; -125.525; -933.000; -656.000
345.303;  -30.750; -308.000; -482.000
345.437;  -62.600; -826.000; -717.000
345.571;  -79.275; -675.000; -594.000
345.704;  -68.875; -309.000; -532.000
345.838;  -23.425; -331.000; -284.000
345.972;  -30.900; -543.000; -495.000
346.106;  168.025; -179.000; -190.000
346.239;  442.675; -312.000; -243.000
346.373;   13.400; -343.000; -302.000
346.507; -131.625; -950.000; -962.000
346.640;  172.750;  -30.000;   13.000
346.774;  -30.975; -650.000; -797.000
346.908;  -29.250; -138.000;  -11.000
347.041;  -93.625; -646.000; -593.000
347.175;   -3.075;  259.000;   27.000
347.309;  -54.675; -698.000; -628.000
347.442; -103.450; -883.000; -732.000
347.576;  301.225;  670.000;  668.000
347.709;  229.150; -123.000;  -52.000
347.843;  -90.800; -933.000; -825.000
347.976;   29.400;  235.000;  294.000
348.110; -171.800;-1268.000;-1186.000
348.243; -104.225; -679.000; -772.000
348.377;   -3.650;  -26.000;   60.000
348.510;   43.275;  403.000;  540.000
348.644;  -36.775;  -37.000; -159.000
348.777;   -3.050;  180.000;  191.000
348.911;  -60.975; -142.000; -112.000
349.044;  171.875;  471.000;  448.000
349.178;  192.400;-1069.000;-1006.000
349.311;  113.975;  141.000;  255.000
349.444;    1.650; -927.000; -813.000
349.578;  -24.250; -347.000; -200.000
349.711;  -90.125; -959.000; -862.000
349.845;    3.700; -661.000; -591.000
349.978; -139.925;-1224.000;-1137.000
350.111;  -76.525; -546.000; -612.000
350.244;  -63.275; -596.000; -700.000
350.378;   13.350; -392.000; -393.000
350.511;  -65.200; -393.000; -426.000
350.644; -105.650; -808.000; -806.000
350.778;    8.950;  168.000;  104.000
350.911;   -0.550;  134.000;  140.000
351.044;  -89.600; -685.000; -615.000
351.177;  -25.750; -321.000; -281.000
351.310;  -25.900;    3.000; -131.000
351.444;  -83.900; -888.000; -788.000
351.577;  122.500;  140.000;   90.000
351.710;   86.225;  593.000;  417.000
351.843;  -32.500; -165.000;  -77.000
351.976;   -8.725;  149.000;  -79.000
352.109;  -95.050; -621.000; -612.000
352.242;  -27.275; -464.000; -419.000
352.376;  -36.275; -580.000; -636.000
352.509;  191.475; -437.000; -356.000
352.642;   24.650; -654.000; -604.000
352.775;   57.325; -141.000;  -98.000
352.908; -106.375; -933.000; -904.000
353.041; -100.275; -814.000; -824.000
353.174;  -58.925; -551.000; -424.000
353.307;  -90.950; -753.000; -764.000
353.440;   75.525;  541.000;  453.000
353.573; -117.600; -957.000;-1008.000
353.706;  -50.400; -384.000; -558.000
353.839;  -12.575; -264.000; -220.000
353.971;  -77.000; -657.000; -512.000
354.104;  -71.475; -896.000; -835.000
354.237;  -17.850; -627.000; -662.000
354.370;  -74.375; -846.000; -879.000
354.503; -179.500;-1231.000;-1308.000
354.636;  -48.400; -529.000; -348.000
354.769; -125.550; -937.000; -860.000
354.902;  -17.150; -230.000; -139.000
355.034;   -9.125; -164.000; -220.000
355.167;  -12.100; -262.000; -162.000
355.300;  -91.150;-1061.000; -880.000
355.433;  947.300;  -71.000;  -14.000
355.565; 1503.175; -402.000; -384.000
355.698;  387.525; -356.000; -296.000
355.831;    3.450; -882.000; -801.000
355.964;   95.950; -285.000; -170.000
356.096;  -78.250; -856.000; -843.000
356.229;   11.750; -523.000; -530.000
356.362;  319.600; -373.000; -266.000
356.494;  594.500; -229.000; -162.000
356.627;  531.750;  269.000;  377.000
356.760;  660.625;  120.000;   53.000
356.892;  944.400; -286.000; -601.000
357.025;  720.300;  403.000;  389.000
357.157;  668.875; -167.000; -179.000
357.290;  644.050; -856.000; -713.000
357.423;  223.475; -667.000; -556.000
357.555;  136.425; -217.000; -228.000
357.688;  154.425; -483.000; -364.000
357.820;  526.825; -870.000; -877.000
357.953; 4208.975; -563.000; -589.000
358.085;  949.475; -632.000; -612.000
358.218; 1339.100;-1131.000; -932.000
358.350;  254.200;  -58.000;  312.000
358.483; -103.425;-1300.000;-1187.000
358.615;   -0.400;-1182.000;-1078.000
358.747;  -36.850;-1187.000;-1058.000
358.880;   39.950; -810.000; -744.000
359.012;   -2.325; -376.000; -202.000
359.145;  -31.625; -480.000; -511.000
359.277;   82.000; -962.000; -913.000
359.409; 3437.675;  536.000;  231.000
359.542;  944.850; -738.000; -688.000
359.674;   78.750;   46.000;   13.000
359.806;  -52.650; -565.000; -438.000
359.939;  -47.075; -617.000; -516.000
360.071;   -5.400; -583.000; -579.000
360.203;  -27.275; -411.000; -364.000
360.335;   57.075;  164.000;  -16.000
360.468;  220.025; -249.000; -307.000
360.600; 2766.925; -547.000; -454.000
360.732; 2857.175; -546.000; -423.000
360.864;  411.700;-1216.000;-1044.000
360.996;  317.175; -516.000; -554.000
361.129;   59.625; -389.000; -598.000
361.261;   32.250;  110.000; -113.000
361.393;  -32.000; -252.000; -214.000
361.525;   22.625;   94.000;  244.000
361.657;  -37.950; -821.000; -703.000
361.789;   13.900; -139.000; -155.000
361.921;  271.975; -642.000; -593.000
362.053;  288.300;  524.000;  541.000
362.185;   53.600;  288.000;   72.000
362.318;  -81.375; -709.000; -705.000
362.450;  136.425;  294.000;  444.000
362.582;  120.475; -913.000; -870.000
362.714;  -22.675; -353.000; -332.000
362.846;  -82.600; -606.000; -490.000
362.978; -138.550; -941.000; -811.000
363.109;   71.900; -161.000; -260.000
363.241;  501.750; -739.000; -749.000
363.373;  432.900; -649.000; -564.000
363.505;  655.100; -186.000;  -91.000
363.637;  155.175; -787.000; -601.000
363.769; -115.675;-1067.000;-1080.000
363.901;  -67.775; -596.000; -654.000
364.033; -115.900;-1103.000;-1062.000
364.165;    1.325; -283.000; -283.000
364.296;   74.725; -316.000; -177.000
364.428;   46.975;-1344.000;-1220.000
364.560;  -67.500; -679.000; -661.000
364.692;  -55.525; -738.000; -835.000
364.824;  313.650; -588.000; -456.000
364.955;  455.325; -402.000; -564.000
365.087;  889.950;-1097.000; -852.000
365.219;   36.325; -686.000; -816.000
365.351;  -61.825; -526.000; -572.000
365.482;   57.500;  300.000;  240.000
365.614;  -30.800; -402.000; -314.000
365.746;  -93.600; -729.000; -752.000
365.877;  -97.125; -706.000; -672.000
366.009;  232.100;  -35.000;  -62.000
366.141;  -84.350;-1249.000;-1134.000
366.272; -107.075; -803.000; -719.000
366.404; -107.750;-1005.000; -874.000
366.535;   -7.150; -139.000;  -12.000
366.667; -110.875; -644.000; -649.000
366.799;   36.450;  353.000;  203.000
366.930; -112.625; -862.000; -996.000
367.062;  127.975; -639.000; -613.000
367.193;  150.500; -872.000; -842.000
367.325;  -63.200; -580.000; -684.000
367.456;   76.025; -246.000;   31.000
367.588;  151.925; -371.000; -318.000
367.719;   21.925;  -44.000;  -45.000
367.851;  -19.700; -222.000; -241.000
367.982;  -34.175; -875.000; -732.000
368.113;  128.750; -475.000; -358.000
368.245; -104.400; -960.000; -841.000
368.376;  -14.975; -254.000; -302.000
368.508;  -45.375; -188.000; -263.000
368.639; -136.950;-1166.000;-1034.000
368.770;   -1.275; -670.000; -589.000
368.902;  -65.075; -836.000; -926.000
369.033; -108.250; -906.000; -855.000
369.164;  -62.675; -720.000; -653.000
369.296; -102.050; -452.000; -601.000
369.427;  -18.325; -209.000; -144.000
369.558;  -47.550; -593.000; -377.000
369.689;  -92.075; -721.000; -569.000
369.821; -133.275; -951.000; -845.000
369.952;  -22.825;   42.000; -108.000
370.083;  -51.700; -229.000; -108.000
370.214;  -94.050; -735.000; -650.000
370.345;    2.100;   65.000;   81.000
370.477;  -83.450; -810.000; -790.000
370.608;  274.725; -328.000; -264.000
370.739;  -35.200;-1233.000;-1292.000
370.870;  -13.400;-1102.000; -923.000
371.001;  121.900; -378.000; -467.000
371.132;  -68.550; -754.000; -735.000
371.263;  -31.325;  -42.000; -148.000
371.394; -117.175; -841.000; -748.000
371.525;   22.875;  345.000;  225.000
371.657;  -73.600; -808.000; -670.000
371.788;   81.225;  103.000;  199.000
371.919;  203.200; -384.000; -304.000
372.050; 4060.075;  -91.000; -156.000
372.181; 1261.825; -188.000; -294.000
372.311;  432.700;   42.000; -127.000
372.442;   52.175; -457.000; -451.000
372.573;  -25.900; -444.000; -340.000
372.704; -115.550;-1008.000; -980.000
372.835;   94.050; -228.000; -289.000
372.966;  -54.525; -646.000; -554.000
373.097;  -59.450; -575.000; -711.000
373.228;  -22.175; -717.000; -542.000
373.359;  165.275; -824.000; -536.000
373.490; 1080.375; -881.000; -727.000
373.620; 1361.725;-1001.000; -803.000
373.751; 2022.800; -332.000; -396.000
373.882;  913.850; -663.000; -733.000
374.013;   84.250; -449.000; -262.000
374.143;  -41.750; -581.000; -659.000
374.274;  -88.975; -987.000; -908.000
374.405;  201.500; -388.000; -276.000
374.536;  497.025; -526.000; -387.000
374.666; 1303.825; -759.000; -807.000
374.797;  294.675; -817.000; -868.000
374.928;  999.450; -710.000; -560.000
375.058; 1017.800; -535.000; -500.000
375.189;   86.225;  -59.000;  -93.000
375.320;  -85.350; -928.000;-1034.000
375.450;  -33.450; -625.000; -616.000
375.581;  -38.450; -526.000; -436.000
375.712;  -24.750; -574.000; -250.000
375.842;  350.325; -438.000; -415.000
375.973;  263.375; -554.000; -513.000
376.103;  -27.775; -665.000; -648.000
376.234;  -82.725; -531.000; -552.000
376.364;  -21.325; -944.000; -867.000
376.495;  363.075;  925.000;  529.000
376.625;   11.725; -472.000; -485.000
376.756;   77.700; -709.000; -678.000
376.886;  -64.125;-1178.000;-1026.000
377.017;   48.225;-1048.000;-1061.000
377.147;  353.775; -786.000; -782.000
377.278;   60.175;  174.000;  228.000
377.408; -108.925; -801.000; -815.000
377.538;  -96.725; -707.000; -693.000
377.669;  -79.225; -537.000; -613.000
377.799;  -98.950; -645.000; -635.000
377.929;  -54.975; -610.000; -428.000
378.060; -132.425; -781.000; -847.000
378.190;  -64.600; -726.000; -531.000
378.320;  -52.175; -401.000; -406.000
378.451;   -4.225; -131.000;  -22.000
378.581;   -8.975;  -67.000; -110.000
378.711;  156.075; 1035.000;  866.000
378.841;   -6.850; -533.000; -675.000
378.972;  -54.275; -871.000; -751.000
379.102;    3.525; -652.000; -579.000
379.232;  -24.250; -126.000;  -73.000
379.362; -101.825;-1001.000; -885.000
379.492;   19.950; -373.000; -424.000
379.623;  129.400;    0.000;  111.000
379.753;  -93.800;-1107.000; -974.000
379.883;  216.625;   59.000;  156.000
380.013;   38.125;-1081.000;-1017.000
380.143;  -92.025;-1097.000;-1056.000
380.273;  -91.650; -985.000; -861.000
380.403;  -10.275; -344.000; -257.000
380.533;  -18.450; -651.000; -664.000
380.663;   66.250;  173.000;  128.000
380.793;  -87.450;-1027.000;-1074.000
380.923;   -9.575; -103.000;  -34.000
381.053;  -90.450; -613.000; -623.000
381.183;  -47.925; -106.000; -248.000
381.313;   45.850; -656.000; -470.000
381.443;   47.200; -692.000; -473.000
381.573;  230.750; -402.000; -409.000
381.703;  354.750;-1249.000;-1095.000
381.833; -114.250;-1454.000;-1336.000
381.963;  124.175; -134.000;  -87.000
382.093; 1598.750; -925.000; -909.000
382.223;  532.475; -713.000; -602.000
382.353;   -5.575; -801.000; -608.000
382.482;  421.125;-1091.000; -964.000
382.612;  893.525; -872.000; -644.000
382.742;  519.000; -695.000; -622.000
382.872;  338.575; -565.000; -551.000
383.002;   82.300;  347.000; -132.000
383.131;  -14.825; -226.000; -160.000
383.261;  -52.525; -706.000; -768.000
383.391;  287.975; -552.000; -377.000
383.521; 3168.675;  451.000;  263.000
383.650;  781.875; -947.000; -904.000
383.780;  -24.500; -783.000; -656.000
383.910;  111.950;  880.000;  802.000
384.039;   43.650; -794.000; -656.000
384.169;  279.175;-1205.000;-1017.000
384.299;  -16.025; -650.000; -662.000
384.428;  -78.425; -764.000; -680.000
384.558;  -53.025; -308.000; -275.000
384.687;  -40.750; -414.000; -334.000
384.817;    2.100;   75.000;   -2.000
384.947;   10.300; -234.000; -141.000
385.076;  335.350;  982.000;  912.000
385.206;  104.800;  369.000;  480.000
385.335;  -25.900; -549.000; -417.000
385.465;  -79.350; -655.000; -663.000
385.594;  160.150;  -53.000;  -44.000
385.724;  503.750; -868.000; -838.000
385.853;  142.450; -296.000; -270.000
385.982; 1537.825; -743.000; -787.000
386.112; 2499.025;-1052.000; -871.000
386.241;  176.975; -307.000; -312.000
386.371;    9.725; -174.000;  -87.000
386.500;   15.700; -825.000; -789.000
386.629;   43.450; -874.000; -817.000
386.759;   54.425;  -43.000;   68.000
386.888;  -18.600; -170.000; -250.000
387.017;  -73.025; -648.000; -620.000
387.147;  -87.300; -771.000; -798.000
387.276;    0.225; -410.000; -397.000
387.405;   20.975; -398.000; -342.000
387.535;  -44.225; -452.000; -361.000
387.664;  -43.650; -692.000; -620.000
387.793;   74.875; -198.000; -113.000
387.922;  572.225;  255.000;  200.000
388.052;   36.600; -576.000; -423.000
388.181;    9.925; -342.000; -472.000
388.310;   17.150; -889.000; -710.000
388.439;  -46.825; -749.000; -742.000
388.568;  207.100;  365.000;  244.000
388.697; 1213.625; -756.000; -653.000
388.826;  262.025; -768.000; -666.000
388.956;   63.750; -285.000; -307.000
389.085;  -20.875; -347.000; -287.000
389.214; -128.575; -842.000; -872.000
389.343;  -43.875; -645.000; -413.000
389.472;  388.700;  126.000;  149.000
389.601;  528.950;   91.000;    0.000
389.730;   40.525; -568.000; -687.000
389.859;   67.775;  226.000;   46.000
389.988;  212.000; -423.000; -408.000
390.117;  167.075; -168.000; -146.000
390.246;   -7.275; -331.000; -320.000
390.375;  126.875; -673.000; -626.000
390.504;  -63.250; -703.000; -621.000
390.633;  -90.800; -672.000; -726.000
390.761;  -70.275; -732.000; -645.000
390.890;   36.600;   -4.000; -130.000
391.019;  -25.475; -421.000; -441.000
391.148; -125.875; -826.000; -855.000
391.277;  -71.350; -576.000; -493.000
391.406;  -79.875; -821.000; -805.000
391.534;   17.650;  574.000; -301.000
391.663;  -66.400; -583.000; -645.000
391.792;  -93.575; -673.000; -701.000
391.921;  102.850;   -3.000;   15.000
392.050;  212.275; -287.000; -228.000
392.178;  -19.375;-1206.000;-1061.000
392.307;  177.300; -758.000; -712.000
392.436;  106.075; -427.000; -641.000
392.564;   14.525;  166.000;   -6.000
392.693;  -87.975; -860.000; -682.000
392.822;  235.525; -529.000; -534.000
392.950;  132.250; -880.000; -714.000
393.079;  380.075; -188.000; -328.000
393.208;   57.475; -488.000; -511.000
393.336;   -9.600; -170.000; -145.000
393.465;  -45.025; -317.000; -199.000
393.593;   -2.325;   62.000;   79.000
393.722; -146.500;-1121.000; -916.000
393.850;  -40.200; -188.000;  -61.000
393.979; -153.800; -926.000; -805.000
394.107;  -59.375; -517.000; -537.000
394.236;  -29.650; -570.000; -507.000
394.364;  227.300;  383.000;  206.000
394.493;  437.900; -911.000; -767.000
394.621;    0.975; -955.000; -916.000
394.750;  681.800; -873.000; -923.000
394.878; 2881.300; -247.000; -149.000
395.007; 4016.950; -721.000; -807.000
395.135;  299.275; -790.000; -721.000
395.263;  -85.800;-1038.000;-1040.000
395.392;   -1.025;  -25.000; -107.000
395.520; -138.475; -818.000; -679.000
395.648;  -81.225; -865.000; -915.000
395.777;    1.625; -366.000; -405.000
395.905;  -43.775; -449.000; -564.000
396.033;   16.950;  217.000;  172.000
396.162;  660.025; -399.000; -453.000
396.290;  609.900;  -17.000;   -2.000
396.418;  124.475; -555.000; -514.000
396.546;  -63.250; -571.000; -466.000
396.674; -101.350; -850.000; -878.000
396.803;    7.025;  -72.000;  -23.000
396.931;   96.000; -179.000; -199.000
397.059;   83.550;-1026.000; -989.000
397.187;  -98.275;-1026.000; -975.000
397.315; -136.975; -884.000; -649.000
397.443; -105.450; -592.000; -443.000
397.572;  -95.250; -578.000; -424.000
397.700;    4.275; -607.000; -614.000
397.828;   10.875;  120.000;  -90.000
397.956;  -46.600; -508.000; -478.000
398.084;  -54.650; -767.000; -626.000
398.212;   38.450;  137.000;  124.000
398.340;    9.850;  -56.000;  159.000
398.468;   43.900; -390.000; -169.000
398.596; -130.700; -993.000; -953.000
398.724; -109.375; -762.000; -767.000
398.852; -158.675;-1024.000; -976.000
398.980;  -83.125; -560.000; -560.000
399.108;  -36.425; -982.000; -735.000
399.236;   32.750;   13.000;    8.000
399.363;   15.625;  222.000;  196.000
399.491;  -75.825; -404.000; -398.000
399.619; -121.150; -829.000; -800.000
399.747; -103.225; -859.000; -771.000
399.875;   89.050;  220.000;  234.000
400.003;  -45.675; -359.000; -284.000
400.130;  -90.825; -421.000; -341.000
400.258;  -49.025;  -83.000;   38.000
400.386;  -66.825; -352.000; -168.000
400.514;  -49.125; -526.000; -587.000
400.641;  -83.625; -928.000; -802.000
400.769; -125.575; -979.000; -888.000
400.897; -117.925; -838.000; -793.000
401.025;  -25.900; -166.000; -152.000
401.152;   -1.800;  220.000;   38.000
401.280;  -78.925; -430.000; -429.000
401.408; -113.400; -712.000; -576.000
401.535; -106.450; -735.000; -758.000
401.663; -183.575;-1134.000;-1054.000
401.790;  -87.950; -514.000; -525.000
401.918;   41.600;  436.000;  405.000
402.046;  -22.950;  134.000;  122.000
402.173;  -43.450;  -18.000;    7.000
402.301;  -70.625; -519.000; -397.000
402.428;   14.350;  528.000;  383.000
402.556; -141.175;-1188.000; -913.000
402.683;  -27.475;  -20.000;   -1.000
402.811;  -27.550;  -37.000; -206.000
402.938;   -5.300;   20.000;   27.000
403.066;  242.200; -574.000; -558.000
403.193;  382.450;  299.000;  239.000
403.321;  277.175; -396.000; -574.000
403.448;  359.950;   83.000;   27.000
403.575;  169.525;  -90.000;  -46.000
403.703;  -79.100; -732.000; -557.000
403.830;  -68.850; -531.000; -496.000
403.957; -140.775;-1117.000;-1023.000
404.085;    8.175;  -61.000; -172.000
404.212;  109.400;  -50.000;   63.000
404.339;  245.775; -566.000; -306.000
404.467; 5626.950; -612.000; -524.000
404.594; 3993.275; -287.000; -227.000
404.721; 1012.950; -869.000; -764.000
404.848;   82.900; -113.000; -202.000
404.976;  -82.000; -856.000; -783.000
405.103;  -16.050;  -14.000;  -82.000
405.230;   -5.250;  190.000;  226.000
405.357;   31.600;  117.000;   44.000
405.484;  266.850;  -49.000;    5.000
405.612;   46.175; -548.000; -563.000
405.739;  -67.575; -488.000; -243.000
405.866;   79.300;  669.000;  385.000
405.993;  -43.200; -398.000; -102.000
406.120; -134.000; -801.000; -887.000
406.247;  -50.650; -323.000; -342.000
406.374;  488.100;  540.000;  629.000
406.501;  150.025; -632.000; -702.000
406.628;  -85.125; -621.000; -589.000
406.755; -100.150; -803.000; -620.000
406.882;  -50.600; -228.000; -277.000
407.009; -110.000; -719.000; -628.000
407.136;   48.175; -480.000; -401.000
407.263;  164.875; -939.000; -829.000
407.390;  -65.900; -692.000; -614.000
407.517; -169.425;-1139.000;-1187.000
407.644;  -63.525; -332.000; -256.000
407.771;  -73.125; -249.000; -287.000
407.898;   10.125;  168.000;  328.000
408.025;  -72.500; -421.000; -313.000
408.151;  -14.275;   82.000;  153.000
408.278;  -58.750; -267.000; -216.000
408.405; -117.200; -931.000; -899.000
408.532;  -66.975; -549.000; -542.000
408.659; -127.525; -677.000; -648.000
408.785; -194.175;-1298.000;-1170.000
408.912;  -68.650; -412.000; -296.000
409.039; -110.950; -610.000; -686.000
409.166; -121.725; -591.000; -555.000
409.292; -109.375; -571.000; -534.000
409.419; -118.450; -665.000; -649.000
409.546;  -83.050; -431.000; -192.000
409.672; -120.950; -713.000; -545.000
409.799;  -18.275;  -36.000;   34.000
409.926;  -45.900; -180.000; -179.000
410.052; -175.625;-1127.000;-1091.000
410.179;  -61.525; -368.000; -392.000
410.305;  -94.250; -375.000; -493.000
410.432;  -53.525; -220.000; -333.000
410.558;  -92.975; -305.000; -380.000
410.685; -123.275; -688.000; -431.000
410.812; -103.475; -409.000; -588.000
410.938; -148.075; -964.000; -808.000
411.065;  -92.075; -671.000; -645.000
411.191;  -23.025; -189.000; -174.000
411.317; -112.000; -823.000; -742.000
411.444;  -51.400; -317.000; -246.000
411.570;  -63.775; -339.000; -294.000
411.697; -136.650; -758.000; -752.000
411.823; -168.725; -989.000; -999.000
411.949;  -31.475;  -56.000;   17.000
412.076; -110.675; -539.000; -519.000
412.202; -116.525; -758.000; -757.000
412.329; -131.025; -798.000; -752.000
412.455; -120.050; -821.000; -657.000
412.581;  -26.075;  -15.000;  172.000
412.707;  -70.875; -540.000; -457.000
412.834;   14.425;  156.000;  219.000
412.960;  -82.075; -785.000; -784.000
413.086; -105.800; -743.000; -701.000
413.212;  156.525;  604.000;  578.000
413.339;  -61.100; -685.000; -701.000
413.465;    6.350; -364.000; -310.000
413.591;  -76.300; -757.000; -474.000
413.717;  -67.925; -358.000; -366.000
413.843; -127.500; -839.000; -861.000
413.969;  -69.925;  -47.000; -292.000
414.096;  -94.525; -679.000; -679.000
414.222;   -6.800;  -33.000;   85.000
414.348;  -20.250; -652.000; -385.000
414.474;  107.775;   38.000;  -52.000
414.600;   -4.775; -126.000; -144.000
414.726;  -30.025;  -96.000;  -55.000
414.852;  -49.175; -365.000; -342.000
414.978;   19.775;  104.000;  -18.000
415.104;   45.250;   38.000;   80.000
415.230;   26.600; -329.000; -330.000
415.356;   38.950; -409.000; -514.000
415.482;  202.475;   13.000;  -35.000
415.608;  268.525; -247.000; -323.000
415.734;  947.825;   67.000;   38.000
415.860;19541.925; -875.000; -767.000
415.986;14997.525; -685.000; -607.000
416.111; 1324.825; -798.000; -652.000
416.237;  247.775; -424.000; -571.000
416.363; 1072.225; -765.000; -733.000
416.489; 4195.450; -324.000; -251.000
416.615;  462.900; -707.000; -742.000
416.741;  -14.500; -677.000; -784.000
416.866;  -96.350; -673.000; -736.000
416.992; -110.175; -801.000; -818.000
417.118;  -24.025;  -41.000;  -80.000
417.244;  -54.325; -798.000; -531.000
417.369;  -79.225; -801.000; -612.000
417.495;  -11.650; -325.000; -254.000
417.621;  -75.900;-1015.000; -803.000
417.746;   12.225; -579.000; -572.000
417.872;   42.125; -254.000; -144.000
417.998;   50.350; -515.000; -530.000
418.123;  986.175;-1073.000; -845.000
418.249; 5398.750; -512.000; -601.000
418.374;  783.925; -916.000; -824.000
418.500;  117.200; -383.000; -482.000
418.626;  108.400;   70.000;  -59.000
418.751;  128.025; -549.000; -448.000
418.877;  195.550; -637.000; -643.000
419.002; 1709.325; -688.000; -560.000
419.128;12407.100; -930.000; -721.000
419.253; 3237.700; -967.000; -837.000
419.379;  416.425; -391.000; -338.000
419.504;  381.750;  325.000;  415.000
419.629;  512.750; -393.000; -212.000
419.755; 3358.900; -317.000; -254.000
419.880;20797.625;  -98.000;   67.000
420.006;11301.300; -280.000; -221.000
420.131;29571.000; -662.000; -775.000
420.256; 4479.450; -315.000; -316.000
420.382;  585.425; -665.000; -687.000
420.507;   71.575; -649.000; -778.000
420.632;  142.125; -337.000; -339.000
420.758;  293.075; -251.000; -425.000
420.883;  -65.300; -876.000; -672.000
421.008; -102.050; -775.000; -619.000
421.133;  -76.525; -509.000; -467.000
421.259;  -60.200; -325.000; -259.000
421.384;  -98.800; -834.000; -693.000
421.509;  -26.975;-1052.000; -862.000
421.634; 1318.050; -936.000; -820.000
421.759;  594.200; -359.000; -327.000
421.885;  -50.625; -717.000; -656.000
422.010;  -77.075; -673.000; -542.000
422.135; -136.750; -695.000; -727.000
422.260;   21.075;  340.000;  280.000
422.385;  -42.900;   12.000;  -98.000
422.510;    5.450;  151.000;  -26.000
422.635;   28.325;  -87.000;  -43.000
422.760;  130.025; -766.000; -791.000
422.885;   70.050;  -57.000;  -80.000
423.010;  -31.400; -112.000; -169.000
423.135; -101.425; -481.000; -561.000
423.260;  -15.600; -150.000; -245.000
423.385;   48.875;  476.000;  222.000
423.510;   36.575;   71.000;  -22.000
423.635;   86.475;  133.000;   45.000
423.760;   71.800;  383.000;  328.000
423.885;   47.450;  336.000;  391.000
424.010;   16.275;  -68.000;  -13.000
424.135;  -19.450;    5.000;  -33.000
424.259;  -89.475; -654.000; -457.000
424.384;  -70.400; -279.000; -272.000
424.509;  -37.675; -260.000; -186.000
424.634;  -91.850; -761.000; -623.000
424.759;  -29.050; -688.000; -544.000
424.883;    3.950; -506.000; -527.000
425.008;  160.825; -502.000; -410.000
425.133; 1976.675; -679.000; -653.000
425.258;  981.675; -517.000; -381.000
425.382; 1136.900; -867.000; -774.000
425.507; 3003.550; -487.000; -543.000
425.632;  510.200; -802.000; -663.000
425.756;  459.250; -256.000; -146.000
425.881; 6116.450; -831.000; -857.000
426.006;17574.825; -604.000; -355.000
426.130; 2916.625; -696.000; -508.000
426.255;  361.275; -611.000; -491.000
426.379;  151.475; -189.000; -577.000
426.504;  365.550;  660.000;  544.000
426.629; 3987.825; -519.000; -466.000
426.753; 2880.575;   64.000;  -46.000
426.878;  338.650; -252.000; -288.000
427.002;  140.950; -651.000; -668.000
427.127; 1522.775;  -35.000; -158.000
427.251;11329.550;  372.000;  401.000
427.375; 3445.425; -191.000; -173.000
427.500; 2567.225; -616.000; -610.000
427.624;  940.725; -234.000; -400.000
427.749;   97.950; -216.000; -225.000
427.873;  -22.725; -499.000; -412.000
427.997;  -59.500; -222.000; -230.000
428.122;   58.625;  795.000;  703.000
428.246;   74.600;  433.000;  434.000
428.371; -119.725; -869.000; -773.000
428.495; -100.725; -624.000; -646.000
428.619;  -26.150; -186.000; -117.000
428.743;   18.650;   65.000;  132.000
428.868;   19.975; -732.000; -643.000
428.992; 1567.600; -219.000; -326.000
429.116;  666.100; -329.000; -357.000
429.240;  311.650;  419.000;  426.000
429.365;  -11.000; -454.000; -574.000
429.489;  -43.025; -638.000; -647.000
429.613;    5.700; -236.000; -177.000
429.737;   45.750; -563.000; -432.000
429.861;  265.050; -247.000; -133.000
429.985; 5357.375; -425.000; -305.000
430.109; 6267.225; -770.000; -908.000
430.234;  728.075;   76.000;  -50.000
430.358;   68.275; -250.000; -160.000
430.482;  -72.250; -672.000; -564.000
430.606;  -63.350; -655.000; -375.000
430.730;   12.850; -437.000; -388.000
430.854;  159.775; -909.000; -835.000
430.978;  -76.300; -795.000; -764.000
431.102;  -91.575; -499.000; -422.000
431.226; -117.725; -874.000; -815.000
431.350;   24.750;  345.000;  422.000
431.474;  -64.050; -661.000; -373.000
431.597; -142.350;-1060.000; -848.000
431.721;  -86.675; -276.000; -267.000
431.845; -139.050; -704.000; -472.000
431.969;  -89.800; -304.000; -349.000
432.093;  -81.450; -395.000; -317.000
432.217;  -13.050;   32.000;   82.000
432.341;  -87.400; -523.000; -518.000
432.464;   -1.275;   96.000;   40.000
432.588;  236.825; -401.000; -329.000
432.712;  123.100;  -52.000;  -52.000
432.836;   47.375;  213.000;  263.000
432.959;  -13.050; -372.000; -311.000
433.083;   71.650;   11.000;    2.000
433.207;  355.850;  285.000;  930.000
433.330; 4880.325; -391.000; -200.000
433.454; 6310.550; -654.000; -638.000
433.578; 3603.675;  583.000;  278.000
433.701;  714.025; -623.000; -675.000
433.825;  166.575; -292.000; -299.000
433.949;  203.225;   28.000;  -72.000
434.072;   65.250; -410.000; -323.000
434.196;  -15.250; -309.000; -117.000
434.319; 3653.725;25482.000;25124.000
434.443;  706.600; -656.000; -603.000
434.566; 2685.100;  281.000;   62.000
434.690;  478.925; -637.000; -383.000
434.813;   48.675; -251.000; -173.000
434.937;  -63.475; -569.000; -696.000
435.060;  -39.850; -423.000; -332.000
435.184;  368.400; -492.000; -217.000
435.307;  204.775;  159.000;  102.000
435.431;  -13.425;  -40.000;   24.000
435.554;  -76.350; -399.000; -240.000
435.677;  -85.450; -350.000; -258.000
435.801;  -42.500;  -25.000;   49.000
435.924;  -15.700;    1.000;  -67.000
436.048; -111.325;-1019.000; -732.000
436.171;  -64.425; -240.000;  -66.000
436.294;  -40.125; -248.000; -229.000
436.417;   75.875; -963.000; -849.000
436.541;  -84.625; -814.000; -840.000
436.664;  -51.475; -242.000; -316.000
436.787;  -29.325;   13.000;  113.000
436.910;  -97.000; -792.000; -422.000
437.034;   -3.550;  142.000;  143.000
437.157;   56.275;  -11.000;    0.000
437.280;  -35.200; -392.000; -292.000
437.403;  -83.225; -982.000; -869.000
437.526;  675.075; -903.000; -865.000
437.649; 2610.000; -505.000; -332.000
437.772;  439.325; -692.000; -540.000
437.896;  130.450;  700.000;  544.000
438.019;  -95.250; -758.000; -503.000
438.142;  -86.650; -596.000; -506.000
438.265;    0.200; -639.000; -670.000
438.388;  640.650; -520.000; -410.000
438.511;  148.375; -597.000; -394.000
438.634;  -64.825; -247.000; -125.000
438.757; -140.875; -693.000; -619.000
438.880;  -15.500;  -34.000;  -57.000
439.003;  -66.225; -417.000; -437.000
439.126;  -65.975; -287.000; -167.000
439.248;  -67.800;  -98.000; -139.000
439.371;  -41.325;    9.000;  -53.000
439.494;   13.900;  510.000;  439.000
439.617;  -56.650;   65.000;  -88.000
439.740; -172.575; -968.000; -816.000
439.863; -141.125; -755.000; -595.000
439.986; -138.750; -476.000; -431.000
440.108;  -56.650; -161.000; -112.000
440.231; -156.550; -950.000; -836.000
440.354;  -49.975;  -64.000; -150.000
440.477;   38.850; -566.000; -542.000
440.599;   15.150; -200.000; -225.000
440.722; -112.450; -709.000; -586.000
440.845;   67.550;  751.000;  928.000
440.968; -121.250; -415.000; -311.000
441.090;  -74.625; -199.000;  -33.000
441.213; -162.325;-1021.000; -825.000
441.336;  -59.000; -159.000;   -5.000
441.458;  -74.575; -549.000; -396.000
441.581;  -81.300; -628.000; -629.000
441.703;  -79.500; -152.000;   13.000
441.826; -119.975; -557.000; -400.000
441.948;  -48.450;   56.000;   51.000
442.071;   24.775;  555.000;  424.000
442.193; -123.275; -531.000; -485.000
442.316;   23.225;  152.000;   97.000
442.438;   55.000; -233.000;  -10.000
442.561;   74.300;  272.000;  262.000
442.683;  586.250; -809.000; -522.000
442.806; 1328.150;   -8.000;   74.000
442.928;   66.325; -859.000; -604.000
443.051;  -64.500; -577.000; -373.000
443.173;  -99.450; -341.000; -339.000
443.295;  -89.325; -263.000; -371.000
443.418;  -76.825; -321.000;  -29.000
443.540;   -5.775; -106.000;   -4.000
443.662; -113.150; -563.000; -465.000
443.785;  -14.650;  335.000;  199.000
443.907; -103.775; -362.000; -208.000
444.029; -142.075; -767.000; -494.000
444.152; -147.350; -644.000; -554.000
444.274;  -25.400;  -18.000;  -24.000
444.396; -107.800; -461.000; -221.000
444.518; -136.475; -691.000; -454.000
444.640;  -95.550; -268.000; -111.000
444.763;  -22.750;  388.000;  249.000
444.885; -110.150; -432.000; -392.000
445.007;  -34.400;   35.000;   86.000
445.129; -112.575; -610.000; -515.000
445.251;  -95.850; -372.000; -439.000
445.373; -140.325; -537.000; -386.000
445.495;   -9.275;  242.000;  350.000
445.617;   40.925;  853.000;  753.000
445.739;  -75.775; -215.000;  -97.000
445.861;  -47.250; -245.000; -112.000
445.984;  -31.775; -267.000; -101.000
446.105;  228.175; -418.000; -251.000
446.227;  688.500; -176.000;  -19.000
446.349;   31.425; -358.000; -249.000
446.471;  -95.100; -615.000; -448.000
446.593;  -77.300; -316.000;   19.000
446.715;   -4.050;  -67.000;   41.000
446.837;   59.050;  697.000;  832.000
446.959;  -96.400; -457.000; -478.000
447.081; -140.675; -628.000; -518.000
447.203;   44.700;  862.000;  834.000
447.325;  -94.550; -270.000;   42.000
447.446;  -19.075;  286.000;  530.000
447.568; -166.825; -921.000; -803.000
447.690;  -80.675; -236.000; -245.000
447.812; -149.175; -798.000; -519.000
447.933;  -25.675;  155.000;  127.000
448.055;  -74.775; -306.000; -261.000
448.177;  149.175;   31.000;   79.000
448.299;  114.075; -935.000; -727.000
448.420;   25.575;  -25.000;  159.000
448.542;  -40.475;   -3.000;   33.000
448.664;  -28.825;  109.000;  322.000
448.785;  -40.750;  265.000;   83.000
448.907;  -71.675; -614.000; -353.000
449.028;  -31.500; -771.000; -471.000
449.150;   59.200;  492.000;  589.000
449.272; -164.950;-1044.000; -913.000
449.393;   16.950;  612.000;  694.000
449.515; -143.350; -634.000; -581.000
449.636;  -77.225; -264.000; -155.000
449.758;   72.975;  763.000;  622.000
449.879;  -92.675; -498.000; -396.000
450.001;  -82.850; -149.000;  -49.000
450.122;  -42.025;  -95.000;  162.000
450.244;  -33.675;   37.000;  364.000
450.365; -107.950; -495.000; -301.000
450.486;  -34.050;   80.000;  268.000
450.608;   16.675;  393.000;  326.000
450.729;   66.400;  578.000;  645.000
450.850;    3.925; -574.000; -466.000
450.972;  684.250; -552.000; -389.000
451.093; 4795.125;  190.000;  588.000
451.214; 2232.750; -516.000; -337.000
451.336;  401.525;  773.000;  579.000
451.457;   68.875;  264.000;  393.000
451.578;  -53.825; -118.000;  -74.000
451.699; -100.875; -546.000; -540.000
451.821;  -67.025; -284.000;  -50.000
451.942;   -8.075;  278.000;  285.000
452.063;   13.175;  228.000;  419.000
452.184;  510.900;  -54.000;  -49.000
452.305; 1103.300;  103.000;  170.000
452.427;  148.875; -549.000; -301.000
452.548;  -15.450;   23.000;   79.000
452.669;  -53.625; -257.000;  -89.000
452.790;  -36.725;    3.000;  -18.000
452.911;   -3.250;  195.000;  259.000
453.032;  -69.075; -289.000;  -60.000
453.153;  -37.425;  -29.000;   81.000
453.274;   47.275;  737.000;  868.000
453.395;  -49.250;  -51.000;  175.000
453.516;  114.900; 1317.000; 1388.000
453.637;  -80.025; -205.000; -150.000
453.758;  -59.900;   15.000;   69.000
453.879; -121.425; -462.000; -250.000
454.000;   65.100; 1086.000;  948.000
454.121; -118.100; -554.000; -326.000
454.242; -123.450; -599.000; -383.000
454.362;  -58.300;  -99.000;  114.000
454.483;  -48.475; -309.000; -229.000
454.604;   57.150;  512.000;  580.000
454.725; -125.775; -627.000; -555.000
454.846; -105.775; -474.000; -406.000
454.967;  -31.500;  230.000;  539.000
455.087;  -47.450;  179.000;  153.000
455.208;   18.725;  554.000;  856.000
455.329;  -66.275;  -22.000;   82.000
455.450;    9.525;  473.000;  633.000
455.570;  -88.650; -234.000; -211.000
455.691;  -44.625;  201.000;  407.000
455.812; -104.600; -270.000;  -92.000
455.932;  -73.300;  107.000;  -97.000
456.053;  -78.325;   36.000;   24.000
456.173; -123.650; -433.000; -355.000
456.294; -134.700; -476.000; -303.000
456.415;  -70.225;  -73.000;   70.000
456.535;  -47.075;  297.000;  273.000
456.656;  -43.050;  132.000;  240.000
456.776;  -60.500;    3.000;  298.000
456.897;   -4.450;  308.000;  513.000
457.017;  -71.150; -153.000;   -3.000
457.138;  -99.800; -402.000; -249.000
457.258;  -27.150;  263.000;  224.000
457.379;  -21.600;  509.000;  521.000
457.499;  -23.650;  443.000;  432.000
457.620; -132.975; -407.000; -231.000
457.740;  -93.625; -132.000;  -11.000
457.860;  -64.225;   87.000;   44.000
457.981;  -42.475;  132.000;  124.000
458.101;  -68.200;  -89.000;   40.000
458.221;  -15.825;  336.000;  402.000
458.342;  -75.175;   -4.000;  -37.000
458.462;   12.025;  617.000;  352.000
458.582;  -45.575; -302.000; -294.000
458.703;   12.900;  303.000;  154.000
458.823;  -38.675;   22.000;  163.000
458.943;   31.650;  341.000;  467.000
459.063;  -20.275; 1124.000;  192.000
459.183;  -21.925;  328.000;  313.000
459.304;   -4.075;  315.000;  517.000
459.424;  -76.425; -246.000;  -89.000
459.544;  308.450;  388.000;  764.000
459.664;  828.700;  499.000;  506.000
459.784;  313.775; 1004.000; 1175.000
459.904;   47.800;  867.000;  744.000
460.024;   58.075;  867.000;  684.000
460.144;   -1.600;  449.000;  554.000
460.264;  -10.400;  515.000;  327.000
460.385;  -89.075; -145.000; -119.000
460.505;   28.200;  905.000;  858.000
460.625;  -81.800;  -17.000;  -68.000
460.745;  -26.150;  396.000;  541.000
460.864;  -51.250;  153.000;  469.000
460.984;   10.725;  499.000;  573.000
461.104;  134.175; 1656.000; 1775.000
461.224;   15.625;  657.000;  650.000
461.344;  -25.325;  431.000;  360.000
461.464;  -33.325;  258.000;  513.000
461.584;   -6.575;  283.000;  466.000
461.704;  -49.400;   58.000;  108.000
461.824;  -71.150;  238.000;  259.000
461.943;  -36.850;  191.000;  130.000
462.063;  -80.400;    2.000;  324.000
462.183;   22.400;  639.000;  717.000
462.303;  109.125; 1678.000; 1230.000
462.422;   21.475;  781.000;  840.000
462.542;  -42.250;  271.000;  391.000
462.662;   41.950;  353.000;  380.000
462.782;  233.225;  833.000;  572.000
462.901;  471.375;  545.000;  717.000
463.021;  290.650; 1702.000; 1638.000
463.141;    2.375;  337.000;  770.000
463.260;  -27.150;  614.000;  474.000
463.380;   14.350;  902.000;  884.000
463.499;  -43.850;  342.000;  332.000
463.619;  -30.750;  581.000;  559.000
463.738;  115.125; 1644.000;  903.000
463.858;   11.700;  657.000;  811.000
463.978;  -29.750;  542.000;  396.000
464.097;   37.225;  921.000; 1114.000
464.217;  110.950; 1196.000; 1143.000
464.336;  116.350; 1068.000; 1130.000
464.455;  -37.625;  328.000;  659.000
464.575;   36.200;  597.000;  602.000
464.694;  176.050; 1204.000; 1179.000
464.814;  125.075; 1190.000; 1138.000
464.933;   73.175; 1095.000; 1027.000
465.052;   97.750; 1412.000; 1054.000
465.172;   68.350;  922.000;  799.000
465.291;  139.850; 1376.000; 1320.000
465.410;   17.400;  462.000;  735.000
465.530;   88.600; 1355.000; 1310.000
465.649;   70.500; 1209.000; 1273.000
465.768;  147.425; 1673.000; 1508.000
465.888;   44.725;  941.000; 1174.000
466.007;   83.225; 1335.000; 1440.000
466.126;   -3.675;  721.000;  641.000
466.245;   33.075; 1176.000; 1187.000
466.364;   24.225;  950.000; 1060.000
466.484;   45.325; 1024.000; 1213.000
466.603;   46.300; 1101.000; 1222.000
466.722;  123.625; 1490.000; 1769.000
466.841;  103.900; 1151.000; 1401.000
466.960;   34.375; 1069.000;  972.000
467.079;  132.350; 1971.000; 1786.000
467.198;   49.275; 1238.000; 1181.000
467.317;   91.450; 1768.000; 1162.000
467.436;   75.175; 1709.000; 1261.000
467.555;  126.675; 1796.000; 1746.000
467.674;   68.175; 1227.000; 1329.000
467.793;   49.775; 1376.000; 1374.000
467.912;   77.100; 1658.000; 1539.000
468.031;  134.700; 2038.000; 1930.000
468.150;  130.825; 1842.000; 1837.000
468.269;  191.100; 2313.000; 2090.000
468.388;  189.650; 2168.000; 2339.000
468.507;  249.975; 2884.000; 2903.000
468.626;  259.400; 2555.000; 2541.000
468.744;  137.600; 2018.000; 2174.000
468.863;  199.175; 2312.000; 2523.000
468.982;   99.350; 1503.000; 1555.000
469.101;  231.825; 2788.000; 2692.000
469.220;  158.325; 2333.000; 2176.000
469.338;  262.525; 2935.000; 3051.000
469.457;  196.425; 2719.000; 2545.000
469.576;  344.450; 3953.000; 3784.000
469.695;  237.125; 2877.000; 3066.000
469.813;  411.650; 4148.000; 4192.000
469.932;  410.125; 4255.000; 4485.000
470.051;  417.900; 4075.000; 4161.000
470.169;  853.500; 4470.000; 4338.000
470.288; 1472.050; 4700.000; 4809.000
470.406;  903.500; 5059.000; 5194.000
470.525;  633.300; 6101.000; 5787.000
470.644;  662.675; 6847.000; 6794.000
470.762;  833.275; 8397.000; 7873.000
470.881;  904.450; 8651.000; 8464.000
470.999; 1031.325; 9685.000; 9151.000
471.118; 1111.500;11174.000;10711.000

