
Integration time [ms]: 100.000
Averaging Nr. [scans]: 40
Smoothing Nr. [pixels]: 0
Data measured with spectrometer [name]: 2101012U2
Wave   ;Sample   ;Dark     ;Reference
[nm]   ;[counts] ;[counts] ;[counts] 

197.733;   54.175;  516.000;  404.000
197.879;  -74.650; -610.000; -634.000
198.025;  -58.750; -475.000; -420.000
198.171;  -59.675; -602.000; -612.000
198.317;  -25.325; -401.000; -316.000
198.463;  -48.650; -655.000; -404.000
198.609;   39.775;  181.000; -137.000
198.755;  -75.825; -644.000; -410.000
198.901;  -50.675; -505.000; -424.000
199.047;  -56.025; -615.000; -488.000
199.193;  -44.625; -230.000; -468.000
199.339;  -40.350; -222.000; -369.000
199.485;   30.050;  330.000;  271.000
199.631;   22.025;  227.000;  310.000
199.777;  -64.875; -466.000; -398.000
199.923;  -53.375; -610.000; -424.000
200.069;   -2.200; -141.000;  -58.000
200.215;   56.350;  128.000;  453.000
200.361;   34.750;  243.000;  477.000
200.507;  -55.875; -600.000; -373.000
200.653;  -29.875; -371.000; -194.000
200.798;  -24.650; -215.000; -125.000
200.944;  -20.100; -146.000;  -41.000
201.090;   36.825;   61.000;  222.000
201.236;   -8.250; -116.000; -158.000
201.382;  125.475;  874.000;  903.000
201.528;    8.625;  -58.000;  -48.000
201.674;  -49.425; -386.000; -293.000
201.819;  -68.600; -540.000; -439.000
201.965;  -75.475; -699.000; -447.000
202.111;  -19.425; -273.000; -226.000
202.257;  -41.375; -250.000; -238.000
202.402;    4.200;   13.000;  -36.000
202.548;  -24.000; -169.000; -116.000
202.694;   80.075;  410.000; -183.000
202.840;  -66.725; -603.000; -531.000
202.985;  -67.025; -681.000; -639.000
203.131;  -92.150; -832.000; -666.000
203.277;  -17.275; -199.000; -262.000
203.423;  -41.400; -434.000; -520.000
203.568;  -30.975; -462.000; -237.000
203.714;  -51.000; -535.000; -542.000
203.860;  -75.375; -682.000; -641.000
204.005;   14.925;  112.000;  167.000
204.151;   64.775;  561.000;  556.000
204.296;  -55.175; -354.000; -221.000
204.442;  -70.350; -600.000; -547.000
204.588;  -74.000; -592.000; -579.000
204.733;   14.250;  178.000;  168.000
204.879; -125.050;-1018.000; -822.000
205.025;    9.525;  -99.000;  126.000
205.170;    5.175;  -17.000;   94.000
205.316;   75.600;  438.000;  661.000
205.461;  -78.750; -698.000; -554.000
205.607;   68.675;  609.000;  665.000
205.752;  -72.250; -626.000; -551.000
205.898;  -44.450; -501.000; -391.000
206.043;  -58.900; -578.000; -506.000
206.189;  -35.475; -243.000; -285.000
206.334;   87.550;  554.000;  606.000
206.480;   81.100;  409.000;  239.000
206.625;  -79.150; -529.000; -552.000
206.771;  -44.925; -451.000; -373.000
206.916;  -33.200; -210.000; -537.000
207.062;  -56.475; -545.000; -591.000
207.207;  -57.425; -546.000; -443.000
207.353;   46.075;  185.000;  460.000
207.498;   17.675;  196.000;   85.000
207.643;  -42.675; -501.000; -370.000
207.789; -128.650;-1069.000; -910.000
207.934;  -98.875; -665.000; -713.000
208.080;  -18.925; -154.000;   66.000
208.225;   -8.375;  -22.000;  -57.000
208.370;  -82.750; -727.000; -619.000
208.516;  -73.800; -741.000; -487.000
208.661;  -21.800; -127.000;  -69.000
208.806;  -14.600; -165.000; -171.000
208.952; -123.675;-1044.000; -731.000
209.097;   64.000;  378.000;  349.000
209.242;  -35.950; -307.000; -382.000
209.387;   65.125;  392.000;  350.000
209.533;  -47.075; -321.000; -350.000
209.678;   73.600;  472.000;  543.000
209.823;  -46.850; -408.000; -310.000
209.969; -102.775; -860.000; -757.000
210.114; -105.125; -907.000; -719.000
210.259; -108.975; -939.000; -889.000
210.404;   -1.825; -171.000;  103.000
210.549;    2.175;  108.000;    3.000
210.695;   -9.675;   -3.000;  -95.000
210.840;   35.000;   94.000;   67.000
210.985;  -60.150; -484.000; -303.000
211.130;   81.750;  268.000;  406.000
211.275;   10.575;  207.000;  199.000
211.420;  -49.225; -300.000; -289.000
211.566;  -66.900; -536.000; -489.000
211.711;   20.975;  218.000;  157.000
211.856;  -72.050; -545.000; -519.000
212.001;    3.800;  151.000;   44.000
212.146;   24.100;  153.000;   49.000
212.291;  -34.950; -210.000; -186.000
212.436;  -18.075; -280.000;   -6.000
212.581;  -80.100; -685.000; -653.000
212.726;  -66.000; -487.000; -538.000
212.871;  -54.800; -552.000; -217.000
213.016; -141.950;-1172.000;-1029.000
213.161;   53.700;  406.000;  291.000
213.306;  -65.400; -435.000; -577.000
213.451;  -85.425; -778.000; -689.000
213.596;  -45.675; -455.000; -347.000
213.741;  -53.100; -448.000; -538.000
213.886;  -78.325; -498.000; -517.000
214.031;  -21.175; -294.000; -124.000
214.176;  -40.750; -408.000; -341.000
214.321;  -22.725; -296.000; -157.000
214.466;  -21.650; -163.000;  -43.000
214.611;   -7.025;  -61.000;  -10.000
214.756; -107.725; -948.000; -858.000
214.901;  -35.150; -388.000; -226.000
215.046; -122.100; -797.000; -825.000
215.191;   16.900;  128.000;   35.000
215.336;   -1.450; -157.000;  -19.000
215.480;  -63.900; -684.000; -505.000
215.625;  -11.450; -175.000;  -19.000
215.770;  -72.600; -757.000; -662.000
215.915;   -0.275;   -5.000;  -97.000
216.060;   -1.275; -113.000;  -21.000
216.205; -101.375; -731.000; -779.000
216.349;  -77.600; -470.000; -533.000
216.494; -131.375; -939.000; -867.000
216.639; -116.275; -823.000; -888.000
216.784;  -70.550; -577.000; -525.000
216.929;   48.200;  392.000;  281.000
217.073;   -4.525; -244.000;  -31.000
217.218;    9.400;   78.000;  -47.000
217.363;  -82.425; -656.000; -618.000
217.507;  -71.450; -623.000; -588.000
217.652; -109.750; -845.000; -874.000
217.797;  -84.275; -708.000; -659.000
217.942; -101.875; -856.000; -720.000
218.086;   81.650;  608.000;  539.000
218.231;  -23.300; -174.000;  -26.000
218.376;  -45.825; -337.000; -229.000
218.520;   -7.125;  -41.000;   96.000
218.665;  -36.300; -338.000; -204.000
218.810;  -33.625; -275.000; -233.000
218.954;   14.250;  201.000;   35.000
219.099; -107.500; -713.000; -963.000
219.243;  -64.625; -589.000; -554.000
219.388;  -26.250; -264.000; -136.000
219.532;  -13.525; -116.000; -116.000
219.677;  -71.575; -564.000; -521.000
219.822;    0.850;   33.000;   89.000
219.966;  -11.675;   17.000;  -99.000
220.111;  -26.325; -328.000;  -40.000
220.255;  -92.825; -797.000; -750.000
220.400;  -11.200; -180.000; -146.000
220.544;  -62.150; -516.000; -450.000
220.689;  -53.525; -422.000; -451.000
220.833;  -37.375; -123.000;  -58.000
220.978;  -33.300; -393.000; -563.000
221.122;   26.550;  319.000;  307.000
221.267; -119.500; -906.000; -837.000
221.411;  -55.650; -478.000; -394.000
221.555;   -6.600; -104.000;  -23.000
221.700;  -45.600; -329.000; -222.000
221.844;   42.700;  255.000;  272.000
221.989;  -35.475; -328.000; -311.000
222.133;  -32.075; -289.000; -307.000
222.277;   -4.325;    5.000;   78.000
222.422;   19.550;  227.000;  113.000
222.566;  -31.625; -381.000; -214.000
222.711;  -68.275; -414.000; -479.000
222.855;  -75.725; -643.000; -586.000
222.999;  -91.150; -642.000; -717.000
223.144;  -23.375; -195.000; -194.000
223.288;   56.450;  423.000;  251.000
223.432;   26.850;  184.000;  230.000
223.576;   20.825;  152.000;  -21.000
223.721;   47.350;  364.000;  273.000
223.865;  -70.300; -472.000; -475.000
224.009;  242.750; 1673.000; 1631.000
224.153;  -81.050; -660.000; -671.000
224.298;  -48.300; -531.000; -489.000
224.442;  -16.125;  -74.000;  -33.000
224.586;    5.375; -169.000; -106.000
224.730;  -95.950; -858.000; -670.000
224.875; -110.575; -739.000; -688.000
225.019;    3.950;  102.000;  188.000
225.163;   41.600;  208.000;  341.000
225.307;    5.625;   97.000;  -91.000
225.451;   42.850;  360.000;  481.000
225.595;   17.225;  264.000;  176.000
225.739;  -27.025; -170.000;  -94.000
225.884;   16.250;   86.000;    5.000
226.028;  -91.750; -760.000; -626.000
226.172;  -28.325; -260.000; -273.000
226.316; -112.475; -941.000; -902.000
226.460;  -73.475; -645.000; -493.000
226.604;  -53.575; -406.000; -400.000
226.748;  -97.200; -836.000; -733.000
226.892;  -32.425; -227.000; -181.000
227.036;  -38.850; -537.000; -447.000
227.180;  -56.900; -551.000; -375.000
227.324;  -65.300; -561.000; -580.000
227.468; -109.425; -819.000; -717.000
227.612;    1.825;  242.000;  -28.000
227.756; -102.200; -845.000; -698.000
227.900;   54.750;  342.000;  441.000
228.044;  -64.975; -509.000; -290.000
228.188;   52.175;  448.000;  568.000
228.332;  -79.925; -546.000; -472.000
228.476;  -35.500; -223.000; -149.000
228.620;  -32.975; -210.000; -150.000
228.764;   69.425;  431.000;  349.000
228.908;   -7.125; -155.000;   30.000
229.052;  -56.450; -615.000; -528.000
229.195;  -14.650; -172.000;   13.000
229.339;  -29.700; -235.000; -305.000
229.483;  -31.650;    5.000; -162.000
229.627;  -14.025; -156.000;  139.000
229.771;  -36.025; -218.000; -294.000
229.915;    2.025;  230.000;   79.000
230.059;  -84.525; -648.000; -663.000
230.202;  -36.675; -370.000; -317.000
230.346;  -15.825; -107.000;  107.000
230.490;  -70.125; -489.000; -521.000
230.634;  -96.350; -736.000; -553.000
230.777;   71.675;  478.000;  509.000
230.921;  -49.175; -450.000; -359.000
231.065;  -45.175; -246.000; -286.000
231.209;   32.775;  261.000;  265.000
231.352;    8.575;   54.000;   40.000
231.496;    6.550;  568.000;  188.000
231.640;  -82.625; -693.000; -621.000
231.783;   56.325;  546.000;  525.000
231.927;  -51.300; -294.000; -365.000
232.071; -108.650; -962.000; -736.000
232.214; -115.775; -980.000; -764.000
232.358;  -89.100; -683.000; -599.000
232.502;    0.475;  -19.000;    7.000
232.645; -132.125;-1090.000; -927.000
232.789;  -27.375; -257.000; -218.000
232.933;  -39.950; -407.000; -224.000
233.076; -130.725;-1038.000; -897.000
233.220; -110.225; -752.000; -777.000
233.363;  -71.650; -669.000; -477.000
233.507;   53.275;  371.000;  129.000
233.650;  -89.200; -764.000; -834.000
233.794;   46.300;  438.000;  461.000
233.938;  -72.850; -530.000; -362.000
234.081;  -13.925;  -93.000;   31.000
234.225;  -70.525; -631.000; -539.000
234.368;  -90.825; -773.000; -723.000
234.512;  -54.000; -385.000; -299.000
234.655;  -87.650; -582.000; -555.000
234.798;  -62.200; -493.000; -466.000
234.942; -127.275; -884.000;-1002.000
235.085;  -67.350; -651.000; -443.000
235.229;  -60.250; -405.000; -410.000
235.372;  -63.300; -247.000; -191.000
235.516;  -61.025; -397.000; -321.000
235.659;   20.775;   92.000;  121.000
235.802;  -19.275;  -38.000;  -22.000
235.946;   20.125;  335.000;  215.000
236.089;   25.900;  126.000;  250.000
236.233;   44.550;  275.000;  298.000
236.376;  -40.725; -235.000; -378.000
236.519;  -44.250; -297.000; -319.000
236.663;  -11.825; -215.000; -117.000
236.806; -134.975;-1029.000; -999.000
236.949;   41.775;  543.000;  431.000
237.092;   53.025;  412.000;  391.000
237.236;  -81.850; -589.000; -502.000
237.379;   67.625;  352.000;  428.000
237.522; -115.050; -879.000; -768.000
237.666;  -20.525; -271.000;   18.000
237.809; -109.000; -851.000; -823.000
237.952;   12.125;  469.000;  271.000
238.095;  -58.750; -447.000; -442.000
238.238;   85.500;  688.000;  700.000
238.382;    0.275;  166.000;  103.000
238.525;  -70.675; -598.000; -511.000
238.668; -133.350;-1060.000; -985.000
238.811;  -92.875; -638.000; -643.000
238.954;  -59.100; -483.000; -334.000
239.097;   83.100;  617.000;  664.000
239.241;   26.850;  394.000;  326.000
239.384;  -35.475; -254.000; -214.000
239.527;  -55.175; -424.000; -224.000
239.670; -141.500; -994.000;-1091.000
239.813; -108.500; -696.000; -658.000
239.956;   88.250;  579.000;  473.000
240.099; -102.950; -778.000; -725.000
240.242;   51.000;  428.000;  432.000
240.385;   47.600;  466.000;  450.000
240.528;  -72.050; -706.000; -473.000
240.671;    6.100;  189.000;  134.000
240.814;  -37.775; -441.000; -158.000
240.957;  -99.800; -767.000; -578.000
241.100;  -88.175; -779.000; -755.000
241.243; -140.650;-1234.000; -893.000
241.386;  -76.250; -508.000; -379.000
241.529;  -86.125; -735.000; -547.000
241.672;  -66.475; -566.000; -495.000
241.815; -103.275; -832.000; -808.000
241.958;  -30.100; -125.000; -182.000
242.101;  -75.300; -545.000; -390.000
242.244;  -38.150; -270.000; -325.000
242.387;  -46.600; -304.000; -246.000
242.530;   58.375;  470.000;  134.000
242.673;  -38.600; -381.000; -309.000
242.815; -119.550; -925.000; -899.000
242.958;  -63.250; -482.000; -381.000
243.101;    1.875;  132.000;  187.000
243.244;  -90.375; -564.000; -521.000
243.387;  -66.950; -313.000; -316.000
243.530;  -89.325; -657.000; -674.000
243.672;  -10.450;   43.000;  -92.000
243.815;  -45.325; -355.000; -283.000
243.958;    1.075;   98.000;  -26.000
244.101;   -4.175;   59.000;  -16.000
244.243;  -12.275;  -47.000;  101.000
244.386; -109.050; -761.000; -630.000
244.529;  -27.900; -132.000; -139.000
244.672; -140.825;-1154.000; -951.000
244.814;  -94.325; -621.000; -794.000
244.957;  -32.000; -380.000; -304.000
245.100;  -73.125; -489.000; -489.000
245.242;  -64.700; -387.000; -374.000
245.385;   -3.725;  -59.000;  -39.000
245.528; -121.575; -871.000; -705.000
245.670;   91.575;  612.000;  634.000
245.813;  -94.275; -599.000; -547.000
245.956;  -41.200; -324.000; -275.000
246.098;  -67.300; -508.000; -650.000
246.241;    6.825;  194.000;   48.000
246.383;  -29.500; -119.000;  -73.000
246.526;  -69.850; -454.000; -525.000
246.669;  -97.375; -889.000; -780.000
246.811;   18.225;  172.000;   -1.000
246.954;  -60.250; -512.000; -426.000
247.096;  -23.200;  -84.000;   -6.000
247.239;  -70.250; -482.000; -445.000
247.381;  -72.150; -647.000; -488.000
247.524;   67.500;  645.000;  679.000
247.666;  -11.575;   58.000;   11.000
247.809; -114.725; -887.000; -691.000
247.951;  -10.525;  -75.000;  138.000
248.094;   13.825;  432.000;  308.000
248.236; -163.400;-1262.000;-1238.000
248.378;  -19.800; -356.000;  -81.000
248.521;  -47.825; -334.000; -337.000
248.663;  -44.125; -236.000; -267.000
248.806;  -24.725; -300.000; -266.000
248.948; -111.125; -886.000; -763.000
249.090;  -60.475; -428.000; -398.000
249.233;  -68.800; -344.000; -381.000
249.375;  -58.150; -474.000; -451.000
249.518;  -19.825;  -83.000; -133.000
249.660;  -17.150; -103.000;    3.000
249.802; -175.125;-1303.000;-1189.000
249.945;  -73.575; -612.000; -540.000
250.087; -107.775; -834.000; -768.000
250.229;  -52.925; -362.000; -480.000
250.371;  -68.300; -494.000; -439.000
250.514;  -54.700; -310.000; -244.000
250.656;  -72.575;   69.000;  102.000
250.798; -104.025; -849.000; -800.000
250.940;  -69.600; -322.000; -322.000
251.083;  -31.375; -335.000; -111.000
251.225;   51.425;  338.000;  310.000
251.367;  -40.775; -274.000; -373.000
251.509;  -32.950; -265.000; -210.000
251.651; -109.600; -731.000; -671.000
251.794;   52.700;  538.000;  632.000
251.936; -114.175; -821.000; -747.000
252.078;  -74.675; -540.000; -461.000
252.220;  -62.700; -645.000; -477.000
252.362;   48.900;  344.000;  462.000
252.504;  -72.275; -677.000; -584.000
252.646; -108.125; -875.000; -722.000
252.788;   -2.200;   14.000; -128.000
252.931;  -49.500; -257.000; -253.000
253.073;  -52.950; -376.000; -317.000
253.215;   -4.100;  141.000;  122.000
253.357;  -13.950;   82.000; -153.000
253.499;  -44.600; -374.000; -234.000
253.641;  -92.275; -749.000; -594.000
253.783;  -87.375; -609.000; -527.000
253.925;  -91.725; -586.000; -591.000
254.067; -113.775; -744.000; -667.000
254.209;  -40.700; -391.000; -259.000
254.351; -138.825; -865.000; -883.000
254.493;  -67.025; -441.000; -417.000
254.635; -123.200; -936.000; -818.000
254.777; -111.925; -752.000; -687.000
254.918;  -61.750; -512.000; -430.000
255.060;  -62.725; -551.000; -395.000
255.202;  -60.200; -473.000; -261.000
255.344;  -80.700; -658.000; -455.000
255.486;  -73.250; -471.000; -406.000
255.628; -100.000; -780.000; -781.000
255.770;  -76.000; -676.000; -536.000
255.912;  -76.050; -559.000; -468.000
256.053;  -83.700; -730.000; -508.000
256.195;  154.725; 1008.000;  903.000
256.337;  -95.325; -861.000; -595.000
256.479;   54.050;  532.000;  416.000
256.621;  -40.675; -394.000; -212.000
256.762; -101.725; -789.000; -742.000
256.904;   35.050;  485.000;  487.000
257.046;  -47.475; -381.000; -271.000
257.188;  -45.275; -351.000; -264.000
257.329;  -93.325; -525.000; -464.000
257.471; -110.075; -939.000; -807.000
257.613;  -82.000; -584.000; -498.000
257.755; -138.425;-1073.000; -982.000
257.896;   11.750;  286.000;  392.000
258.038;  -68.550; -403.000; -352.000
258.180;  -55.375; -354.000; -279.000
258.321;  -82.650; -581.000; -457.000
258.463;  -22.950;  -71.000;  133.000
258.605;  -84.950; -562.000; -570.000
258.746; -104.100; -886.000; -772.000
258.888; -155.975;-1026.000;-1020.000
259.029;   16.150;  121.000;   -8.000
259.171;  -80.875; -614.000; -550.000
259.313;    0.675;  -49.000;  -47.000
259.454;  -60.450; -536.000; -414.000
259.596;  -47.200; -483.000; -390.000
259.737;  -69.675; -590.000; -474.000
259.879;   30.000;  217.000;  311.000
260.020;   82.775;  901.000;  636.000
260.162;  -25.850; -146.000; -253.000
260.303; -114.775; -768.000; -687.000
260.445;  -87.175; -609.000; -613.000
260.586;   23.075;  392.000;  157.000
260.728;  -38.925; -360.000; -248.000
260.869;  -64.825; -350.000; -343.000
261.011;   65.075;  706.000;  537.000
261.152;  -64.575; -479.000; -319.000
261.293;  -82.050; -576.000; -595.000
261.435;  -28.375; -219.000; -184.000
261.576;  -53.300; -455.000; -325.000
261.718;   43.900;  420.000;  470.000
261.859; -134.850; -940.000; -949.000
262.000; -129.400; -951.000;-1016.000
262.142;  -31.600;  -52.000;  -60.000
262.283; -105.600; -808.000; -691.000
262.424;  -97.400; -666.000; -625.000
262.566; -149.925;-1161.000; -983.000
262.707; -115.825; -840.000; -830.000
262.848; -119.175; -769.000; -726.000
262.990;  -46.900; -362.000; -345.000
263.131;   91.700;  650.000;  681.000
263.272;  -15.975;  -61.000;  -41.000
263.413;  -80.500; -589.000; -561.000
263.555;  -69.050; -669.000; -143.000
263.696;  -90.250; -550.000; -641.000
263.837;  -66.800; -449.000; -551.000
263.978;  -13.175;   -5.000;  -77.000
264.119;  -45.700; -283.000; -264.000
264.261; -103.525; -847.000; -630.000
264.402;   -7.275;   33.000;   40.000
264.543;  -86.625; -509.000; -524.000
264.684;  -25.275;   61.000;  -50.000
264.825;  -68.275; -816.000; -538.000
264.966;   -8.875;  -84.000;  -67.000
265.107; -114.275; -646.000; -670.000
265.248; -123.900; -825.000; -812.000
265.390;  -15.075;  152.000;   -9.000
265.531;  -31.900; -238.000; -107.000
265.672;  -82.950; -557.000; -630.000
265.813;   41.275;  563.000;  439.000
265.954; -151.250; -959.000; -940.000
266.095;   -8.275; -372.000; -322.000
266.236;  -98.150; -686.000; -548.000
266.377;  -44.800; -243.000; -297.000
266.518;  -70.975; -619.000; -547.000
266.659;   39.150;  170.000;  268.000
266.800;  -10.350;   83.000;   85.000
266.941;  -83.650; -487.000; -478.000
267.082;    9.050;  354.000;   99.000
267.223;  -65.500; -344.000; -273.000
267.364; -120.150; -892.000; -686.000
267.504;  -27.800;    3.000;  135.000
267.645;   -6.500;  160.000;   67.000
267.786;  -48.200; -147.000;  -86.000
267.927;  -59.125; -473.000; -379.000
268.068;  -37.100; -186.000;  -61.000
268.209;  -41.175; -175.000; -413.000
268.350;  -64.525; -388.000; -532.000
268.490;  -90.925; -648.000; -521.000
268.631;   27.675;  127.000;  225.000
268.772; -105.375; -874.000; -647.000
268.913;  -67.750; -328.000; -476.000
269.054;  -12.125; -117.000;   12.000
269.194;  -57.325; -418.000; -402.000
269.335; -160.650;-1137.000;-1074.000
269.476;  -18.350;   33.000;  -35.000
269.617;  -49.875; -347.000; -392.000
269.757;  -91.600; -713.000; -646.000
269.898; -107.325; -856.000; -613.000
270.039;  -75.375; -415.000; -405.000
270.180; -133.775; -952.000; -816.000
270.320;  -47.500; -190.000; -250.000
270.461;  -45.775; -277.000; -249.000
270.602;  -11.600; -186.000; -156.000
270.742; -124.475; -868.000; -943.000
270.883;  -74.400; -442.000; -390.000
271.023;  -59.550; -358.000; -357.000
271.164;  -77.850; -607.000; -528.000
271.305;  -91.300; -666.000; -654.000
271.445;  -89.800; -722.000; -683.000
271.586;  -66.250; -462.000; -283.000
271.726;  -53.150; -397.000; -322.000
271.867;  -74.025; -594.000; -534.000
272.008;   31.475; -473.000; -285.000
272.148;   48.775;  462.000;  468.000
272.289;   -6.650; -113.000; -181.000
272.429;   -3.375;   19.000;  185.000
272.570;  -99.225; -633.000; -737.000
272.710;  -94.625; -825.000; -775.000
272.851;  -21.150;  113.000; -130.000
272.991; -157.900;-1173.000;-1077.000
273.131;  -64.250; -419.000; -459.000
273.272; -100.200; -683.000; -723.000
273.412;  -12.125; -143.000;  -31.000
273.553;  -66.925; -488.000; -507.000
273.693;  110.375;  913.000;  858.000
273.834; -111.850; -894.000; -692.000
273.974;  -91.375; -664.000; -615.000
274.114; -105.775; -772.000; -560.000
274.255;   40.675;  414.000;  373.000
274.395;  -20.325; -180.000; -125.000
274.535;   23.800;  199.000;  350.000
274.676;   18.825;  225.000;   94.000
274.816;   -8.150;  110.000;   34.000
274.956; -100.950; -624.000; -690.000
275.097; -110.925;-1014.000; -922.000
275.237; -113.300; -913.000; -803.000
275.377; -109.625; -778.000; -689.000
275.517; -146.775; -878.000; -937.000
275.658;  -65.750; -590.000; -555.000
275.798;  -86.250; -606.000; -413.000
275.938;    7.925;  215.000;  323.000
276.078;  -77.650; -626.000; -395.000
276.218;  -11.625;   99.000;  104.000
276.359; -134.775;-1026.000;-1024.000
276.499;  -75.825; -605.000; -446.000
276.639;  -30.100; -305.000; -151.000
276.779;  -45.575; -475.000; -357.000
276.919;  -96.750; -783.000; -624.000
277.059;  -28.100; -261.000; -212.000
277.199;  -50.975; -357.000; -259.000
277.340;   24.575;  287.000;  175.000
277.480; -100.875; -840.000; -693.000
277.620;   18.525;  192.000;   16.000
277.760; -187.275;-1533.000;-1294.000
277.900;   -4.275;  113.000;   33.000
278.040;   -0.275;  137.000;  159.000
278.180;   12.600;  270.000;  170.000
278.320;    4.625;   21.000;   56.000
278.460;  -77.675; -443.000; -469.000
278.600;  -99.575; -708.000; -598.000
278.740;   28.900;  448.000;  224.000
278.880; -111.000; -768.000; -791.000
279.020;  -34.350; -194.000; -144.000
279.160;  -90.825; -672.000; -595.000
279.300; -111.975; -926.000; -873.000
279.440;  -99.125; -709.000; -622.000
279.579;  -93.875;-1014.000; -929.000
279.719;  -64.150; -410.000; -394.000
279.859;   27.000;   -4.000;   41.000
279.999;   -0.700; -208.000;  101.000
280.139;  -56.650; -435.000; -387.000
280.279;  -89.375; -708.000; -745.000
280.419;  -22.575; -229.000; -147.000
280.559;  -43.150; -259.000; -180.000
280.698;  -91.850; -790.000; -639.000
280.838;  -98.275; -778.000; -800.000
280.978; -107.050; -846.000; -790.000
281.118; -116.975; -811.000; -704.000
281.257;    4.475;   24.000;    6.000
281.397; -143.075;-1094.000; -960.000
281.537;  -98.350; -599.000; -712.000
281.677;  -29.700; -150.000; -101.000
281.816;  -79.525; -700.000; -630.000
281.956;  -34.550; -193.000; -257.000
282.096;  -48.575; -539.000; -396.000
282.235; -101.450; -672.000; -638.000
282.375;  -28.725; -243.000;  -98.000
282.515; -109.750; -715.000; -707.000
282.654;    5.900;   29.000;  106.000
282.794;    2.900;  388.000;  244.000
282.934;  -62.525; -530.000; -491.000
283.073; -144.150;-1030.000; -857.000
283.213;  -76.050; -460.000; -467.000
283.353;  -59.200; -408.000; -349.000
283.492;  -32.725; -264.000; -296.000
283.632;  -51.525; -254.000; -168.000
283.771; -102.925; -859.000; -730.000
283.911;  -48.325; -369.000; -260.000
284.050; -112.800; -794.000; -748.000
284.190; -158.600;-1229.000;-1096.000
284.329; -133.000;-1055.000; -964.000
284.469;  -96.700; -516.000; -591.000
284.608;  -67.275; -559.000; -598.000
284.748;  -87.600; -614.000; -570.000
284.887;  -13.100;  -87.000;  -20.000
285.027; -128.575; -844.000; -892.000
285.166;  -50.025; -192.000; -249.000
285.306;  -29.300; -116.000;  -33.000
285.445;  -48.175; -229.000; -343.000
285.584;  -90.750; -630.000; -494.000
285.724;  -50.550; -282.000; -322.000
285.863; -124.950; -857.000; -507.000
286.002;  -55.825; -366.000; -276.000
286.142; -111.925; -715.000; -622.000
286.281;  -76.050; -525.000; -493.000
286.420;  -86.900; -554.000; -417.000
286.560;   79.425;  653.000;  623.000
286.699; -146.100; -958.000; -912.000
286.838;  -77.825; -590.000; -591.000
286.978;  -92.475; -533.000; -537.000
287.117; -132.575;-1085.000; -950.000
287.256;  -43.400; -228.000; -211.000
287.395;  -55.725; -197.000; -378.000
287.535;  -52.975; -370.000; -298.000
287.674;  -94.875; -509.000; -484.000
287.813;   57.725;  661.000;  533.000
287.952; -140.150;-1010.000; -871.000
288.091; -145.925;-1049.000; -915.000
288.231;   -1.575;   13.000;   15.000
288.370; -167.125;-1217.000;-1200.000
288.509;  -85.500; -728.000; -645.000
288.648;  -90.100; -770.000; -548.000
288.787;  -50.800; -243.000;  -87.000
288.926;  -65.850; -454.000; -475.000
289.065;   95.525;  859.000;  672.000
289.204;  -57.950; -377.000; -217.000
289.344; -102.700; -791.000; -690.000
289.483;    7.250;  416.000;  304.000
289.622;  -41.750; -291.000; -149.000
289.761;   -9.425; -309.000; -166.000
289.900; -119.175; -785.000; -626.000
290.039;  -36.125;  -12.000;  -95.000
290.178;  -54.375; -274.000; -180.000
290.317;  -80.900; -618.000; -479.000
290.456;  -71.250; -463.000; -451.000
290.595; -135.125; -961.000; -833.000
290.734; -135.475; -904.000; -891.000
290.873;  -76.375; -456.000; -420.000
291.011; -127.475; -833.000; -843.000
291.150; -118.725; -770.000; -682.000
291.289;  -37.950; -343.000; -110.000
291.428; -104.950; -599.000; -480.000
291.567;  -68.225; -370.000; -442.000
291.706;   -2.900;  109.000;  154.000
291.845;  -89.475; -597.000; -505.000
291.984; -173.025;-1234.000;-1061.000
292.122;   54.675;  602.000;  582.000
292.261;   35.125;  620.000;  463.000
292.400;  -10.150; -144.000;  211.000
292.539; -116.100; -959.000; -813.000
292.678;  -47.300; -325.000; -300.000
292.816; -161.300;-1136.000; -965.000
292.955; -107.275; -844.000; -684.000
293.094;  -33.900; -173.000; -337.000
293.233;  -58.450; -556.000; -400.000
293.371;  -30.000; -225.000;  -84.000
293.510; -116.975; -866.000; -780.000
293.649; -133.925; -959.000; -924.000
293.787; -126.625;-1083.000;-1012.000
293.926;  -30.850; -113.000;  -32.000
294.065;  -39.500; -379.000; -290.000
294.203;   30.325;  298.000;  406.000
294.342;   15.175;   74.000;  156.000
294.481; 6691.500;51180.000; -836.000
294.619;  -31.400; -425.000; -582.000
294.758; -147.125;-1230.000;-1137.000
294.896;    1.875; -125.000;    5.000
295.035; -141.225;-1040.000;-1006.000
295.174; -124.775;-1082.000; -954.000
295.312;  -54.375; -323.000; -203.000
295.451;  -40.625; -307.000; -428.000
295.589;  -72.500; -389.000; -518.000
295.728;    1.175; -292.000; -165.000
295.866;   -3.675;  -36.000;  -51.000
296.005;  -79.425; -584.000; -341.000
296.143;  -75.375; -558.000; -596.000
296.282; -120.650; -957.000; -881.000
296.420;  -95.300; -657.000; -557.000
296.559;  -96.825; -892.000; -633.000
296.697;  -49.800; -847.000; -665.000
296.835;  -94.275;-1141.000;-1002.000
296.974;    9.050;  -23.000;   39.000
297.112;  -48.775; -443.000; -504.000
297.251;  -95.175; -815.000; -755.000
297.389;  -31.575; -576.000; -438.000
297.527;   -1.925; -145.000;  -83.000
297.666;  -80.775; -486.000; -438.000
297.804;  -67.625; -404.000; -264.000
297.942;  -16.125; -136.000; -161.000
298.081;  -10.600; -183.000;   63.000
298.219;    2.750;  -17.000;  -19.000
298.357;  -12.625; -144.000;  -71.000
298.495;  -70.650; -810.000; -812.000
298.634;    9.600;  245.000;  219.000
298.772;  -38.300; -220.000; -338.000
298.910;  -61.125; -309.000; -182.000
299.048;  -29.675; -130.000; -153.000
299.187;  -45.575; -350.000; -250.000
299.325;  -14.675;   52.000;  122.000
299.463;  -30.950; -389.000; -299.000
299.601;  -25.500; -327.000; -271.000
299.739; -120.775; -908.000; -883.000
299.877;  -88.675; -791.000; -703.000
300.016; -105.950;-1095.000; -935.000
300.154;   22.825;  -19.000; -161.000
300.292;  -42.675; -428.000; -348.000
300.430;  -40.325; -408.000; -291.000
300.568; -127.875; -940.000; -874.000
300.706;  -68.850; -366.000; -469.000
300.844; -141.025;-1108.000; -979.000
300.982;   54.300;  246.000;  282.000
301.120; -125.050; -965.000; -866.000
301.258;  -99.125; -812.000; -705.000
301.396;    6.775;  104.000;  -41.000
301.534;  -37.350; -218.000; -293.000
301.672;  -85.775; -664.000; -521.000
301.810;  -62.975; -613.000; -545.000
301.948;   18.250;   53.000;  149.000
302.086;  190.075; -250.000;  -32.000
302.224;  205.750; -610.000; -585.000
302.362;  -78.100; -558.000; -622.000
302.500; -104.550; -923.000; -893.000
302.638;   14.425;  128.000;  245.000
302.776;  -36.625; -352.000; -408.000
302.913;   22.625;  447.000;  236.000
303.051;  -36.375;  -86.000;  -23.000
303.189;    0.150;   90.000;  118.000
303.327;  -62.525; -341.000; -256.000
303.465;  -92.325; -832.000; -588.000
303.603;  -90.175; -805.000; -604.000
303.740;   39.425;  417.000;  241.000
303.878;  -81.575; -800.000; -759.000
304.016; -105.925; -915.000; -790.000
304.154; -155.625;-1123.000;-1152.000
304.291;  -63.800; -505.000; -554.000
304.429;   -9.950;  102.000;   74.000
304.567; -145.350; -908.000; -893.000
304.705;  -85.125; -408.000; -515.000
304.842;  -38.800; -616.000; -540.000
304.980;   12.475;  215.000;   35.000
305.118;  -32.950; -367.000; -365.000
305.255; -126.500; -945.000; -927.000
305.393;   12.500;  178.000;  239.000
305.531; -145.000;-1173.000; -956.000
305.668;  -87.225; -663.000; -582.000
305.806;    6.400; -358.000; -439.000
305.943;  -21.725; -629.000; -637.000
306.081;  -10.975; -378.000; -267.000
306.219; -106.475; -863.000; -748.000
306.356;    5.025;  158.000;   27.000
306.494;   95.500;  981.000;  761.000
306.631;    3.550;  -11.000;  -55.000
306.769;  -34.550; -613.000; -485.000
306.906;  -41.125; -284.000; -258.000
307.044;  -53.900; -473.000; -488.000
307.181;  -66.675; -410.000; -332.000
307.319;   -3.375;  112.000;   87.000
307.456; -167.000;-1191.000;-1153.000
307.594; -131.325; -980.000; -727.000
307.731;  -22.800; -371.000; -164.000
307.868;  -11.450;  -15.000;   20.000
308.006; -150.050; -961.000; -847.000
308.143;  -69.925; -618.000; -330.000
308.281;   24.275;  -37.000; -254.000
308.418;  -82.925; -748.000; -640.000
308.555;  -84.875; -400.000; -250.000
308.693;  -69.675; -577.000; -573.000
308.830; -103.275; -712.000; -657.000
308.967;  -12.325; -215.000;  -95.000
309.105;  -33.175; -507.000; -396.000
309.242;  -25.675; -468.000; -367.000
309.379;   28.475; -577.000; -655.000
309.517; -105.775; -936.000; -948.000
309.654; -104.200; -910.000; -734.000
309.791;  -87.925; -662.000; -580.000
309.928; -122.350; -977.000; -914.000
310.065;  114.550;  819.000;  697.000
310.203;  -72.750; -825.000; -850.000
310.340;  -44.500; -465.000; -321.000
310.477;  -71.475; -412.000; -516.000
310.614;  -61.450; -383.000; -473.000
310.751;  -74.700; -427.000; -518.000
310.889;  -21.900;    1.000;   11.000
311.026; -147.400;-1161.000; -939.000
311.163;  -62.175; -386.000; -380.000
311.300;  -83.500; -512.000; -479.000
311.437;  -79.575; -658.000; -619.000
311.574; -148.075;-1226.000; -985.000
311.711;  -73.200; -595.000; -433.000
311.848;  -38.225; -380.000; -388.000
311.985;  -10.300;  270.000;   93.000
312.122; -116.275; -932.000; -762.000
312.259; -109.900; -941.000; -994.000
312.396;  -82.325; -508.000; -551.000
312.533;  -88.750; -812.000; -790.000
312.670; -129.350;-1070.000; -898.000
312.807;  -44.550; -352.000; -367.000
312.944;  -75.700; -513.000; -611.000
313.081;  -41.400; -150.000; -415.000
313.218;  -91.250;-1111.000; -867.000
313.355;  -20.050; -531.000; -449.000
313.492;  -27.500; -455.000; -292.000
313.629;  117.100;  815.000;  735.000
313.766; -148.275;-1176.000;-1008.000
313.902;  -13.825; -186.000;   21.000
314.039;  -59.875; -372.000; -289.000
314.176;   28.275;  286.000;  192.000
314.313;  -77.075; -569.000; -473.000
314.450;  -92.275; -788.000; -684.000
314.587;  -68.375; -468.000; -480.000
314.723;    0.100;  -78.000;  130.000
314.860;   33.625;  318.000;  332.000
314.997;   15.775;  223.000;  142.000
315.134;  -45.250; -385.000; -368.000
315.270;  -32.425; -480.000; -496.000
315.407; -123.250;-1094.000; -967.000
315.544;  -44.775; -657.000; -538.000
315.681;  -67.775; -681.000; -565.000
315.817;   22.975; -133.000; -176.000
315.954;   33.575; -613.000; -392.000
316.091; -129.150;-1045.000;-1023.000
316.227;  -21.175;  -71.000; -179.000
316.364;   -9.900;   23.000;    6.000
316.500;  -40.025; -113.000; -300.000
316.637;  -46.150; -181.000; -302.000
316.774;  -79.250; -625.000; -358.000
316.910;  -96.525; -598.000; -629.000
317.047;  -77.400; -487.000; -351.000
317.183;  -54.650; -435.000; -566.000
317.320;   29.375; -367.000; -321.000
317.456;  -37.900; -733.000; -805.000
317.593;  -85.975; -598.000; -641.000
317.729;   -6.925;  168.000;  -67.000
317.866; -200.225;-1434.000;-1285.000
318.002; -112.050; -708.000; -948.000
318.139; -127.975; -883.000; -867.000
318.275; -117.950;-1003.000; -738.000
318.412;  -78.650; -517.000; -336.000
318.548;  -88.225; -751.000; -720.000
318.685; -102.775; -985.000; -888.000
318.821; -105.625; -762.000; -735.000
318.957;  -25.225;   34.000;  -23.000
319.094;   12.925;  297.000;  154.000
319.230; -100.325; -756.000; -742.000
319.367;  -15.525; -471.000; -520.000
319.503;  -25.400; -538.000; -436.000
319.639; -106.775; -877.000; -793.000
319.775; -108.175; -750.000; -685.000
319.912;  -69.750; -424.000; -519.000
320.048; -104.525;-1184.000;-1184.000
320.184;   74.900;   59.000;   70.000
320.321;  -50.875; -497.000; -467.000
320.457;   62.450;  475.000;  662.000
320.593;  -60.350; -375.000; -382.000
320.729; -105.300; -732.000; -734.000
320.866;  -75.500; -577.000; -635.000
321.002; -115.375; -759.000; -809.000
321.138;  -39.775; -135.000; -211.000
321.274;   11.175; -148.000; -115.000
321.410;  -64.175; -585.000; -353.000
321.546; -119.650;-1011.000; -911.000
321.683;   24.750;  400.000;  185.000
321.819;  -28.575;  -48.000; -117.000
321.955; -123.325; -743.000; -722.000
322.091;  -73.400; -585.000; -540.000
322.227;  -38.975; -382.000; -202.000
322.363;  -49.450; -320.000; -215.000
322.499;  -55.500; -343.000; -331.000
322.635;   82.600;  636.000;  443.000
322.771;  -25.925; -139.000;   12.000
322.907;   39.450;  129.000;  327.000
323.043;  -42.425; -115.000; -206.000
323.179;  -63.775; -394.000; -363.000
323.315;  -43.850; -401.000; -371.000
323.451;   10.975; -328.000; -236.000
323.587;   53.675;  -60.000;  -77.000
323.723;  -65.025; -682.000; -601.000
323.859;  -42.725; -258.000;  -76.000
323.995;  -59.675; -467.000; -409.000
324.131; -135.000; -967.000; -892.000
324.267;  -45.575; -254.000; -276.000
324.402; -133.375; -960.000; -983.000
324.538;  -46.625; -279.000; -104.000
324.674;    0.750;  164.000;   77.000
324.810;   35.900;  226.000;  308.000
324.946;  -55.300; -810.000; -658.000
325.082;  -81.050; -568.000; -475.000
325.217;  -23.975;  -62.000;   16.000
325.353; -113.225; -764.000; -659.000
325.489; -102.475; -540.000; -506.000
325.625;  -86.675; -579.000; -525.000
325.760;   72.200;  517.000;  376.000
325.896;   10.250; -515.000; -702.000
326.032;  -59.700; -403.000; -352.000
326.168;  -71.100; -462.000; -369.000
326.303;  -62.775; -352.000; -461.000
326.439;  -25.900; -336.000; -276.000
326.575;  -15.475; -190.000;  -29.000
326.710;  -24.725; -156.000;  -30.000
326.846;  -21.225;  146.000;  103.000
326.982; -103.750; -530.000; -548.000
327.117;  -69.200; -481.000; -442.000
327.253;  -80.000; -745.000; -742.000
327.388; -143.575;-1137.000;-1153.000
327.524;  -99.675; -811.000; -578.000
327.659;  -17.000;  -58.000;  -22.000
327.795;  -29.925;   69.000;   45.000
327.931;  -82.700; -723.000; -499.000
328.066;  -30.700; -417.000; -276.000
328.202;  -19.400;   12.000; -129.000
328.337;   89.125;  957.000;  713.000
328.473;   29.900;  -12.000;  -74.000
328.608;  -36.250; -256.000; -267.000
328.743; -111.050; -799.000; -664.000
328.879;   -1.275;  214.000;  114.000
329.014;  -44.700; -102.000; -122.000
329.150;  -88.700; -358.000; -483.000
329.285;  -87.000; -465.000; -466.000
329.421;  -56.250; -548.000; -246.000
329.556;  -28.000;  -36.000;   85.000
329.691; -105.450; -633.000; -615.000
329.827;  -80.850; -626.000; -480.000
329.962;  -46.175;  131.000; -301.000
330.097;  -78.150; -673.000; -585.000
330.233;  -52.475; -410.000; -223.000
330.368; -129.500; -839.000; -628.000
330.503;  -22.525;    3.000;   98.000
330.638;  -10.975;  -93.000; -125.000
330.774;  -77.150; -609.000; -530.000
330.909;  -57.600; -434.000; -244.000
331.044;  -98.850; -714.000; -708.000
331.179; -172.350;-1217.000;-1109.000
331.315;   -6.375;   77.000;   20.000
331.450;   17.725;  157.000;  285.000
331.585;  -98.100; -805.000; -706.000
331.720;  -79.850; -510.000; -460.000
331.855;   -2.125;  -35.000; -102.000
331.990;  403.825;   62.000;  138.000
332.126;  203.650; -110.000;   71.000
332.261;    1.250; -379.000; -265.000
332.396;   14.650; -135.000; -242.000
332.531;  -59.725;-1074.000;-1031.000
332.666;   93.950; -519.000; -363.000
332.801;  -96.475; -726.000; -807.000
332.936;  -33.925; -192.000; -122.000
333.071; -141.675; -870.000; -817.000
333.206;    0.875;  307.000;  379.000
333.341;   25.750;  344.000;  418.000
333.476;  -95.175; -627.000; -623.000
333.611;  -36.625; -251.000; -173.000
333.746;  -57.700; -381.000; -464.000
333.881; -125.600; -973.000; -935.000
334.016; -133.725; -936.000; -917.000
334.151; -127.325; -746.000; -702.000
334.286;    4.425;  152.000;  186.000
334.421;  -15.700; -125.000; -178.000
334.556;  -82.100; -611.000; -567.000
334.690;  -81.150; -631.000; -577.000
334.825;   42.000;  381.000;   83.000
334.960;  -62.750; -285.000; -413.000
335.095;  -11.300;  135.000;  -91.000
335.230;  -94.850; -722.000; -738.000
335.365; -130.775;-1084.000; -990.000
335.499; -135.600;-1108.000;-1037.000
335.634;    7.300;    9.000;  534.000
335.769;  -94.150; -755.000; -720.000
335.904;  -66.100; -603.000; -561.000
336.038;  -36.200; -735.000; -657.000
336.173; -118.500;-1206.000;-1194.000
336.308;   11.500; -116.000; -189.000
336.443;   59.200; -544.000; -634.000
336.577;  -44.175; -936.000; -787.000
336.712;   66.900;   -4.000;  -12.000
336.847;  -30.800; -724.000; -607.000
336.981;   43.500; -272.000; -208.000
337.116;  289.300;  615.000;  501.000
337.250;  107.725; -434.000; -421.000
337.385;  456.700; -297.000; -208.000
337.520;  229.225; -632.000; -603.000
337.654;  -43.150; -215.000; -126.000
337.789; -133.600; -989.000; -933.000
337.923;  -50.175; -104.000; -205.000
338.058; -111.050; -673.000; -738.000
338.192;  -71.775; -611.000; -488.000
338.327;  -14.525;  -18.000; -155.000
338.461;  -68.325; -299.000; -469.000
338.596; -113.900; -780.000; -638.000
338.730;  -91.100; -767.000; -803.000
338.865;  156.000;  -46.000; -140.000
338.999;   11.275; -846.000; -702.000
339.134;   -0.800; -634.000; -536.000
339.268;   30.725; -741.000; -603.000
339.403;  578.600; -740.000; -775.000
339.537;  264.700; -894.000; -820.000
339.671; -113.900; -829.000; -813.000
339.806;  -31.575; -556.000; -512.000
339.940;   33.275; -261.000; -235.000
340.074; -109.375; -685.000; -510.000
340.209;  -54.075; -351.000; -230.000
340.343;  -96.925; -517.000; -573.000
340.477;  120.975;  998.000; 1036.000
340.612;    5.200;-1033.000; -900.000
340.746;  241.800; -199.000; -243.000
340.880; -106.125; -924.000; -785.000
341.014;  -26.500;  -45.000; -154.000
341.149; -130.350; -756.000; -718.000
341.283; -123.200; -839.000; -754.000
341.417; -129.650;-1124.000; -938.000
341.551;  -45.825; -768.000; -708.000
341.685;  -66.950; -633.000; -611.000
341.820;  -59.375; -562.000; -493.000
341.954;  -54.250; -218.000; -349.000
342.088; -159.500;-1102.000;-1019.000
342.222;   47.500;  565.000;  618.000
342.356;  -82.975; -395.000; -335.000
342.490; -122.925; -880.000; -841.000
342.624;  -63.425; -339.000; -242.000
342.758;  -74.300; -364.000; -312.000
342.892; -116.575; -710.000; -585.000
343.026;  -48.250;  -58.000; -116.000
343.160;  -63.450; -426.000; -376.000
343.294;  -95.925; -474.000; -337.000
343.428;  -73.100; -488.000; -448.000
343.562;  -44.950; -172.000;  -23.000
343.696;  -49.425; -385.000; -314.000
343.830;  -56.725; -362.000; -356.000
343.964;  -34.400; -231.000; -168.000
344.098;  260.725;  199.000;   70.000
344.232;  213.325; -266.000; -127.000
344.366;   62.625; -567.000; -453.000
344.500;  -57.025; -665.000; -744.000
344.634;  -33.425; -324.000; -164.000
344.768;  -71.175; -531.000; -341.000
344.902;    3.850;  278.000;  256.000
345.035;  -86.900; -556.000; -496.000
345.169; -128.450; -933.000; -656.000
345.303;  -66.575; -308.000; -482.000
345.437; -118.150; -826.000; -717.000
345.571;  -66.275; -675.000; -594.000
345.704;  -60.900; -309.000; -532.000
345.838;  -22.450; -331.000; -284.000
345.972;  -73.400; -543.000; -495.000
346.106;  239.800; -179.000; -190.000
346.239;  467.175; -312.000; -243.000
346.373;   -8.200; -343.000; -302.000
346.507; -124.475; -950.000; -962.000
346.640;   12.800;  -30.000;   13.000
346.774;  -88.850; -650.000; -797.000
346.908;  -35.150; -138.000;  -11.000
347.041; -113.075; -646.000; -593.000
347.175;  -21.600;  259.000;   27.000
347.309; -109.250; -698.000; -628.000
347.442; -125.950; -883.000; -732.000
347.576;  118.875;  670.000;  668.000
347.709;   35.700; -123.000;  -52.000
347.843; -134.450; -933.000; -825.000
347.976;   17.475;  235.000;  294.000
348.110; -179.750;-1268.000;-1186.000
348.243; -112.675; -679.000; -772.000
348.377;   -3.075;  -26.000;   60.000
348.510;   39.675;  403.000;  540.000
348.644;  -46.300;  -37.000; -159.000
348.777;  -13.650;  180.000;  191.000
348.911;  -56.600; -142.000; -112.000
349.044;   75.150;  471.000;  448.000
349.178;  -47.450;-1069.000;-1006.000
349.311;   82.650;  141.000;  255.000
349.444;   25.300; -927.000; -813.000
349.578;  -31.975; -347.000; -200.000
349.711; -127.975; -959.000; -862.000
349.845;  -82.875; -661.000; -591.000
349.978; -163.050;-1224.000;-1137.000
350.111;  -93.750; -546.000; -612.000
350.244; -112.375; -596.000; -700.000
350.378;  -66.725; -392.000; -393.000
350.511;  -75.500; -393.000; -426.000
350.644; -111.300; -808.000; -806.000
350.778;   14.625;  168.000;  104.000
350.911;  -10.200;  134.000;  140.000
351.044;  -97.825; -685.000; -615.000
351.177;  -50.425; -321.000; -281.000
351.310;  -29.975;    3.000; -131.000
351.444; -117.525; -888.000; -788.000
351.577;   32.800;  140.000;   90.000
351.710;   65.725;  593.000;  417.000
351.843;  -48.450; -165.000;  -77.000
351.976;  -24.200;  149.000;  -79.000
352.109; -111.425; -621.000; -612.000
352.242;  -62.050; -464.000; -419.000
352.376;  -82.075; -580.000; -636.000
352.509;    1.875; -437.000; -356.000
352.642;  -99.900; -654.000; -604.000
352.775;   -1.975; -141.000;  -98.000
352.908; -134.500; -933.000; -904.000
353.041; -113.425; -814.000; -824.000
353.174;  -75.125; -551.000; -424.000
353.307; -101.875; -753.000; -764.000
353.440;   66.425;  541.000;  453.000
353.573; -115.475; -957.000;-1008.000
353.706;  -66.425; -384.000; -558.000
353.839;  -43.700; -264.000; -220.000
353.971; -102.800; -657.000; -512.000
354.104; -116.300; -896.000; -835.000
354.237;  -89.350; -627.000; -662.000
354.370; -104.950; -846.000; -879.000
354.503; -174.050;-1231.000;-1308.000
354.636;  -41.400; -529.000; -348.000
354.769; -140.500; -937.000; -860.000
354.902;  -41.800; -230.000; -139.000
355.034;  -25.525; -164.000; -220.000
355.167;  -19.400; -262.000; -162.000
355.300;  -76.350;-1061.000; -880.000
355.433; 1390.100;  -71.000;  -14.000
355.565; 2202.075; -402.000; -384.000
355.698;  574.850; -356.000; -296.000
355.831;  -16.650; -882.000; -801.000
355.964;    5.425; -285.000; -170.000
356.096;  -82.275; -856.000; -843.000
356.229;  -14.325; -523.000; -530.000
356.362;  505.925; -373.000; -266.000
356.494;  903.950; -229.000; -162.000
356.627;  327.925;  269.000;  377.000
356.760;  861.475;  120.000;   53.000
356.892; 1497.750; -286.000; -601.000
357.025;  323.025;  403.000;  389.000
357.157;  234.375; -167.000; -179.000
357.290; 1222.650; -856.000; -713.000
357.423;  365.475; -667.000; -556.000
357.555;   95.600; -217.000; -228.000
357.688;  119.675; -483.000; -364.000
357.820;  145.300; -870.000; -877.000
357.953; 1402.350; -563.000; -589.000
358.085;  207.500; -632.000; -612.000
358.218;   78.275;-1131.000; -932.000
358.350;   30.475;  -58.000;  312.000
358.483; -181.700;-1300.000;-1187.000
358.615; -144.100;-1182.000;-1078.000
358.747; -154.625;-1187.000;-1058.000
358.880;  -69.150; -810.000; -744.000
359.012;  -32.300; -376.000; -202.000
359.145;  -81.425; -480.000; -511.000
359.277;  -52.075; -962.000; -913.000
359.409; 1204.975;  536.000;  231.000
359.542;  252.025; -738.000; -688.000
359.674;   20.700;   46.000;   13.000
359.806;  -81.825; -565.000; -438.000
359.939;  -40.500; -617.000; -516.000
360.071;   42.525; -583.000; -579.000
360.203;  -37.300; -411.000; -364.000
360.335;   29.075;  164.000;  -16.000
360.468;   81.375; -249.000; -307.000
360.600; 1288.150; -547.000; -454.000
360.732; 4265.475; -546.000; -423.000
360.864;  650.475;-1216.000;-1044.000
360.996;   54.325; -516.000; -554.000
361.129;  -51.300; -389.000; -598.000
361.261;  -27.775;  110.000; -113.000
361.393;  -40.575; -252.000; -214.000
361.525;  -15.725;   94.000;  244.000
361.657; -112.025; -821.000; -703.000
361.789;  -37.200; -139.000; -155.000
361.921;  -53.275; -642.000; -593.000
362.053;   86.600;  524.000;  541.000
362.185;   -7.950;  288.000;   72.000
362.318; -125.775; -709.000; -705.000
362.450;   33.625;  294.000;  444.000
362.582;  -97.525; -913.000; -870.000
362.714;  -66.625; -353.000; -332.000
362.846; -102.725; -606.000; -490.000
362.978; -133.150; -941.000; -811.000
363.109;  -24.325; -161.000; -260.000
363.241;  141.250; -739.000; -749.000
363.373;  607.650; -649.000; -564.000
363.505; 1035.025; -186.000;  -91.000
363.637;  224.700; -787.000; -601.000
363.769; -125.025;-1067.000;-1080.000
363.901;  -93.475; -596.000; -654.000
364.033; -154.150;-1103.000;-1062.000
364.165;  -24.200; -283.000; -283.000
364.296;   93.375; -316.000; -177.000
364.428;  187.025;-1344.000;-1220.000
364.560;  -61.775; -679.000; -661.000
364.692;  -83.275; -738.000; -835.000
364.824;  -22.225; -588.000; -456.000
364.955;  504.525; -402.000; -564.000
365.087; 1697.175;-1097.000; -852.000
365.219;   95.450; -686.000; -816.000
365.351;  -84.000; -526.000; -572.000
365.482;   19.075;  300.000;  240.000
365.614;  -55.325; -402.000; -314.000
365.746; -121.750; -729.000; -752.000
365.877;  -93.000; -706.000; -672.000
366.009;  405.300;  -35.000;  -62.000
366.141;  -36.950;-1249.000;-1134.000
366.272; -118.250; -803.000; -719.000
366.404; -116.075;-1005.000; -874.000
366.535;  -30.600; -139.000;  -12.000
366.667; -101.300; -644.000; -649.000
366.799;   18.200;  353.000;  203.000
366.930; -132.625; -862.000; -996.000
367.062;  190.275; -639.000; -613.000
367.193;  344.925; -872.000; -842.000
367.325;  -52.425; -580.000; -684.000
367.456;   -7.250; -246.000;   31.000
367.588;  264.700; -371.000; -318.000
367.719;   34.575;  -44.000;  -45.000
367.851;  -50.300; -222.000; -241.000
367.982; -121.425; -875.000; -732.000
368.113;  -20.525; -475.000; -358.000
368.245; -149.600; -960.000; -841.000
368.376;  -61.400; -254.000; -302.000
368.508;  -68.350; -188.000; -263.000
368.639; -158.900;-1166.000;-1034.000
368.770;  -93.600; -670.000; -589.000
368.902; -130.875; -836.000; -926.000
369.033; -119.525; -906.000; -855.000
369.164;  -44.050; -720.000; -653.000
369.296; -106.950; -452.000; -601.000
369.427;  -39.250; -209.000; -144.000
369.558;  -85.625; -593.000; -377.000
369.689;  -85.125; -721.000; -569.000
369.821; -132.550; -951.000; -845.000
369.952;  -30.825;   42.000; -108.000
370.083;  -63.600; -229.000; -108.000
370.214; -107.850; -735.000; -650.000
370.345;  -23.000;   65.000;   81.000
370.477; -132.225; -810.000; -790.000
370.608;   20.625; -328.000; -264.000
370.739; -157.250;-1233.000;-1292.000
370.870; -125.850;-1102.000; -923.000
371.001;  -43.200; -378.000; -467.000
371.132; -101.925; -754.000; -735.000
371.263;  -54.925;  -42.000; -148.000
371.394; -143.100; -841.000; -748.000
371.525;   -3.750;  345.000;  225.000
371.657; -127.825; -808.000; -670.000
371.788;    4.775;  103.000;  199.000
371.919;    3.400; -384.000; -304.000
372.050; 1185.950;  -91.000; -156.000
372.181;  372.200; -188.000; -294.000
372.311;   78.775;   42.000; -127.000
372.442;  -62.200; -457.000; -451.000
372.573;  -55.625; -444.000; -340.000
372.704; -152.525;-1008.000; -980.000
372.835;  -41.600; -228.000; -289.000
372.966;  -88.850; -646.000; -554.000
373.097; -105.100; -575.000; -711.000
373.228; -105.350; -717.000; -542.000
373.359;  -63.675; -824.000; -536.000
373.490;  138.250; -881.000; -727.000
373.620;  227.400;-1001.000; -803.000
373.751;  471.900; -332.000; -396.000
373.882;  177.125; -663.000; -733.000
374.013;  -26.100; -449.000; -262.000
374.143;  -87.875; -581.000; -659.000
374.274; -131.125; -987.000; -908.000
374.405;   50.325; -388.000; -276.000
374.536;   90.075; -526.000; -387.000
374.666;  244.975; -759.000; -807.000
374.797;  -25.775; -817.000; -868.000
374.928;  150.825; -710.000; -560.000
375.058;  172.600; -535.000; -500.000
375.189;  -11.875;  -59.000;  -93.000
375.320; -138.725; -928.000;-1034.000
375.450;  -66.175; -625.000; -616.000
375.581;  -57.675; -526.000; -436.000
375.712;  -60.300; -574.000; -250.000
375.842;   -0.850; -438.000; -415.000
375.973;  -31.025; -554.000; -513.000
376.103;  -97.725; -665.000; -648.000
376.234;  -96.375; -531.000; -552.000
376.364; -128.475; -944.000; -867.000
376.495;  130.250;  925.000;  529.000
376.625;  -67.600; -472.000; -485.000
376.756;  -74.125; -709.000; -678.000
376.886; -137.025;-1178.000;-1026.000
377.017;  137.075;-1048.000;-1061.000
377.147;  641.675; -786.000; -782.000
377.278;   76.675;  174.000;  228.000
377.408; -132.725; -801.000; -815.000
377.538; -105.500; -707.000; -693.000
377.669;  -95.725; -537.000; -613.000
377.799; -110.150; -645.000; -635.000
377.929;  -96.500; -610.000; -428.000
378.060; -139.650; -781.000; -847.000
378.190;  -56.625; -726.000; -531.000
378.320;  -55.125; -401.000; -406.000
378.451;  -21.725; -131.000;  -22.000
378.581;  -34.325;  -67.000; -110.000
378.711;   80.450; 1035.000;  866.000
378.841;  -89.050; -533.000; -675.000
378.972; -116.550; -871.000; -751.000
379.102;  -84.225; -652.000; -579.000
379.232;  -44.175; -126.000;  -73.000
379.362; -134.025;-1001.000; -885.000
379.492;  -64.400; -373.000; -424.000
379.623;   26.200;    0.000;  111.000
379.753; -127.000;-1107.000; -974.000
379.883;   66.725;   59.000;  156.000
380.013;  -91.975;-1081.000;-1017.000
380.143; -132.750;-1097.000;-1056.000
380.273; -115.825; -985.000; -861.000
380.403;   -4.025; -344.000; -257.000
380.533;  -62.125; -651.000; -664.000
380.663;    0.325;  173.000;  128.000
380.793; -161.125;-1027.000;-1074.000
380.923;  -46.475; -103.000;  -34.000
381.053; -108.300; -613.000; -623.000
381.183;  -46.525; -106.000; -248.000
381.313;  -72.650; -656.000; -470.000
381.443;  -73.450; -692.000; -473.000
381.573;  -52.450; -402.000; -409.000
381.703; -107.125;-1249.000;-1095.000
381.833; -192.100;-1454.000;-1336.000
381.963;    6.275; -134.000;  -87.000
382.093;  381.350; -925.000; -909.000
382.223;   74.675; -713.000; -602.000
382.353;  -97.300; -801.000; -608.000
382.482;  -26.375;-1091.000; -964.000
382.612;  163.500; -872.000; -644.000
382.742;   60.475; -695.000; -622.000
382.872;  -29.300; -565.000; -551.000
383.002;    5.400;  347.000; -132.000
383.131;  -19.575; -226.000; -160.000
383.261;  -56.150; -706.000; -768.000
383.391;  342.950; -552.000; -377.000
383.521; 5081.250;  451.000;  263.000
383.650; 1489.525; -947.000; -904.000
383.780;   30.300; -783.000; -656.000
383.910;  101.100;  880.000;  802.000
384.039; -107.250; -794.000; -656.000
384.169; -108.800;-1205.000;-1017.000
384.299; -100.250; -650.000; -662.000
384.428; -124.450; -764.000; -680.000
384.558;  -74.875; -308.000; -275.000
384.687;  -73.475; -414.000; -334.000
384.817;  -31.775;   75.000;   -2.000
384.947;  -39.500; -234.000; -141.000
385.076;  140.475;  982.000;  912.000
385.206;   61.250;  369.000;  480.000
385.335;  -75.175; -549.000; -417.000
385.465; -120.700; -655.000; -663.000
385.594;    0.725;  -53.000;  -44.000
385.724;   11.800; -868.000; -838.000
385.853;  -16.850; -296.000; -270.000
385.982;  322.525; -743.000; -787.000
386.112;  582.650;-1052.000; -871.000
386.241;   -0.525; -307.000; -312.000
386.371;  -38.575; -174.000;  -87.000
386.500;  -63.550; -825.000; -789.000
386.629;  -16.100; -874.000; -817.000
386.759;   57.225;  -43.000;   68.000
386.888;  -49.925; -170.000; -250.000
387.017; -100.975; -648.000; -620.000
387.147; -117.000; -771.000; -798.000
387.276;  -66.225; -410.000; -397.000
387.405;  -55.125; -398.000; -342.000
387.535;  -92.650; -452.000; -361.000
387.664;  -78.175; -692.000; -620.000
387.793;  -30.500; -198.000; -113.000
387.922;  135.550;  255.000;  200.000
388.052;  -67.000; -576.000; -423.000
388.181;  -74.875; -342.000; -472.000
388.310; -111.650; -889.000; -710.000
388.439; -123.025; -749.000; -742.000
388.568;   34.500;  365.000;  244.000
388.697;  202.250; -756.000; -653.000
388.826;  -22.075; -768.000; -666.000
388.956;  -38.800; -285.000; -307.000
389.085;  -50.300; -347.000; -287.000
389.214; -124.300; -842.000; -872.000
389.343;  -74.275; -645.000; -413.000
389.472;  517.675;  126.000;  149.000
389.601;  602.375;   91.000;    0.000
389.730;  -41.825; -568.000; -687.000
389.859;   13.650;  226.000;   46.000
389.988;    3.325; -423.000; -408.000
390.117;   23.275; -168.000; -146.000
390.246;  -62.550; -331.000; -320.000
390.375;  -61.675; -673.000; -626.000
390.504; -112.250; -703.000; -621.000
390.633; -127.300; -672.000; -726.000
390.761; -113.800; -732.000; -645.000
390.890;  -44.250;   -4.000; -130.000
391.019;  -89.725; -421.000; -441.000
391.148; -143.675; -826.000; -855.000
391.277;  -97.475; -576.000; -493.000
391.406; -116.700; -821.000; -805.000
391.534;  -10.700;  574.000; -301.000
391.663;  -90.775; -583.000; -645.000
391.792; -125.800; -673.000; -701.000
391.921;  -10.425;   -3.000;   15.000
392.050;  -13.975; -287.000; -228.000
392.178; -148.000;-1206.000;-1061.000
392.307;  -45.875; -758.000; -712.000
392.436;  -54.700; -427.000; -641.000
392.564;   -2.500;  166.000;   -6.000
392.693; -121.200; -860.000; -682.000
392.822;   -7.700; -529.000; -534.000
392.950;  -73.575; -880.000; -714.000
393.079;   41.500; -188.000; -328.000
393.208;  -55.325; -488.000; -511.000
393.336;  -38.025; -170.000; -145.000
393.465;  -52.475; -317.000; -199.000
393.593;  -13.825;   62.000;   79.000
393.722; -160.875;-1121.000; -916.000
393.850;  -49.975; -188.000;  -61.000
393.979; -154.550; -926.000; -805.000
394.107;  -77.375; -517.000; -537.000
394.236;  -57.950; -570.000; -507.000
394.364;   82.875;  383.000;  206.000
394.493;   31.275; -911.000; -767.000
394.621;  -35.850; -955.000; -916.000
394.750; 1138.000; -873.000; -923.000
394.878; 4369.300; -247.000; -149.000
395.007; 6315.975; -721.000; -807.000
395.135;  546.150; -790.000; -721.000
395.263;  -75.750;-1038.000;-1040.000
395.392;   -4.050;  -25.000; -107.000
395.520; -127.500; -818.000; -679.000
395.648; -135.200; -865.000; -915.000
395.777;  -75.850; -366.000; -405.000
395.905;  -89.150; -449.000; -564.000
396.033;  -20.100;  217.000;  172.000
396.162;   94.800; -399.000; -453.000
396.290;   91.500;  -17.000;   -2.000
396.418;  -66.650; -555.000; -514.000
396.546; -125.125; -571.000; -466.000
396.674; -139.150; -850.000; -878.000
396.803;  -17.000;  -72.000;  -23.000
396.931;  -40.650; -179.000; -199.000
397.059; -139.800;-1026.000; -989.000
397.187; -152.125;-1026.000; -975.000
397.315; -143.525; -884.000; -649.000
397.443; -110.000; -592.000; -443.000
397.572; -107.400; -578.000; -424.000
397.700; -109.875; -607.000; -614.000
397.828;  -48.950;  120.000;  -90.000
397.956;  -40.700; -508.000; -478.000
398.084;  -45.025; -767.000; -626.000
398.212;   -7.325;  137.000;  124.000
398.340;  -14.875;  -56.000;  159.000
398.468;  -58.300; -390.000; -169.000
398.596; -160.625; -993.000; -953.000
398.724; -136.350; -762.000; -767.000
398.852; -176.625;-1024.000; -976.000
398.980;  -83.250; -560.000; -560.000
399.108; -108.425; -982.000; -735.000
399.236;   -8.200;   13.000;    8.000
399.363;  -10.200;  222.000;  196.000
399.491;  -79.850; -404.000; -398.000
399.619; -118.675; -829.000; -800.000
399.747; -121.475; -859.000; -771.000
399.875;   16.875;  220.000;  234.000
400.003;  -53.575; -359.000; -284.000
400.130;  -88.250; -421.000; -341.000
400.258;  -51.300;  -83.000;   38.000
400.386;  -65.500; -352.000; -168.000
400.514;  -99.000; -526.000; -587.000
400.641; -153.925; -928.000; -802.000
400.769; -155.250; -979.000; -888.000
400.897; -142.925; -838.000; -793.000
401.025;  -55.675; -166.000; -152.000
401.152;  -14.650;  220.000;   38.000
401.280; -100.875; -430.000; -429.000
401.408; -126.675; -712.000; -576.000
401.535; -120.075; -735.000; -758.000
401.663; -189.750;-1134.000;-1054.000
401.790; -100.975; -514.000; -525.000
401.918;   22.950;  436.000;  405.000
402.046;  -24.625;  134.000;  122.000
402.173;  -47.975;  -18.000;    7.000
402.301;  -88.125; -519.000; -397.000
402.428;    8.400;  528.000;  383.000
402.556; -166.975;-1188.000; -913.000
402.683;  -48.550;  -20.000;   -1.000
402.811;  -31.300;  -37.000; -206.000
402.938;  -20.550;   20.000;   27.000
403.066;  -21.825; -574.000; -558.000
403.193;   88.800;  299.000;  239.000
403.321;   37.700; -396.000; -574.000
403.448;   94.550;   83.000;   27.000
403.575;   29.350;  -90.000;  -46.000
403.703; -109.450; -732.000; -557.000
403.830;  -67.350; -531.000; -496.000
403.957; -130.575;-1117.000;-1023.000
404.085;    3.950;  -61.000; -172.000
404.212;  104.175;  -50.000;   63.000
404.339;  408.975; -566.000; -306.000
404.467; 8807.800; -612.000; -524.000
404.594; 5277.500; -287.000; -227.000
404.721;  888.850; -869.000; -764.000
404.848;   77.875; -113.000; -202.000
404.976; -107.475; -856.000; -783.000
405.103;  -13.825;  -14.000;  -82.000
405.230;   -5.550;  190.000;  226.000
405.357;   28.550;  117.000;   44.000
405.484;  408.200;  -49.000;    5.000
405.612;   99.700; -548.000; -563.000
405.739;  -72.750; -488.000; -243.000
405.866;   61.175;  669.000;  385.000
405.993;  -65.575; -398.000; -102.000
406.120; -146.300; -801.000; -887.000
406.247;  -87.650; -323.000; -342.000
406.374;   95.450;  540.000;  629.000
406.501;  -86.525; -632.000; -702.000
406.628; -100.850; -621.000; -589.000
406.755; -115.550; -803.000; -620.000
406.882;  -76.900; -228.000; -277.000
407.009; -118.350; -719.000; -628.000
407.136;  -64.100; -480.000; -401.000
407.263;  -77.425; -939.000; -829.000
407.390; -114.175; -692.000; -614.000
407.517; -191.400;-1139.000;-1187.000
407.644;  -87.725; -332.000; -256.000
407.771;  -88.550; -249.000; -287.000
407.898;  -15.775;  168.000;  328.000
408.025;  -82.800; -421.000; -313.000
408.151;  -28.575;   82.000;  153.000
408.278;  -75.450; -267.000; -216.000
408.405; -138.300; -931.000; -899.000
408.532; -100.875; -549.000; -542.000
408.659; -124.275; -677.000; -648.000
408.785; -203.250;-1298.000;-1170.000
408.912;  -81.450; -412.000; -296.000
409.039; -118.600; -610.000; -686.000
409.166; -115.475; -591.000; -555.000
409.292; -117.050; -571.000; -534.000
409.419; -135.500; -665.000; -649.000
409.546;  -87.925; -431.000; -192.000
409.672; -117.325; -713.000; -545.000
409.799;  -49.775;  -36.000;   34.000
409.926;  -72.800; -180.000; -179.000
410.052; -183.300;-1127.000;-1091.000
410.179;  -76.625; -368.000; -392.000
410.305;  -94.775; -375.000; -493.000
410.432;  -48.400; -220.000; -333.000
410.558; -103.600; -305.000; -380.000
410.685; -124.425; -688.000; -431.000
410.812; -105.750; -409.000; -588.000
410.938; -133.725; -964.000; -808.000
411.065; -114.450; -671.000; -645.000
411.191;  -48.100; -189.000; -174.000
411.317; -130.325; -823.000; -742.000
411.444;  -72.475; -317.000; -246.000
411.570;  -78.725; -339.000; -294.000
411.697; -125.025; -758.000; -752.000
411.823; -185.700; -989.000; -999.000
411.949;  -49.375;  -56.000;   17.000
412.076; -129.825; -539.000; -519.000
412.202; -130.200; -758.000; -757.000
412.329; -141.925; -798.000; -752.000
412.455; -129.775; -821.000; -657.000
412.581;  -21.250;  -15.000;  172.000
412.707; -105.275; -540.000; -457.000
412.834;   -0.950;  156.000;  219.000
412.960; -119.500; -785.000; -784.000
413.086; -116.400; -743.000; -701.000
413.212;   99.750;  604.000;  578.000
413.339; -104.500; -685.000; -701.000
413.465;  -65.750; -364.000; -310.000
413.591; -115.425; -757.000; -474.000
413.717;  -67.075; -358.000; -366.000
413.843; -140.550; -839.000; -861.000
413.969;  -61.650;  -47.000; -292.000
414.096;  -90.275; -679.000; -679.000
414.222;  -19.725;  -33.000;   85.000
414.348;  -80.700; -652.000; -385.000
414.474;   -8.950;   38.000;  -52.000
414.600;  -16.200; -126.000; -144.000
414.726;   -8.350;  -96.000;  -55.000
414.852;  -42.175; -365.000; -342.000
414.978;   45.100;  104.000;  -18.000
415.104;   49.325;   38.000;   80.000
415.230;   30.850; -329.000; -330.000
415.356;   45.425; -409.000; -514.000
415.482;  214.150;   13.000;  -35.000
415.608;  382.500; -247.000; -323.000
415.734; 1289.050;   67.000;   38.000
415.860;26902.700; -875.000; -767.000
415.986;21730.750; -685.000; -607.000
416.111; 2017.125; -798.000; -652.000
416.237;  426.800; -424.000; -571.000
416.363; 1649.050; -765.000; -733.000
416.489; 6558.425; -324.000; -251.000
416.615;  881.675; -707.000; -742.000
416.741;   38.625; -677.000; -784.000
416.866;  -70.825; -673.000; -736.000
416.992;  -97.625; -801.000; -818.000
417.118;  -36.225;  -41.000;  -80.000
417.244;  -93.225; -798.000; -531.000
417.369;  -89.850; -801.000; -612.000
417.495;  -37.950; -325.000; -254.000
417.621;  -93.100;-1015.000; -803.000
417.746;  -11.400; -579.000; -572.000
417.872;   62.300; -254.000; -144.000
417.998;  109.475; -515.000; -530.000
418.123; 1512.000;-1073.000; -845.000
418.249; 8350.425; -512.000; -601.000
418.374; 1387.975; -916.000; -824.000
418.500;  203.925; -383.000; -482.000
418.626;  166.325;   70.000;  -59.000
418.751;  149.300; -549.000; -448.000
418.877;  289.900; -637.000; -643.000
419.002; 2536.550; -688.000; -560.000
419.128;19080.325; -930.000; -721.000
419.253; 5266.150; -967.000; -837.000
419.379;  729.700; -391.000; -338.000
419.504;  548.025;  325.000;  415.000
419.629;  810.675; -393.000; -212.000
419.755; 5288.100; -317.000; -254.000
419.880;34353.325;  -98.000;   67.000
420.006;17256.650; -280.000; -221.000
420.131;42468.600; -662.000; -775.000
420.256; 6729.925; -315.000; -316.000
420.382;  928.900; -665.000; -687.000
420.507;  150.250; -649.000; -778.000
420.632;   24.575; -337.000; -339.000
420.758;   15.325; -251.000; -425.000
420.883; -101.725; -876.000; -672.000
421.008; -113.525; -775.000; -619.000
421.133;  -89.775; -509.000; -467.000
421.259;  -65.925; -325.000; -259.000
421.384; -126.225; -834.000; -693.000
421.509; -132.475;-1052.000; -862.000
421.634;  127.100; -936.000; -820.000
421.759;   66.525; -359.000; -327.000
421.885; -109.550; -717.000; -656.000
422.010; -102.750; -673.000; -542.000
422.135; -155.825; -695.000; -727.000
422.260;    6.950;  340.000;  280.000
422.385;  -58.000;   12.000;  -98.000
422.510;  -17.050;  151.000;  -26.000
422.635;  -23.625;  -87.000;  -43.000
422.760;  -27.425; -766.000; -791.000
422.885;   15.125;  -57.000;  -80.000
423.010;  -30.200; -112.000; -169.000
423.135;  -94.875; -481.000; -561.000
423.260;  -49.650; -150.000; -245.000
423.385;   13.275;  476.000;  222.000
423.510;  -11.725;   71.000;  -22.000
423.635;   -6.550;  133.000;   45.000
423.760;   22.900;  383.000;  328.000
423.885;   21.475;  336.000;  391.000
424.010;   -4.150;  -68.000;  -13.000
424.135;  -30.975;    5.000;  -33.000
424.259;  -76.950; -654.000; -457.000
424.384;  -52.500; -279.000; -272.000
424.509;  -25.000; -260.000; -186.000
424.634; -109.450; -761.000; -623.000
424.759;  -35.200; -688.000; -544.000
424.883;  -19.325; -506.000; -527.000
425.008;  202.200; -502.000; -410.000
425.133; 2835.025; -679.000; -653.000
425.258; 1483.425; -517.000; -381.000
425.382;  473.300; -867.000; -774.000
425.507; 1071.375; -487.000; -543.000
425.632;  369.000; -802.000; -663.000
425.756;  675.325; -256.000; -146.000
425.881;10178.075; -831.000; -857.000
426.006;30807.125; -604.000; -355.000
426.130; 4977.650; -696.000; -508.000
426.255;  680.900; -611.000; -491.000
426.379;  272.575; -189.000; -577.000
426.504;  477.575;  660.000;  544.000
426.629; 5476.675; -519.000; -466.000
426.753; 4194.200;   64.000;  -46.000
426.878;  517.300; -252.000; -288.000
427.002;  293.025; -651.000; -668.000
427.127; 2046.025;  -35.000; -158.000
427.251;16965.725;  372.000;  401.000
427.375; 5402.975; -191.000; -173.000
427.500; 1241.500; -616.000; -610.000
427.624;  364.300; -234.000; -400.000
427.749;   65.100; -216.000; -225.000
427.873;  -37.750; -499.000; -412.000
427.997;  -51.350; -222.000; -230.000
428.122;   50.375;  795.000;  703.000
428.246;   31.350;  433.000;  434.000
428.371; -144.450; -869.000; -773.000
428.495; -122.975; -624.000; -646.000
428.619;  -44.425; -186.000; -117.000
428.743;   -4.325;   65.000;  132.000
428.868;  -82.000; -732.000; -643.000
428.992;  443.775; -219.000; -326.000
429.116;  157.975; -329.000; -357.000
429.240;  101.625;  419.000;  426.000
429.365;  -55.700; -454.000; -574.000
429.489;  -59.975; -638.000; -647.000
429.613;   18.150; -236.000; -177.000
429.737;   69.800; -563.000; -432.000
429.861;  343.550; -247.000; -133.000
429.985; 7760.175; -425.000; -305.000
430.109; 9704.375; -770.000; -908.000
430.234; 1179.175;   76.000;  -50.000
430.358;  138.450; -250.000; -160.000
430.482;  -61.475; -672.000; -564.000
430.606;  -74.175; -655.000; -375.000
430.730;  -77.650; -437.000; -388.000
430.854; -102.400; -909.000; -835.000
430.978; -116.050; -795.000; -764.000
431.102;  -90.475; -499.000; -422.000
431.226; -138.300; -874.000; -815.000
431.350;    6.750;  345.000;  422.000
431.474; -110.425; -661.000; -373.000
431.597; -168.100;-1060.000; -848.000
431.721;  -88.150; -276.000; -267.000
431.845; -136.875; -704.000; -472.000
431.969;  -82.425; -304.000; -349.000
432.093;  -95.550; -395.000; -317.000
432.217;  -21.600;   32.000;   82.000
432.341;  -99.250; -523.000; -518.000
432.464;  -17.650;   96.000;   40.000
432.588;  -37.100; -401.000; -329.000
432.712;    6.125;  -52.000;  -52.000
432.836;   51.000;  213.000;  263.000
432.959;   20.475; -372.000; -311.000
433.083;  154.500;   11.000;    2.000
433.207;  519.250;  285.000;  930.000
433.330; 7535.975; -391.000; -200.000
433.454;10341.950; -654.000; -638.000
433.578; 5714.350;  583.000;  278.000
433.701; 1187.725; -623.000; -675.000
433.825;  123.500; -292.000; -299.000
433.949;   38.700;   28.000;  -72.000
434.072;  -27.975; -410.000; -323.000
434.196;  -28.600; -309.000; -117.000
434.319; 3547.025;25482.000;25124.000
434.443;  856.350; -656.000; -603.000
434.566; 4037.275;  281.000;   62.000
434.690;  852.775; -637.000; -383.000
434.813;  137.425; -251.000; -173.000
434.937;  -59.825; -569.000; -696.000
435.060;  -85.300; -423.000; -332.000
435.184;  -34.300; -492.000; -217.000
435.307;    5.225;  159.000;  102.000
435.431;  -39.775;  -40.000;   24.000
435.554;  -84.275; -399.000; -240.000
435.677;  -92.625; -350.000; -258.000
435.801;  -38.400;  -25.000;   49.000
435.924;  -49.900;    1.000;  -67.000
436.048; -152.925;-1019.000; -732.000
436.171;  -73.900; -240.000;  -66.000
436.294;  -33.425; -248.000; -229.000
436.417;  189.450; -963.000; -849.000
436.541;  -37.475; -814.000; -840.000
436.664;  -63.800; -242.000; -316.000
436.787;  -43.625;   13.000;  113.000
436.910; -133.550; -792.000; -422.000
437.034;  -18.500;  142.000;  143.000
437.157;  -24.775;  -11.000;    0.000
437.280;  -80.600; -392.000; -292.000
437.403; -160.300; -982.000; -869.000
437.526;  -24.750; -903.000; -865.000
437.649;  355.000; -505.000; -332.000
437.772;  -35.350; -692.000; -540.000
437.896;   50.925;  700.000;  544.000
438.019; -116.925; -758.000; -503.000
438.142; -108.925; -596.000; -506.000
438.265; -126.500; -639.000; -670.000
438.388;   -2.750; -520.000; -410.000
438.511;  -83.200; -597.000; -394.000
438.634;  -86.575; -247.000; -125.000
438.757; -159.125; -693.000; -619.000
438.880;  -56.700;  -34.000;  -57.000
439.003; -106.200; -417.000; -437.000
439.126;  -82.625; -287.000; -167.000
439.248;  -72.100;  -98.000; -139.000
439.371;  -55.625;    9.000;  -53.000
439.494;   20.350;  510.000;  439.000
439.617;  -62.075;   65.000;  -88.000
439.740; -178.775; -968.000; -816.000
439.863; -144.550; -755.000; -595.000
439.986; -124.925; -476.000; -431.000
440.108;  -55.100; -161.000; -112.000
440.231; -172.800; -950.000; -836.000
440.354;  -69.100;  -64.000; -150.000
440.477; -111.075; -566.000; -542.000
440.599; -102.775; -200.000; -225.000
440.722; -128.250; -709.000; -586.000
440.845;   42.025;  751.000;  928.000
440.968; -122.150; -415.000; -311.000
441.090;  -83.475; -199.000;  -33.000
441.213; -173.800;-1021.000; -825.000
441.336;  -66.725; -159.000;   -5.000
441.458; -106.800; -549.000; -396.000
441.581; -141.250; -628.000; -629.000
441.703;  -92.050; -152.000;   13.000
441.826; -124.050; -557.000; -400.000
441.948;  -51.125;   56.000;   51.000
442.071;    8.875;  555.000;  424.000
442.193; -122.150; -531.000; -485.000
442.316;  -24.025;  152.000;   97.000
442.438;   68.575; -233.000;  -10.000
442.561;   56.750;  272.000;  262.000
442.683;   16.175; -809.000; -522.000
442.806;  200.025;   -8.000;   74.000
442.928; -116.025; -859.000; -604.000
443.051;  -86.575; -577.000; -373.000
443.173; -103.050; -341.000; -339.000
443.295;  -96.225; -263.000; -371.000
443.418;  -88.075; -321.000;  -29.000
443.540;  -48.250; -106.000;   -4.000
443.662; -146.100; -563.000; -465.000
443.785;  -35.875;  335.000;  199.000
443.907; -102.250; -362.000; -208.000
444.029; -133.475; -767.000; -494.000
444.152; -148.450; -644.000; -554.000
444.274;  -52.600;  -18.000;  -24.000
444.396; -122.000; -461.000; -221.000
444.518; -136.150; -691.000; -454.000
444.640; -109.400; -268.000; -111.000
444.763;  -40.275;  388.000;  249.000
444.885; -121.475; -432.000; -392.000
445.007;  -57.800;   35.000;   86.000
445.129; -130.425; -610.000; -515.000
445.251; -110.250; -372.000; -439.000
445.373; -145.275; -537.000; -386.000
445.495;  -17.200;  242.000;  350.000
445.617;   29.650;  853.000;  753.000
445.739;  -87.800; -215.000;  -97.000
445.861;  -72.000; -245.000; -112.000
445.984;  -84.450; -267.000; -101.000
446.105;  -38.025; -418.000; -251.000
446.227;   73.150; -176.000;  -19.000
446.349;  -99.150; -358.000; -249.000
446.471; -128.450; -615.000; -448.000
446.593;  -90.575; -316.000;   19.000
446.715;  -65.325;  -67.000;   41.000
446.837;   51.850;  697.000;  832.000
446.959; -121.900; -457.000; -478.000
447.081; -129.300; -628.000; -518.000
447.203;   50.700;  862.000;  834.000
447.325;  -87.225; -270.000;   42.000
447.446;  -18.825;  286.000;  530.000
447.568; -152.650; -921.000; -803.000
447.690; -104.900; -236.000; -245.000
447.812; -159.475; -798.000; -519.000
447.933;  -41.075;  155.000;  127.000
448.055;  -72.550; -306.000; -261.000
448.177;   12.175;   31.000;   79.000
448.299; -114.875; -935.000; -727.000
448.420;  -23.175;  -25.000;  159.000
448.542;  -53.375;   -3.000;   33.000
448.664;  -27.600;  109.000;  322.000
448.785;  -33.250;  265.000;   83.000
448.907; -130.050; -614.000; -353.000
449.028; -121.925; -771.000; -471.000
449.150;   31.525;  492.000;  589.000
449.272; -174.250;-1044.000; -913.000
449.393;   14.725;  612.000;  694.000
449.515; -151.975; -634.000; -581.000
449.636;  -79.625; -264.000; -155.000
449.758;   41.950;  763.000;  622.000
449.879; -103.900; -498.000; -396.000
450.001;  -69.100; -149.000;  -49.000
450.122;  -51.475;  -95.000;  162.000
450.244;    0.025;   37.000;  364.000
450.365;  -80.525; -495.000; -301.000
450.486;  -12.325;   80.000;  268.000
450.608;   36.925;  393.000;  326.000
450.729;  104.525;  578.000;  645.000
450.850;  100.100; -574.000; -466.000
450.972; 1208.775; -552.000; -389.000
451.093; 7864.525;  190.000;  588.000
451.214; 3997.725; -516.000; -337.000
451.336;  671.825;  773.000;  579.000
451.457;  119.000;  264.000;  393.000
451.578;  -32.025; -118.000;  -74.000
451.699; -115.350; -546.000; -540.000
451.821;  -56.125; -284.000;  -50.000
451.942;    8.675;  278.000;  285.000
452.063;   43.450;  228.000;  419.000
452.184;  802.175;  -54.000;  -49.000
452.305; 1692.075;  103.000;  170.000
452.427;  303.550; -549.000; -301.000
452.548;  -19.975;   23.000;   79.000
452.669;  -73.850; -257.000;  -89.000
452.790;  -60.875;    3.000;  -18.000
452.911;  -26.300;  195.000;  259.000
453.032;  -93.075; -289.000;  -60.000
453.153;  -53.675;  -29.000;   81.000
453.274;   52.450;  737.000;  868.000
453.395;  -56.175;  -51.000;  175.000
453.516;   86.725; 1317.000; 1388.000
453.637; -105.925; -205.000; -150.000
453.758;  -66.300;   15.000;   69.000
453.879; -119.600; -462.000; -250.000
454.000;   69.750; 1086.000;  948.000
454.121; -121.250; -554.000; -326.000
454.242; -106.250; -599.000; -383.000
454.362;  -59.150;  -99.000;  114.000
454.483;  -12.025; -309.000; -229.000
454.604;   48.075;  512.000;  580.000
454.725; -129.100; -627.000; -555.000
454.846; -134.325; -474.000; -406.000
454.967;  -38.700;  230.000;  539.000
455.087;  -47.725;  179.000;  153.000
455.208;    2.500;  554.000;  856.000
455.329;  -69.150;  -22.000;   82.000
455.450;   56.975;  473.000;  633.000
455.570;  -75.450; -234.000; -211.000
455.691;  -45.975;  201.000;  407.000
455.812; -100.125; -270.000;  -92.000
455.932;  -68.350;  107.000;  -97.000
456.053;  -81.975;   36.000;   24.000
456.173; -111.300; -433.000; -355.000
456.294; -125.000; -476.000; -303.000
456.415;  -80.525;  -73.000;   70.000
456.535;  -46.350;  297.000;  273.000
456.656;  -44.275;  132.000;  240.000
456.776;  -55.225;    3.000;  298.000
456.897;   -9.350;  308.000;  513.000
457.017;  -73.125; -153.000;   -3.000
457.138; -129.825; -402.000; -249.000
457.258;  -39.750;  263.000;  224.000
457.379;  -13.050;  509.000;  521.000
457.499;  -24.375;  443.000;  432.000
457.620; -129.675; -407.000; -231.000
457.740;  -97.750; -132.000;  -11.000
457.860;  -67.775;   87.000;   44.000
457.981;  -43.125;  132.000;  124.000
458.101;  -73.050;  -89.000;   40.000
458.221;  -27.125;  336.000;  402.000
458.342;  -64.925;   -4.000;  -37.000
458.462;   53.975;  617.000;  352.000
458.582;   15.400; -302.000; -294.000
458.703;   85.475;  303.000;  154.000
458.823;   14.675;   22.000;  163.000
458.943;   45.675;  341.000;  467.000
459.063;   -6.100; 1124.000;  192.000
459.183;  -34.525;  328.000;  313.000
459.304;   -0.075;  315.000;  517.000
459.424;  -51.025; -246.000;  -89.000
459.544;  466.550;  388.000;  764.000
459.664; 1290.475;  499.000;  506.000
459.784;  486.400; 1004.000; 1175.000
459.904;   95.025;  867.000;  744.000
460.024;   53.575;  867.000;  684.000
460.144;  -13.425;  449.000;  554.000
460.264;   -6.925;  515.000;  327.000
460.385;  -84.975; -145.000; -119.000
460.505;   35.150;  905.000;  858.000
460.625;  -91.025;  -17.000;  -68.000
460.745;  -25.400;  396.000;  541.000
460.864;  -50.025;  153.000;  469.000
460.984;   11.800;  499.000;  573.000
461.104;  136.400; 1656.000; 1775.000
461.224;   11.175;  657.000;  650.000
461.344;  -30.025;  431.000;  360.000
461.464;  -51.600;  258.000;  513.000
461.584;  -34.550;  283.000;  466.000
461.704;  -62.075;   58.000;  108.000
461.824;  -65.475;  238.000;  259.000
461.943;  -51.250;  191.000;  130.000
462.063;  -80.650;    2.000;  324.000
462.183;   17.275;  639.000;  717.000
462.303;   67.875; 1678.000; 1230.000
462.422;   26.675;  781.000;  840.000
462.542;  -41.950;  271.000;  391.000
462.662;   24.050;  353.000;  380.000
462.782;  339.700;  833.000;  572.000
462.901;  709.350;  545.000;  717.000
463.021;  385.525; 1702.000; 1638.000
463.141;   -5.075;  337.000;  770.000
463.260;  -15.225;  614.000;  474.000
463.380;   -8.525;  902.000;  884.000
463.499;  -31.900;  342.000;  332.000
463.619;  -37.025;  581.000;  559.000
463.738;   99.075; 1644.000;  903.000
463.858;    1.850;  657.000;  811.000
463.978;  -38.050;  542.000;  396.000
464.097;   51.550;  921.000; 1114.000
464.217;  144.600; 1196.000; 1143.000
464.336;  161.900; 1068.000; 1130.000
464.455;  -41.250;  328.000;  659.000
464.575;   -6.800;  597.000;  602.000
464.694;  110.850; 1204.000; 1179.000
464.814;  153.750; 1190.000; 1138.000
464.933;   96.800; 1095.000; 1027.000
465.052;   90.175; 1412.000; 1054.000
465.172;   71.600;  922.000;  799.000
465.291;  124.475; 1376.000; 1320.000
465.410;   -1.050;  462.000;  735.000
465.530;   76.050; 1355.000; 1310.000
465.649;   57.850; 1209.000; 1273.000
465.768;  132.175; 1673.000; 1508.000
465.888;   49.700;  941.000; 1174.000
466.007;   89.100; 1335.000; 1440.000
466.126;   -7.550;  721.000;  641.000
466.245;   38.950; 1176.000; 1187.000
466.364;   16.875;  950.000; 1060.000
466.484;   37.750; 1024.000; 1213.000
466.603;   26.600; 1101.000; 1222.000
466.722;   93.275; 1490.000; 1769.000
466.841;   53.575; 1151.000; 1401.000
466.960;   31.600; 1069.000;  972.000
467.079;  134.575; 1971.000; 1786.000
467.198;   47.650; 1238.000; 1181.000
467.317;   78.575; 1768.000; 1162.000
467.436;   73.700; 1709.000; 1261.000
467.555;  110.225; 1796.000; 1746.000
467.674;   58.825; 1227.000; 1329.000
467.793;   39.475; 1376.000; 1374.000
467.912;   70.125; 1658.000; 1539.000
468.031;  135.950; 2038.000; 1930.000
468.150;  125.950; 1842.000; 1837.000
468.269;  172.450; 2313.000; 2090.000
468.388;  178.325; 2168.000; 2339.000
468.507;  243.225; 2884.000; 2903.000
468.626;  267.400; 2555.000; 2541.000
468.744;  140.900; 2018.000; 2174.000
468.863;  186.150; 2312.000; 2523.000
468.982;   85.050; 1503.000; 1555.000
469.101;  220.250; 2788.000; 2692.000
469.220;  147.875; 2333.000; 2176.000
469.338;  252.600; 2935.000; 3051.000
469.457;  191.150; 2719.000; 2545.000
469.576;  334.300; 3953.000; 3784.000
469.695;  229.925; 2877.000; 3066.000
469.813;  405.725; 4148.000; 4192.000
469.932;  399.550; 4255.000; 4485.000
470.051;  435.325; 4075.000; 4161.000
470.169; 1026.950; 4470.000; 4338.000
470.288; 1955.250; 4700.000; 4809.000
470.406; 1142.100; 5059.000; 5194.000
470.525;  665.350; 6101.000; 5787.000
470.644;  652.300; 6847.000; 6794.000
470.762;  763.675; 8397.000; 7873.000
470.881;  925.500; 8651.000; 8464.000
470.999; 1053.975; 9685.000; 9151.000
471.118; 1110.000;11174.000;10711.000

