
Integration time [ms]: 100.000
Averaging Nr. [scans]: 40
Smoothing Nr. [pixels]: 0
Data measured with spectrometer [name]: 2101012U2
Wave   ;Sample   ;Dark     ;Reference
[nm]   ;[counts] ;[counts] ;[counts] 

197.733;   57.400;  516.000;  404.000
197.879;  -78.825; -610.000; -634.000
198.025;  -54.925; -475.000; -420.000
198.171;  -62.750; -602.000; -612.000
198.317;  -38.150; -401.000; -316.000
198.463;  -43.900; -655.000; -404.000
198.609;   22.300;  181.000; -137.000
198.755;  -74.850; -644.000; -410.000
198.901;  -64.175; -505.000; -424.000
199.047;  -63.600; -615.000; -488.000
199.193;  -35.275; -230.000; -468.000
199.339;  -45.300; -222.000; -369.000
199.485;   41.400;  330.000;  271.000
199.631;   25.250;  227.000;  310.000
199.777;  -59.125; -466.000; -398.000
199.923;  -51.125; -610.000; -424.000
200.069;  -15.450; -141.000;  -58.000
200.215;   56.025;  128.000;  453.000
200.361;   41.025;  243.000;  477.000
200.507;  -60.500; -600.000; -373.000
200.653;  -32.200; -371.000; -194.000
200.798;  -41.775; -215.000; -125.000
200.944;   -8.625; -146.000;  -41.000
201.090;   48.325;   61.000;  222.000
201.236;   -4.800; -116.000; -158.000
201.382;  122.975;  874.000;  903.000
201.528;    4.400;  -58.000;  -48.000
201.674;  -61.600; -386.000; -293.000
201.819;  -78.175; -540.000; -439.000
201.965;  -61.825; -699.000; -447.000
202.111;  -23.600; -273.000; -226.000
202.257;  -40.925; -250.000; -238.000
202.402;   17.200;   13.000;  -36.000
202.548;  -10.800; -169.000; -116.000
202.694;   74.025;  410.000; -183.000
202.840;  -72.000; -603.000; -531.000
202.985;  -85.200; -681.000; -639.000
203.131; -116.200; -832.000; -666.000
203.277;  -27.575; -199.000; -262.000
203.423;  -54.375; -434.000; -520.000
203.568;  -59.875; -462.000; -237.000
203.714;  -54.075; -535.000; -542.000
203.860;  -95.550; -682.000; -641.000
204.005;   19.125;  112.000;  167.000
204.151;   71.500;  561.000;  556.000
204.296;  -38.400; -354.000; -221.000
204.442;  -75.550; -600.000; -547.000
204.588;  -81.025; -592.000; -579.000
204.733;   22.100;  178.000;  168.000
204.879; -136.425;-1018.000; -822.000
205.025;   -0.075;  -99.000;  126.000
205.170;    1.300;  -17.000;   94.000
205.316;   85.075;  438.000;  661.000
205.461;  -84.625; -698.000; -554.000
205.607;   94.800;  609.000;  665.000
205.752;  -75.175; -626.000; -551.000
205.898;  -55.925; -501.000; -391.000
206.043;  -51.875; -578.000; -506.000
206.189;  -47.275; -243.000; -285.000
206.334;   85.350;  554.000;  606.000
206.480;   85.800;  409.000;  239.000
206.625;  -73.700; -529.000; -552.000
206.771;  -47.750; -451.000; -373.000
206.916;  -44.025; -210.000; -537.000
207.062;  -88.250; -545.000; -591.000
207.207;  -64.075; -546.000; -443.000
207.353;   53.100;  185.000;  460.000
207.498;   21.475;  196.000;   85.000
207.643;  -61.650; -501.000; -370.000
207.789; -115.800;-1069.000; -910.000
207.934;  -90.725; -665.000; -713.000
208.080;  -23.500; -154.000;   66.000
208.225;  -18.575;  -22.000;  -57.000
208.370;  -93.325; -727.000; -619.000
208.516;  -72.225; -741.000; -487.000
208.661;  -25.875; -127.000;  -69.000
208.806;  -21.725; -165.000; -171.000
208.952; -125.425;-1044.000; -731.000
209.097;   64.475;  378.000;  349.000
209.242;  -39.200; -307.000; -382.000
209.387;   49.275;  392.000;  350.000
209.533;  -60.400; -321.000; -350.000
209.678;   73.150;  472.000;  543.000
209.823;  -55.000; -408.000; -310.000
209.969;  -98.725; -860.000; -757.000
210.114; -114.600; -907.000; -719.000
210.259; -125.625; -939.000; -889.000
210.404;   -5.350; -171.000;  103.000
210.549;   -6.750;  108.000;    3.000
210.695;  -11.850;   -3.000;  -95.000
210.840;   37.450;   94.000;   67.000
210.985;  -57.575; -484.000; -303.000
211.130;   71.875;  268.000;  406.000
211.275;   23.175;  207.000;  199.000
211.420;  -52.550; -300.000; -289.000
211.566;  -75.325; -536.000; -489.000
211.711;   12.000;  218.000;  157.000
211.856;  -56.925; -545.000; -519.000
212.001;    0.925;  151.000;   44.000
212.146;   24.375;  153.000;   49.000
212.291;  -17.575; -210.000; -186.000
212.436;  -24.850; -280.000;   -6.000
212.581;  -80.625; -685.000; -653.000
212.726;  -81.900; -487.000; -538.000
212.871;  -60.275; -552.000; -217.000
213.016; -145.650;-1172.000;-1029.000
213.161;   68.050;  406.000;  291.000
213.306;  -69.575; -435.000; -577.000
213.451;  -97.700; -778.000; -689.000
213.596;  -41.600; -455.000; -347.000
213.741;  -62.175; -448.000; -538.000
213.886;  -70.450; -498.000; -517.000
214.031;  -30.375; -294.000; -124.000
214.176;  -50.500; -408.000; -341.000
214.321;  -26.700; -296.000; -157.000
214.466;  -23.450; -163.000;  -43.000
214.611;  -10.350;  -61.000;  -10.000
214.756; -120.225; -948.000; -858.000
214.901;  -26.950; -388.000; -226.000
215.046; -124.250; -797.000; -825.000
215.191;   11.525;  128.000;   35.000
215.336;  -17.350; -157.000;  -19.000
215.480;  -70.125; -684.000; -505.000
215.625;   -7.050; -175.000;  -19.000
215.770; -100.675; -757.000; -662.000
215.915;  -10.300;   -5.000;  -97.000
216.060;    1.150; -113.000;  -21.000
216.205; -117.550; -731.000; -779.000
216.349;  -60.725; -470.000; -533.000
216.494; -126.625; -939.000; -867.000
216.639; -132.425; -823.000; -888.000
216.784;  -82.975; -577.000; -525.000
216.929;   40.325;  392.000;  281.000
217.073;   -9.575; -244.000;  -31.000
217.218;    8.900;   78.000;  -47.000
217.363;  -88.700; -656.000; -618.000
217.507;  -83.225; -623.000; -588.000
217.652; -124.150; -845.000; -874.000
217.797;  -87.675; -708.000; -659.000
217.942; -112.350; -856.000; -720.000
218.086;   60.925;  608.000;  539.000
218.231;  -24.675; -174.000;  -26.000
218.376;  -41.325; -337.000; -229.000
218.520;   -6.925;  -41.000;   96.000
218.665;  -43.250; -338.000; -204.000
218.810;  -41.650; -275.000; -233.000
218.954;   13.250;  201.000;   35.000
219.099; -120.350; -713.000; -963.000
219.243;  -73.125; -589.000; -554.000
219.388;  -34.900; -264.000; -136.000
219.532;  -13.950; -116.000; -116.000
219.677;  -77.650; -564.000; -521.000
219.822;    7.550;   33.000;   89.000
219.966;   25.825;   17.000;  -99.000
220.111;  -47.025; -328.000;  -40.000
220.255;  -98.025; -797.000; -750.000
220.400;  -23.700; -180.000; -146.000
220.544;  -48.850; -516.000; -450.000
220.689;  -57.225; -422.000; -451.000
220.833;  -17.825; -123.000;  -58.000
220.978;  -54.300; -393.000; -563.000
221.122;   17.350;  319.000;  307.000
221.267; -129.400; -906.000; -837.000
221.411;  -57.575; -478.000; -394.000
221.555;  -22.050; -104.000;  -23.000
221.700;  -41.725; -329.000; -222.000
221.844;   20.100;  255.000;  272.000
221.989;  -46.900; -328.000; -311.000
222.133;  -40.400; -289.000; -307.000
222.277;   -6.925;    5.000;   78.000
222.422;    7.800;  227.000;  113.000
222.566;  -38.375; -381.000; -214.000
222.711;  -53.925; -414.000; -479.000
222.855;  -83.600; -643.000; -586.000
222.999;  -95.925; -642.000; -717.000
223.144;  -29.250; -195.000; -194.000
223.288;   53.650;  423.000;  251.000
223.432;   40.550;  184.000;  230.000
223.576;   11.300;  152.000;  -21.000
223.721;   48.200;  364.000;  273.000
223.865;  -69.075; -472.000; -475.000
224.009;  265.250; 1673.000; 1631.000
224.153;  -86.025; -660.000; -671.000
224.298;  -50.350; -531.000; -489.000
224.442;  -12.950;  -74.000;  -33.000
224.586;    2.500; -169.000; -106.000
224.730;  -87.775; -858.000; -670.000
224.875; -104.500; -739.000; -688.000
225.019;    8.350;  102.000;  188.000
225.163;   49.725;  208.000;  341.000
225.307;   14.100;   97.000;  -91.000
225.451;   46.100;  360.000;  481.000
225.595;   29.325;  264.000;  176.000
225.739;  -20.500; -170.000;  -94.000
225.884;   12.375;   86.000;    5.000
226.028;  -97.375; -760.000; -626.000
226.172;  -43.025; -260.000; -273.000
226.316; -111.350; -941.000; -902.000
226.460;  -77.825; -645.000; -493.000
226.604;  -41.850; -406.000; -400.000
226.748; -101.475; -836.000; -733.000
226.892;  -20.375; -227.000; -181.000
227.036;  -58.450; -537.000; -447.000
227.180;  -69.275; -551.000; -375.000
227.324;  -77.000; -561.000; -580.000
227.468; -117.650; -819.000; -717.000
227.612;    2.375;  242.000;  -28.000
227.756;  -85.600; -845.000; -698.000
227.900;   57.700;  342.000;  441.000
228.044;  -60.075; -509.000; -290.000
228.188;   60.675;  448.000;  568.000
228.332;  -85.925; -546.000; -472.000
228.476;  -35.225; -223.000; -149.000
228.620;  -17.275; -210.000; -150.000
228.764;   69.725;  431.000;  349.000
228.908;  -13.775; -155.000;   30.000
229.052;  -58.900; -615.000; -528.000
229.195;  -19.125; -172.000;   13.000
229.339;  -35.300; -235.000; -305.000
229.483;  -25.750;    5.000; -162.000
229.627;  -11.775; -156.000;  139.000
229.771;  -52.600; -218.000; -294.000
229.915;   -0.350;  230.000;   79.000
230.059;  -99.025; -648.000; -663.000
230.202;  -46.825; -370.000; -317.000
230.346;  -18.675; -107.000;  107.000
230.490;  -70.350; -489.000; -521.000
230.634; -105.275; -736.000; -553.000
230.777;   75.075;  478.000;  509.000
230.921;  -73.725; -450.000; -359.000
231.065;  -43.475; -246.000; -286.000
231.209;   28.575;  261.000;  265.000
231.352;   12.450;   54.000;   40.000
231.496;   22.750;  568.000;  188.000
231.640;  -79.025; -693.000; -621.000
231.783;   62.825;  546.000;  525.000
231.927;  -32.575; -294.000; -365.000
232.071; -128.725; -962.000; -736.000
232.214; -117.300; -980.000; -764.000
232.358; -100.675; -683.000; -599.000
232.502;    4.950;  -19.000;    7.000
232.645; -145.925;-1090.000; -927.000
232.789;  -36.125; -257.000; -218.000
232.933;  -45.025; -407.000; -224.000
233.076; -139.375;-1038.000; -897.000
233.220;  -93.275; -752.000; -777.000
233.363;  -79.150; -669.000; -477.000
233.507;   63.450;  371.000;  129.000
233.650; -115.000; -764.000; -834.000
233.794;   48.175;  438.000;  461.000
233.938;  -64.725; -530.000; -362.000
234.081;  -15.500;  -93.000;   31.000
234.225;  -62.475; -631.000; -539.000
234.368; -120.025; -773.000; -723.000
234.512;  -48.600; -385.000; -299.000
234.655;  -89.350; -582.000; -555.000
234.798;  -69.475; -493.000; -466.000
234.942; -113.950; -884.000;-1002.000
235.085;  -82.700; -651.000; -443.000
235.229;  -71.225; -405.000; -410.000
235.372;  -54.700; -247.000; -191.000
235.516;  -68.725; -397.000; -321.000
235.659;   14.800;   92.000;  121.000
235.802;   -4.000;  -38.000;  -22.000
235.946;   26.625;  335.000;  215.000
236.089;   25.700;  126.000;  250.000
236.233;   40.125;  275.000;  298.000
236.376;  -41.725; -235.000; -378.000
236.519;  -55.100; -297.000; -319.000
236.663;  -20.450; -215.000; -117.000
236.806; -136.850;-1029.000; -999.000
236.949;   58.850;  543.000;  431.000
237.092;   56.600;  412.000;  391.000
237.236;  -77.675; -589.000; -502.000
237.379;   56.475;  352.000;  428.000
237.522; -116.475; -879.000; -768.000
237.666;  -34.625; -271.000;   18.000
237.809; -122.850; -851.000; -823.000
237.952;   28.525;  469.000;  271.000
238.095;  -60.075; -447.000; -442.000
238.238;   80.975;  688.000;  700.000
238.382;   -6.375;  166.000;  103.000
238.525;  -74.575; -598.000; -511.000
238.668; -145.800;-1060.000; -985.000
238.811;  -93.850; -638.000; -643.000
238.954;  -81.275; -483.000; -334.000
239.097;   88.925;  617.000;  664.000
239.241;   19.025;  394.000;  326.000
239.384;  -48.200; -254.000; -214.000
239.527;  -58.925; -424.000; -224.000
239.670; -155.425; -994.000;-1091.000
239.813; -116.400; -696.000; -658.000
239.956;   68.000;  579.000;  473.000
240.099; -111.275; -778.000; -725.000
240.242;   65.325;  428.000;  432.000
240.385;   36.750;  466.000;  450.000
240.528;  -77.900; -706.000; -473.000
240.671;   12.500;  189.000;  134.000
240.814;  -65.125; -441.000; -158.000
240.957;  -98.800; -767.000; -578.000
241.100; -104.275; -779.000; -755.000
241.243; -140.675;-1234.000; -893.000
241.386;  -63.750; -508.000; -379.000
241.529;  -72.375; -735.000; -547.000
241.672;  -70.175; -566.000; -495.000
241.815; -112.550; -832.000; -808.000
241.958;  -33.650; -125.000; -182.000
242.101;  -78.925; -545.000; -390.000
242.244;  -61.650; -270.000; -325.000
242.387;  -51.600; -304.000; -246.000
242.530;   60.500;  470.000;  134.000
242.673;  -49.825; -381.000; -309.000
242.815; -124.125; -925.000; -899.000
242.958;  -77.325; -482.000; -381.000
243.101;   11.400;  132.000;  187.000
243.244;  -76.575; -564.000; -521.000
243.387;  -55.550; -313.000; -316.000
243.530;  -87.275; -657.000; -674.000
243.672;    1.100;   43.000;  -92.000
243.815;  -50.350; -355.000; -283.000
243.958;   -3.650;   98.000;  -26.000
244.101;   -3.325;   59.000;  -16.000
244.243;  -11.150;  -47.000;  101.000
244.386; -122.575; -761.000; -630.000
244.529;  -28.775; -132.000; -139.000
244.672; -157.975;-1154.000; -951.000
244.814; -100.875; -621.000; -794.000
244.957;  -52.575; -380.000; -304.000
245.100;  -69.050; -489.000; -489.000
245.242;  -61.725; -387.000; -374.000
245.385;   -6.325;  -59.000;  -39.000
245.528; -125.675; -871.000; -705.000
245.670;   65.850;  612.000;  634.000
245.813;  -94.650; -599.000; -547.000
245.956;  -41.550; -324.000; -275.000
246.098;  -61.800; -508.000; -650.000
246.241;    6.200;  194.000;   48.000
246.383;  -19.925; -119.000;  -73.000
246.526;  -79.200; -454.000; -525.000
246.669; -114.500; -889.000; -780.000
246.811;   16.450;  172.000;   -1.000
246.954;  -51.175; -512.000; -426.000
247.096;  -25.300;  -84.000;   -6.000
247.239;  -64.200; -482.000; -445.000
247.381;  -64.975; -647.000; -488.000
247.524;   87.850;  645.000;  679.000
247.666;  -11.725;   58.000;   11.000
247.809; -113.600; -887.000; -691.000
247.951;   -3.075;  -75.000;  138.000
248.094;   16.325;  432.000;  308.000
248.236; -164.850;-1262.000;-1238.000
248.378;   14.275; -356.000;  -81.000
248.521;  -22.725; -334.000; -337.000
248.663;  -33.650; -236.000; -267.000
248.806;  -44.900; -300.000; -266.000
248.948; -105.150; -886.000; -763.000
249.090;  -43.750; -428.000; -398.000
249.233;  -49.675; -344.000; -381.000
249.375;  -72.425; -474.000; -451.000
249.518;  -19.700;  -83.000; -133.000
249.660;  -20.125; -103.000;    3.000
249.802; -160.925;-1303.000;-1189.000
249.945;  -79.600; -612.000; -540.000
250.087; -121.350; -834.000; -768.000
250.229;  -55.225; -362.000; -480.000
250.371;  -85.075; -494.000; -439.000
250.514;  -58.275; -310.000; -244.000
250.656;  -16.825;   69.000;  102.000
250.798; -124.550; -849.000; -800.000
250.940;  -59.250; -322.000; -322.000
251.083;  -46.800; -335.000; -111.000
251.225;   56.625;  338.000;  310.000
251.367;  -52.225; -274.000; -373.000
251.509;  -30.175; -265.000; -210.000
251.651; -100.175; -731.000; -671.000
251.794;   71.625;  538.000;  632.000
251.936; -112.050; -821.000; -747.000
252.078;  -72.150; -540.000; -461.000
252.220;  -87.975; -645.000; -477.000
252.362;   74.350;  344.000;  462.000
252.504;  -71.100; -677.000; -584.000
252.646; -108.175; -875.000; -722.000
252.788;  -18.125;   14.000; -128.000
252.931;  -28.725; -257.000; -253.000
253.073;  -46.075; -376.000; -317.000
253.215;   12.350;  141.000;  122.000
253.357;  -10.575;   82.000; -153.000
253.499;  -54.650; -374.000; -234.000
253.641;  -79.000; -749.000; -594.000
253.783;  -95.325; -609.000; -527.000
253.925; -100.100; -586.000; -591.000
254.067; -109.500; -744.000; -667.000
254.209;  -37.850; -391.000; -259.000
254.351; -129.850; -865.000; -883.000
254.493;  -66.900; -441.000; -417.000
254.635; -133.450; -936.000; -818.000
254.777;  -96.375; -752.000; -687.000
254.918;  -71.575; -512.000; -430.000
255.060;  -55.800; -551.000; -395.000
255.202;  -62.950; -473.000; -261.000
255.344;  -87.175; -658.000; -455.000
255.486;  -69.625; -471.000; -406.000
255.628; -116.975; -780.000; -781.000
255.770;  -80.475; -676.000; -536.000
255.912;  -69.550; -559.000; -468.000
256.053;  -97.550; -730.000; -508.000
256.195;  153.375; 1008.000;  903.000
256.337;  -93.900; -861.000; -595.000
256.479;   47.575;  532.000;  416.000
256.621;  -46.150; -394.000; -212.000
256.762; -109.325; -789.000; -742.000
256.904;   44.725;  485.000;  487.000
257.046;  -49.625; -381.000; -271.000
257.188;  -50.075; -351.000; -264.000
257.329;  -80.250; -525.000; -464.000
257.471; -122.825; -939.000; -807.000
257.613;  -72.375; -584.000; -498.000
257.755; -156.025;-1073.000; -982.000
257.896;   32.150;  286.000;  392.000
258.038;  -72.950; -403.000; -352.000
258.180;  -49.625; -354.000; -279.000
258.321;  -74.250; -581.000; -457.000
258.463;   -6.375;  -71.000;  133.000
258.605;  -97.450; -562.000; -570.000
258.746; -106.150; -886.000; -772.000
258.888; -153.275;-1026.000;-1020.000
259.029;   12.300;  121.000;   -8.000
259.171;  -78.150; -614.000; -550.000
259.313;  -11.075;  -49.000;  -47.000
259.454;  -68.775; -536.000; -414.000
259.596;  -85.300; -483.000; -390.000
259.737;  -78.650; -590.000; -474.000
259.879;   35.150;  217.000;  311.000
260.020;   88.125;  901.000;  636.000
260.162;  -29.000; -146.000; -253.000
260.303; -113.925; -768.000; -687.000
260.445;  -90.900; -609.000; -613.000
260.586;   44.675;  392.000;  157.000
260.728;  -47.825; -360.000; -248.000
260.869;  -58.550; -350.000; -343.000
261.011;   82.300;  706.000;  537.000
261.152;  -62.400; -479.000; -319.000
261.293;  -92.675; -576.000; -595.000
261.435;  -31.925; -219.000; -184.000
261.576;  -70.450; -455.000; -325.000
261.718;   62.950;  420.000;  470.000
261.859; -141.625; -940.000; -949.000
262.000; -131.175; -951.000;-1016.000
262.142;  -30.075;  -52.000;  -60.000
262.283; -119.375; -808.000; -691.000
262.424;  -99.575; -666.000; -625.000
262.566; -151.200;-1161.000; -983.000
262.707; -121.525; -840.000; -830.000
262.848; -121.550; -769.000; -726.000
262.990;  -64.400; -362.000; -345.000
263.131;   91.450;  650.000;  681.000
263.272;   -9.875;  -61.000;  -41.000
263.413; -101.650; -589.000; -561.000
263.555;  -70.150; -669.000; -143.000
263.696;  -81.700; -550.000; -641.000
263.837;  -70.325; -449.000; -551.000
263.978;   -1.375;   -5.000;  -77.000
264.119;  -46.500; -283.000; -264.000
264.261; -130.000; -847.000; -630.000
264.402;   -6.000;   33.000;   40.000
264.543;  -89.150; -509.000; -524.000
264.684;  -13.925;   61.000;  -50.000
264.825;  -72.050; -816.000; -538.000
264.966;  -21.325;  -84.000;  -67.000
265.107; -112.600; -646.000; -670.000
265.248; -121.850; -825.000; -812.000
265.390;   -8.675;  152.000;   -9.000
265.531;  -33.275; -238.000; -107.000
265.672;  -94.400; -557.000; -630.000
265.813;   48.725;  563.000;  439.000
265.954; -147.650; -959.000; -940.000
266.095;  -28.025; -372.000; -322.000
266.236;  -98.800; -686.000; -548.000
266.377;  -37.600; -243.000; -297.000
266.518;  -66.875; -619.000; -547.000
266.659;   12.025;  170.000;  268.000
266.800;    0.950;   83.000;   85.000
266.941;  -79.450; -487.000; -478.000
267.082;   44.000;  354.000;   99.000
267.223;  -58.075; -344.000; -273.000
267.364; -110.500; -892.000; -686.000
267.504;  -19.900;    3.000;  135.000
267.645;   -3.575;  160.000;   67.000
267.786;  -38.800; -147.000;  -86.000
267.927;  -72.375; -473.000; -379.000
268.068;  -25.300; -186.000;  -61.000
268.209;  -47.250; -175.000; -413.000
268.350;  -59.125; -388.000; -532.000
268.490;  -91.525; -648.000; -521.000
268.631;   27.500;  127.000;  225.000
268.772; -101.925; -874.000; -647.000
268.913;  -53.575; -328.000; -476.000
269.054;  -16.900; -117.000;   12.000
269.194;  -53.600; -418.000; -402.000
269.335; -157.300;-1137.000;-1074.000
269.476;  -26.575;   33.000;  -35.000
269.617;  -44.425; -347.000; -392.000
269.757;  -95.600; -713.000; -646.000
269.898; -101.075; -856.000; -613.000
270.039;  -79.750; -415.000; -405.000
270.180; -135.100; -952.000; -816.000
270.320;  -39.200; -190.000; -250.000
270.461;  -41.575; -277.000; -249.000
270.602;  -18.325; -186.000; -156.000
270.742; -120.825; -868.000; -943.000
270.883;  -58.325; -442.000; -390.000
271.023;  -57.550; -358.000; -357.000
271.164;  -82.100; -607.000; -528.000
271.305;  -97.275; -666.000; -654.000
271.445;  -97.675; -722.000; -683.000
271.586;  -55.950; -462.000; -283.000
271.726;  -55.175; -397.000; -322.000
271.867;  -51.775; -594.000; -534.000
272.008;  176.675; -473.000; -285.000
272.148;  133.575;  462.000;  468.000
272.289;   -0.300; -113.000; -181.000
272.429;   16.850;   19.000;  185.000
272.570;  -91.500; -633.000; -737.000
272.710; -106.350; -825.000; -775.000
272.851;  -20.025;  113.000; -130.000
272.991; -166.925;-1173.000;-1077.000
273.131;  -75.400; -419.000; -459.000
273.272;  -87.025; -683.000; -723.000
273.412;   -7.150; -143.000;  -31.000
273.553;  -53.450; -488.000; -507.000
273.693;  132.650;  913.000;  858.000
273.834;  -82.450; -894.000; -692.000
273.974;  -84.625; -664.000; -615.000
274.114;  -95.100; -772.000; -560.000
274.255;   75.550;  414.000;  373.000
274.395;    3.675; -180.000; -125.000
274.535;   38.450;  199.000;  350.000
274.676;   33.225;  225.000;   94.000
274.816;    1.925;  110.000;   34.000
274.956;  -81.425; -624.000; -690.000
275.097;  -71.800;-1014.000; -922.000
275.237; -117.725; -913.000; -803.000
275.377;  -97.250; -778.000; -689.000
275.517; -150.500; -878.000; -937.000
275.658;  -55.250; -590.000; -555.000
275.798;  -73.375; -606.000; -413.000
275.938;   28.400;  215.000;  323.000
276.078; -101.850; -626.000; -395.000
276.218;  -10.075;   99.000;  104.000
276.359; -128.575;-1026.000;-1024.000
276.499;  -88.150; -605.000; -446.000
276.639;  -39.225; -305.000; -151.000
276.779;  -60.200; -475.000; -357.000
276.919; -113.275; -783.000; -624.000
277.059;  -31.400; -261.000; -212.000
277.199;  -53.825; -357.000; -259.000
277.340;   37.075;  287.000;  175.000
277.480; -109.975; -840.000; -693.000
277.620;   18.725;  192.000;   16.000
277.760; -201.250;-1533.000;-1294.000
277.900;    9.575;  113.000;   33.000
278.040;    8.900;  137.000;  159.000
278.180;   26.900;  270.000;  170.000
278.320;  -13.075;   21.000;   56.000
278.460;  -70.200; -443.000; -469.000
278.600;  -97.225; -708.000; -598.000
278.740;   50.100;  448.000;  224.000
278.880;  -58.150; -768.000; -791.000
279.020;  -11.375; -194.000; -144.000
279.160;  -80.025; -672.000; -595.000
279.300; -131.375; -926.000; -873.000
279.440;  -93.900; -709.000; -622.000
279.579;  -10.075;-1014.000; -929.000
279.719;  -43.625; -410.000; -394.000
279.859;   62.600;   -4.000;   41.000
279.999;   23.100; -208.000;  101.000
280.139;  -37.750; -435.000; -387.000
280.279;  -83.350; -708.000; -745.000
280.419;  -33.675; -229.000; -147.000
280.559;  -27.800; -259.000; -180.000
280.698;  -89.975; -790.000; -639.000
280.838;  -91.500; -778.000; -800.000
280.978; -101.125; -846.000; -790.000
281.118; -113.600; -811.000; -704.000
281.257;   -0.375;   24.000;    6.000
281.397; -104.775;-1094.000; -960.000
281.537; -102.525; -599.000; -712.000
281.677;  -11.800; -150.000; -101.000
281.816;  -89.500; -700.000; -630.000
281.956;  -26.425; -193.000; -257.000
282.096;  -74.125; -539.000; -396.000
282.235; -116.950; -672.000; -638.000
282.375;  -15.900; -243.000;  -98.000
282.515; -102.850; -715.000; -707.000
282.654;   17.325;   29.000;  106.000
282.794;   30.975;  388.000;  244.000
282.934;  -59.725; -530.000; -491.000
283.073; -132.100;-1030.000; -857.000
283.213;  -58.950; -460.000; -467.000
283.353;  -24.325; -408.000; -349.000
283.492;  -34.750; -264.000; -296.000
283.632;  -43.875; -254.000; -168.000
283.771; -109.850; -859.000; -730.000
283.911;  -39.900; -369.000; -260.000
284.050; -110.450; -794.000; -748.000
284.190; -152.750;-1229.000;-1096.000
284.329; -158.850;-1055.000; -964.000
284.469;  -60.825; -516.000; -591.000
284.608;  -53.400; -559.000; -598.000
284.748;  -87.850; -614.000; -570.000
284.887;   -9.900;  -87.000;  -20.000
285.027; -122.325; -844.000; -892.000
285.166;  -43.500; -192.000; -249.000
285.306;    4.325; -116.000;  -33.000
285.445;  -36.650; -229.000; -343.000
285.584;  -94.400; -630.000; -494.000
285.724;  -52.550; -282.000; -322.000
285.863; -110.900; -857.000; -507.000
286.002;  -55.100; -366.000; -276.000
286.142; -109.850; -715.000; -622.000
286.281;  -82.500; -525.000; -493.000
286.420;  -69.275; -554.000; -417.000
286.560;   92.725;  653.000;  623.000
286.699; -130.700; -958.000; -912.000
286.838;  -98.500; -590.000; -591.000
286.978;  -85.275; -533.000; -537.000
287.117; -144.900;-1085.000; -950.000
287.256;  -39.875; -228.000; -211.000
287.395;  -61.575; -197.000; -378.000
287.535;  -49.800; -370.000; -298.000
287.674;  -80.075; -509.000; -484.000
287.813;   43.775;  661.000;  533.000
287.952; -131.300;-1010.000; -871.000
288.091; -151.650;-1049.000; -915.000
288.231;   11.125;   13.000;   15.000
288.370; -164.950;-1217.000;-1200.000
288.509;  -94.950; -728.000; -645.000
288.648;  -85.925; -770.000; -548.000
288.787;  -30.000; -243.000;  -87.000
288.926;  -69.375; -454.000; -475.000
289.065;   99.975;  859.000;  672.000
289.204;  -41.875; -377.000; -217.000
289.344; -109.025; -791.000; -690.000
289.483;   31.000;  416.000;  304.000
289.622;  -30.100; -291.000; -149.000
289.761;  -18.175; -309.000; -166.000
289.900; -109.250; -785.000; -626.000
290.039;  -12.825;  -12.000;  -95.000
290.178;  -42.025; -274.000; -180.000
290.317;  -74.950; -618.000; -479.000
290.456;  -73.575; -463.000; -451.000
290.595; -140.975; -961.000; -833.000
290.734; -144.275; -904.000; -891.000
290.873;  -61.825; -456.000; -420.000
291.011; -111.775; -833.000; -843.000
291.150;  -94.000; -770.000; -682.000
291.289;  -35.375; -343.000; -110.000
291.428; -101.275; -599.000; -480.000
291.567;  -52.925; -370.000; -442.000
291.706;   -0.875;  109.000;  154.000
291.845; -107.075; -597.000; -505.000
291.984; -166.700;-1234.000;-1061.000
292.122;   70.275;  602.000;  582.000
292.261;   52.750;  620.000;  463.000
292.400;    1.075; -144.000;  211.000
292.539; -127.500; -959.000; -813.000
292.678;  -37.600; -325.000; -300.000
292.816; -155.225;-1136.000; -965.000
292.955;  -84.075; -844.000; -684.000
293.094;  -31.250; -173.000; -337.000
293.233;  -61.225; -556.000; -400.000
293.371;  -41.225; -225.000;  -84.000
293.510; -115.525; -866.000; -780.000
293.649; -120.825; -959.000; -924.000
293.787;  -67.800;-1083.000;-1012.000
293.926;    8.075; -113.000;  -32.000
294.065;  -45.975; -379.000; -290.000
294.203;   54.500;  298.000;  406.000
294.342;   24.075;   74.000;  156.000
294.481; 5667.125;51180.000; -836.000
294.619;  -42.600; -425.000; -582.000
294.758; -152.975;-1230.000;-1137.000
294.896;   69.025; -125.000;    5.000
295.035; -109.950;-1040.000;-1006.000
295.174; -132.375;-1082.000; -954.000
295.312;  -44.600; -323.000; -203.000
295.451;   -4.600; -307.000; -428.000
295.589;  -67.500; -389.000; -518.000
295.728;   11.275; -292.000; -165.000
295.866;    6.825;  -36.000;  -51.000
296.005;  -68.550; -584.000; -341.000
296.143;  -66.525; -558.000; -596.000
296.282; -107.225; -957.000; -881.000
296.420;  -87.875; -657.000; -557.000
296.559;  -87.700; -892.000; -633.000
296.697;   13.275; -847.000; -665.000
296.835;   62.300;-1141.000;-1002.000
296.974;   35.775;  -23.000;   39.000
297.112;   -0.375; -443.000; -504.000
297.251;  -77.925; -815.000; -755.000
297.389;   92.175; -576.000; -438.000
297.527;   34.925; -145.000;  -83.000
297.666;  -62.475; -486.000; -438.000
297.804;  -50.875; -404.000; -264.000
297.942;  -13.375; -136.000; -161.000
298.081;    1.875; -183.000;   63.000
298.219;   74.375;  -17.000;  -19.000
298.357;   52.600; -144.000;  -71.000
298.495;   30.525; -810.000; -812.000
298.634;   92.650;  245.000;  219.000
298.772;   55.250; -220.000; -338.000
298.910;  -27.100; -309.000; -182.000
299.048;   -8.675; -130.000; -153.000
299.187;  -30.775; -350.000; -250.000
299.325;    0.125;   52.000;  122.000
299.463;   62.100; -389.000; -299.000
299.601;  114.450; -327.000; -271.000
299.739; -108.925; -908.000; -883.000
299.877;  -79.900; -791.000; -703.000
300.016;  -46.700;-1095.000; -935.000
300.154;  164.275;  -19.000; -161.000
300.292;   62.050; -428.000; -348.000
300.430;   17.475; -408.000; -291.000
300.568; -112.325; -940.000; -874.000
300.706;  -43.325; -366.000; -469.000
300.844;  -75.675;-1108.000; -979.000
300.982;  118.875;  246.000;  282.000
301.120; -102.275; -965.000; -866.000
301.258;  -74.975; -812.000; -705.000
301.396;   34.800;  104.000;  -41.000
301.534;   71.225; -218.000; -293.000
301.672;   11.400; -664.000; -521.000
301.810;   25.175; -613.000; -545.000
301.948;  129.650;   53.000;  149.000
302.086;  622.450; -250.000;  -32.000
302.224; 1000.450; -610.000; -585.000
302.362;   33.200; -558.000; -622.000
302.500;  -28.800; -923.000; -893.000
302.638;  106.300;  128.000;  245.000
302.776;    8.925; -352.000; -408.000
302.913;   46.425;  447.000;  236.000
303.051;   -0.575;  -86.000;  -23.000
303.189;   46.425;   90.000;  118.000
303.327;  -43.525; -341.000; -256.000
303.465;  -89.300; -832.000; -588.000
303.603;  -90.225; -805.000; -604.000
303.740;   97.250;  417.000;  241.000
303.878;   21.875; -800.000; -759.000
304.016;  -92.575; -915.000; -790.000
304.154; -113.125;-1123.000;-1152.000
304.291;  -44.125; -505.000; -554.000
304.429;   13.550;  102.000;   74.000
304.567; -134.275; -908.000; -893.000
304.705;  -51.600; -408.000; -515.000
304.842;   91.550; -616.000; -540.000
304.980;   62.550;  215.000;   35.000
305.118;   32.025; -367.000; -365.000
305.255;  -63.450; -945.000; -927.000
305.393;   49.975;  178.000;  239.000
305.531;  -99.725;-1173.000; -956.000
305.668;  -72.875; -663.000; -582.000
305.806;   97.250; -358.000; -439.000
305.943;  109.900; -629.000; -637.000
306.081;   59.350; -378.000; -267.000
306.219; -107.175; -863.000; -748.000
306.356;    8.675;  158.000;   27.000
306.494;  119.200;  981.000;  761.000
306.631;   -2.725;  -11.000;  -55.000
306.769;    6.200; -613.000; -485.000
306.906;  -16.450; -284.000; -258.000
307.044;  -68.675; -473.000; -488.000
307.181;  -68.200; -410.000; -332.000
307.319;    4.575;  112.000;   87.000
307.456; -171.600;-1191.000;-1153.000
307.594; -111.825; -980.000; -727.000
307.731;  -12.600; -371.000; -164.000
307.868;  -10.075;  -15.000;   20.000
308.006; -134.550; -961.000; -847.000
308.143;  -74.950; -618.000; -330.000
308.281;  142.025;  -37.000; -254.000
308.418;  -20.450; -748.000; -640.000
308.555;  -76.825; -400.000; -250.000
308.693;  -71.950; -577.000; -573.000
308.830; -102.450; -712.000; -657.000
308.967;  -26.300; -215.000;  -95.000
309.105;  -44.600; -507.000; -396.000
309.242;   16.450; -468.000; -367.000
309.379;  267.000; -577.000; -655.000
309.517;  -59.275; -936.000; -948.000
309.654; -113.175; -910.000; -734.000
309.791;  -75.000; -662.000; -580.000
309.928; -118.775; -977.000; -914.000
310.065;  176.525;  819.000;  697.000
310.203;  -22.125; -825.000; -850.000
310.340;   -4.100; -465.000; -321.000
310.477;  -80.650; -412.000; -516.000
310.614;  -69.450; -383.000; -473.000
310.751;  -72.700; -427.000; -518.000
310.889;  -28.050;    1.000;   11.000
311.026; -167.800;-1161.000; -939.000
311.163;  -52.125; -386.000; -380.000
311.300;  -77.125; -512.000; -479.000
311.437;  -76.375; -658.000; -619.000
311.574; -172.650;-1226.000; -985.000
311.711;  -67.800; -595.000; -433.000
311.848;  -44.875; -380.000; -388.000
311.985;    4.000;  270.000;   93.000
312.122; -124.925; -932.000; -762.000
312.259; -135.125; -941.000; -994.000
312.396;  -81.875; -508.000; -551.000
312.533;  -89.800; -812.000; -790.000
312.670; -128.950;-1070.000; -898.000
312.807;  -49.325; -352.000; -367.000
312.944;  -70.125; -513.000; -611.000
313.081;  -49.675; -150.000; -415.000
313.218;  -91.700;-1111.000; -867.000
313.355;   14.100; -531.000; -449.000
313.492;   -0.650; -455.000; -292.000
313.629;  136.200;  815.000;  735.000
313.766; -157.175;-1176.000;-1008.000
313.902;  -16.925; -186.000;   21.000
314.039;  -29.025; -372.000; -289.000
314.176;   19.850;  286.000;  192.000
314.313;  -59.400; -569.000; -473.000
314.450;  -80.600; -788.000; -684.000
314.587;  -53.550; -468.000; -480.000
314.723;   -0.700;  -78.000;  130.000
314.860;   41.175;  318.000;  332.000
314.997;    6.275;  223.000;  142.000
315.134;  -34.450; -385.000; -368.000
315.270;  -43.825; -480.000; -496.000
315.407; -119.000;-1094.000; -967.000
315.544;  -64.100; -657.000; -538.000
315.681;  -74.200; -681.000; -565.000
315.817;   26.625; -133.000; -176.000
315.954;   27.250; -613.000; -392.000
316.091; -128.550;-1045.000;-1023.000
316.227;  -27.950;  -71.000; -179.000
316.364;   -5.100;   23.000;    6.000
316.500;  -43.650; -113.000; -300.000
316.637;  -55.475; -181.000; -302.000
316.774;  -87.100; -625.000; -358.000
316.910; -101.400; -598.000; -629.000
317.047;  -57.000; -487.000; -351.000
317.183;  -63.850; -435.000; -566.000
317.320;   -8.200; -367.000; -321.000
317.456;  -70.200; -733.000; -805.000
317.593;  -99.075; -598.000; -641.000
317.729;    4.325;  168.000;  -67.000
317.866; -203.900;-1434.000;-1285.000
318.002; -107.100; -708.000; -948.000
318.139;  -89.525; -883.000; -867.000
318.275; -113.975;-1003.000; -738.000
318.412;  -66.400; -517.000; -336.000
318.548;  -33.575; -751.000; -720.000
318.685; -101.000; -985.000; -888.000
318.821; -104.600; -762.000; -735.000
318.957;  -12.125;   34.000;  -23.000
319.094;   35.675;  297.000;  154.000
319.230;  -44.250; -756.000; -742.000
319.367;  139.175; -471.000; -520.000
319.503;   50.475; -538.000; -436.000
319.639; -108.250; -877.000; -793.000
319.775;  -63.425; -750.000; -685.000
319.912;  -57.725; -424.000; -519.000
320.048;  -72.750;-1184.000;-1184.000
320.184;   69.275;   59.000;   70.000
320.321;  -56.675; -497.000; -467.000
320.457;   62.625;  475.000;  662.000
320.593;  -55.500; -375.000; -382.000
320.729; -106.000; -732.000; -734.000
320.866;  -77.775; -577.000; -635.000
321.002;  -84.300; -759.000; -809.000
321.138;   -6.925; -135.000; -211.000
321.274;   83.650; -148.000; -115.000
321.410;  -18.425; -585.000; -353.000
321.546;  -29.525;-1011.000; -911.000
321.683;   63.700;  400.000;  185.000
321.819;   -0.025;  -48.000; -117.000
321.955; -101.225; -743.000; -722.000
322.091;  -47.400; -585.000; -540.000
322.227;   -2.725; -382.000; -202.000
322.363;  -10.775; -320.000; -215.000
322.499;  -46.925; -343.000; -331.000
322.635;  153.675;  636.000;  443.000
322.771;   34.525; -139.000;   12.000
322.907;   70.425;  129.000;  327.000
323.043;  -15.925; -115.000; -206.000
323.179;  -35.925; -394.000; -363.000
323.315;   27.225; -401.000; -371.000
323.451;   96.500; -328.000; -236.000
323.587;   56.800;  -60.000;  -77.000
323.723;   16.700; -682.000; -601.000
323.859;  -22.125; -258.000;  -76.000
323.995;  -48.525; -467.000; -409.000
324.131; -120.700; -967.000; -892.000
324.267;  -48.550; -254.000; -276.000
324.402; -126.850; -960.000; -983.000
324.538;  -21.275; -279.000; -104.000
324.674;   19.925;  164.000;   77.000
324.810;  127.025;  226.000;  308.000
324.946;   -3.075; -810.000; -658.000
325.082;  -77.275; -568.000; -475.000
325.217;    0.325;  -62.000;   16.000
325.353; -111.975; -764.000; -659.000
325.489;  -98.950; -540.000; -506.000
325.625;  -83.675; -579.000; -525.000
325.760;   65.275;  517.000;  376.000
325.896;  -28.475; -515.000; -702.000
326.032;  -56.825; -403.000; -352.000
326.168;  -73.725; -462.000; -369.000
326.303;  -46.225; -352.000; -461.000
326.439;  -26.850; -336.000; -276.000
326.575;    2.250; -190.000;  -29.000
326.710;  -11.800; -156.000;  -30.000
326.846;   -2.400;  146.000;  103.000
326.982; -103.650; -530.000; -548.000
327.117;  -81.225; -481.000; -442.000
327.253;  -99.500; -745.000; -742.000
327.388; -169.250;-1137.000;-1153.000
327.524;  -59.050; -811.000; -578.000
327.659;  -16.250;  -58.000;  -22.000
327.795;  -17.800;   69.000;   45.000
327.931;  -92.425; -723.000; -499.000
328.066;  -31.475; -417.000; -276.000
328.202;   -1.725;   12.000; -129.000
328.337;   97.525;  957.000;  713.000
328.473;   35.050;  -12.000;  -74.000
328.608;   -2.875; -256.000; -267.000
328.743;  -73.525; -799.000; -664.000
328.879;   20.400;  214.000;  114.000
329.014;  -32.025; -102.000; -122.000
329.150;  -91.425; -358.000; -483.000
329.285;  -78.975; -465.000; -466.000
329.421;  -55.250; -548.000; -246.000
329.556;   -9.200;  -36.000;   85.000
329.691; -107.150; -633.000; -615.000
329.827;  -96.375; -626.000; -480.000
329.962;  -58.825;  131.000; -301.000
330.097;  -90.350; -673.000; -585.000
330.233;  -57.275; -410.000; -223.000
330.368; -119.975; -839.000; -628.000
330.503;  -19.400;    3.000;   98.000
330.638;   11.125;  -93.000; -125.000
330.774;  -58.375; -609.000; -530.000
330.909;  -50.050; -434.000; -244.000
331.044;  -97.850; -714.000; -708.000
331.179; -165.450;-1217.000;-1109.000
331.315;   10.125;   77.000;   20.000
331.450;    4.900;  157.000;  285.000
331.585;  -84.675; -805.000; -706.000
331.720;  -84.425; -510.000; -460.000
331.855;  -17.925;  -35.000; -102.000
331.990;  232.875;   62.000;  138.000
332.126;  135.975; -110.000;   71.000
332.261;  -11.350; -379.000; -265.000
332.396;  -13.100; -135.000; -242.000
332.531;  -94.800;-1074.000;-1031.000
332.666;   16.500; -519.000; -363.000
332.801;  -96.100; -726.000; -807.000
332.936;  -39.950; -192.000; -122.000
333.071; -125.125; -870.000; -817.000
333.206;   22.325;  307.000;  379.000
333.341;   27.575;  344.000;  418.000
333.476;  -90.525; -627.000; -623.000
333.611;  -41.375; -251.000; -173.000
333.746;  -55.125; -381.000; -464.000
333.881; -114.125; -973.000; -935.000
334.016; -131.600; -936.000; -917.000
334.151; -123.750; -746.000; -702.000
334.286;   24.700;  152.000;  186.000
334.421;   -9.925; -125.000; -178.000
334.556;  -65.800; -611.000; -567.000
334.690;  -78.825; -631.000; -577.000
334.825;   52.600;  381.000;   83.000
334.960;  -60.625; -285.000; -413.000
335.095;    5.775;  135.000;  -91.000
335.230; -110.350; -722.000; -738.000
335.365; -135.850;-1084.000; -990.000
335.499; -125.450;-1108.000;-1037.000
335.634;   34.375;    9.000;  534.000
335.769;  -87.725; -755.000; -720.000
335.904;  -62.475; -603.000; -561.000
336.038;  -59.950; -735.000; -657.000
336.173; -127.250;-1206.000;-1194.000
336.308;   11.350; -116.000; -189.000
336.443;    9.125; -544.000; -634.000
336.577;  -56.175; -936.000; -787.000
336.712;   65.675;   -4.000;  -12.000
336.847;  -31.375; -724.000; -607.000
336.981;   77.350; -272.000; -208.000
337.116;  314.000;  615.000;  501.000
337.250;  166.050; -434.000; -421.000
337.385;  244.950; -297.000; -208.000
337.520;   73.575; -632.000; -603.000
337.654;  -45.300; -215.000; -126.000
337.789; -141.900; -989.000; -933.000
337.923;  -48.950; -104.000; -205.000
338.058; -101.025; -673.000; -738.000
338.192;  -19.475; -611.000; -488.000
338.327;   -8.150;  -18.000; -155.000
338.461;  -68.700; -299.000; -469.000
338.596;  -99.100; -780.000; -638.000
338.730;  -99.650; -767.000; -803.000
338.865;   73.100;  -46.000; -140.000
338.999;  -55.950; -846.000; -702.000
339.134;  -27.900; -634.000; -536.000
339.268;   16.300; -741.000; -603.000
339.403;  349.450; -740.000; -775.000
339.537;   89.900; -894.000; -820.000
339.671; -117.600; -829.000; -813.000
339.806;  -64.375; -556.000; -512.000
339.940;   10.300; -261.000; -235.000
340.074; -103.900; -685.000; -510.000
340.209;  -46.600; -351.000; -230.000
340.343;  -85.675; -517.000; -573.000
340.477;  157.450;  998.000; 1036.000
340.612;  -55.425;-1033.000; -900.000
340.746;  116.775; -199.000; -243.000
340.880;  -72.250; -924.000; -785.000
341.014;  -27.600;  -45.000; -154.000
341.149;  -99.550; -756.000; -718.000
341.283; -110.875; -839.000; -754.000
341.417;  -93.900;-1124.000; -938.000
341.551;  154.800; -768.000; -708.000
341.685;  -33.875; -633.000; -611.000
341.820;  -66.675; -562.000; -493.000
341.954;  -47.975; -218.000; -349.000
342.088; -155.175;-1102.000;-1019.000
342.222;   49.625;  565.000;  618.000
342.356;  -58.875; -395.000; -335.000
342.490;  -89.525; -880.000; -841.000
342.624;  -49.375; -339.000; -242.000
342.758;    3.800; -364.000; -312.000
342.892;  -60.425; -710.000; -585.000
343.026;  -37.725;  -58.000; -116.000
343.160;  -63.050; -426.000; -376.000
343.294;  -72.400; -474.000; -337.000
343.428;  -21.125; -488.000; -448.000
343.562;   -2.300; -172.000;  -23.000
343.696;  -34.825; -385.000; -314.000
343.830;  -15.075; -362.000; -356.000
343.964;    6.100; -231.000; -168.000
344.098;  946.800;  199.000;   70.000
344.232;  778.400; -266.000; -127.000
344.366;   77.575; -567.000; -453.000
344.500;   57.375; -665.000; -744.000
344.634;   46.375; -324.000; -164.000
344.768;  -14.850; -531.000; -341.000
344.902;   25.950;  278.000;  256.000
345.035;  -96.675; -556.000; -496.000
345.169; -134.925; -933.000; -656.000
345.303;  -62.575; -308.000; -482.000
345.437;  -70.275; -826.000; -717.000
345.571;  -88.925; -675.000; -594.000
345.704;  -57.350; -309.000; -532.000
345.838;  -14.775; -331.000; -284.000
345.972;  -29.825; -543.000; -495.000
346.106;  146.475; -179.000; -190.000
346.239;  420.700; -312.000; -243.000
346.373;   -5.475; -343.000; -302.000
346.507; -135.575; -950.000; -962.000
346.640;  150.650;  -30.000;   13.000
346.774;  -45.225; -650.000; -797.000
346.908;  -14.575; -138.000;  -11.000
347.041;  -89.900; -646.000; -593.000
347.175;    1.700;  259.000;   27.000
347.309;  -69.000; -698.000; -628.000
347.442; -107.600; -883.000; -732.000
347.576;  282.550;  670.000;  668.000
347.709;  194.300; -123.000;  -52.000
347.843;  -83.900; -933.000; -825.000
347.976;   34.825;  235.000;  294.000
348.110; -185.300;-1268.000;-1186.000
348.243; -105.400; -679.000; -772.000
348.377;  -15.875;  -26.000;   60.000
348.510;   47.625;  403.000;  540.000
348.644;  -40.700;  -37.000; -159.000
348.777;   -7.875;  180.000;  191.000
348.911;  -56.175; -142.000; -112.000
349.044;  181.200;  471.000;  448.000
349.178;  180.550;-1069.000;-1006.000
349.311;  109.425;  141.000;  255.000
349.444;   -5.175; -927.000; -813.000
349.578;  -42.225; -347.000; -200.000
349.711; -102.375; -959.000; -862.000
349.845;  -12.775; -661.000; -591.000
349.978; -155.025;-1224.000;-1137.000
350.111;  -87.250; -546.000; -612.000
350.244;  -78.900; -596.000; -700.000
350.378;    7.625; -392.000; -393.000
350.511;  -76.425; -393.000; -426.000
350.644;  -98.975; -808.000; -806.000
350.778;   11.175;  168.000;  104.000
350.911;   -2.350;  134.000;  140.000
351.044;  -95.725; -685.000; -615.000
351.177;  -43.225; -321.000; -281.000
351.310;  -13.025;    3.000; -131.000
351.444;  -89.650; -888.000; -788.000
351.577;  131.275;  140.000;   90.000
351.710;  100.475;  593.000;  417.000
351.843;  -27.025; -165.000;  -77.000
351.976;   -7.975;  149.000;  -79.000
352.109;  -99.700; -621.000; -612.000
352.242;  -35.325; -464.000; -419.000
352.376;  -45.500; -580.000; -636.000
352.509;  184.350; -437.000; -356.000
352.642;   19.925; -654.000; -604.000
352.775;   50.275; -141.000;  -98.000
352.908; -115.225; -933.000; -904.000
353.041; -109.300; -814.000; -824.000
353.174;  -57.900; -551.000; -424.000
353.307;  -87.025; -753.000; -764.000
353.440;   91.700;  541.000;  453.000
353.573; -109.800; -957.000;-1008.000
353.706;  -49.875; -384.000; -558.000
353.839;  -20.850; -264.000; -220.000
353.971;  -91.025; -657.000; -512.000
354.104;  -93.025; -896.000; -835.000
354.237;  -33.850; -627.000; -662.000
354.370;  -86.050; -846.000; -879.000
354.503; -182.075;-1231.000;-1308.000
354.636;  -33.925; -529.000; -348.000
354.769; -122.800; -937.000; -860.000
354.902;  -23.125; -230.000; -139.000
355.034;  -15.750; -164.000; -220.000
355.167;  -15.475; -262.000; -162.000
355.300;  -96.200;-1061.000; -880.000
355.433;  927.475;  -71.000;  -14.000
355.565; 1473.275; -402.000; -384.000
355.698;  364.800; -356.000; -296.000
355.831;   12.550; -882.000; -801.000
355.964;   76.500; -285.000; -170.000
356.096;  -86.150; -856.000; -843.000
356.229;    7.975; -523.000; -530.000
356.362;  312.125; -373.000; -266.000
356.494;  572.925; -229.000; -162.000
356.627;  504.625;  269.000;  377.000
356.760;  640.675;  120.000;   53.000
356.892;  901.500; -286.000; -601.000
357.025;  675.325;  403.000;  389.000
357.157;  624.475; -167.000; -179.000
357.290;  635.950; -856.000; -713.000
357.423;  198.625; -667.000; -556.000
357.555;  113.200; -217.000; -228.000
357.688;  138.725; -483.000; -364.000
357.820;  450.325; -870.000; -877.000
357.953; 3798.050; -563.000; -589.000
358.085;  828.100; -632.000; -612.000
358.218; 1208.350;-1131.000; -932.000
358.350;  212.250;  -58.000;  312.000
358.483; -126.275;-1300.000;-1187.000
358.615;   -4.325;-1182.000;-1078.000
358.747;  -50.700;-1187.000;-1058.000
358.880;   21.550; -810.000; -744.000
359.012;  -10.725; -376.000; -202.000
359.145;  -49.250; -480.000; -511.000
359.277;   57.050; -962.000; -913.000
359.409; 3106.400;  536.000;  231.000
359.542;  835.975; -738.000; -688.000
359.674;   70.575;   46.000;   13.000
359.806;  -59.200; -565.000; -438.000
359.939;  -63.375; -617.000; -516.000
360.071;  -12.925; -583.000; -579.000
360.203;  -36.225; -411.000; -364.000
360.335;   50.475;  164.000;  -16.000
360.468;  184.500; -249.000; -307.000
360.600; 2518.850; -547.000; -454.000
360.732; 2696.325; -546.000; -423.000
360.864;  363.425;-1216.000;-1044.000
360.996;  295.550; -516.000; -554.000
361.129;   52.400; -389.000; -598.000
361.261;   26.275;  110.000; -113.000
361.393;  -16.150; -252.000; -214.000
361.525;   26.350;   94.000;  244.000
361.657;  -35.375; -821.000; -703.000
361.789;    8.400; -139.000; -155.000
361.921;  230.625; -642.000; -593.000
362.053;  273.525;  524.000;  541.000
362.185;   55.225;  288.000;   72.000
362.318;  -92.600; -709.000; -705.000
362.450;  138.200;  294.000;  444.000
362.582;  136.750; -913.000; -870.000
362.714;  -25.175; -353.000; -332.000
362.846;  -88.025; -606.000; -490.000
362.978; -140.375; -941.000; -811.000
363.109;   35.100; -161.000; -260.000
363.241;  443.975; -739.000; -749.000
363.373;  429.950; -649.000; -564.000
363.505;  632.050; -186.000;  -91.000
363.637;  137.325; -787.000; -601.000
363.769; -114.900;-1067.000;-1080.000
363.901;  -71.025; -596.000; -654.000
364.033; -119.800;-1103.000;-1062.000
364.165;    3.775; -283.000; -283.000
364.296;   59.775; -316.000; -177.000
364.428;   60.025;-1344.000;-1220.000
364.560;  -57.275; -679.000; -661.000
364.692;  -69.175; -738.000; -835.000
364.824;  275.900; -588.000; -456.000
364.955;  433.775; -402.000; -564.000
365.087;  849.850;-1097.000; -852.000
365.219;   20.550; -686.000; -816.000
365.351;  -68.400; -526.000; -572.000
365.482;   61.150;  300.000;  240.000
365.614;  -44.250; -402.000; -314.000
365.746; -103.050; -729.000; -752.000
365.877; -107.800; -706.000; -672.000
366.009;  242.300;  -35.000;  -62.000
366.141;  -89.175;-1249.000;-1134.000
366.272; -113.100; -803.000; -719.000
366.404; -114.925;-1005.000; -874.000
366.535;  -17.675; -139.000;  -12.000
366.667; -104.775; -644.000; -649.000
366.799;   34.600;  353.000;  203.000
366.930; -116.850; -862.000; -996.000
367.062;  117.300; -639.000; -613.000
367.193;  129.475; -872.000; -842.000
367.325;  -76.350; -580.000; -684.000
367.456;   62.175; -246.000;   31.000
367.588;  139.625; -371.000; -318.000
367.719;   24.700;  -44.000;  -45.000
367.851;  -26.775; -222.000; -241.000
367.982;  -56.550; -875.000; -732.000
368.113;   94.425; -475.000; -358.000
368.245; -121.500; -960.000; -841.000
368.376;  -24.725; -254.000; -302.000
368.508;  -31.775; -188.000; -263.000
368.639; -156.025;-1166.000;-1034.000
368.770;   -7.225; -670.000; -589.000
368.902;  -59.375; -836.000; -926.000
369.033; -109.200; -906.000; -855.000
369.164;  -64.675; -720.000; -653.000
369.296; -109.700; -452.000; -601.000
369.427;  -16.875; -209.000; -144.000
369.558;  -50.750; -593.000; -377.000
369.689; -100.300; -721.000; -569.000
369.821; -129.600; -951.000; -845.000
369.952;  -31.800;   42.000; -108.000
370.083;  -50.100; -229.000; -108.000
370.214;  -96.375; -735.000; -650.000
370.345;   -1.150;   65.000;   81.000
370.477;  -80.975; -810.000; -790.000
370.608;  242.425; -328.000; -264.000
370.739;  -61.025;-1233.000;-1292.000
370.870;  -38.500;-1102.000; -923.000
371.001;   94.550; -378.000; -467.000
371.132;  -78.300; -754.000; -735.000
371.263;  -15.900;  -42.000; -148.000
371.394; -126.475; -841.000; -748.000
371.525;   31.300;  345.000;  225.000
371.657;  -87.525; -808.000; -670.000
371.788;   71.875;  103.000;  199.000
371.919;  186.250; -384.000; -304.000
372.050; 3752.725;  -91.000; -156.000
372.181; 1114.150; -188.000; -294.000
372.311;  382.850;   42.000; -127.000
372.442;   41.750; -457.000; -451.000
372.573;  -27.525; -444.000; -340.000
372.704; -112.100;-1008.000; -980.000
372.835;   94.775; -228.000; -289.000
372.966;  -67.875; -646.000; -554.000
373.097;  -68.250; -575.000; -711.000
373.228;  -25.725; -717.000; -542.000
373.359;  153.650; -824.000; -536.000
373.490;  992.225; -881.000; -727.000
373.620; 1207.700;-1001.000; -803.000
373.751; 1858.050; -332.000; -396.000
373.882;  841.500; -663.000; -733.000
374.013;   69.900; -449.000; -262.000
374.143;  -46.975; -581.000; -659.000
374.274; -109.450; -987.000; -908.000
374.405;  171.375; -388.000; -276.000
374.536;  475.350; -526.000; -387.000
374.666; 1195.375; -759.000; -807.000
374.797;  238.375; -817.000; -868.000
374.928;  905.775; -710.000; -560.000
375.058;  933.100; -535.000; -500.000
375.189;   77.175;  -59.000;  -93.000
375.320; -103.800; -928.000;-1034.000
375.450;  -38.400; -625.000; -616.000
375.581;  -52.825; -526.000; -436.000
375.712;  -27.850; -574.000; -250.000
375.842;  330.875; -438.000; -415.000
375.973;  240.175; -554.000; -513.000
376.103;  -40.075; -665.000; -648.000
376.234;  -78.100; -531.000; -552.000
376.364;  -28.750; -944.000; -867.000
376.495;  348.400;  925.000;  529.000
376.625;   -2.625; -472.000; -485.000
376.756;   62.300; -709.000; -678.000
376.886;  -61.425;-1178.000;-1026.000
377.017;   31.350;-1048.000;-1061.000
377.147;  331.175; -786.000; -782.000
377.278;   42.900;  174.000;  228.000
377.408; -131.550; -801.000; -815.000
377.538; -111.300; -707.000; -693.000
377.669;  -78.625; -537.000; -613.000
377.799;  -90.350; -645.000; -635.000
377.929;  -50.800; -610.000; -428.000
378.060; -133.875; -781.000; -847.000
378.190;  -63.250; -726.000; -531.000
378.320;  -55.225; -401.000; -406.000
378.451;  -11.875; -131.000;  -22.000
378.581;   -3.125;  -67.000; -110.000
378.711;  147.350; 1035.000;  866.000
378.841;   -1.925; -533.000; -675.000
378.972;  -66.300; -871.000; -751.000
379.102;   -3.550; -652.000; -579.000
379.232;  -19.500; -126.000;  -73.000
379.362; -114.600;-1001.000; -885.000
379.492;   12.000; -373.000; -424.000
379.623;  105.675;    0.000;  111.000
379.753;  -79.750;-1107.000; -974.000
379.883;  204.100;   59.000;  156.000
380.013;   12.750;-1081.000;-1017.000
380.143; -104.850;-1097.000;-1056.000
380.273;  -88.625; -985.000; -861.000
380.403;   -6.850; -344.000; -257.000
380.533;  -16.950; -651.000; -664.000
380.663;   67.475;  173.000;  128.000
380.793;  -86.075;-1027.000;-1074.000
380.923;  -28.925; -103.000;  -34.000
381.053;  -92.925; -613.000; -623.000
381.183;  -44.950; -106.000; -248.000
381.313;   33.825; -656.000; -470.000
381.443;   47.400; -692.000; -473.000
381.573;  213.500; -402.000; -409.000
381.703;  295.275;-1249.000;-1095.000
381.833; -130.350;-1454.000;-1336.000
381.963;  109.975; -134.000;  -87.000
382.093; 1427.050; -925.000; -909.000
382.223;  432.425; -713.000; -602.000
382.353;   -8.425; -801.000; -608.000
382.482;  398.500;-1091.000; -964.000
382.612;  812.225; -872.000; -644.000
382.742;  451.925; -695.000; -622.000
382.872;  285.700; -565.000; -551.000
383.002;   67.175;  347.000; -132.000
383.131;   -9.750; -226.000; -160.000
383.261;  -43.675; -706.000; -768.000
383.391;  274.425; -552.000; -377.000
383.521; 3059.725;  451.000;  263.000
383.650;  703.450; -947.000; -904.000
383.780;  -14.750; -783.000; -656.000
383.910;  103.525;  880.000;  802.000
384.039;   38.850; -794.000; -656.000
384.169;  227.175;-1205.000;-1017.000
384.299;  -17.950; -650.000; -662.000
384.428;  -94.325; -764.000; -680.000
384.558;  -56.575; -308.000; -275.000
384.687;  -36.375; -414.000; -334.000
384.817;   12.300;   75.000;   -2.000
384.947;   20.500; -234.000; -141.000
385.076;  278.600;  982.000;  912.000
385.206;  117.925;  369.000;  480.000
385.335;  -33.025; -549.000; -417.000
385.465;  -61.625; -655.000; -663.000
385.594;  126.425;  -53.000;  -44.000
385.724;  453.375; -868.000; -838.000
385.853;  128.775; -296.000; -270.000
385.982; 1436.100; -743.000; -787.000
386.112; 2254.400;-1052.000; -871.000
386.241;  156.375; -307.000; -312.000
386.371;   30.350; -174.000;  -87.000
386.500;    7.700; -825.000; -789.000
386.629;   15.300; -874.000; -817.000
386.759;   82.975;  -43.000;   68.000
386.888;  -18.325; -170.000; -250.000
387.017;  -74.550; -648.000; -620.000
387.147;  -83.900; -771.000; -798.000
387.276;    3.550; -410.000; -397.000
387.405;    0.325; -398.000; -342.000
387.535;  -38.950; -452.000; -361.000
387.664;  -58.300; -692.000; -620.000
387.793;   74.350; -198.000; -113.000
387.922;  532.350;  255.000;  200.000
388.052;   31.150; -576.000; -423.000
388.181;   19.650; -342.000; -472.000
388.310;   28.350; -889.000; -710.000
388.439;  -59.925; -749.000; -742.000
388.568;  210.425;  365.000;  244.000
388.697; 1125.225; -756.000; -653.000
388.826;  215.500; -768.000; -666.000
388.956;   52.350; -285.000; -307.000
389.085;  -40.775; -347.000; -287.000
389.214; -108.625; -842.000; -872.000
389.343;  -71.975; -645.000; -413.000
389.472;  378.600;  126.000;  149.000
389.601;  536.050;   91.000;    0.000
389.730;    1.550; -568.000; -687.000
389.859;   59.825;  226.000;   46.000
389.988;  185.050; -423.000; -408.000
390.117;  152.700; -168.000; -146.000
390.246;   -9.000; -331.000; -320.000
390.375;  112.525; -673.000; -626.000
390.504;  -56.125; -703.000; -621.000
390.633;  -93.950; -672.000; -726.000
390.761;  -62.375; -732.000; -645.000
390.890;   37.975;   -4.000; -130.000
391.019;  -27.825; -421.000; -441.000
391.148; -118.125; -826.000; -855.000
391.277;  -72.500; -576.000; -493.000
391.406;  -74.350; -821.000; -805.000
391.534;   20.750;  574.000; -301.000
391.663;  -75.900; -583.000; -645.000
391.792;  -85.250; -673.000; -701.000
391.921;  132.175;   -3.000;   15.000
392.050;  211.850; -287.000; -228.000
392.178;  -43.250;-1206.000;-1061.000
392.307;  145.850; -758.000; -712.000
392.436;   77.150; -427.000; -641.000
392.564;   19.650;  166.000;   -6.000
392.693;  -85.150; -860.000; -682.000
392.822;  213.675; -529.000; -534.000
392.950;   89.525; -880.000; -714.000
393.079;  340.050; -188.000; -328.000
393.208;   32.400; -488.000; -511.000
393.336;  -26.200; -170.000; -145.000
393.465;  -58.075; -317.000; -199.000
393.593;  -10.225;   62.000;   79.000
393.722; -144.875;-1121.000; -916.000
393.850;  -40.250; -188.000;  -61.000
393.979; -152.375; -926.000; -805.000
394.107;  -79.650; -517.000; -537.000
394.236;  -32.700; -570.000; -507.000
394.364;  192.950;  383.000;  206.000
394.493;  287.125; -911.000; -767.000
394.621;  -18.625; -955.000; -916.000
394.750;  669.100; -873.000; -923.000
394.878; 2854.425; -247.000; -149.000
395.007; 3841.375; -721.000; -807.000
395.135;  265.050; -790.000; -721.000
395.263;  -84.275;-1038.000;-1040.000
395.392;   -2.125;  -25.000; -107.000
395.520; -147.475; -818.000; -679.000
395.648;  -91.150; -865.000; -915.000
395.777;   -0.550; -366.000; -405.000
395.905;  -66.575; -449.000; -564.000
396.033;    8.100;  217.000;  172.000
396.162;  469.600; -399.000; -453.000
396.290;  433.000;  -17.000;   -2.000
396.418;  113.250; -555.000; -514.000
396.546;  -71.250; -571.000; -466.000
396.674;  -89.150; -850.000; -878.000
396.803;   19.625;  -72.000;  -23.000
396.931;  102.550; -179.000; -199.000
397.059;   73.775;-1026.000; -989.000
397.187; -114.150;-1026.000; -975.000
397.315; -135.900; -884.000; -649.000
397.443;  -99.200; -592.000; -443.000
397.572; -104.225; -578.000; -424.000
397.700;  -12.475; -607.000; -614.000
397.828;   21.975;  120.000;  -90.000
397.956;  -35.175; -508.000; -478.000
398.084;  -66.225; -767.000; -626.000
398.212;   33.175;  137.000;  124.000
398.340;   14.400;  -56.000;  159.000
398.468;   42.000; -390.000; -169.000
398.596; -136.600; -993.000; -953.000
398.724; -124.775; -762.000; -767.000
398.852; -165.175;-1024.000; -976.000
398.980;  -61.825; -560.000; -560.000
399.108;  -50.550; -982.000; -735.000
399.236;   36.125;   13.000;    8.000
399.363;    9.925;  222.000;  196.000
399.491;  -76.925; -404.000; -398.000
399.619; -133.500; -829.000; -800.000
399.747;  -95.375; -859.000; -771.000
399.875;   79.450;  220.000;  234.000
400.003;  -62.200; -359.000; -284.000
400.130;  -94.225; -421.000; -341.000
400.258;  -44.300;  -83.000;   38.000
400.386;  -66.800; -352.000; -168.000
400.514;  -45.050; -526.000; -587.000
400.641;  -85.300; -928.000; -802.000
400.769; -153.175; -979.000; -888.000
400.897; -124.425; -838.000; -793.000
401.025;  -28.475; -166.000; -152.000
401.152;   -4.000;  220.000;   38.000
401.280;  -82.350; -430.000; -429.000
401.408; -100.600; -712.000; -576.000
401.535; -110.450; -735.000; -758.000
401.663; -197.750;-1134.000;-1054.000
401.790;  -96.550; -514.000; -525.000
401.918;   42.700;  436.000;  405.000
402.046;  -27.325;  134.000;  122.000
402.173;  -42.025;  -18.000;    7.000
402.301;  -71.050; -519.000; -397.000
402.428;   39.100;  528.000;  383.000
402.556; -148.775;-1188.000; -913.000
402.683;  -26.400;  -20.000;   -1.000
402.811;  -31.175;  -37.000; -206.000
402.938;  -17.925;   20.000;   27.000
403.066;  227.975; -574.000; -558.000
403.193;  362.275;  299.000;  239.000
403.321;  262.950; -396.000; -574.000
403.448;  353.175;   83.000;   27.000
403.575;  139.550;  -90.000;  -46.000
403.703;  -89.100; -732.000; -557.000
403.830;  -65.500; -531.000; -496.000
403.957; -134.750;-1117.000;-1023.000
404.085;    8.700;  -61.000; -172.000
404.212;  110.050;  -50.000;   63.000
404.339;  254.575; -566.000; -306.000
404.467; 5629.825; -612.000; -524.000
404.594; 3732.675; -287.000; -227.000
404.721;  907.175; -869.000; -764.000
404.848;   67.650; -113.000; -202.000
404.976; -109.950; -856.000; -783.000
405.103;  -19.725;  -14.000;  -82.000
405.230;  -10.700;  190.000;  226.000
405.357;   28.775;  117.000;   44.000
405.484;  251.825;  -49.000;    5.000
405.612;   46.750; -548.000; -563.000
405.739;  -56.675; -488.000; -243.000
405.866;   73.750;  669.000;  385.000
405.993;  -57.725; -398.000; -102.000
406.120; -132.100; -801.000; -887.000
406.247;  -50.475; -323.000; -342.000
406.374;  449.000;  540.000;  629.000
406.501;  110.075; -632.000; -702.000
406.628;  -96.750; -621.000; -589.000
406.755; -106.175; -803.000; -620.000
406.882;  -41.575; -228.000; -277.000
407.009; -105.625; -719.000; -628.000
407.136;   44.750; -480.000; -401.000
407.263;  150.950; -939.000; -829.000
407.390;  -79.500; -692.000; -614.000
407.517; -164.525;-1139.000;-1187.000
407.644;  -64.000; -332.000; -256.000
407.771;  -69.900; -249.000; -287.000
407.898;   -5.775;  168.000;  328.000
408.025;  -69.575; -421.000; -313.000
408.151;  -10.950;   82.000;  153.000
408.278;  -63.425; -267.000; -216.000
408.405; -120.825; -931.000; -899.000
408.532;  -76.975; -549.000; -542.000
408.659; -132.000; -677.000; -648.000
408.785; -202.650;-1298.000;-1170.000
408.912;  -70.300; -412.000; -296.000
409.039; -105.500; -610.000; -686.000
409.166; -130.650; -591.000; -555.000
409.292;  -93.800; -571.000; -534.000
409.419; -124.250; -665.000; -649.000
409.546;  -95.450; -431.000; -192.000
409.672; -114.025; -713.000; -545.000
409.799;   -7.850;  -36.000;   34.000
409.926;  -52.700; -180.000; -179.000
410.052; -181.000;-1127.000;-1091.000
410.179;  -53.850; -368.000; -392.000
410.305;  -95.750; -375.000; -493.000
410.432;  -54.675; -220.000; -333.000
410.558;  -84.675; -305.000; -380.000
410.685; -106.475; -688.000; -431.000
410.812; -104.000; -409.000; -588.000
410.938; -144.275; -964.000; -808.000
411.065;  -88.075; -671.000; -645.000
411.191;  -29.025; -189.000; -174.000
411.317; -123.400; -823.000; -742.000
411.444;  -72.400; -317.000; -246.000
411.570;  -72.200; -339.000; -294.000
411.697; -129.700; -758.000; -752.000
411.823; -178.325; -989.000; -999.000
411.949;  -41.525;  -56.000;   17.000
412.076; -122.475; -539.000; -519.000
412.202; -127.525; -758.000; -757.000
412.329; -129.275; -798.000; -752.000
412.455; -125.250; -821.000; -657.000
412.581;  -11.725;  -15.000;  172.000
412.707;  -69.575; -540.000; -457.000
412.834;   10.450;  156.000;  219.000
412.960;  -90.475; -785.000; -784.000
413.086; -105.975; -743.000; -701.000
413.212;  145.000;  604.000;  578.000
413.339;  -59.250; -685.000; -701.000
413.465;    5.500; -364.000; -310.000
413.591;  -84.750; -757.000; -474.000
413.717;  -71.725; -358.000; -366.000
413.843; -130.775; -839.000; -861.000
413.969;  -52.300;  -47.000; -292.000
414.096;  -97.950; -679.000; -679.000
414.222;   -3.000;  -33.000;   85.000
414.348;  -23.000; -652.000; -385.000
414.474;  101.175;   38.000;  -52.000
414.600;   -5.050; -126.000; -144.000
414.726;  -11.000;  -96.000;  -55.000
414.852;  -68.100; -365.000; -342.000
414.978;   41.325;  104.000;  -18.000
415.104;   41.475;   38.000;   80.000
415.230;    2.800; -329.000; -330.000
415.356;   42.975; -409.000; -514.000
415.482;  191.425;   13.000;  -35.000
415.608;  260.875; -247.000; -323.000
415.734;  957.975;   67.000;   38.000
415.860;19698.475; -875.000; -767.000
415.986;14048.425; -685.000; -607.000
416.111; 1201.000; -798.000; -652.000
416.237;  243.400; -424.000; -571.000
416.363; 1099.125; -765.000; -733.000
416.489; 4088.500; -324.000; -251.000
416.615;  415.750; -707.000; -742.000
416.741;  -27.575; -677.000; -784.000
416.866; -100.000; -673.000; -736.000
416.992; -126.750; -801.000; -818.000
417.118;  -27.675;  -41.000;  -80.000
417.244;  -80.750; -798.000; -531.000
417.369;  -93.125; -801.000; -612.000
417.495;  -16.175; -325.000; -254.000
417.621;  -80.500;-1015.000; -803.000
417.746;   -8.300; -579.000; -572.000
417.872;   41.850; -254.000; -144.000
417.998;   51.325; -515.000; -530.000
418.123; 1034.025;-1073.000; -845.000
418.249; 5245.275; -512.000; -601.000
418.374;  729.150; -916.000; -824.000
418.500;  103.925; -383.000; -482.000
418.626;  115.675;   70.000;  -59.000
418.751;  107.375; -549.000; -448.000
418.877;  183.550; -637.000; -643.000
419.002; 1760.300; -688.000; -560.000
419.128;12208.925; -930.000; -721.000
419.253; 2952.075; -967.000; -837.000
419.379;  399.175; -391.000; -338.000
419.504;  374.425;  325.000;  415.000
419.629;  519.575; -393.000; -212.000
419.755; 3462.275; -317.000; -254.000
419.880;20403.725;  -98.000;   67.000
420.006;11167.425; -280.000; -221.000
420.131;28687.700; -662.000; -775.000
420.256; 4082.725; -315.000; -316.000
420.382;  552.125; -665.000; -687.000
420.507;   53.650; -649.000; -778.000
420.632;  133.000; -337.000; -339.000
420.758;  254.400; -251.000; -425.000
420.883;  -87.050; -876.000; -672.000
421.008;  -99.000; -775.000; -619.000
421.133;  -73.950; -509.000; -467.000
421.259;  -49.875; -325.000; -259.000
421.384; -114.875; -834.000; -693.000
421.509;  -41.050;-1052.000; -862.000
421.634; 1253.850; -936.000; -820.000
421.759;  541.950; -359.000; -327.000
421.885;  -47.175; -717.000; -656.000
422.010;  -84.700; -673.000; -542.000
422.135; -137.050; -695.000; -727.000
422.260;   41.925;  340.000;  280.000
422.385;  -40.775;   12.000;  -98.000
422.510;    5.125;  151.000;  -26.000
422.635;   15.525;  -87.000;  -43.000
422.760;   87.575; -766.000; -791.000
422.885;   60.000;  -57.000;  -80.000
423.010;  -33.025; -112.000; -169.000
423.135;  -93.875; -481.000; -561.000
423.260;   -8.175; -150.000; -245.000
423.385;   73.600;  476.000;  222.000
423.510;   29.050;   71.000;  -22.000
423.635;  103.475;  133.000;   45.000
423.760;   48.975;  383.000;  328.000
423.885;   49.425;  336.000;  391.000
424.010;    4.250;  -68.000;  -13.000
424.135;  -18.550;    5.000;  -33.000
424.259; -102.175; -654.000; -457.000
424.384;  -65.350; -279.000; -272.000
424.509;  -36.000; -260.000; -186.000
424.634;  -82.950; -761.000; -623.000
424.759;  -44.075; -688.000; -544.000
424.883;    0.475; -506.000; -527.000
425.008;  151.075; -502.000; -410.000
425.133; 1952.750; -679.000; -653.000
425.258;  894.600; -517.000; -381.000
425.382; 1069.125; -867.000; -774.000
425.507; 2722.425; -487.000; -543.000
425.632;  429.700; -802.000; -663.000
425.756;  448.975; -256.000; -146.000
425.881; 6410.625; -831.000; -857.000
426.006;16902.850; -604.000; -355.000
426.130; 2628.400; -696.000; -508.000
426.255;  334.100; -611.000; -491.000
426.379;  146.075; -189.000; -577.000
426.504;  369.500;  660.000;  544.000
426.629; 3994.700; -519.000; -466.000
426.753; 2700.450;   64.000;  -46.000
426.878;  295.900; -252.000; -288.000
427.002;  120.475; -651.000; -668.000
427.127; 1572.525;  -35.000; -158.000
427.251;11101.825;  372.000;  401.000
427.375; 3112.500; -191.000; -173.000
427.500; 2357.400; -616.000; -610.000
427.624;  796.200; -234.000; -400.000
427.749;   91.750; -216.000; -225.000
427.873;  -37.900; -499.000; -412.000
427.997;  -46.250; -222.000; -230.000
428.122;   86.875;  795.000;  703.000
428.246;   73.400;  433.000;  434.000
428.371; -125.475; -869.000; -773.000
428.495; -112.325; -624.000; -646.000
428.619;  -21.125; -186.000; -117.000
428.743;   22.875;   65.000;  132.000
428.868;   22.400; -732.000; -643.000
428.992; 1466.950; -219.000; -326.000
429.116;  589.500; -329.000; -357.000
429.240;  274.325;  419.000;  426.000
429.365;  -11.375; -454.000; -574.000
429.489;  -52.950; -638.000; -647.000
429.613;   27.925; -236.000; -177.000
429.737;   23.850; -563.000; -432.000
429.861;  271.400; -247.000; -133.000
429.985; 5462.050; -425.000; -305.000
430.109; 5945.650; -770.000; -908.000
430.234;  660.500;   76.000;  -50.000
430.358;   52.900; -250.000; -160.000
430.482;  -82.725; -672.000; -564.000
430.606;  -62.775; -655.000; -375.000
430.730;   17.225; -437.000; -388.000
430.854;  143.650; -909.000; -835.000
430.978;  -80.625; -795.000; -764.000
431.102;  -83.950; -499.000; -422.000
431.226; -117.575; -874.000; -815.000
431.350;   37.600;  345.000;  422.000
431.474;  -75.725; -661.000; -373.000
431.597; -148.000;-1060.000; -848.000
431.721;  -85.150; -276.000; -267.000
431.845; -132.050; -704.000; -472.000
431.969;  -87.750; -304.000; -349.000
432.093;  -97.050; -395.000; -317.000
432.217;  -22.575;   32.000;   82.000
432.341; -101.375; -523.000; -518.000
432.464;    9.800;   96.000;   40.000
432.588;  220.925; -401.000; -329.000
432.712;   98.150;  -52.000;  -52.000
432.836;   54.725;  213.000;  263.000
432.959;  -25.425; -372.000; -311.000
433.083;   92.675;   11.000;    2.000
433.207;  354.500;  285.000;  930.000
433.330; 4920.650; -391.000; -200.000
433.454; 5980.300; -654.000; -638.000
433.578; 3516.000;  583.000;  278.000
433.701;  641.475; -623.000; -675.000
433.825;  149.850; -292.000; -299.000
433.949;  189.200;   28.000;  -72.000
434.072;   68.450; -410.000; -323.000
434.196;  -25.950; -309.000; -117.000
434.319; 3733.900;25482.000;25124.000
434.443;  726.425; -656.000; -603.000
434.566; 2593.450;  281.000;   62.000
434.690;  416.725; -637.000; -383.000
434.813;   29.225; -251.000; -173.000
434.937;  -97.500; -569.000; -696.000
435.060;  -34.850; -423.000; -332.000
435.184;  321.025; -492.000; -217.000
435.307;  182.225;  159.000;  102.000
435.431;  -13.050;  -40.000;   24.000
435.554;  -81.150; -399.000; -240.000
435.677;  -95.725; -350.000; -258.000
435.801;  -46.550;  -25.000;   49.000
435.924;  -19.050;    1.000;  -67.000
436.048; -112.300;-1019.000; -732.000
436.171;  -80.550; -240.000;  -66.000
436.294;  -34.475; -248.000; -229.000
436.417;   77.800; -963.000; -849.000
436.541;  -94.775; -814.000; -840.000
436.664;  -74.125; -242.000; -316.000
436.787;  -35.150;   13.000;  113.000
436.910; -129.125; -792.000; -422.000
437.034;   15.825;  142.000;  143.000
437.157;   54.750;  -11.000;    0.000
437.280;  -46.025; -392.000; -292.000
437.403;  -84.200; -982.000; -869.000
437.526;  697.225; -903.000; -865.000
437.649; 2410.425; -505.000; -332.000
437.772;  359.450; -692.000; -540.000
437.896;  118.975;  700.000;  544.000
438.019;  -90.100; -758.000; -503.000
438.142;  -82.525; -596.000; -506.000
438.265;   -4.300; -639.000; -670.000
438.388;  598.825; -520.000; -410.000
438.511;  118.375; -597.000; -394.000
438.634;  -51.125; -247.000; -125.000
438.757; -139.200; -693.000; -619.000
438.880;  -28.075;  -34.000;  -57.000
439.003;  -79.300; -417.000; -437.000
439.126;  -83.825; -287.000; -167.000
439.248;  -75.450;  -98.000; -139.000
439.371;  -58.275;    9.000;  -53.000
439.494;   32.575;  510.000;  439.000
439.617;  -67.575;   65.000;  -88.000
439.740; -189.375; -968.000; -816.000
439.863; -144.625; -755.000; -595.000
439.986; -123.375; -476.000; -431.000
440.108;  -67.250; -161.000; -112.000
440.231; -170.250; -950.000; -836.000
440.354;  -53.925;  -64.000; -150.000
440.477;   37.275; -566.000; -542.000
440.599;    1.175; -200.000; -225.000
440.722; -135.400; -709.000; -586.000
440.845;   71.750;  751.000;  928.000
440.968; -113.950; -415.000; -311.000
441.090;  -73.600; -199.000;  -33.000
441.213; -155.625;-1021.000; -825.000
441.336;  -51.300; -159.000;   -5.000
441.458;  -75.450; -549.000; -396.000
441.581;  -99.475; -628.000; -629.000
441.703;  -72.100; -152.000;   13.000
441.826; -119.800; -557.000; -400.000
441.948;  -42.350;   56.000;   51.000
442.071;   18.700;  555.000;  424.000
442.193; -119.275; -531.000; -485.000
442.316;   11.200;  152.000;   97.000
442.438;   22.375; -233.000;  -10.000
442.561;   65.825;  272.000;  262.000
442.683;  582.225; -809.000; -522.000
442.806; 1236.950;   -8.000;   74.000
442.928;   39.650; -859.000; -604.000
443.051;  -75.525; -577.000; -373.000
443.173;  -92.450; -341.000; -339.000
443.295;  -97.950; -263.000; -371.000
443.418;  -71.700; -321.000;  -29.000
443.540;  -24.500; -106.000;   -4.000
443.662; -121.600; -563.000; -465.000
443.785;  -17.825;  335.000;  199.000
443.907;  -86.950; -362.000; -208.000
444.029; -130.575; -767.000; -494.000
444.152; -137.875; -644.000; -554.000
444.274;  -45.725;  -18.000;  -24.000
444.396; -104.025; -461.000; -221.000
444.518; -130.375; -691.000; -454.000
444.640; -112.250; -268.000; -111.000
444.763;  -13.325;  388.000;  249.000
444.885; -102.750; -432.000; -392.000
445.007;  -32.175;   35.000;   86.000
445.129; -124.450; -610.000; -515.000
445.251; -115.725; -372.000; -439.000
445.373; -142.000; -537.000; -386.000
445.495;   -6.850;  242.000;  350.000
445.617;   55.000;  853.000;  753.000
445.739;  -72.975; -215.000;  -97.000
445.861;  -39.675; -245.000; -112.000
445.984;  -49.675; -267.000; -101.000
446.105;  205.900; -418.000; -251.000
446.227;  631.525; -176.000;  -19.000
446.349;   17.675; -358.000; -249.000
446.471; -119.750; -615.000; -448.000
446.593;  -73.375; -316.000;   19.000
446.715;   -7.550;  -67.000;   41.000
446.837;   72.575;  697.000;  832.000
446.959; -100.900; -457.000; -478.000
447.081; -134.225; -628.000; -518.000
447.203;   42.575;  862.000;  834.000
447.325;  -80.750; -270.000;   42.000
447.446;  -14.175;  286.000;  530.000
447.568; -152.250; -921.000; -803.000
447.690;  -86.100; -236.000; -245.000
447.812; -149.750; -798.000; -519.000
447.933;  -31.400;  155.000;  127.000
448.055;  -64.250; -306.000; -261.000
448.177;  161.775;   31.000;   79.000
448.299;   92.200; -935.000; -727.000
448.420;    7.500;  -25.000;  159.000
448.542;  -46.400;   -3.000;   33.000
448.664;  -37.300;  109.000;  322.000
448.785;  -37.900;  265.000;   83.000
448.907;  -85.425; -614.000; -353.000
449.028;  -43.775; -771.000; -471.000
449.150;   73.875;  492.000;  589.000
449.272; -179.375;-1044.000; -913.000
449.393;   24.650;  612.000;  694.000
449.515; -143.900; -634.000; -581.000
449.636;  -50.800; -264.000; -155.000
449.758;   70.300;  763.000;  622.000
449.879; -102.875; -498.000; -396.000
450.001;  -67.275; -149.000;  -49.000
450.122;  -47.175;  -95.000;  162.000
450.244;  -22.400;   37.000;  364.000
450.365;  -95.925; -495.000; -301.000
450.486;  -37.100;   80.000;  268.000
450.608;    2.625;  393.000;  326.000
450.729;   60.625;  578.000;  645.000
450.850;  -10.300; -574.000; -466.000
450.972;  710.875; -552.000; -389.000
451.093; 4766.925;  190.000;  588.000
451.214; 2054.950; -516.000; -337.000
451.336;  363.825;  773.000;  579.000
451.457;   55.575;  264.000;  393.000
451.578;  -46.650; -118.000;  -74.000
451.699; -135.500; -546.000; -540.000
451.821;  -69.500; -284.000;  -50.000
451.942;    7.175;  278.000;  285.000
452.063;   32.350;  228.000;  419.000
452.184;  526.100;  -54.000;  -49.000
452.305; 1071.750;  103.000;  170.000
452.427;  125.875; -549.000; -301.000
452.548;  -32.450;   23.000;   79.000
452.669;  -43.700; -257.000;  -89.000
452.790;  -53.400;    3.000;  -18.000
452.911;   -9.500;  195.000;  259.000
453.032;  -61.975; -289.000;  -60.000
453.153;  -52.850;  -29.000;   81.000
453.274;   62.600;  737.000;  868.000
453.395;  -45.275;  -51.000;  175.000
453.516;  119.325; 1317.000; 1388.000
453.637;  -60.775; -205.000; -150.000
453.758;  -66.575;   15.000;   69.000
453.879; -130.125; -462.000; -250.000
454.000;   69.825; 1086.000;  948.000
454.121; -110.875; -554.000; -326.000
454.242; -141.025; -599.000; -383.000
454.362;  -61.850;  -99.000;  114.000
454.483;  -44.800; -309.000; -229.000
454.604;   52.150;  512.000;  580.000
454.725; -143.125; -627.000; -555.000
454.846; -130.675; -474.000; -406.000
454.967;  -30.550;  230.000;  539.000
455.087;  -38.050;  179.000;  153.000
455.208;   14.025;  554.000;  856.000
455.329;  -71.325;  -22.000;   82.000
455.450;   19.500;  473.000;  633.000
455.570;  -88.325; -234.000; -211.000
455.691;  -64.250;  201.000;  407.000
455.812; -104.925; -270.000;  -92.000
455.932;  -75.325;  107.000;  -97.000
456.053;  -68.375;   36.000;   24.000
456.173; -134.100; -433.000; -355.000
456.294; -141.300; -476.000; -303.000
456.415;  -70.175;  -73.000;   70.000
456.535;  -42.675;  297.000;  273.000
456.656;  -42.225;  132.000;  240.000
456.776;  -75.275;    3.000;  298.000
456.897;  -12.725;  308.000;  513.000
457.017;  -71.900; -153.000;   -3.000
457.138; -112.800; -402.000; -249.000
457.258;  -26.850;  263.000;  224.000
457.379;   -8.550;  509.000;  521.000
457.499;  -39.050;  443.000;  432.000
457.620; -140.825; -407.000; -231.000
457.740; -103.550; -132.000;  -11.000
457.860;  -54.525;   87.000;   44.000
457.981;  -45.450;  132.000;  124.000
458.101;  -80.425;  -89.000;   40.000
458.221;   -2.175;  336.000;  402.000
458.342;  -59.850;   -4.000;  -37.000
458.462;   20.900;  617.000;  352.000
458.582;  -59.125; -302.000; -294.000
458.703;   -7.400;  303.000;  154.000
458.823;  -40.800;   22.000;  163.000
458.943;   20.350;  341.000;  467.000
459.063;  -30.175; 1124.000;  192.000
459.183;  -31.100;  328.000;  313.000
459.304;  -10.000;  315.000;  517.000
459.424;  -64.325; -246.000;  -89.000
459.544;  315.525;  388.000;  764.000
459.664;  811.400;  499.000;  506.000
459.784;  282.150; 1004.000; 1175.000
459.904;   57.800;  867.000;  744.000
460.024;   81.125;  867.000;  684.000
460.144;   11.725;  449.000;  554.000
460.264;   -8.550;  515.000;  327.000
460.385;  -99.675; -145.000; -119.000
460.505;   25.700;  905.000;  858.000
460.625; -100.450;  -17.000;  -68.000
460.745;  -23.700;  396.000;  541.000
460.864;  -48.225;  153.000;  469.000
460.984;    1.175;  499.000;  573.000
461.104;  151.350; 1656.000; 1775.000
461.224;    5.675;  657.000;  650.000
461.344;  -24.275;  431.000;  360.000
461.464;  -30.375;  258.000;  513.000
461.584;  -13.250;  283.000;  466.000
461.704;  -57.750;   58.000;  108.000
461.824;  -64.975;  238.000;  259.000
461.943;  -40.075;  191.000;  130.000
462.063;  -67.825;    2.000;  324.000
462.183;   23.950;  639.000;  717.000
462.303;  102.125; 1678.000; 1230.000
462.422;   20.300;  781.000;  840.000
462.542;  -33.000;  271.000;  391.000
462.662;   32.300;  353.000;  380.000
462.782;  228.200;  833.000;  572.000
462.901;  467.775;  545.000;  717.000
463.021;  284.475; 1702.000; 1638.000
463.141;  -11.800;  337.000;  770.000
463.260;  -24.725;  614.000;  474.000
463.380;   10.950;  902.000;  884.000
463.499;  -46.400;  342.000;  332.000
463.619;  -38.400;  581.000;  559.000
463.738;   98.425; 1644.000;  903.000
463.858;   22.125;  657.000;  811.000
463.978;  -33.775;  542.000;  396.000
464.097;   40.550;  921.000; 1114.000
464.217;  108.600; 1196.000; 1143.000
464.336;   99.050; 1068.000; 1130.000
464.455;  -33.425;  328.000;  659.000
464.575;   37.350;  597.000;  602.000
464.694;  172.850; 1204.000; 1179.000
464.814;  131.400; 1190.000; 1138.000
464.933;   81.225; 1095.000; 1027.000
465.052;   90.550; 1412.000; 1054.000
465.172;   72.275;  922.000;  799.000
465.291;  144.700; 1376.000; 1320.000
465.410;    6.725;  462.000;  735.000
465.530;   75.900; 1355.000; 1310.000
465.649;   63.650; 1209.000; 1273.000
465.768;  127.575; 1673.000; 1508.000
465.888;   43.875;  941.000; 1174.000
466.007;   94.300; 1335.000; 1440.000
466.126;  -13.225;  721.000;  641.000
466.245;   31.800; 1176.000; 1187.000
466.364;   13.650;  950.000; 1060.000
466.484;   61.650; 1024.000; 1213.000
466.603;   41.450; 1101.000; 1222.000
466.722;  124.200; 1490.000; 1769.000
466.841;   56.250; 1151.000; 1401.000
466.960;   30.000; 1069.000;  972.000
467.079;  121.350; 1971.000; 1786.000
467.198;   39.875; 1238.000; 1181.000
467.317;   89.275; 1768.000; 1162.000
467.436;   60.050; 1709.000; 1261.000
467.555;  127.400; 1796.000; 1746.000
467.674;   59.425; 1227.000; 1329.000
467.793;   40.150; 1376.000; 1374.000
467.912;   76.900; 1658.000; 1539.000
468.031;  133.900; 2038.000; 1930.000
468.150;  133.000; 1842.000; 1837.000
468.269;  195.975; 2313.000; 2090.000
468.388;  179.525; 2168.000; 2339.000
468.507;  260.450; 2884.000; 2903.000
468.626;  221.725; 2555.000; 2541.000
468.744;  148.975; 2018.000; 2174.000
468.863;  207.350; 2312.000; 2523.000
468.982;   91.475; 1503.000; 1555.000
469.101;  224.200; 2788.000; 2692.000
469.220;  154.325; 2333.000; 2176.000
469.338;  232.775; 2935.000; 3051.000
469.457;  200.175; 2719.000; 2545.000
469.576;  344.175; 3953.000; 3784.000
469.695;  238.525; 2877.000; 3066.000
469.813;  412.700; 4148.000; 4192.000
469.932;  405.300; 4255.000; 4485.000
470.051;  409.525; 4075.000; 4161.000
470.169;  850.100; 4470.000; 4338.000
470.288; 1429.925; 4700.000; 4809.000
470.406;  892.025; 5059.000; 5194.000
470.525;  612.875; 6101.000; 5787.000
470.644;  644.700; 6847.000; 6794.000
470.762;  801.575; 8397.000; 7873.000
470.881;  904.100; 8651.000; 8464.000
470.999; 1048.000; 9685.000; 9151.000
471.118; 1114.425;11174.000;10711.000

