
Integration time [ms]: 100.000
Averaging Nr. [scans]: 40
Smoothing Nr. [pixels]: 0
Data measured with spectrometer [name]: 2101012U2
Wave   ;Sample   ;Dark     ;Reference
[nm]   ;[counts] ;[counts] ;[counts] 

197.733;   62.125;  516.000;  404.000
197.879;  -81.550; -610.000; -634.000
198.025;  -43.525; -475.000; -420.000
198.171;  -81.500; -602.000; -612.000
198.317;  -28.300; -401.000; -316.000
198.463;  -57.100; -655.000; -404.000
198.609;   36.475;  181.000; -137.000
198.755;  -78.675; -644.000; -410.000
198.901;  -54.375; -505.000; -424.000
199.047;  -68.075; -615.000; -488.000
199.193;  -33.900; -230.000; -468.000
199.339;  -45.325; -222.000; -369.000
199.485;   38.250;  330.000;  271.000
199.631;   22.875;  227.000;  310.000
199.777;  -57.975; -466.000; -398.000
199.923;  -56.425; -610.000; -424.000
200.069;   -4.375; -141.000;  -58.000
200.215;   56.000;  128.000;  453.000
200.361;   47.475;  243.000;  477.000
200.507;  -53.325; -600.000; -373.000
200.653;  -25.800; -371.000; -194.000
200.798;  -25.950; -215.000; -125.000
200.944;   -0.075; -146.000;  -41.000
201.090;   32.525;   61.000;  222.000
201.236;    0.025; -116.000; -158.000
201.382;  125.175;  874.000;  903.000
201.528;   -1.350;  -58.000;  -48.000
201.674;  -58.225; -386.000; -293.000
201.819;  -68.475; -540.000; -439.000
201.965;  -81.325; -699.000; -447.000
202.111;  -19.175; -273.000; -226.000
202.257;  -36.700; -250.000; -238.000
202.402;   15.175;   13.000;  -36.000
202.548;  -31.650; -169.000; -116.000
202.694;   87.625;  410.000; -183.000
202.840;  -75.225; -603.000; -531.000
202.985;  -70.050; -681.000; -639.000
203.131; -101.425; -832.000; -666.000
203.277;  -22.000; -199.000; -262.000
203.423;  -50.125; -434.000; -520.000
203.568;  -43.150; -462.000; -237.000
203.714;  -50.600; -535.000; -542.000
203.860;  -80.850; -682.000; -641.000
204.005;   23.375;  112.000;  167.000
204.151;   80.950;  561.000;  556.000
204.296;  -42.925; -354.000; -221.000
204.442;  -61.325; -600.000; -547.000
204.588;  -77.150; -592.000; -579.000
204.733;   11.575;  178.000;  168.000
204.879; -127.250;-1018.000; -822.000
205.025;   15.950;  -99.000;  126.000
205.170;    0.725;  -17.000;   94.000
205.316;   83.950;  438.000;  661.000
205.461;  -85.275; -698.000; -554.000
205.607;   87.500;  609.000;  665.000
205.752;  -75.425; -626.000; -551.000
205.898;  -58.975; -501.000; -391.000
206.043;  -54.850; -578.000; -506.000
206.189;  -36.150; -243.000; -285.000
206.334;   77.600;  554.000;  606.000
206.480;   79.825;  409.000;  239.000
206.625;  -83.275; -529.000; -552.000
206.771;  -49.775; -451.000; -373.000
206.916;  -26.850; -210.000; -537.000
207.062;  -64.275; -545.000; -591.000
207.207;  -65.625; -546.000; -443.000
207.353;   42.250;  185.000;  460.000
207.498;   23.925;  196.000;   85.000
207.643;  -46.500; -501.000; -370.000
207.789; -120.950;-1069.000; -910.000
207.934;  -92.050; -665.000; -713.000
208.080;  -25.625; -154.000;   66.000
208.225;   -0.550;  -22.000;  -57.000
208.370;  -92.550; -727.000; -619.000
208.516;  -82.750; -741.000; -487.000
208.661;  -21.425; -127.000;  -69.000
208.806;  -21.525; -165.000; -171.000
208.952; -129.475;-1044.000; -731.000
209.097;   88.200;  378.000;  349.000
209.242;  -48.200; -307.000; -382.000
209.387;   72.125;  392.000;  350.000
209.533;  -57.575; -321.000; -350.000
209.678;   78.625;  472.000;  543.000
209.823;  -42.625; -408.000; -310.000
209.969;  -91.675; -860.000; -757.000
210.114; -112.325; -907.000; -719.000
210.259; -123.700; -939.000; -889.000
210.404;   -7.550; -171.000;  103.000
210.549;    8.950;  108.000;    3.000
210.695;  -11.000;   -3.000;  -95.000
210.840;   27.875;   94.000;   67.000
210.985;  -65.700; -484.000; -303.000
211.130;   62.025;  268.000;  406.000
211.275;   20.675;  207.000;  199.000
211.420;  -66.900; -300.000; -289.000
211.566;  -66.350; -536.000; -489.000
211.711;   25.075;  218.000;  157.000
211.856;  -59.225; -545.000; -519.000
212.001;   -1.025;  151.000;   44.000
212.146;   31.775;  153.000;   49.000
212.291;  -15.225; -210.000; -186.000
212.436;  -32.175; -280.000;   -6.000
212.581; -101.050; -685.000; -653.000
212.726;  -73.375; -487.000; -538.000
212.871;  -47.525; -552.000; -217.000
213.016; -140.450;-1172.000;-1029.000
213.161;   62.000;  406.000;  291.000
213.306;  -63.800; -435.000; -577.000
213.451;  -91.425; -778.000; -689.000
213.596;  -47.475; -455.000; -347.000
213.741;  -53.975; -448.000; -538.000
213.886;  -77.750; -498.000; -517.000
214.031;  -36.125; -294.000; -124.000
214.176;  -44.150; -408.000; -341.000
214.321;  -16.525; -296.000; -157.000
214.466;  -26.150; -163.000;  -43.000
214.611;   -5.800;  -61.000;  -10.000
214.756; -112.375; -948.000; -858.000
214.901;  -22.600; -388.000; -226.000
215.046; -127.725; -797.000; -825.000
215.191;   18.775;  128.000;   35.000
215.336;   -7.650; -157.000;  -19.000
215.480;  -78.900; -684.000; -505.000
215.625;   -7.450; -175.000;  -19.000
215.770;  -82.775; -757.000; -662.000
215.915;   -5.950;   -5.000;  -97.000
216.060;    2.300; -113.000;  -21.000
216.205; -116.500; -731.000; -779.000
216.349;  -69.675; -470.000; -533.000
216.494; -142.125; -939.000; -867.000
216.639; -107.375; -823.000; -888.000
216.784;  -86.025; -577.000; -525.000
216.929;   58.925;  392.000;  281.000
217.073;   -4.975; -244.000;  -31.000
217.218;   10.800;   78.000;  -47.000
217.363;  -80.375; -656.000; -618.000
217.507;  -89.575; -623.000; -588.000
217.652; -125.475; -845.000; -874.000
217.797;  -95.650; -708.000; -659.000
217.942; -107.900; -856.000; -720.000
218.086;   67.450;  608.000;  539.000
218.231;  -20.275; -174.000;  -26.000
218.376;  -32.050; -337.000; -229.000
218.520;   -4.450;  -41.000;   96.000
218.665;  -36.925; -338.000; -204.000
218.810;  -42.975; -275.000; -233.000
218.954;   16.075;  201.000;   35.000
219.099; -112.350; -713.000; -963.000
219.243;  -62.750; -589.000; -554.000
219.388;  -20.525; -264.000; -136.000
219.532;  -11.325; -116.000; -116.000
219.677;  -76.975; -564.000; -521.000
219.822;   -0.825;   33.000;   89.000
219.966;   12.950;   17.000;  -99.000
220.111;  -31.950; -328.000;  -40.000
220.255;  -96.950; -797.000; -750.000
220.400;  -21.775; -180.000; -146.000
220.544;  -65.350; -516.000; -450.000
220.689;  -45.500; -422.000; -451.000
220.833;  -17.225; -123.000;  -58.000
220.978;  -49.625; -393.000; -563.000
221.122;   29.675;  319.000;  307.000
221.267; -106.475; -906.000; -837.000
221.411;  -61.525; -478.000; -394.000
221.555;   -1.250; -104.000;  -23.000
221.700;  -45.200; -329.000; -222.000
221.844;   38.950;  255.000;  272.000
221.989;  -44.575; -328.000; -311.000
222.133;  -29.175; -289.000; -307.000
222.277;  -14.275;    5.000;   78.000
222.422;   15.625;  227.000;  113.000
222.566;  -38.150; -381.000; -214.000
222.711;  -48.275; -414.000; -479.000
222.855;  -74.975; -643.000; -586.000
222.999;  -86.300; -642.000; -717.000
223.144;  -31.475; -195.000; -194.000
223.288;   57.025;  423.000;  251.000
223.432;   36.325;  184.000;  230.000
223.576;    8.725;  152.000;  -21.000
223.721;   53.800;  364.000;  273.000
223.865;  -55.600; -472.000; -475.000
224.009;  261.000; 1673.000; 1631.000
224.153;  -90.225; -660.000; -671.000
224.298;  -68.575; -531.000; -489.000
224.442;  -22.050;  -74.000;  -33.000
224.586;   -7.350; -169.000; -106.000
224.730;  -96.225; -858.000; -670.000
224.875;  -95.775; -739.000; -688.000
225.019;    4.725;  102.000;  188.000
225.163;   72.175;  208.000;  341.000
225.307;   19.025;   97.000;  -91.000
225.451;   57.575;  360.000;  481.000
225.595;   33.450;  264.000;  176.000
225.739;   -8.525; -170.000;  -94.000
225.884;    4.500;   86.000;    5.000
226.028; -101.350; -760.000; -626.000
226.172;  -37.250; -260.000; -273.000
226.316; -117.250; -941.000; -902.000
226.460;  -75.900; -645.000; -493.000
226.604;  -39.225; -406.000; -400.000
226.748; -125.800; -836.000; -733.000
226.892;  -28.825; -227.000; -181.000
227.036;  -46.725; -537.000; -447.000
227.180;  -61.625; -551.000; -375.000
227.324;  -51.925; -561.000; -580.000
227.468; -116.675; -819.000; -717.000
227.612;   17.300;  242.000;  -28.000
227.756;  -97.175; -845.000; -698.000
227.900;   46.600;  342.000;  441.000
228.044;  -52.825; -509.000; -290.000
228.188;   55.125;  448.000;  568.000
228.332;  -79.900; -546.000; -472.000
228.476;  -19.600; -223.000; -149.000
228.620;  -38.400; -210.000; -150.000
228.764;   53.925;  431.000;  349.000
228.908;  -13.350; -155.000;   30.000
229.052;  -58.975; -615.000; -528.000
229.195;  -22.900; -172.000;   13.000
229.339;  -16.125; -235.000; -305.000
229.483;  -23.400;    5.000; -162.000
229.627;    5.450; -156.000;  139.000
229.771;  -48.875; -218.000; -294.000
229.915;   -3.850;  230.000;   79.000
230.059;  -93.675; -648.000; -663.000
230.202;  -31.250; -370.000; -317.000
230.346;  -10.875; -107.000;  107.000
230.490;  -71.050; -489.000; -521.000
230.634; -106.350; -736.000; -553.000
230.777;   84.375;  478.000;  509.000
230.921;  -53.950; -450.000; -359.000
231.065;  -46.525; -246.000; -286.000
231.209;   40.325;  261.000;  265.000
231.352;   11.050;   54.000;   40.000
231.496;   13.700;  568.000;  188.000
231.640;  -88.525; -693.000; -621.000
231.783;   70.425;  546.000;  525.000
231.927;  -29.475; -294.000; -365.000
232.071; -122.150; -962.000; -736.000
232.214; -117.475; -980.000; -764.000
232.358; -103.225; -683.000; -599.000
232.502;    5.375;  -19.000;    7.000
232.645; -143.225;-1090.000; -927.000
232.789;  -33.350; -257.000; -218.000
232.933;  -42.050; -407.000; -224.000
233.076; -125.000;-1038.000; -897.000
233.220; -101.675; -752.000; -777.000
233.363;  -72.225; -669.000; -477.000
233.507;   59.225;  371.000;  129.000
233.650;  -90.925; -764.000; -834.000
233.794;   38.850;  438.000;  461.000
233.938;  -64.350; -530.000; -362.000
234.081;   -1.300;  -93.000;   31.000
234.225;  -66.975; -631.000; -539.000
234.368; -122.450; -773.000; -723.000
234.512;  -38.700; -385.000; -299.000
234.655;  -96.225; -582.000; -555.000
234.798;  -66.200; -493.000; -466.000
234.942; -128.825; -884.000;-1002.000
235.085;  -84.325; -651.000; -443.000
235.229;  -69.025; -405.000; -410.000
235.372;  -48.050; -247.000; -191.000
235.516;  -59.450; -397.000; -321.000
235.659;   26.825;   92.000;  121.000
235.802;  -14.400;  -38.000;  -22.000
235.946;   28.075;  335.000;  215.000
236.089;   29.125;  126.000;  250.000
236.233;   51.875;  275.000;  298.000
236.376;  -50.225; -235.000; -378.000
236.519;  -52.575; -297.000; -319.000
236.663;  -19.475; -215.000; -117.000
236.806; -137.250;-1029.000; -999.000
236.949;   53.575;  543.000;  431.000
237.092;   49.375;  412.000;  391.000
237.236;  -89.925; -589.000; -502.000
237.379;   67.025;  352.000;  428.000
237.522; -120.300; -879.000; -768.000
237.666;  -17.350; -271.000;   18.000
237.809; -122.650; -851.000; -823.000
237.952;   35.250;  469.000;  271.000
238.095;  -57.425; -447.000; -442.000
238.238;   93.200;  688.000;  700.000
238.382;   21.025;  166.000;  103.000
238.525;  -83.225; -598.000; -511.000
238.668; -149.375;-1060.000; -985.000
238.811;  -77.600; -638.000; -643.000
238.954;  -57.550; -483.000; -334.000
239.097;   96.475;  617.000;  664.000
239.241;   30.750;  394.000;  326.000
239.384;  -44.975; -254.000; -214.000
239.527;  -55.200; -424.000; -224.000
239.670; -147.600; -994.000;-1091.000
239.813; -113.750; -696.000; -658.000
239.956;   69.425;  579.000;  473.000
240.099; -101.900; -778.000; -725.000
240.242;   52.650;  428.000;  432.000
240.385;   51.025;  466.000;  450.000
240.528;  -80.350; -706.000; -473.000
240.671;   25.925;  189.000;  134.000
240.814;  -55.725; -441.000; -158.000
240.957;  -95.875; -767.000; -578.000
241.100;  -89.550; -779.000; -755.000
241.243; -133.775;-1234.000; -893.000
241.386;  -65.550; -508.000; -379.000
241.529;  -80.175; -735.000; -547.000
241.672;  -71.450; -566.000; -495.000
241.815; -123.675; -832.000; -808.000
241.958;  -34.125; -125.000; -182.000
242.101;  -77.425; -545.000; -390.000
242.244;  -46.100; -270.000; -325.000
242.387;  -28.450; -304.000; -246.000
242.530;   64.425;  470.000;  134.000
242.673;  -37.175; -381.000; -309.000
242.815; -140.350; -925.000; -899.000
242.958;  -75.375; -482.000; -381.000
243.101;   22.775;  132.000;  187.000
243.244;  -80.300; -564.000; -521.000
243.387;  -52.850; -313.000; -316.000
243.530;  -86.700; -657.000; -674.000
243.672;    0.900;   43.000;  -92.000
243.815;  -55.825; -355.000; -283.000
243.958;    4.450;   98.000;  -26.000
244.101;    2.375;   59.000;  -16.000
244.243;  -12.175;  -47.000;  101.000
244.386; -108.100; -761.000; -630.000
244.529;  -35.075; -132.000; -139.000
244.672; -154.875;-1154.000; -951.000
244.814; -100.125; -621.000; -794.000
244.957;  -51.375; -380.000; -304.000
245.100;  -82.750; -489.000; -489.000
245.242;  -56.525; -387.000; -374.000
245.385;    5.775;  -59.000;  -39.000
245.528; -113.125; -871.000; -705.000
245.670;  101.400;  612.000;  634.000
245.813;  -84.275; -599.000; -547.000
245.956;  -27.400; -324.000; -275.000
246.098;  -76.500; -508.000; -650.000
246.241;    3.000;  194.000;   48.000
246.383;  -20.700; -119.000;  -73.000
246.526;  -70.025; -454.000; -525.000
246.669; -117.875; -889.000; -780.000
246.811;    9.650;  172.000;   -1.000
246.954;  -52.925; -512.000; -426.000
247.096;  -22.050;  -84.000;   -6.000
247.239;  -73.825; -482.000; -445.000
247.381;  -72.200; -647.000; -488.000
247.524;   88.450;  645.000;  679.000
247.666;  -12.100;   58.000;   11.000
247.809; -104.700; -887.000; -691.000
247.951;  -15.775;  -75.000;  138.000
248.094;   33.850;  432.000;  308.000
248.236; -157.625;-1262.000;-1238.000
248.378;    3.000; -356.000;  -81.000
248.521;  -20.100; -334.000; -337.000
248.663;  -37.525; -236.000; -267.000
248.806;  -38.375; -300.000; -266.000
248.948;  -86.950; -886.000; -763.000
249.090;  -36.825; -428.000; -398.000
249.233;  -50.100; -344.000; -381.000
249.375;  -64.725; -474.000; -451.000
249.518;  -23.300;  -83.000; -133.000
249.660;    5.525; -103.000;    3.000
249.802; -166.125;-1303.000;-1189.000
249.945;  -83.650; -612.000; -540.000
250.087; -108.950; -834.000; -768.000
250.229;  -44.725; -362.000; -480.000
250.371;  -76.175; -494.000; -439.000
250.514;  -48.575; -310.000; -244.000
250.656;   -4.650;   69.000;  102.000
250.798; -111.625; -849.000; -800.000
250.940;  -68.150; -322.000; -322.000
251.083;  -31.775; -335.000; -111.000
251.225;   57.400;  338.000;  310.000
251.367;  -52.175; -274.000; -373.000
251.509;  -35.825; -265.000; -210.000
251.651;  -91.350; -731.000; -671.000
251.794;   61.750;  538.000;  632.000
251.936;  -99.375; -821.000; -747.000
252.078;  -72.800; -540.000; -461.000
252.220;  -67.800; -645.000; -477.000
252.362;   94.525;  344.000;  462.000
252.504;  -64.575; -677.000; -584.000
252.646; -111.875; -875.000; -722.000
252.788;   -7.675;   14.000; -128.000
252.931;  -29.350; -257.000; -253.000
253.073;  -46.600; -376.000; -317.000
253.215;   -4.175;  141.000;  122.000
253.357;  -12.750;   82.000; -153.000
253.499;  -34.125; -374.000; -234.000
253.641;  -88.575; -749.000; -594.000
253.783;  -88.175; -609.000; -527.000
253.925;  -93.400; -586.000; -591.000
254.067; -105.225; -744.000; -667.000
254.209;  -22.825; -391.000; -259.000
254.351; -129.925; -865.000; -883.000
254.493;  -53.375; -441.000; -417.000
254.635; -123.550; -936.000; -818.000
254.777;  -87.150; -752.000; -687.000
254.918;  -64.375; -512.000; -430.000
255.060;  -62.600; -551.000; -395.000
255.202;  -46.000; -473.000; -261.000
255.344;  -78.300; -658.000; -455.000
255.486;  -72.200; -471.000; -406.000
255.628; -108.275; -780.000; -781.000
255.770;  -87.375; -676.000; -536.000
255.912;  -64.100; -559.000; -468.000
256.053;  -86.725; -730.000; -508.000
256.195;  152.825; 1008.000;  903.000
256.337; -104.200; -861.000; -595.000
256.479;   64.300;  532.000;  416.000
256.621;  -42.325; -394.000; -212.000
256.762;  -92.700; -789.000; -742.000
256.904;   48.625;  485.000;  487.000
257.046;  -50.525; -381.000; -271.000
257.188;  -44.050; -351.000; -264.000
257.329;  -79.950; -525.000; -464.000
257.471; -122.425; -939.000; -807.000
257.613;  -68.450; -584.000; -498.000
257.755; -146.825;-1073.000; -982.000
257.896;   33.875;  286.000;  392.000
258.038;  -70.100; -403.000; -352.000
258.180;  -54.750; -354.000; -279.000
258.321;  -78.250; -581.000; -457.000
258.463;  -13.475;  -71.000;  133.000
258.605;  -86.050; -562.000; -570.000
258.746; -110.075; -886.000; -772.000
258.888; -151.275;-1026.000;-1020.000
259.029;    9.550;  121.000;   -8.000
259.171;  -90.250; -614.000; -550.000
259.313;    3.200;  -49.000;  -47.000
259.454;  -63.550; -536.000; -414.000
259.596;  -61.725; -483.000; -390.000
259.737;  -78.350; -590.000; -474.000
259.879;   30.750;  217.000;  311.000
260.020;   96.875;  901.000;  636.000
260.162;  -31.350; -146.000; -253.000
260.303; -116.550; -768.000; -687.000
260.445;  -87.125; -609.000; -613.000
260.586;   41.850;  392.000;  157.000
260.728;  -47.850; -360.000; -248.000
260.869; -121.675; -350.000; -343.000
261.011;   75.900;  706.000;  537.000
261.152;  -60.250; -479.000; -319.000
261.293;  -83.775; -576.000; -595.000
261.435;  -11.525; -219.000; -184.000
261.576;  -51.825; -455.000; -325.000
261.718;   50.650;  420.000;  470.000
261.859; -134.825; -940.000; -949.000
262.000; -127.100; -951.000;-1016.000
262.142;  -18.750;  -52.000;  -60.000
262.283; -113.175; -808.000; -691.000
262.424;  -85.775; -666.000; -625.000
262.566; -156.600;-1161.000; -983.000
262.707; -134.825; -840.000; -830.000
262.848; -106.950; -769.000; -726.000
262.990;  -51.700; -362.000; -345.000
263.131;   86.850;  650.000;  681.000
263.272;   -3.750;  -61.000;  -41.000
263.413; -106.100; -589.000; -561.000
263.555;  -63.100; -669.000; -143.000
263.696;  -72.050; -550.000; -641.000
263.837;  -62.350; -449.000; -551.000
263.978;   14.200;   -5.000;  -77.000
264.119;  -52.250; -283.000; -264.000
264.261; -115.200; -847.000; -630.000
264.402;   -0.050;   33.000;   40.000
264.543;  -78.375; -509.000; -524.000
264.684;  -17.875;   61.000;  -50.000
264.825;  -80.775; -816.000; -538.000
264.966;  -11.800;  -84.000;  -67.000
265.107; -117.525; -646.000; -670.000
265.248; -133.300; -825.000; -812.000
265.390;    5.950;  152.000;   -9.000
265.531;  -31.725; -238.000; -107.000
265.672;  -90.800; -557.000; -630.000
265.813;   63.700;  563.000;  439.000
265.954; -144.975; -959.000; -940.000
266.095;   -0.800; -372.000; -322.000
266.236; -104.875; -686.000; -548.000
266.377;  -39.150; -243.000; -297.000
266.518;  -61.000; -619.000; -547.000
266.659;   19.650;  170.000;  268.000
266.800;    5.700;   83.000;   85.000
266.941;  -87.350; -487.000; -478.000
267.082;   45.700;  354.000;   99.000
267.223;  -50.350; -344.000; -273.000
267.364; -110.500; -892.000; -686.000
267.504;   -6.350;    3.000;  135.000
267.645;   -6.625;  160.000;   67.000
267.786;  -42.225; -147.000;  -86.000
267.927;  -74.775; -473.000; -379.000
268.068;  -19.075; -186.000;  -61.000
268.209;  -38.900; -175.000; -413.000
268.350;  -62.825; -388.000; -532.000
268.490;  -78.050; -648.000; -521.000
268.631;   21.500;  127.000;  225.000
268.772; -100.750; -874.000; -647.000
268.913;  -49.550; -328.000; -476.000
269.054;  -10.100; -117.000;   12.000
269.194;  -49.950; -418.000; -402.000
269.335; -149.025;-1137.000;-1074.000
269.476;  -28.875;   33.000;  -35.000
269.617;  -40.950; -347.000; -392.000
269.757;  -98.375; -713.000; -646.000
269.898; -101.500; -856.000; -613.000
270.039;  -49.250; -415.000; -405.000
270.180; -129.050; -952.000; -816.000
270.320;  -25.400; -190.000; -250.000
270.461;  -41.150; -277.000; -249.000
270.602;   -9.500; -186.000; -156.000
270.742; -122.125; -868.000; -943.000
270.883;  -51.275; -442.000; -390.000
271.023;  -58.625; -358.000; -357.000
271.164;  -74.150; -607.000; -528.000
271.305;  -88.975; -666.000; -654.000
271.445;  -94.700; -722.000; -683.000
271.586;  -45.025; -462.000; -283.000
271.726;  -44.800; -397.000; -322.000
271.867;  -62.275; -594.000; -534.000
272.008;  196.900; -473.000; -285.000
272.148;  137.300;  462.000;  468.000
272.289;   14.250; -113.000; -181.000
272.429;   12.275;   19.000;  185.000
272.570;  -92.075; -633.000; -737.000
272.710; -103.500; -825.000; -775.000
272.851;  -21.350;  113.000; -130.000
272.991; -153.775;-1173.000;-1077.000
273.131;  -69.000; -419.000; -459.000
273.272;  -98.975; -683.000; -723.000
273.412;   13.100; -143.000;  -31.000
273.553;  -48.050; -488.000; -507.000
273.693;  150.850;  913.000;  858.000
273.834;  -80.175; -894.000; -692.000
273.974;  -76.275; -664.000; -615.000
274.114;  -89.325; -772.000; -560.000
274.255;   74.625;  414.000;  373.000
274.395;   16.850; -180.000; -125.000
274.535;   50.375;  199.000;  350.000
274.676;   36.225;  225.000;   94.000
274.816;   11.525;  110.000;   34.000
274.956;  -79.825; -624.000; -690.000
275.097;  -52.375;-1014.000; -922.000
275.237; -104.000; -913.000; -803.000
275.377;  -95.725; -778.000; -689.000
275.517; -152.375; -878.000; -937.000
275.658;  -48.875; -590.000; -555.000
275.798;  -57.900; -606.000; -413.000
275.938;   32.625;  215.000;  323.000
276.078;  -88.750; -626.000; -395.000
276.218;   11.900;   99.000;  104.000
276.359; -119.075;-1026.000;-1024.000
276.499;  -69.875; -605.000; -446.000
276.639;  -17.950; -305.000; -151.000
276.779;  -52.025; -475.000; -357.000
276.919; -110.875; -783.000; -624.000
277.059;  -20.725; -261.000; -212.000
277.199;  -43.675; -357.000; -259.000
277.340;   56.000;  287.000;  175.000
277.480; -101.575; -840.000; -693.000
277.620;   31.650;  192.000;   16.000
277.760; -194.300;-1533.000;-1294.000
277.900;   29.025;  113.000;   33.000
278.040;   28.400;  137.000;  159.000
278.180;   26.000;  270.000;  170.000
278.320;    1.575;   21.000;   56.000
278.460;  -60.150; -443.000; -469.000
278.600;  -81.800; -708.000; -598.000
278.740;   53.325;  448.000;  224.000
278.880;  -30.425; -768.000; -791.000
279.020;  -16.800; -194.000; -144.000
279.160;  -86.175; -672.000; -595.000
279.300; -121.200; -926.000; -873.000
279.440;  -76.200; -709.000; -622.000
279.579;  -16.725;-1014.000; -929.000
279.719;  -45.650; -410.000; -394.000
279.859;   79.700;   -4.000;   41.000
279.999;   39.850; -208.000;  101.000
280.139;   -2.375; -435.000; -387.000
280.279;  -62.100; -708.000; -745.000
280.419;  -19.325; -229.000; -147.000
280.559;  -24.300; -259.000; -180.000
280.698;  -74.675; -790.000; -639.000
280.838;  -79.300; -778.000; -800.000
280.978; -102.550; -846.000; -790.000
281.118; -107.250; -811.000; -704.000
281.257;   -2.200;   24.000;    6.000
281.397;  -97.800;-1094.000; -960.000
281.537;  -96.100; -599.000; -712.000
281.677;  -17.500; -150.000; -101.000
281.816;  -88.650; -700.000; -630.000
281.956;  -22.025; -193.000; -257.000
282.096;  -61.100; -539.000; -396.000
282.235;  -94.750; -672.000; -638.000
282.375;  -11.125; -243.000;  -98.000
282.515;  -87.650; -715.000; -707.000
282.654;   40.300;   29.000;  106.000
282.794;   44.650;  388.000;  244.000
282.934;  -58.200; -530.000; -491.000
283.073; -126.975;-1030.000; -857.000
283.213;  -39.225; -460.000; -467.000
283.353;  -34.500; -408.000; -349.000
283.492;  -17.225; -264.000; -296.000
283.632;  -42.675; -254.000; -168.000
283.771;  -90.425; -859.000; -730.000
283.911;  -50.575; -369.000; -260.000
284.050; -108.150; -794.000; -748.000
284.190; -159.275;-1229.000;-1096.000
284.329; -143.900;-1055.000; -964.000
284.469;  -41.800; -516.000; -591.000
284.608;  -51.600; -559.000; -598.000
284.748;  -71.450; -614.000; -570.000
284.887;   -1.950;  -87.000;  -20.000
285.027; -122.425; -844.000; -892.000
285.166;  -34.150; -192.000; -249.000
285.306;    7.500; -116.000;  -33.000
285.445;  -42.800; -229.000; -343.000
285.584;  -86.200; -630.000; -494.000
285.724;  -40.000; -282.000; -322.000
285.863; -111.225; -857.000; -507.000
286.002;  -46.900; -366.000; -276.000
286.142; -107.275; -715.000; -622.000
286.281;  -67.375; -525.000; -493.000
286.420;  -85.600; -554.000; -417.000
286.560;  111.200;  653.000;  623.000
286.699; -130.000; -958.000; -912.000
286.838;  -83.825; -590.000; -591.000
286.978;  -87.200; -533.000; -537.000
287.117; -125.925;-1085.000; -950.000
287.256;  -23.000; -228.000; -211.000
287.395;  -50.625; -197.000; -378.000
287.535;  -51.200; -370.000; -298.000
287.674;  -72.975; -509.000; -484.000
287.813;   71.050;  661.000;  533.000
287.952; -138.500;-1010.000; -871.000
288.091; -137.575;-1049.000; -915.000
288.231;   10.750;   13.000;   15.000
288.370; -171.500;-1217.000;-1200.000
288.509;  -93.625; -728.000; -645.000
288.648;  -88.150; -770.000; -548.000
288.787;  -31.100; -243.000;  -87.000
288.926;  -49.975; -454.000; -475.000
289.065;  118.700;  859.000;  672.000
289.204;  -55.025; -377.000; -217.000
289.344;  -96.050; -791.000; -690.000
289.483;   22.500;  416.000;  304.000
289.622;  -25.175; -291.000; -149.000
289.761;  -13.775; -309.000; -166.000
289.900; -115.975; -785.000; -626.000
290.039;   -8.100;  -12.000;  -95.000
290.178;  -26.825; -274.000; -180.000
290.317;  -77.425; -618.000; -479.000
290.456;  -76.825; -463.000; -451.000
290.595; -127.925; -961.000; -833.000
290.734; -132.525; -904.000; -891.000
290.873;  -63.675; -456.000; -420.000
291.011; -101.750; -833.000; -843.000
291.150;  -99.200; -770.000; -682.000
291.289;  -15.300; -343.000; -110.000
291.428;  -78.350; -599.000; -480.000
291.567;  -58.400; -370.000; -442.000
291.706;   -1.750;  109.000;  154.000
291.845;  -90.600; -597.000; -505.000
291.984; -145.700;-1234.000;-1061.000
292.122;   78.350;  602.000;  582.000
292.261;   53.475;  620.000;  463.000
292.400;   13.775; -144.000;  211.000
292.539; -109.600; -959.000; -813.000
292.678;  -24.500; -325.000; -300.000
292.816; -153.675;-1136.000; -965.000
292.955;  -85.825; -844.000; -684.000
293.094;  -29.075; -173.000; -337.000
293.233;  -58.500; -556.000; -400.000
293.371;  -37.850; -225.000;  -84.000
293.510; -105.675; -866.000; -780.000
293.649; -125.750; -959.000; -924.000
293.787;  -47.150;-1083.000;-1012.000
293.926;    6.500; -113.000;  -32.000
294.065;  -35.175; -379.000; -290.000
294.203;   55.375;  298.000;  406.000
294.342;   39.525;   74.000;  156.000
294.481; 6194.150;51180.000; -836.000
294.619;  -25.550; -425.000; -582.000
294.758; -137.250;-1230.000;-1137.000
294.896;   83.950; -125.000;    5.000
295.035; -112.500;-1040.000;-1006.000
295.174; -119.800;-1082.000; -954.000
295.312;  -37.925; -323.000; -203.000
295.451;   -2.875; -307.000; -428.000
295.589;  -49.650; -389.000; -518.000
295.728;   30.725; -292.000; -165.000
295.866;   15.900;  -36.000;  -51.000
296.005;  -48.525; -584.000; -341.000
296.143;  -72.475; -558.000; -596.000
296.282;  -99.725; -957.000; -881.000
296.420;  -92.325; -657.000; -557.000
296.559;  -89.600; -892.000; -633.000
296.697;   36.750; -847.000; -665.000
296.835;  106.300;-1141.000;-1002.000
296.974;   58.825;  -23.000;   39.000
297.112;   30.625; -443.000; -504.000
297.251;  -61.925; -815.000; -755.000
297.389;  110.325; -576.000; -438.000
297.527;   70.575; -145.000;  -83.000
297.666;  -31.375; -486.000; -438.000
297.804;  -47.125; -404.000; -264.000
297.942;   -2.000; -136.000; -161.000
298.081;    1.800; -183.000;   63.000
298.219;   88.400;  -17.000;  -19.000
298.357;   53.625; -144.000;  -71.000
298.495;   62.975; -810.000; -812.000
298.634;   95.950;  245.000;  219.000
298.772;   75.750; -220.000; -338.000
298.910;  -16.725; -309.000; -182.000
299.048;   -9.175; -130.000; -153.000
299.187;  -30.550; -350.000; -250.000
299.325;   23.825;   52.000;  122.000
299.463;   86.500; -389.000; -299.000
299.601;  137.425; -327.000; -271.000
299.739; -100.575; -908.000; -883.000
299.877;  -72.125; -791.000; -703.000
300.016;  -31.975;-1095.000; -935.000
300.154;  201.075;  -19.000; -161.000
300.292;   87.325; -428.000; -348.000
300.430;   64.650; -408.000; -291.000
300.568;  -91.450; -940.000; -874.000
300.706;  -52.900; -366.000; -469.000
300.844;  -52.400;-1108.000; -979.000
300.982;  133.675;  246.000;  282.000
301.120;  -90.325; -965.000; -866.000
301.258;  -57.325; -812.000; -705.000
301.396;   50.775;  104.000;  -41.000
301.534;  113.875; -218.000; -293.000
301.672;   18.200; -664.000; -521.000
301.810;   61.125; -613.000; -545.000
301.948;  155.900;   53.000;  149.000
302.086;  712.375; -250.000;  -32.000
302.224; 1130.500; -610.000; -585.000
302.362;   69.750; -558.000; -622.000
302.500;    1.775; -923.000; -893.000
302.638;  128.875;  128.000;  245.000
302.776;    3.700; -352.000; -408.000
302.913;   45.725;  447.000;  236.000
303.051;    8.350;  -86.000;  -23.000
303.189;   71.100;   90.000;  118.000
303.327;  -39.550; -341.000; -256.000
303.465;  -76.175; -832.000; -588.000
303.603;  -94.475; -805.000; -604.000
303.740;  121.575;  417.000;  241.000
303.878;   54.400; -800.000; -759.000
304.016;  -98.425; -915.000; -790.000
304.154; -105.275;-1123.000;-1152.000
304.291;  -32.975; -505.000; -554.000
304.429;   20.250;  102.000;   74.000
304.567; -124.300; -908.000; -893.000
304.705;  -46.975; -408.000; -515.000
304.842;  120.250; -616.000; -540.000
304.980;   53.025;  215.000;   35.000
305.118;   75.875; -367.000; -365.000
305.255;  -49.875; -945.000; -927.000
305.393;   55.500;  178.000;  239.000
305.531;  -79.500;-1173.000; -956.000
305.668;  -55.825; -663.000; -582.000
305.806;  122.100; -358.000; -439.000
305.943;  119.700; -629.000; -637.000
306.081;   76.425; -378.000; -267.000
306.219;  -97.600; -863.000; -748.000
306.356;    2.675;  158.000;   27.000
306.494;  113.525;  981.000;  761.000
306.631;   -1.525;  -11.000;  -55.000
306.769;   11.375; -613.000; -485.000
306.906;  -15.325; -284.000; -258.000
307.044;  -57.200; -473.000; -488.000
307.181;  -59.450; -410.000; -332.000
307.319;   11.725;  112.000;   87.000
307.456; -167.875;-1191.000;-1153.000
307.594;  -87.775; -980.000; -727.000
307.731;    7.800; -371.000; -164.000
307.868;   24.200;  -15.000;   20.000
308.006; -132.775; -961.000; -847.000
308.143;  -52.700; -618.000; -330.000
308.281;  148.725;  -37.000; -254.000
308.418;  -24.925; -748.000; -640.000
308.555;  -60.125; -400.000; -250.000
308.693;  -75.000; -577.000; -573.000
308.830; -114.600; -712.000; -657.000
308.967;  -10.900; -215.000;  -95.000
309.105;  -44.700; -507.000; -396.000
309.242;   32.650; -468.000; -367.000
309.379;  280.125; -577.000; -655.000
309.517;  -58.600; -936.000; -948.000
309.654; -100.075; -910.000; -734.000
309.791;  -69.950; -662.000; -580.000
309.928; -115.350; -977.000; -914.000
310.065;  193.425;  819.000;  697.000
310.203;   18.725; -825.000; -850.000
310.340;    2.950; -465.000; -321.000
310.477;  -72.625; -412.000; -516.000
310.614;  -60.025; -383.000; -473.000
310.751;  -66.975; -427.000; -518.000
310.889;   -8.425;    1.000;   11.000
311.026; -144.600;-1161.000; -939.000
311.163;  -43.850; -386.000; -380.000
311.300;  -75.525; -512.000; -479.000
311.437;  -80.750; -658.000; -619.000
311.574; -161.075;-1226.000; -985.000
311.711;  -63.075; -595.000; -433.000
311.848;  -32.875; -380.000; -388.000
311.985;   22.525;  270.000;   93.000
312.122; -115.500; -932.000; -762.000
312.259; -132.350; -941.000; -994.000
312.396;  -65.575; -508.000; -551.000
312.533;  -80.450; -812.000; -790.000
312.670; -131.375;-1070.000; -898.000
312.807;  -28.225; -352.000; -367.000
312.944;  -66.800; -513.000; -611.000
313.081;  -45.900; -150.000; -415.000
313.218;  -96.625;-1111.000; -867.000
313.355;   30.600; -531.000; -449.000
313.492;   17.800; -455.000; -292.000
313.629;  148.550;  815.000;  735.000
313.766; -144.775;-1176.000;-1008.000
313.902;   -6.200; -186.000;   21.000
314.039;  -38.525; -372.000; -289.000
314.176;   31.575;  286.000;  192.000
314.313;  -76.750; -569.000; -473.000
314.450;  -73.600; -788.000; -684.000
314.587;  -53.175; -468.000; -480.000
314.723;   13.050;  -78.000;  130.000
314.860;   44.525;  318.000;  332.000
314.997;   47.150;  223.000;  142.000
315.134;  -30.925; -385.000; -368.000
315.270;  -18.525; -480.000; -496.000
315.407; -105.550;-1094.000; -967.000
315.544;  -58.500; -657.000; -538.000
315.681;  -56.775; -681.000; -565.000
315.817;   36.500; -133.000; -176.000
315.954;   39.050; -613.000; -392.000
316.091; -116.775;-1045.000;-1023.000
316.227;  -16.900;  -71.000; -179.000
316.364;    9.250;   23.000;    6.000
316.500;  -37.550; -113.000; -300.000
316.637;  -55.175; -181.000; -302.000
316.774;  -75.375; -625.000; -358.000
316.910; -105.550; -598.000; -629.000
317.047;  -69.475; -487.000; -351.000
317.183;  -41.450; -435.000; -566.000
317.320;  -15.850; -367.000; -321.000
317.456;  -75.975; -733.000; -805.000
317.593;  -88.650; -598.000; -641.000
317.729;    0.550;  168.000;  -67.000
317.866; -192.575;-1434.000;-1285.000
318.002;  -90.725; -708.000; -948.000
318.139;  -95.475; -883.000; -867.000
318.275; -104.300;-1003.000; -738.000
318.412;  -58.900; -517.000; -336.000
318.548;  -23.525; -751.000; -720.000
318.685;  -81.550; -985.000; -888.000
318.821;  -87.500; -762.000; -735.000
318.957;  -10.700;   34.000;  -23.000
319.094;   37.150;  297.000;  154.000
319.230;  -42.050; -756.000; -742.000
319.367;  169.350; -471.000; -520.000
319.503;   70.425; -538.000; -436.000
319.639;  -99.425; -877.000; -793.000
319.775;  -48.125; -750.000; -685.000
319.912;  -56.400; -424.000; -519.000
320.048;  -84.300;-1184.000;-1184.000
320.184;   78.425;   59.000;   70.000
320.321;  -52.000; -497.000; -467.000
320.457;   65.900;  475.000;  662.000
320.593;  -49.050; -375.000; -382.000
320.729;  -95.400; -732.000; -734.000
320.866;  -58.800; -577.000; -635.000
321.002;  -74.775; -759.000; -809.000
321.138;   -3.625; -135.000; -211.000
321.274;   85.925; -148.000; -115.000
321.410;    6.375; -585.000; -353.000
321.546;   -5.650;-1011.000; -911.000
321.683;   66.550;  400.000;  185.000
321.819;   14.650;  -48.000; -117.000
321.955; -100.025; -743.000; -722.000
322.091;  -41.100; -585.000; -540.000
322.227;    3.800; -382.000; -202.000
322.363;   -7.700; -320.000; -215.000
322.499;  -38.525; -343.000; -331.000
322.635;  177.575;  636.000;  443.000
322.771;   41.175; -139.000;   12.000
322.907;  111.025;  129.000;  327.000
323.043;  -11.825; -115.000; -206.000
323.179;  -25.900; -394.000; -363.000
323.315;   43.700; -401.000; -371.000
323.451;  145.050; -328.000; -236.000
323.587;   75.725;  -60.000;  -77.000
323.723;   37.250; -682.000; -601.000
323.859;  -12.800; -258.000;  -76.000
323.995;  -20.825; -467.000; -409.000
324.131; -105.675; -967.000; -892.000
324.267;  -30.025; -254.000; -276.000
324.402; -123.850; -960.000; -983.000
324.538;   -6.325; -279.000; -104.000
324.674;   35.225;  164.000;   77.000
324.810;  166.725;  226.000;  308.000
324.946;   21.875; -810.000; -658.000
325.082;  -62.050; -568.000; -475.000
325.217;   -5.650;  -62.000;   16.000
325.353; -105.725; -764.000; -659.000
325.489;  -72.175; -540.000; -506.000
325.625;  -77.525; -579.000; -525.000
325.760;   71.875;  517.000;  376.000
325.896;  -29.550; -515.000; -702.000
326.032;  -44.300; -403.000; -352.000
326.168;  -51.275; -462.000; -369.000
326.303;  -46.375; -352.000; -461.000
326.439;   -8.875; -336.000; -276.000
326.575;   14.525; -190.000;  -29.000
326.710;  -11.150; -156.000;  -30.000
326.846;   -1.250;  146.000;  103.000
326.982;  -88.950; -530.000; -548.000
327.117;  -57.525; -481.000; -442.000
327.253;  -93.625; -745.000; -742.000
327.388; -156.975;-1137.000;-1153.000
327.524;  -29.850; -811.000; -578.000
327.659;  -23.850;  -58.000;  -22.000
327.795;  -20.025;   69.000;   45.000
327.931;  -84.800; -723.000; -499.000
328.066;  -14.925; -417.000; -276.000
328.202;    4.575;   12.000; -129.000
328.337;  108.450;  957.000;  713.000
328.473;   51.025;  -12.000;  -74.000
328.608;  -20.975; -256.000; -267.000
328.743;  -72.750; -799.000; -664.000
328.879;   21.875;  214.000;  114.000
329.014;  -33.125; -102.000; -122.000
329.150;  -77.900; -358.000; -483.000
329.285;  -64.475; -465.000; -466.000
329.421;  -51.825; -548.000; -246.000
329.556;  -25.800;  -36.000;   85.000
329.691; -103.375; -633.000; -615.000
329.827;  -81.475; -626.000; -480.000
329.962;  -47.975;  131.000; -301.000
330.097;  -83.275; -673.000; -585.000
330.233;  -48.675; -410.000; -223.000
330.368; -125.625; -839.000; -628.000
330.503;  -23.225;    3.000;   98.000
330.638;   17.775;  -93.000; -125.000
330.774;  -60.750; -609.000; -530.000
330.909;  -33.200; -434.000; -244.000
331.044;  -89.925; -714.000; -708.000
331.179; -175.400;-1217.000;-1109.000
331.315;    9.300;   77.000;   20.000
331.450;   29.200;  157.000;  285.000
331.585;  -86.650; -805.000; -706.000
331.720;  -85.150; -510.000; -460.000
331.855;   -0.050;  -35.000; -102.000
331.990;  224.750;   62.000;  138.000
332.126;  111.500; -110.000;   71.000
332.261;   -8.300; -379.000; -265.000
332.396;    7.500; -135.000; -242.000
332.531; -102.650;-1074.000;-1031.000
332.666;   28.000; -519.000; -363.000
332.801; -103.150; -726.000; -807.000
332.936;  -14.575; -192.000; -122.000
333.071; -125.550; -870.000; -817.000
333.206;   14.850;  307.000;  379.000
333.341;   29.450;  344.000;  418.000
333.476;  -91.750; -627.000; -623.000
333.611;  -27.350; -251.000; -173.000
333.746;  -42.025; -381.000; -464.000
333.881; -108.975; -973.000; -935.000
334.016; -119.700; -936.000; -917.000
334.151; -110.700; -746.000; -702.000
334.286;   32.750;  152.000;  186.000
334.421;   -7.925; -125.000; -178.000
334.556;  -71.600; -611.000; -567.000
334.690;  -79.600; -631.000; -577.000
334.825;   59.650;  381.000;   83.000
334.960;  -39.450; -285.000; -413.000
335.095;   14.450;  135.000;  -91.000
335.230;  -93.000; -722.000; -738.000
335.365; -120.400;-1084.000; -990.000
335.499; -128.150;-1108.000;-1037.000
335.634;   40.250;    9.000;  534.000
335.769;  -73.700; -755.000; -720.000
335.904;  -48.125; -603.000; -561.000
336.038;  -21.300; -735.000; -657.000
336.173; -101.000;-1206.000;-1194.000
336.308;   32.275; -116.000; -189.000
336.443;   30.000; -544.000; -634.000
336.577;  -53.300; -936.000; -787.000
336.712;   87.775;   -4.000;  -12.000
336.847;  -11.475; -724.000; -607.000
336.981;   89.400; -272.000; -208.000
337.116;  337.725;  615.000;  501.000
337.250;  203.425; -434.000; -421.000
337.385;  209.675; -297.000; -208.000
337.520;   49.750; -632.000; -603.000
337.654;  -48.000; -215.000; -126.000
337.789; -128.775; -989.000; -933.000
337.923;  -17.300; -104.000; -205.000
338.058;  -83.300; -673.000; -738.000
338.192;   -6.550; -611.000; -488.000
338.327;   11.000;  -18.000; -155.000
338.461;  -63.200; -299.000; -469.000
338.596;  -85.250; -780.000; -638.000
338.730;  -96.750; -767.000; -803.000
338.865;   80.375;  -46.000; -140.000
338.999;  -58.000; -846.000; -702.000
339.134;  -32.500; -634.000; -536.000
339.268;   22.050; -741.000; -603.000
339.403;  330.750; -740.000; -775.000
339.537;   95.350; -894.000; -820.000
339.671; -118.900; -829.000; -813.000
339.806;  -70.625; -556.000; -512.000
339.940;   13.050; -261.000; -235.000
340.074;  -92.200; -685.000; -510.000
340.209;  -35.400; -351.000; -230.000
340.343;  -94.375; -517.000; -573.000
340.477;  153.025;  998.000; 1036.000
340.612;  -63.925;-1033.000; -900.000
340.746;  106.550; -199.000; -243.000
340.880;  -51.200; -924.000; -785.000
341.014;  -14.900;  -45.000; -154.000
341.149; -125.175; -756.000; -718.000
341.283; -103.700; -839.000; -754.000
341.417;  -78.250;-1124.000; -938.000
341.551;  193.250; -768.000; -708.000
341.685;  -16.850; -633.000; -611.000
341.820;  -44.525; -562.000; -493.000
341.954;  -24.250; -218.000; -349.000
342.088; -153.400;-1102.000;-1019.000
342.222;   70.925;  565.000;  618.000
342.356;  -56.100; -395.000; -335.000
342.490;  -75.400; -880.000; -841.000
342.624;  -32.150; -339.000; -242.000
342.758;   13.925; -364.000; -312.000
342.892;  -55.250; -710.000; -585.000
343.026;  -25.100;  -58.000; -116.000
343.160;  -48.625; -426.000; -376.000
343.294;  -64.175; -474.000; -337.000
343.428;   -7.525; -488.000; -448.000
343.562;   -9.075; -172.000;  -23.000
343.696;  -15.125; -385.000; -314.000
343.830;   -1.525; -362.000; -356.000
343.964;   16.925; -231.000; -168.000
344.098; 1099.375;  199.000;   70.000
344.232;  931.000; -266.000; -127.000
344.366;   98.550; -567.000; -453.000
344.500;   89.575; -665.000; -744.000
344.634;   57.050; -324.000; -164.000
344.768;    7.925; -531.000; -341.000
344.902;   35.250;  278.000;  256.000
345.035;  -63.050; -556.000; -496.000
345.169; -135.950; -933.000; -656.000
345.303;  -24.250; -308.000; -482.000
345.437;  -48.200; -826.000; -717.000
345.571;  -76.175; -675.000; -594.000
345.704;  -51.125; -309.000; -532.000
345.838;  -19.300; -331.000; -284.000
345.972;  -21.800; -543.000; -495.000
346.106;  149.650; -179.000; -190.000
346.239;  465.275; -312.000; -243.000
346.373;   14.175; -343.000; -302.000
346.507; -133.750; -950.000; -962.000
346.640;  188.100;  -30.000;   13.000
346.774;   -8.050; -650.000; -797.000
346.908;   -0.700; -138.000;  -11.000
347.041;  -78.150; -646.000; -593.000
347.175;    0.825;  259.000;   27.000
347.309;  -67.625; -698.000; -628.000
347.442;  -91.800; -883.000; -732.000
347.576;  331.050;  670.000;  668.000
347.709;  239.575; -123.000;  -52.000
347.843;  -74.025; -933.000; -825.000
347.976;   42.050;  235.000;  294.000
348.110; -169.625;-1268.000;-1186.000
348.243; -113.550; -679.000; -772.000
348.377;   -1.600;  -26.000;   60.000
348.510;   56.175;  403.000;  540.000
348.644;  -25.975;  -37.000; -159.000
348.777;    4.450;  180.000;  191.000
348.911;  -37.375; -142.000; -112.000
349.044;  213.325;  471.000;  448.000
349.178;  211.575;-1069.000;-1006.000
349.311;  124.525;  141.000;  255.000
349.444;   -0.800; -927.000; -813.000
349.578;   -4.175; -347.000; -200.000
349.711;  -88.725; -959.000; -862.000
349.845;   16.250; -661.000; -591.000
349.978; -135.650;-1224.000;-1137.000
350.111;  -71.775; -546.000; -612.000
350.244;  -61.425; -596.000; -700.000
350.378;   15.600; -392.000; -393.000
350.511;  -56.525; -393.000; -426.000
350.644;  -95.300; -808.000; -806.000
350.778;    9.825;  168.000;  104.000
350.911;    5.500;  134.000;  140.000
351.044;  -90.450; -685.000; -615.000
351.177;  -13.325; -321.000; -281.000
351.310;  -18.850;    3.000; -131.000
351.444;  -66.250; -888.000; -788.000
351.577;  164.725;  140.000;   90.000
351.710;  100.100;  593.000;  417.000
351.843;  -16.000; -165.000;  -77.000
351.976;    1.600;  149.000;  -79.000
352.109;  -76.175; -621.000; -612.000
352.242;  -17.750; -464.000; -419.000
352.376;  -24.175; -580.000; -636.000
352.509;  237.200; -437.000; -356.000
352.642;   48.800; -654.000; -604.000
352.775;   81.250; -141.000;  -98.000
352.908;  -99.525; -933.000; -904.000
353.041;  -93.650; -814.000; -824.000
353.174;  -39.875; -551.000; -424.000
353.307;  -83.450; -753.000; -764.000
353.440;   95.100;  541.000;  453.000
353.573; -113.375; -957.000;-1008.000
353.706;  -37.225; -384.000; -558.000
353.839;  -18.725; -264.000; -220.000
353.971;  -78.450; -657.000; -512.000
354.104;  -71.050; -896.000; -835.000
354.237;  -13.300; -627.000; -662.000
354.370;  -76.150; -846.000; -879.000
354.503; -177.900;-1231.000;-1308.000
354.636;  -23.350; -529.000; -348.000
354.769; -122.000; -937.000; -860.000
354.902;   12.175; -230.000; -139.000
355.034;  -18.225; -164.000; -220.000
355.167;  -19.750; -262.000; -162.000
355.300; -101.625;-1061.000; -880.000
355.433;  914.675;  -71.000;  -14.000
355.565; 1382.900; -402.000; -384.000
355.698;  361.525; -356.000; -296.000
355.831;   11.275; -882.000; -801.000
355.964;  111.200; -285.000; -170.000
356.096;  -67.925; -856.000; -843.000
356.229;   31.675; -523.000; -530.000
356.362;  294.950; -373.000; -266.000
356.494;  558.950; -229.000; -162.000
356.627;  554.775;  269.000;  377.000
356.760;  638.825;  120.000;   53.000
356.892;  872.725; -286.000; -601.000
357.025;  771.975;  403.000;  389.000
357.157;  733.075; -167.000; -179.000
357.290;  556.200; -856.000; -713.000
357.423;  192.150; -667.000; -556.000
357.555;  141.400; -217.000; -228.000
357.688;  158.900; -483.000; -364.000
357.820;  526.025; -870.000; -877.000
357.953; 4160.925; -563.000; -589.000
358.085;  941.150; -632.000; -612.000
358.218; 1516.250;-1131.000; -932.000
358.350;  256.000;  -58.000;  312.000
358.483; -100.950;-1300.000;-1187.000
358.615;   13.550;-1182.000;-1078.000
358.747;  -14.500;-1187.000;-1058.000
358.880;   49.200; -810.000; -744.000
359.012;   -1.350; -376.000; -202.000
359.145;  -43.000; -480.000; -511.000
359.277;   94.650; -962.000; -913.000
359.409; 3469.825;  536.000;  231.000
359.542;  894.350; -738.000; -688.000
359.674;   91.525;   46.000;   13.000
359.806;  -41.525; -565.000; -438.000
359.939;  -36.900; -617.000; -516.000
360.071;  -18.700; -583.000; -579.000
360.203;  -16.525; -411.000; -364.000
360.335;   58.275;  164.000;  -16.000
360.468;  219.075; -249.000; -307.000
360.600; 2679.600; -547.000; -454.000
360.732; 2529.575; -546.000; -423.000
360.864;  331.025;-1216.000;-1044.000
360.996;  364.200; -516.000; -554.000
361.129;   95.225; -389.000; -598.000
361.261;   28.025;  110.000; -113.000
361.393;  -24.650; -252.000; -214.000
361.525;   41.250;   94.000;  244.000
361.657;  -39.700; -821.000; -703.000
361.789;   20.000; -139.000; -155.000
361.921;  313.900; -642.000; -593.000
362.053;  314.700;  524.000;  541.000
362.185;   68.050;  288.000;   72.000
362.318;  -77.575; -709.000; -705.000
362.450;  162.100;  294.000;  444.000
362.582;  205.825; -913.000; -870.000
362.714;  -22.050; -353.000; -332.000
362.846;  -81.550; -606.000; -490.000
362.978; -129.525; -941.000; -811.000
363.109;   81.300; -161.000; -260.000
363.241;  526.975; -739.000; -749.000
363.373;  406.625; -649.000; -564.000
363.505;  607.575; -186.000;  -91.000
363.637;  124.200; -787.000; -601.000
363.769; -110.900;-1067.000;-1080.000
363.901;  -65.150; -596.000; -654.000
364.033; -115.700;-1103.000;-1062.000
364.165;    7.800; -283.000; -283.000
364.296;   70.400; -316.000; -177.000
364.428;   50.025;-1344.000;-1220.000
364.560;  -75.225; -679.000; -661.000
364.692;  -56.900; -738.000; -835.000
364.824;  359.100; -588.000; -456.000
364.955;  434.350; -402.000; -564.000
365.087;  755.250;-1097.000; -852.000
365.219;   27.675; -686.000; -816.000
365.351;  -64.550; -526.000; -572.000
365.482;   66.825;  300.000;  240.000
365.614;  -41.975; -402.000; -314.000
365.746;  -86.150; -729.000; -752.000
365.877;  -96.450; -706.000; -672.000
366.009;  238.800;  -35.000;  -62.000
366.141;  -94.875;-1249.000;-1134.000
366.272; -107.250; -803.000; -719.000
366.404;  -95.325;-1005.000; -874.000
366.535;   -8.925; -139.000;  -12.000
366.667; -113.725; -644.000; -649.000
366.799;   45.825;  353.000;  203.000
366.930; -112.700; -862.000; -996.000
367.062;  116.950; -639.000; -613.000
367.193;  118.550; -872.000; -842.000
367.325;  -61.625; -580.000; -684.000
367.456;  115.825; -246.000;   31.000
367.588;  150.600; -371.000; -318.000
367.719;   29.375;  -44.000;  -45.000
367.851;    2.125; -222.000; -241.000
367.982;  -17.400; -875.000; -732.000
368.113;  134.575; -475.000; -358.000
368.245; -100.600; -960.000; -841.000
368.376;  -28.325; -254.000; -302.000
368.508;  -33.700; -188.000; -263.000
368.639; -132.750;-1166.000;-1034.000
368.770;   21.775; -670.000; -589.000
368.902;  -33.225; -836.000; -926.000
369.033; -100.425; -906.000; -855.000
369.164;  -56.650; -720.000; -653.000
369.296; -109.125; -452.000; -601.000
369.427;    8.850; -209.000; -144.000
369.558;  -17.725; -593.000; -377.000
369.689;  -84.850; -721.000; -569.000
369.821; -116.025; -951.000; -845.000
369.952;  -20.325;   42.000; -108.000
370.083;  -44.175; -229.000; -108.000
370.214;  -81.925; -735.000; -650.000
370.345;    3.525;   65.000;   81.000
370.477;  -88.200; -810.000; -790.000
370.608;  295.050; -328.000; -264.000
370.739;  -27.050;-1233.000;-1292.000
370.870;   -9.700;-1102.000; -923.000
371.001;  119.250; -378.000; -467.000
371.132;  -73.675; -754.000; -735.000
371.263;  -15.475;  -42.000; -148.000
371.394; -125.975; -841.000; -748.000
371.525;   31.700;  345.000;  225.000
371.657;  -78.400; -808.000; -670.000
371.788;   92.475;  103.000;  199.000
371.919;  234.575; -384.000; -304.000
372.050; 4278.875;  -91.000; -156.000
372.181; 1269.300; -188.000; -294.000
372.311;  444.825;   42.000; -127.000
372.442;   72.425; -457.000; -451.000
372.573;  -15.675; -444.000; -340.000
372.704; -103.625;-1008.000; -980.000
372.835;  103.600; -228.000; -289.000
372.966;  -59.025; -646.000; -554.000
373.097;  -61.050; -575.000; -711.000
373.228;  -15.500; -717.000; -542.000
373.359;  186.925; -824.000; -536.000
373.490; 1160.925; -881.000; -727.000
373.620; 1394.875;-1001.000; -803.000
373.751; 2197.100; -332.000; -396.000
373.882;  950.700; -663.000; -733.000
374.013;  118.525; -449.000; -262.000
374.143;  -27.975; -581.000; -659.000
374.274;  -87.925; -987.000; -908.000
374.405;  209.125; -388.000; -276.000
374.536;  575.925; -526.000; -387.000
374.666; 1392.700; -759.000; -807.000
374.797;  305.325; -817.000; -868.000
374.928; 1093.925; -710.000; -560.000
375.058; 1073.675; -535.000; -500.000
375.189;  110.300;  -59.000;  -93.000
375.320;  -93.350; -928.000;-1034.000
375.450;  -32.125; -625.000; -616.000
375.581;  -46.500; -526.000; -436.000
375.712;  -28.075; -574.000; -250.000
375.842;  390.150; -438.000; -415.000
375.973;  272.825; -554.000; -513.000
376.103;  -22.550; -665.000; -648.000
376.234;  -72.000; -531.000; -552.000
376.364;    8.625; -944.000; -867.000
376.495;  384.375;  925.000;  529.000
376.625;   26.025; -472.000; -485.000
376.756;   98.375; -709.000; -678.000
376.886;  -44.750;-1178.000;-1026.000
377.017;   32.875;-1048.000;-1061.000
377.147;  279.225; -786.000; -782.000
377.278;   54.950;  174.000;  228.000
377.408; -125.700; -801.000; -815.000
377.538;  -97.625; -707.000; -693.000
377.669;  -72.000; -537.000; -613.000
377.799;  -73.150; -645.000; -635.000
377.929;  -29.825; -610.000; -428.000
378.060; -126.625; -781.000; -847.000
378.190;  -40.375; -726.000; -531.000
378.320;  -42.000; -401.000; -406.000
378.451;   -7.450; -131.000;  -22.000
378.581;   -1.275;  -67.000; -110.000
378.711;  173.225; 1035.000;  866.000
378.841;   -9.525; -533.000; -675.000
378.972;  -39.875; -871.000; -751.000
379.102;    6.900; -652.000; -579.000
379.232;   -9.950; -126.000;  -73.000
379.362;  -84.075;-1001.000; -885.000
379.492;   44.525; -373.000; -424.000
379.623;  139.150;    0.000;  111.000
379.753;  -81.975;-1107.000; -974.000
379.883;  233.950;   59.000;  156.000
380.013;   45.200;-1081.000;-1017.000
380.143;  -90.750;-1097.000;-1056.000
380.273;  -89.175; -985.000; -861.000
380.403;   14.500; -344.000; -257.000
380.533;   -2.600; -651.000; -664.000
380.663;  108.800;  173.000;  128.000
380.793;  -70.100;-1027.000;-1074.000
380.923;  -16.225; -103.000;  -34.000
381.053;  -90.975; -613.000; -623.000
381.183;  -40.675; -106.000; -248.000
381.313;   74.475; -656.000; -470.000
381.443;   70.700; -692.000; -473.000
381.573;  277.275; -402.000; -409.000
381.703;  391.375;-1249.000;-1095.000
381.833; -109.000;-1454.000;-1336.000
381.963;  126.625; -134.000;  -87.000
382.093; 1631.575; -925.000; -909.000
382.223;  482.850; -713.000; -602.000
382.353;   23.275; -801.000; -608.000
382.482;  508.600;-1091.000; -964.000
382.612;  928.600; -872.000; -644.000
382.742;  524.325; -695.000; -622.000
382.872;  379.400; -565.000; -551.000
383.002;   80.175;  347.000; -132.000
383.131;   -3.575; -226.000; -160.000
383.261;  -23.250; -706.000; -768.000
383.391;  306.000; -552.000; -377.000
383.521; 2820.525;  451.000;  263.000
383.650;  602.000; -947.000; -904.000
383.780;  -22.875; -783.000; -656.000
383.910;  130.375;  880.000;  802.000
384.039;   44.375; -794.000; -656.000
384.169;  290.600;-1205.000;-1017.000
384.299;    8.575; -650.000; -662.000
384.428;  -72.250; -764.000; -680.000
384.558;  -38.150; -308.000; -275.000
384.687;  -22.000; -414.000; -334.000
384.817;   24.250;   75.000;   -2.000
384.947;   43.500; -234.000; -141.000
385.076;  335.650;  982.000;  912.000
385.206;  116.650;  369.000;  480.000
385.335;   -7.625; -549.000; -417.000
385.465;  -57.550; -655.000; -663.000
385.594;  181.450;  -53.000;  -44.000
385.724;  557.600; -868.000; -838.000
385.853;  173.225; -296.000; -270.000
385.982; 1706.450; -743.000; -787.000
386.112; 2588.350;-1052.000; -871.000
386.241;  196.525; -307.000; -312.000
386.371;   29.350; -174.000;  -87.000
386.500;   18.150; -825.000; -789.000
386.629;   37.325; -874.000; -817.000
386.759;   84.850;  -43.000;   68.000
386.888;   16.975; -170.000; -250.000
387.017;  -53.875; -648.000; -620.000
387.147;  -73.050; -771.000; -798.000
387.276;   30.425; -410.000; -397.000
387.405;   27.850; -398.000; -342.000
387.535;  -26.575; -452.000; -361.000
387.664;  -50.000; -692.000; -620.000
387.793;   89.500; -198.000; -113.000
387.922;  635.300;  255.000;  200.000
388.052;   53.300; -576.000; -423.000
388.181;   41.325; -342.000; -472.000
388.310;   48.050; -889.000; -710.000
388.439;  -17.100; -749.000; -742.000
388.568;  248.675;  365.000;  244.000
388.697; 1309.025; -756.000; -653.000
388.826;  275.150; -768.000; -666.000
388.956;   94.000; -285.000; -307.000
389.085;  -30.800; -347.000; -287.000
389.214; -106.650; -842.000; -872.000
389.343;  -47.900; -645.000; -413.000
389.472;  370.800;  126.000;  149.000
389.601;  503.150;   91.000;    0.000
389.730;   34.125; -568.000; -687.000
389.859;   76.400;  226.000;   46.000
389.988;  248.450; -423.000; -408.000
390.117;  190.700; -168.000; -146.000
390.246;  -10.125; -331.000; -320.000
390.375;  146.625; -673.000; -626.000
390.504;  -55.975; -703.000; -621.000
390.633;  -87.400; -672.000; -726.000
390.761;  -55.175; -732.000; -645.000
390.890;   44.000;   -4.000; -130.000
391.019;  -16.475; -421.000; -441.000
391.148; -119.050; -826.000; -855.000
391.277;  -43.150; -576.000; -493.000
391.406;  -54.050; -821.000; -805.000
391.534;    6.225;  574.000; -301.000
391.663;  -61.000; -583.000; -645.000
391.792;  -79.925; -673.000; -701.000
391.921;  151.875;   -3.000;   15.000
392.050;  266.100; -287.000; -228.000
392.178;   -0.500;-1206.000;-1061.000
392.307;  204.250; -758.000; -712.000
392.436;  113.600; -427.000; -641.000
392.564;   21.825;  166.000;   -6.000
392.693;  -84.300; -860.000; -682.000
392.822;  269.000; -529.000; -534.000
392.950;  149.675; -880.000; -714.000
393.079;  406.225; -188.000; -328.000
393.208;   45.075; -488.000; -511.000
393.336;  -10.875; -170.000; -145.000
393.465;  -55.575; -317.000; -199.000
393.593;   -2.450;   62.000;   79.000
393.722; -160.375;-1121.000; -916.000
393.850;  -35.275; -188.000;  -61.000
393.979; -157.775; -926.000; -805.000
394.107;  -72.250; -517.000; -537.000
394.236;  -10.675; -570.000; -507.000
394.364;  215.525;  383.000;  206.000
394.493;  314.000; -911.000; -767.000
394.621;  -30.175; -955.000; -916.000
394.750;  651.350; -873.000; -923.000
394.878; 2709.400; -247.000; -149.000
395.007; 3607.425; -721.000; -807.000
395.135;  251.425; -790.000; -721.000
395.263;  -87.950;-1038.000;-1040.000
395.392;   -6.175;  -25.000; -107.000
395.520; -118.850; -818.000; -679.000
395.648;  -73.600; -865.000; -915.000
395.777;    4.450; -366.000; -405.000
395.905;  -49.025; -449.000; -564.000
396.033;   14.325;  217.000;  172.000
396.162;  522.750; -399.000; -453.000
396.290;  454.050;  -17.000;   -2.000
396.418;  134.275; -555.000; -514.000
396.546;  -61.750; -571.000; -466.000
396.674;  -92.350; -850.000; -878.000
396.803;   17.875;  -72.000;  -23.000
396.931;  122.025; -179.000; -199.000
397.059;  118.500;-1026.000; -989.000
397.187;  -96.400;-1026.000; -975.000
397.315; -126.850; -884.000; -649.000
397.443;  -87.250; -592.000; -443.000
397.572; -100.675; -578.000; -424.000
397.700;    3.750; -607.000; -614.000
397.828;   32.800;  120.000;  -90.000
397.956;  -44.175; -508.000; -478.000
398.084;  -77.600; -767.000; -626.000
398.212;   48.950;  137.000;  124.000
398.340;   31.375;  -56.000;  159.000
398.468;   51.900; -390.000; -169.000
398.596; -119.075; -993.000; -953.000
398.724; -118.125; -762.000; -767.000
398.852; -149.125;-1024.000; -976.000
398.980;  -61.500; -560.000; -560.000
399.108;  -34.325; -982.000; -735.000
399.236;   56.900;   13.000;    8.000
399.363;   12.800;  222.000;  196.000
399.491;  -68.500; -404.000; -398.000
399.619; -130.150; -829.000; -800.000
399.747;  -98.225; -859.000; -771.000
399.875;  100.150;  220.000;  234.000
400.003;  -47.025; -359.000; -284.000
400.130;  -98.025; -421.000; -341.000
400.258;  -34.500;  -83.000;   38.000
400.386;  -66.925; -352.000; -168.000
400.514;  -34.850; -526.000; -587.000
400.641;  -66.400; -928.000; -802.000
400.769; -141.250; -979.000; -888.000
400.897;  -93.500; -838.000; -793.000
401.025;   -0.150; -166.000; -152.000
401.152;    1.250;  220.000;   38.000
401.280;  -93.150; -430.000; -429.000
401.408; -106.175; -712.000; -576.000
401.535; -101.400; -735.000; -758.000
401.663; -189.025;-1134.000;-1054.000
401.790;  -79.575; -514.000; -525.000
401.918;   53.850;  436.000;  405.000
402.046;  -17.325;  134.000;  122.000
402.173;  -38.150;  -18.000;    7.000
402.301;  -58.425; -519.000; -397.000
402.428;   34.950;  528.000;  383.000
402.556; -135.625;-1188.000; -913.000
402.683;  -16.700;  -20.000;   -1.000
402.811;  -19.775;  -37.000; -206.000
402.938;    5.200;   20.000;   27.000
403.066;  264.850; -574.000; -558.000
403.193;  432.350;  299.000;  239.000
403.321;  332.625; -396.000; -574.000
403.448;  396.400;   83.000;   27.000
403.575;  188.675;  -90.000;  -46.000
403.703;  -90.600; -732.000; -557.000
403.830;  -68.200; -531.000; -496.000
403.957; -133.100;-1117.000;-1023.000
404.085;   11.400;  -61.000; -172.000
404.212;  105.625;  -50.000;   63.000
404.339;  243.600; -566.000; -306.000
404.467; 5328.375; -612.000; -524.000
404.594; 3683.200; -287.000; -227.000
404.721;  954.350; -869.000; -764.000
404.848;   84.400; -113.000; -202.000
404.976;  -94.575; -856.000; -783.000
405.103;  -26.975;  -14.000;  -82.000
405.230;    2.725;  190.000;  226.000
405.357;   28.425;  117.000;   44.000
405.484;  252.875;  -49.000;    5.000
405.612;   55.925; -548.000; -563.000
405.739;  -59.275; -488.000; -243.000
405.866;   96.600;  669.000;  385.000
405.993;  -31.275; -398.000; -102.000
406.120; -147.025; -801.000; -887.000
406.247;  -48.100; -323.000; -342.000
406.374;  547.175;  540.000;  629.000
406.501;  167.375; -632.000; -702.000
406.628;  -82.350; -621.000; -589.000
406.755;  -76.225; -803.000; -620.000
406.882;  -31.600; -228.000; -277.000
407.009; -100.625; -719.000; -628.000
407.136;   69.450; -480.000; -401.000
407.263;  214.175; -939.000; -829.000
407.390;  -71.575; -692.000; -614.000
407.517; -162.050;-1139.000;-1187.000
407.644;  -57.225; -332.000; -256.000
407.771;  -63.275; -249.000; -287.000
407.898;   11.475;  168.000;  328.000
408.025;  -54.025; -421.000; -313.000
408.151;  -11.050;   82.000;  153.000
408.278;  -62.450; -267.000; -216.000
408.405; -119.000; -931.000; -899.000
408.532;  -70.550; -549.000; -542.000
408.659; -119.025; -677.000; -648.000
408.785; -186.450;-1298.000;-1170.000
408.912;  -60.700; -412.000; -296.000
409.039; -117.450; -610.000; -686.000
409.166; -101.550; -591.000; -555.000
409.292; -108.650; -571.000; -534.000
409.419; -128.900; -665.000; -649.000
409.546;  -90.250; -431.000; -192.000
409.672; -110.525; -713.000; -545.000
409.799;  -15.825;  -36.000;   34.000
409.926;  -30.875; -180.000; -179.000
410.052; -173.025;-1127.000;-1091.000
410.179;  -68.050; -368.000; -392.000
410.305;  -86.200; -375.000; -493.000
410.432;  -49.950; -220.000; -333.000
410.558;  -88.200; -305.000; -380.000
410.685; -111.525; -688.000; -431.000
410.812;  -91.550; -409.000; -588.000
410.938; -139.625; -964.000; -808.000
411.065; -105.225; -671.000; -645.000
411.191;   -5.525; -189.000; -174.000
411.317; -112.950; -823.000; -742.000
411.444;  -65.875; -317.000; -246.000
411.570;  -69.850; -339.000; -294.000
411.697; -142.600; -758.000; -752.000
411.823; -169.925; -989.000; -999.000
411.949;  -31.650;  -56.000;   17.000
412.076;  -99.450; -539.000; -519.000
412.202; -143.450; -758.000; -757.000
412.329; -118.700; -798.000; -752.000
412.455; -114.475; -821.000; -657.000
412.581;  -19.825;  -15.000;  172.000
412.707;  -51.725; -540.000; -457.000
412.834;   19.150;  156.000;  219.000
412.960;  -77.775; -785.000; -784.000
413.086;  -87.875; -743.000; -701.000
413.212;  173.175;  604.000;  578.000
413.339;  -42.200; -685.000; -701.000
413.465;   20.225; -364.000; -310.000
413.591;  -75.500; -757.000; -474.000
413.717;  -49.425; -358.000; -366.000
413.843; -135.650; -839.000; -861.000
413.969;  -55.475;  -47.000; -292.000
414.096;  -98.025; -679.000; -679.000
414.222;   -5.500;  -33.000;   85.000
414.348;   -8.675; -652.000; -385.000
414.474;  136.350;   38.000;  -52.000
414.600;   -6.550; -126.000; -144.000
414.726;   -4.850;  -96.000;  -55.000
414.852;  -55.150; -365.000; -342.000
414.978;   24.275;  104.000;  -18.000
415.104;   42.400;   38.000;   80.000
415.230;   23.175; -329.000; -330.000
415.356;   48.075; -409.000; -514.000
415.482;  195.725;   13.000;  -35.000
415.608;  265.025; -247.000; -323.000
415.734;  917.450;   67.000;   38.000
415.860;19223.200; -875.000; -767.000
415.986;13435.025; -685.000; -607.000
416.111; 1133.825; -798.000; -652.000
416.237;  240.950; -424.000; -571.000
416.363; 1054.725; -765.000; -733.000
416.489; 3795.425; -324.000; -251.000
416.615;  373.225; -707.000; -742.000
416.741;  -36.975; -677.000; -784.000
416.866;  -91.000; -673.000; -736.000
416.992; -128.000; -801.000; -818.000
417.118;  -23.800;  -41.000;  -80.000
417.244;  -57.225; -798.000; -531.000
417.369;  -82.850; -801.000; -612.000
417.495;   -4.775; -325.000; -254.000
417.621;  -65.500;-1015.000; -803.000
417.746;   -4.225; -579.000; -572.000
417.872;   54.500; -254.000; -144.000
417.998;   33.425; -515.000; -530.000
418.123;  985.650;-1073.000; -845.000
418.249; 4960.025; -512.000; -601.000
418.374;  653.500; -916.000; -824.000
418.500;   93.425; -383.000; -482.000
418.626;  109.425;   70.000;  -59.000
418.751;  116.250; -549.000; -448.000
418.877;  180.325; -637.000; -643.000
419.002; 1705.950; -688.000; -560.000
419.128;11561.000; -930.000; -721.000
419.253; 2701.650; -967.000; -837.000
419.379;  367.375; -391.000; -338.000
419.504;  375.200;  325.000;  415.000
419.629;  474.725; -393.000; -212.000
419.755; 3273.725; -317.000; -254.000
419.880;18828.175;  -98.000;   67.000
420.006;10568.625; -280.000; -221.000
420.131;27312.850; -662.000; -775.000
420.256; 3810.575; -315.000; -316.000
420.382;  512.025; -665.000; -687.000
420.507;   51.125; -649.000; -778.000
420.632;  205.225; -337.000; -339.000
420.758;  321.025; -251.000; -425.000
420.883;  -76.525; -876.000; -672.000
421.008;  -85.825; -775.000; -619.000
421.133;  -66.525; -509.000; -467.000
421.259;  -47.375; -325.000; -259.000
421.384; -112.050; -834.000; -693.000
421.509;  -10.800;-1052.000; -862.000
421.634; 1572.050; -936.000; -820.000
421.759;  647.025; -359.000; -327.000
421.885;  -28.950; -717.000; -656.000
422.010;  -68.175; -673.000; -542.000
422.135; -131.825; -695.000; -727.000
422.260;   37.300;  340.000;  280.000
422.385;  -45.475;   12.000;  -98.000
422.510;   11.200;  151.000;  -26.000
422.635;   24.175;  -87.000;  -43.000
422.760;  104.550; -766.000; -791.000
422.885;   57.975;  -57.000;  -80.000
423.010;  -38.800; -112.000; -169.000
423.135;  -91.900; -481.000; -561.000
423.260;   -6.575; -150.000; -245.000
423.385;   91.650;  476.000;  222.000
423.510;   32.800;   71.000;  -22.000
423.635;  108.650;  133.000;   45.000
423.760;   55.950;  383.000;  328.000
423.885;   64.950;  336.000;  391.000
424.010;   26.550;  -68.000;  -13.000
424.135;  -20.025;    5.000;  -33.000
424.259;  -85.475; -654.000; -457.000
424.384;  -62.375; -279.000; -272.000
424.509;  -25.675; -260.000; -186.000
424.634; -104.150; -761.000; -623.000
424.759;  -26.775; -688.000; -544.000
424.883;   -6.900; -506.000; -527.000
425.008;  159.550; -502.000; -410.000
425.133; 1853.700; -679.000; -653.000
425.258;  841.875; -517.000; -381.000
425.382; 1198.625; -867.000; -774.000
425.507; 3047.025; -487.000; -543.000
425.632;  466.975; -802.000; -663.000
425.756;  423.625; -256.000; -146.000
425.881; 5865.900; -831.000; -857.000
426.006;15124.950; -604.000; -355.000
426.130; 2361.250; -696.000; -508.000
426.255;  303.600; -611.000; -491.000
426.379;  147.625; -189.000; -577.000
426.504;  341.200;  660.000;  544.000
426.629; 3896.100; -519.000; -466.000
426.753; 2571.500;   64.000;  -46.000
426.878;  306.075; -252.000; -288.000
427.002;  151.325; -651.000; -668.000
427.127; 1563.525;  -35.000; -158.000
427.251;10516.650;  372.000;  401.000
427.375; 2896.975; -191.000; -173.000
427.500; 2624.650; -616.000; -610.000
427.624;  898.375; -234.000; -400.000
427.749;  107.100; -216.000; -225.000
427.873;  -37.875; -499.000; -412.000
427.997;  -50.825; -222.000; -230.000
428.122;   84.775;  795.000;  703.000
428.246;   87.225;  433.000;  434.000
428.371; -117.200; -869.000; -773.000
428.495; -107.050; -624.000; -646.000
428.619;  -28.325; -186.000; -117.000
428.743;   34.325;   65.000;  132.000
428.868;   51.775; -732.000; -643.000
428.992; 1682.500; -219.000; -326.000
429.116;  690.325; -329.000; -357.000
429.240;  339.600;  419.000;  426.000
429.365;  -10.500; -454.000; -574.000
429.489;  -37.925; -638.000; -647.000
429.613;   16.175; -236.000; -177.000
429.737;   19.525; -563.000; -432.000
429.861;  265.075; -247.000; -133.000
429.985; 5281.075; -425.000; -305.000
430.109; 5624.150; -770.000; -908.000
430.234;  639.975;   76.000;  -50.000
430.358;   54.675; -250.000; -160.000
430.482;  -59.775; -672.000; -564.000
430.606;  -60.325; -655.000; -375.000
430.730;   43.550; -437.000; -388.000
430.854;  191.775; -909.000; -835.000
430.978;  -50.750; -795.000; -764.000
431.102;  -79.475; -499.000; -422.000
431.226;  -99.575; -874.000; -815.000
431.350;   42.100;  345.000;  422.000
431.474;  -72.375; -661.000; -373.000
431.597; -138.325;-1060.000; -848.000
431.721;  -74.875; -276.000; -267.000
431.845; -134.700; -704.000; -472.000
431.969;  -86.875; -304.000; -349.000
432.093;  -95.000; -395.000; -317.000
432.217;  -13.800;   32.000;   82.000
432.341;  -87.975; -523.000; -518.000
432.464;    6.325;   96.000;   40.000
432.588;  276.600; -401.000; -329.000
432.712;  110.700;  -52.000;  -52.000
432.836;   44.925;  213.000;  263.000
432.959;  -22.450; -372.000; -311.000
433.083;   67.000;   11.000;    2.000
433.207;  343.525;  285.000;  930.000
433.330; 4684.750; -391.000; -200.000
433.454; 5589.575; -654.000; -638.000
433.578; 3305.500;  583.000;  278.000
433.701;  589.625; -623.000; -675.000
433.825;  177.775; -292.000; -299.000
433.949;  243.600;   28.000;  -72.000
434.072;  108.300; -410.000; -323.000
434.196;  -12.000; -309.000; -117.000
434.319; 3807.700;25482.000;25124.000
434.443;  758.325; -656.000; -603.000
434.566; 2456.725;  281.000;   62.000
434.690;  379.150; -637.000; -383.000
434.813;   45.175; -251.000; -173.000
434.937;  -71.150; -569.000; -696.000
435.060;  -25.500; -423.000; -332.000
435.184;  434.375; -492.000; -217.000
435.307;  235.000;  159.000;  102.000
435.431;    0.425;  -40.000;   24.000
435.554;  -81.450; -399.000; -240.000
435.677;  -80.350; -350.000; -258.000
435.801;  -37.050;  -25.000;   49.000
435.924;    8.500;    1.000;  -67.000
436.048; -102.150;-1019.000; -732.000
436.171;  -72.025; -240.000;  -66.000
436.294;  -31.275; -248.000; -229.000
436.417;   73.575; -963.000; -849.000
436.541;  -92.450; -814.000; -840.000
436.664;  -40.000; -242.000; -316.000
436.787;  -23.575;   13.000;  113.000
436.910; -114.225; -792.000; -422.000
437.034;   24.400;  142.000;  143.000
437.157;   72.375;  -11.000;    0.000
437.280;  -36.475; -392.000; -292.000
437.403;  -70.350; -982.000; -869.000
437.526;  920.050; -903.000; -865.000
437.649; 3046.275; -505.000; -332.000
437.772;  460.050; -692.000; -540.000
437.896;  143.650;  700.000;  544.000
438.019;  -81.650; -758.000; -503.000
438.142;  -80.725; -596.000; -506.000
438.265;   25.125; -639.000; -670.000
438.388;  716.600; -520.000; -410.000
438.511;  159.225; -597.000; -394.000
438.634;  -35.150; -247.000; -125.000
438.757; -126.500; -693.000; -619.000
438.880;  -38.425;  -34.000;  -57.000
439.003;  -78.225; -417.000; -437.000
439.126;  -74.475; -287.000; -167.000
439.248;  -60.525;  -98.000; -139.000
439.371;  -51.725;    9.000;  -53.000
439.494;   30.050;  510.000;  439.000
439.617;  -56.675;   65.000;  -88.000
439.740; -181.000; -968.000; -816.000
439.863; -146.900; -755.000; -595.000
439.986; -118.800; -476.000; -431.000
440.108;  -62.050; -161.000; -112.000
440.231; -160.125; -950.000; -836.000
440.354;  -36.250;  -64.000; -150.000
440.477;   68.800; -566.000; -542.000
440.599;   13.400; -200.000; -225.000
440.722; -118.875; -709.000; -586.000
440.845;   65.225;  751.000;  928.000
440.968; -116.525; -415.000; -311.000
441.090;  -74.500; -199.000;  -33.000
441.213; -171.750;-1021.000; -825.000
441.336;  -57.525; -159.000;   -5.000
441.458;  -78.100; -549.000; -396.000
441.581;  -79.350; -628.000; -629.000
441.703;  -54.175; -152.000;   13.000
441.826; -127.375; -557.000; -400.000
441.948;  -49.600;   56.000;   51.000
442.071;   37.400;  555.000;  424.000
442.193;  -93.325; -531.000; -485.000
442.316;   25.100;  152.000;   97.000
442.438;   52.875; -233.000;  -10.000
442.561;   91.100;  272.000;  262.000
442.683;  728.275; -809.000; -522.000
442.806; 1548.150;   -8.000;   74.000
442.928;   79.575; -859.000; -604.000
443.051;  -52.750; -577.000; -373.000
443.173;  -83.400; -341.000; -339.000
443.295;  -96.775; -263.000; -371.000
443.418;  -68.025; -321.000;  -29.000
443.540;    2.325; -106.000;   -4.000
443.662; -103.475; -563.000; -465.000
443.785;  -23.175;  335.000;  199.000
443.907; -114.475; -362.000; -208.000
444.029; -132.100; -767.000; -494.000
444.152; -143.900; -644.000; -554.000
444.274;  -39.200;  -18.000;  -24.000
444.396; -117.950; -461.000; -221.000
444.518; -150.825; -691.000; -454.000
444.640; -113.100; -268.000; -111.000
444.763;  -25.125;  388.000;  249.000
444.885; -119.350; -432.000; -392.000
445.007;  -36.250;   35.000;   86.000
445.129; -124.325; -610.000; -515.000
445.251; -106.725; -372.000; -439.000
445.373; -139.775; -537.000; -386.000
445.495;    2.075;  242.000;  350.000
445.617;   55.775;  853.000;  753.000
445.739;  -64.675; -215.000;  -97.000
445.861;  -30.250; -245.000; -112.000
445.984;  -30.200; -267.000; -101.000
446.105;  277.275; -418.000; -251.000
446.227;  751.375; -176.000;  -19.000
446.349;   27.700; -358.000; -249.000
446.471;  -98.650; -615.000; -448.000
446.593;  -53.850; -316.000;   19.000
446.715;    6.375;  -67.000;   41.000
446.837;   71.275;  697.000;  832.000
446.959; -107.175; -457.000; -478.000
447.081; -136.800; -628.000; -518.000
447.203;   37.275;  862.000;  834.000
447.325;  -92.500; -270.000;   42.000
447.446;   -0.775;  286.000;  530.000
447.568; -150.675; -921.000; -803.000
447.690;  -90.950; -236.000; -245.000
447.812; -142.700; -798.000; -519.000
447.933;  -28.325;  155.000;  127.000
448.055;  -71.625; -306.000; -261.000
448.177;  185.000;   31.000;   79.000
448.299;  146.850; -935.000; -727.000
448.420;   33.850;  -25.000;  159.000
448.542;  -39.525;   -3.000;   33.000
448.664;  -31.175;  109.000;  322.000
448.785;  -27.550;  265.000;   83.000
448.907;  -72.025; -614.000; -353.000
449.028;  -19.000; -771.000; -471.000
449.150;   82.275;  492.000;  589.000
449.272; -186.125;-1044.000; -913.000
449.393;   24.325;  612.000;  694.000
449.515; -140.275; -634.000; -581.000
449.636;  -73.425; -264.000; -155.000
449.758;   99.275;  763.000;  622.000
449.879; -100.700; -498.000; -396.000
450.001;  -72.275; -149.000;  -49.000
450.122;  -33.425;  -95.000;  162.000
450.244;  -21.850;   37.000;  364.000
450.365; -105.500; -495.000; -301.000
450.486;  -32.475;   80.000;  268.000
450.608;   -8.600;  393.000;  326.000
450.729;   52.075;  578.000;  645.000
450.850;  -14.050; -574.000; -466.000
450.972;  644.375; -552.000; -389.000
451.093; 4361.425;  190.000;  588.000
451.214; 1813.825; -516.000; -337.000
451.336;  332.475;  773.000;  579.000
451.457;   39.750;  264.000;  393.000
451.578;  -44.350; -118.000;  -74.000
451.699; -118.575; -546.000; -540.000
451.821;  -79.075; -284.000;  -50.000
451.942;  -12.850;  278.000;  285.000
452.063;   20.775;  228.000;  419.000
452.184;  519.500;  -54.000;  -49.000
452.305; 1018.000;  103.000;  170.000
452.427;   87.250; -549.000; -301.000
452.548;  -18.575;   23.000;   79.000
452.669;  -50.300; -257.000;  -89.000
452.790;  -32.150;    3.000;  -18.000
452.911;  -21.500;  195.000;  259.000
453.032;  -53.875; -289.000;  -60.000
453.153;  -44.600;  -29.000;   81.000
453.274;   53.400;  737.000;  868.000
453.395;  -42.525;  -51.000;  175.000
453.516;  141.075; 1317.000; 1388.000
453.637;  -70.225; -205.000; -150.000
453.758;  -60.400;   15.000;   69.000
453.879; -120.175; -462.000; -250.000
454.000;   76.100; 1086.000;  948.000
454.121; -105.725; -554.000; -326.000
454.242; -117.925; -599.000; -383.000
454.362;  -57.900;  -99.000;  114.000
454.483;  -49.775; -309.000; -229.000
454.604;   70.150;  512.000;  580.000
454.725; -133.500; -627.000; -555.000
454.846; -112.575; -474.000; -406.000
454.967;  -32.600;  230.000;  539.000
455.087;  -44.875;  179.000;  153.000
455.208;   11.475;  554.000;  856.000
455.329;  -73.950;  -22.000;   82.000
455.450;   24.750;  473.000;  633.000
455.570;  -76.825; -234.000; -211.000
455.691;  -57.075;  201.000;  407.000
455.812; -102.200; -270.000;  -92.000
455.932;  -52.350;  107.000;  -97.000
456.053;  -65.500;   36.000;   24.000
456.173; -123.925; -433.000; -355.000
456.294; -140.075; -476.000; -303.000
456.415;  -76.725;  -73.000;   70.000
456.535;  -42.800;  297.000;  273.000
456.656;  -45.825;  132.000;  240.000
456.776;  -65.375;    3.000;  298.000
456.897;   -3.450;  308.000;  513.000
457.017;  -76.500; -153.000;   -3.000
457.138; -107.800; -402.000; -249.000
457.258;  -23.125;  263.000;  224.000
457.379;  -14.750;  509.000;  521.000
457.499;  -34.050;  443.000;  432.000
457.620; -122.100; -407.000; -231.000
457.740; -104.925; -132.000;  -11.000
457.860;  -72.300;   87.000;   44.000
457.981;  -43.300;  132.000;  124.000
458.101;  -69.475;  -89.000;   40.000
458.221;  -12.300;  336.000;  402.000
458.342;  -82.825;   -4.000;  -37.000
458.462;   19.950;  617.000;  352.000
458.582;  -67.375; -302.000; -294.000
458.703;    1.125;  303.000;  154.000
458.823;  -35.975;   22.000;  163.000
458.943;   20.775;  341.000;  467.000
459.063;  -12.625; 1124.000;  192.000
459.183;  -33.275;  328.000;  313.000
459.304;    7.550;  315.000;  517.000
459.424;  -70.150; -246.000;  -89.000
459.544;  312.000;  388.000;  764.000
459.664;  777.525;  499.000;  506.000
459.784;  268.775; 1004.000; 1175.000
459.904;   57.025;  867.000;  744.000
460.024;   70.050;  867.000;  684.000
460.144;   11.400;  449.000;  554.000
460.264;   -2.275;  515.000;  327.000
460.385;  -91.475; -145.000; -119.000
460.505;   13.000;  905.000;  858.000
460.625; -100.450;  -17.000;  -68.000
460.745;  -24.800;  396.000;  541.000
460.864;  -50.000;  153.000;  469.000
460.984;   11.875;  499.000;  573.000
461.104;  132.575; 1656.000; 1775.000
461.224;   26.075;  657.000;  650.000
461.344;  -32.700;  431.000;  360.000
461.464;  -43.725;  258.000;  513.000
461.584;  -16.150;  283.000;  466.000
461.704;  -50.650;   58.000;  108.000
461.824;  -61.750;  238.000;  259.000
461.943;  -58.925;  191.000;  130.000
462.063;  -71.675;    2.000;  324.000
462.183;   36.475;  639.000;  717.000
462.303;  106.175; 1678.000; 1230.000
462.422;   20.225;  781.000;  840.000
462.542;  -22.575;  271.000;  391.000
462.662;   32.925;  353.000;  380.000
462.782;  214.975;  833.000;  572.000
462.901;  446.850;  545.000;  717.000
463.021;  265.925; 1702.000; 1638.000
463.141;  -22.600;  337.000;  770.000
463.260;   -9.525;  614.000;  474.000
463.380;   11.075;  902.000;  884.000
463.499;  -19.500;  342.000;  332.000
463.619;  -43.775;  581.000;  559.000
463.738;  110.175; 1644.000;  903.000
463.858;   15.925;  657.000;  811.000
463.978;  -32.975;  542.000;  396.000
464.097;   52.400;  921.000; 1114.000
464.217;  108.325; 1196.000; 1143.000
464.336;   93.900; 1068.000; 1130.000
464.455;  -46.575;  328.000;  659.000
464.575;   57.975;  597.000;  602.000
464.694;  187.725; 1204.000; 1179.000
464.814;  112.525; 1190.000; 1138.000
464.933;   77.850; 1095.000; 1027.000
465.052;   93.400; 1412.000; 1054.000
465.172;   91.450;  922.000;  799.000
465.291;  152.500; 1376.000; 1320.000
465.410;   23.000;  462.000;  735.000
465.530;   81.575; 1355.000; 1310.000
465.649;   65.800; 1209.000; 1273.000
465.768;  140.975; 1673.000; 1508.000
465.888;   58.975;  941.000; 1174.000
466.007;   93.950; 1335.000; 1440.000
466.126;   -3.850;  721.000;  641.000
466.245;   40.150; 1176.000; 1187.000
466.364;   44.300;  950.000; 1060.000
466.484;   39.225; 1024.000; 1213.000
466.603;   46.100; 1101.000; 1222.000
466.722;  131.475; 1490.000; 1769.000
466.841;   87.200; 1151.000; 1401.000
466.960;   36.625; 1069.000;  972.000
467.079;  127.325; 1971.000; 1786.000
467.198;   40.250; 1238.000; 1181.000
467.317;   91.575; 1768.000; 1162.000
467.436;   65.950; 1709.000; 1261.000
467.555;  123.475; 1796.000; 1746.000
467.674;   64.275; 1227.000; 1329.000
467.793;   51.475; 1376.000; 1374.000
467.912;   83.400; 1658.000; 1539.000
468.031;  130.050; 2038.000; 1930.000
468.150;  136.575; 1842.000; 1837.000
468.269;  202.600; 2313.000; 2090.000
468.388;  196.025; 2168.000; 2339.000
468.507;  254.600; 2884.000; 2903.000
468.626;  234.600; 2555.000; 2541.000
468.744;  124.725; 2018.000; 2174.000
468.863;  196.525; 2312.000; 2523.000
468.982;  110.650; 1503.000; 1555.000
469.101;  228.875; 2788.000; 2692.000
469.220;  167.950; 2333.000; 2176.000
469.338;  239.125; 2935.000; 3051.000
469.457;  202.025; 2719.000; 2545.000
469.576;  375.375; 3953.000; 3784.000
469.695;  227.950; 2877.000; 3066.000
469.813;  445.550; 4148.000; 4192.000
469.932;  424.450; 4255.000; 4485.000
470.051;  420.775; 4075.000; 4161.000
470.169;  830.775; 4470.000; 4338.000
470.288; 1398.950; 4700.000; 4809.000
470.406;  854.025; 5059.000; 5194.000
470.525;  628.825; 6101.000; 5787.000
470.644;  648.775; 6847.000; 6794.000
470.762;  838.350; 8397.000; 7873.000
470.881;  919.100; 8651.000; 8464.000
470.999; 1007.325; 9685.000; 9151.000
471.118; 1127.175;11174.000;10711.000

