
Integration time [ms]: 200.000
Averaging Nr. [scans]: 10
Smoothing Nr. [pixels]: 0
Data measured with spectrometer [name]: 2101012U2
Wave   ;Sample   ;Dark     ;Reference
[nm]   ;[counts] ;[counts] ;[counts] 

197.733;  116.000;  516.000;  404.000
197.879; -165.100; -610.000; -634.000
198.025;  -95.800; -475.000; -420.000
198.171; -136.100; -602.000; -612.000
198.317;  -66.400; -401.000; -316.000
198.463; -139.100; -655.000; -404.000
198.609;   58.300;  181.000; -137.000
198.755; -188.000; -644.000; -410.000
198.901; -138.600; -505.000; -424.000
199.047; -128.400; -615.000; -488.000
199.193; -102.600; -230.000; -468.000
199.339; -106.600; -222.000; -369.000
199.485;  103.400;  330.000;  271.000
199.631;   38.600;  227.000;  310.000
199.777; -122.400; -466.000; -398.000
199.923;  -97.000; -610.000; -424.000
200.069;   -8.800; -141.000;  -58.000
200.215;   90.700;  128.000;  453.000
200.361;  123.200;  243.000;  477.000
200.507; -137.600; -600.000; -373.000
200.653;  -68.800; -371.000; -194.000
200.798; -101.300; -215.000; -125.000
200.944;  -31.300; -146.000;  -41.000
201.090;   81.600;   61.000;  222.000
201.236;    5.600; -116.000; -158.000
201.382;  295.600;  874.000;  903.000
201.528;   -7.000;  -58.000;  -48.000
201.674; -143.600; -386.000; -293.000
201.819; -158.500; -540.000; -439.000
201.965; -176.700; -699.000; -447.000
202.111;  -46.600; -273.000; -226.000
202.257; -104.400; -250.000; -238.000
202.402;   71.900;   13.000;  -36.000
202.548;  -41.900; -169.000; -116.000
202.694;  186.700;  410.000; -183.000
202.840; -167.900; -603.000; -531.000
202.985; -143.500; -681.000; -639.000
203.131; -233.500; -832.000; -666.000
203.277;  -69.100; -199.000; -262.000
203.423; -101.400; -434.000; -520.000
203.568;  -82.500; -462.000; -237.000
203.714; -157.500; -535.000; -542.000
203.860; -161.200; -682.000; -641.000
204.005;   13.000;  112.000;  167.000
204.151;  137.600;  561.000;  556.000
204.296;  -70.900; -354.000; -221.000
204.442; -154.600; -600.000; -547.000
204.588; -157.800; -592.000; -579.000
204.733;   18.900;  178.000;  168.000
204.879; -252.700;-1018.000; -822.000
205.025;   18.000;  -99.000;  126.000
205.170;   12.000;  -17.000;   94.000
205.316;  153.100;  438.000;  661.000
205.461; -155.800; -698.000; -554.000
205.607;  183.300;  609.000;  665.000
205.752; -148.800; -626.000; -551.000
205.898;  -85.600; -501.000; -391.000
206.043; -144.100; -578.000; -506.000
206.189;  -72.500; -243.000; -285.000
206.334;  154.700;  554.000;  606.000
206.480;  164.700;  409.000;  239.000
206.625; -192.800; -529.000; -552.000
206.771;  -96.100; -451.000; -373.000
206.916;  -53.500; -210.000; -537.000
207.062; -114.900; -545.000; -591.000
207.207; -118.600; -546.000; -443.000
207.353;  115.000;  185.000;  460.000
207.498;   16.600;  196.000;   85.000
207.643; -114.100; -501.000; -370.000
207.789; -262.900;-1069.000; -910.000
207.934; -209.100; -665.000; -713.000
208.080;  -29.400; -154.000;   66.000
208.225;   -0.500;  -22.000;  -57.000
208.370; -192.000; -727.000; -619.000
208.516; -152.700; -741.000; -487.000
208.661;  -62.100; -127.000;  -69.000
208.806;  -41.000; -165.000; -171.000
208.952; -258.600;-1044.000; -731.000
209.097;  182.900;  378.000;  349.000
209.242;  -73.700; -307.000; -382.000
209.387;   93.800;  392.000;  350.000
209.533; -138.600; -321.000; -350.000
209.678;  150.700;  472.000;  543.000
209.823;  -83.400; -408.000; -310.000
209.969; -219.700; -860.000; -757.000
210.114; -231.300; -907.000; -719.000
210.259; -238.400; -939.000; -889.000
210.404;  -36.800; -171.000;  103.000
210.549;   28.400;  108.000;    3.000
210.695;  -23.200;   -3.000;  -95.000
210.840;   86.000;   94.000;   67.000
210.985; -128.000; -484.000; -303.000
211.130;  162.200;  268.000;  406.000
211.275;   18.600;  207.000;  199.000
211.420; -109.100; -300.000; -289.000
211.566; -182.000; -536.000; -489.000
211.711;   30.400;  218.000;  157.000
211.856; -133.300; -545.000; -519.000
212.001;   11.900;  151.000;   44.000
212.146;   31.600;  153.000;   49.000
212.291;  -34.700; -210.000; -186.000
212.436;  -68.600; -280.000;   -6.000
212.581; -176.900; -685.000; -653.000
212.726; -157.600; -487.000; -538.000
212.871;  -93.500; -552.000; -217.000
213.016; -311.100;-1172.000;-1029.000
213.161;  121.600;  406.000;  291.000
213.306; -175.700; -435.000; -577.000
213.451; -212.500; -778.000; -689.000
213.596;  -63.000; -455.000; -347.000
213.741; -122.600; -448.000; -538.000
213.886; -153.300; -498.000; -517.000
214.031;  -45.100; -294.000; -124.000
214.176; -111.300; -408.000; -341.000
214.321;  -18.500; -296.000; -157.000
214.466;  -52.300; -163.000;  -43.000
214.611;   21.000;  -61.000;  -10.000
214.756; -229.900; -948.000; -858.000
214.901;  -41.500; -388.000; -226.000
215.046; -248.300; -797.000; -825.000
215.191;   49.800;  128.000;   35.000
215.336;  -29.300; -157.000;  -19.000
215.480; -166.500; -684.000; -505.000
215.625;  -46.400; -175.000;  -19.000
215.770; -149.000; -757.000; -662.000
215.915;   43.600;   -5.000;  -97.000
216.060;   -1.800; -113.000;  -21.000
216.205; -219.700; -731.000; -779.000
216.349; -107.900; -470.000; -533.000
216.494; -276.100; -939.000; -867.000
216.639; -237.700; -823.000; -888.000
216.784; -175.100; -577.000; -525.000
216.929;  127.000;  392.000;  281.000
217.073;   -5.100; -244.000;  -31.000
217.218;   42.400;   78.000;  -47.000
217.363; -189.200; -656.000; -618.000
217.507; -160.700; -623.000; -588.000
217.652; -271.900; -845.000; -874.000
217.797; -191.600; -708.000; -659.000
217.942; -220.900; -856.000; -720.000
218.086;  136.500;  608.000;  539.000
218.231;  -54.000; -174.000;  -26.000
218.376;  -68.000; -337.000; -229.000
218.520;   14.700;  -41.000;   96.000
218.665;  -25.700; -338.000; -204.000
218.810; -111.300; -275.000; -233.000
218.954;   70.600;  201.000;   35.000
219.099; -250.400; -713.000; -963.000
219.243; -146.300; -589.000; -554.000
219.388;  -58.400; -264.000; -136.000
219.532;  -22.200; -116.000; -116.000
219.677; -154.400; -564.000; -521.000
219.822;    6.100;   33.000;   89.000
219.966;   28.300;   17.000;  -99.000
220.111;  -67.400; -328.000;  -40.000
220.255; -195.500; -797.000; -750.000
220.400;  -32.600; -180.000; -146.000
220.544; -153.700; -516.000; -450.000
220.689; -113.700; -422.000; -451.000
220.833;  -58.800; -123.000;  -58.000
220.978;  -92.500; -393.000; -563.000
221.122;   73.500;  319.000;  307.000
221.267; -255.300; -906.000; -837.000
221.411; -110.100; -478.000; -394.000
221.555;  -24.800; -104.000;  -23.000
221.700; -130.300; -329.000; -222.000
221.844;   85.800;  255.000;  272.000
221.989;  -95.400; -328.000; -311.000
222.133;  -57.000; -289.000; -307.000
222.277;  -25.600;    5.000;   78.000
222.422;   61.300;  227.000;  113.000
222.566;  -77.700; -381.000; -214.000
222.711; -121.300; -414.000; -479.000
222.855; -171.200; -643.000; -586.000
222.999; -174.400; -642.000; -717.000
223.144;  -54.800; -195.000; -194.000
223.288;  141.300;  423.000;  251.000
223.432;   26.700;  184.000;  230.000
223.576;   29.200;  152.000;  -21.000
223.721;   88.600;  364.000;  273.000
223.865; -138.100; -472.000; -475.000
224.009;  433.700; 1673.000; 1631.000
224.153; -161.500; -660.000; -671.000
224.298; -148.500; -531.000; -489.000
224.442;  -13.600;  -74.000;  -33.000
224.586;  -21.100; -169.000; -106.000
224.730; -199.000; -858.000; -670.000
224.875; -230.700; -739.000; -688.000
225.019;   24.400;  102.000;  188.000
225.163;  109.100;  208.000;  341.000
225.307;   18.000;   97.000;  -91.000
225.451;  107.900;  360.000;  481.000
225.595;  102.600;  264.000;  176.000
225.739;  -24.800; -170.000;  -94.000
225.884;   20.800;   86.000;    5.000
226.028; -223.600; -760.000; -626.000
226.172;  -48.400; -260.000; -273.000
226.316; -244.200; -941.000; -902.000
226.460; -154.000; -645.000; -493.000
226.604;  -95.800; -406.000; -400.000
226.748; -190.900; -836.000; -733.000
226.892;  -52.600; -227.000; -181.000
227.036;  -93.900; -537.000; -447.000
227.180; -127.400; -551.000; -375.000
227.324; -142.400; -561.000; -580.000
227.468; -237.100; -819.000; -717.000
227.612;   28.600;  242.000;  -28.000
227.756; -207.700; -845.000; -698.000
227.900;  115.400;  342.000;  441.000
228.044; -109.000; -509.000; -290.000
228.188;  159.600;  448.000;  568.000
228.332; -171.400; -546.000; -472.000
228.476;  -28.400; -223.000; -149.000
228.620;  -68.400; -210.000; -150.000
228.764;  135.800;  431.000;  349.000
228.908;  -16.900; -155.000;   30.000
229.052; -126.200; -615.000; -528.000
229.195;  -14.100; -172.000;   13.000
229.339;  -64.700; -235.000; -305.000
229.483;  -77.500;    5.000; -162.000
229.627;   -5.900; -156.000;  139.000
229.771;  -95.100; -218.000; -294.000
229.915;   23.000;  230.000;   79.000
230.059; -203.300; -648.000; -663.000
230.202;  -70.000; -370.000; -317.000
230.346;  -11.400; -107.000;  107.000
230.490; -138.300; -489.000; -521.000
230.634; -231.700; -736.000; -553.000
230.777;  186.500;  478.000;  509.000
230.921;  -86.400; -450.000; -359.000
231.065;  -63.400; -246.000; -286.000
231.209;   72.700;  261.000;  265.000
231.352;   50.000;   54.000;   40.000
231.496;   29.700;  568.000;  188.000
231.640; -181.700; -693.000; -621.000
231.783;  129.100;  546.000;  525.000
231.927;  -71.300; -294.000; -365.000
232.071; -263.000; -962.000; -736.000
232.214; -196.500; -980.000; -764.000
232.358; -215.800; -683.000; -599.000
232.502;    5.900;  -19.000;    7.000
232.645; -278.000;-1090.000; -927.000
232.789;  -40.900; -257.000; -218.000
232.933;  -85.300; -407.000; -224.000
233.076; -266.200;-1038.000; -897.000
233.220; -237.100; -752.000; -777.000
233.363; -149.800; -669.000; -477.000
233.507;  117.300;  371.000;  129.000
233.650; -197.700; -764.000; -834.000
233.794;   66.400;  438.000;  461.000
233.938; -118.200; -530.000; -362.000
234.081;  -37.600;  -93.000;   31.000
234.225; -126.600; -631.000; -539.000
234.368; -205.700; -773.000; -723.000
234.512;  -95.300; -385.000; -299.000
234.655; -183.600; -582.000; -555.000
234.798; -107.300; -493.000; -466.000
234.942; -269.000; -884.000;-1002.000
235.085; -158.500; -651.000; -443.000
235.229; -155.400; -405.000; -410.000
235.372;  -93.500; -247.000; -191.000
235.516; -134.400; -397.000; -321.000
235.659;   31.400;   92.000;  121.000
235.802;    0.400;  -38.000;  -22.000
235.946;   59.800;  335.000;  215.000
236.089;   90.300;  126.000;  250.000
236.233;  112.100;  275.000;  298.000
236.376; -119.900; -235.000; -378.000
236.519; -109.600; -297.000; -319.000
236.663;  -60.800; -215.000; -117.000
236.806; -278.500;-1029.000; -999.000
236.949;  118.700;  543.000;  431.000
237.092;  118.800;  412.000;  391.000
237.236; -154.400; -589.000; -502.000
237.379;  148.300;  352.000;  428.000
237.522; -257.400; -879.000; -768.000
237.666;  -26.600; -271.000;   18.000
237.809; -256.100; -851.000; -823.000
237.952;  101.100;  469.000;  271.000
238.095; -148.200; -447.000; -442.000
238.238;  223.600;  688.000;  700.000
238.382;    4.200;  166.000;  103.000
238.525; -132.800; -598.000; -511.000
238.668; -262.400;-1060.000; -985.000
238.811; -160.900; -638.000; -643.000
238.954; -136.400; -483.000; -334.000
239.097;  227.100;  617.000;  664.000
239.241;   80.000;  394.000;  326.000
239.384;  -51.000; -254.000; -214.000
239.527; -121.200; -424.000; -224.000
239.670; -316.200; -994.000;-1091.000
239.813; -217.600; -696.000; -658.000
239.956;  157.700;  579.000;  473.000
240.099; -235.600; -778.000; -725.000
240.242;  145.900;  428.000;  432.000
240.385;  130.400;  466.000;  450.000
240.528; -142.700; -706.000; -473.000
240.671;   40.100;  189.000;  134.000
240.814; -107.900; -441.000; -158.000
240.957; -200.500; -767.000; -578.000
241.100; -177.200; -779.000; -755.000
241.243; -319.900;-1234.000; -893.000
241.386; -118.200; -508.000; -379.000
241.529; -161.400; -735.000; -547.000
241.672; -128.100; -566.000; -495.000
241.815; -245.900; -832.000; -808.000
241.958;  -52.200; -125.000; -182.000
242.101; -146.100; -545.000; -390.000
242.244;  -59.000; -270.000; -325.000
242.387;  -56.200; -304.000; -246.000
242.530;  111.700;  470.000;  134.000
242.673;  -65.600; -381.000; -309.000
242.815; -236.900; -925.000; -899.000
242.958; -119.300; -482.000; -381.000
243.101;   32.200;  132.000;  187.000
243.244; -177.500; -564.000; -521.000
243.387;  -94.800; -313.000; -316.000
243.530; -193.600; -657.000; -674.000
243.672;   20.000;   43.000;  -92.000
243.815;  -97.300; -355.000; -283.000
243.958;    2.200;   98.000;  -26.000
244.101;  -20.500;   59.000;  -16.000
244.243;  -25.400;  -47.000;  101.000
244.386; -215.500; -761.000; -630.000
244.529;  -34.000; -132.000; -139.000
244.672; -323.700;-1154.000; -951.000
244.814; -225.900; -621.000; -794.000
244.957; -113.400; -380.000; -304.000
245.100; -127.500; -489.000; -489.000
245.242; -122.700; -387.000; -374.000
245.385;    8.800;  -59.000;  -39.000
245.528; -245.500; -871.000; -705.000
245.670;  221.700;  612.000;  634.000
245.813; -164.300; -599.000; -547.000
245.956;  -54.400; -324.000; -275.000
246.098; -146.500; -508.000; -650.000
246.241;   54.500;  194.000;   48.000
246.383;   -2.700; -119.000;  -73.000
246.526; -130.400; -454.000; -525.000
246.669; -236.700; -889.000; -780.000
246.811;   32.800;  172.000;   -1.000
246.954; -133.400; -512.000; -426.000
247.096;  -34.500;  -84.000;   -6.000
247.239; -130.200; -482.000; -445.000
247.381; -140.000; -647.000; -488.000
247.524;  225.600;  645.000;  679.000
247.666;    1.800;   58.000;   11.000
247.809; -254.000; -887.000; -691.000
247.951;  -14.500;  -75.000;  138.000
248.094;   49.300;  432.000;  308.000
248.236; -335.300;-1262.000;-1238.000
248.378;    2.500; -356.000;  -81.000
248.521;  -55.900; -334.000; -337.000
248.663;  -67.300; -236.000; -267.000
248.806;  -30.100; -300.000; -266.000
248.948; -192.800; -886.000; -763.000
249.090; -104.400; -428.000; -398.000
249.233;  -86.500; -344.000; -381.000
249.375; -103.700; -474.000; -451.000
249.518;  -40.400;  -83.000; -133.000
249.660;  -29.600; -103.000;    3.000
249.802; -348.500;-1303.000;-1189.000
249.945; -113.600; -612.000; -540.000
250.087; -231.700; -834.000; -768.000
250.229;  -71.700; -362.000; -480.000
250.371; -135.100; -494.000; -439.000
250.514;  -76.500; -310.000; -244.000
250.656;  -76.600;   69.000;  102.000
250.798; -238.100; -849.000; -800.000
250.940; -129.500; -322.000; -322.000
251.083;  -33.800; -335.000; -111.000
251.225;  135.000;  338.000;  310.000
251.367;  -87.400; -274.000; -373.000
251.509;  -42.500; -265.000; -210.000
251.651; -193.500; -731.000; -671.000
251.794;   96.900;  538.000;  632.000
251.936; -209.900; -821.000; -747.000
252.078; -192.400; -540.000; -461.000
252.220; -123.200; -645.000; -477.000
252.362;  156.900;  344.000;  462.000
252.504; -113.400; -677.000; -584.000
252.646; -230.900; -875.000; -722.000
252.788;  -16.000;   14.000; -128.000
252.931;  -55.900; -257.000; -253.000
253.073;  -61.900; -376.000; -317.000
253.215;    7.800;  141.000;  122.000
253.357;    7.100;   82.000; -153.000
253.499;  -95.800; -374.000; -234.000
253.641; -154.300; -749.000; -594.000
253.783; -188.400; -609.000; -527.000
253.925; -187.700; -586.000; -591.000
254.067; -205.500; -744.000; -667.000
254.209;  -45.300; -391.000; -259.000
254.351; -263.600; -865.000; -883.000
254.493;  -95.200; -441.000; -417.000
254.635; -243.600; -936.000; -818.000
254.777; -160.600; -752.000; -687.000
254.918; -190.000; -512.000; -430.000
255.060; -114.300; -551.000; -395.000
255.202; -137.800; -473.000; -261.000
255.344; -148.000; -658.000; -455.000
255.486; -141.900; -471.000; -406.000
255.628; -220.500; -780.000; -781.000
255.770; -182.200; -676.000; -536.000
255.912;  -86.200; -559.000; -468.000
256.053; -159.000; -730.000; -508.000
256.195;  334.500; 1008.000;  903.000
256.337; -193.100; -861.000; -595.000
256.479;  174.900;  532.000;  416.000
256.621;  -77.000; -394.000; -212.000
256.762; -172.800; -789.000; -742.000
256.904;  141.400;  485.000;  487.000
257.046;  -99.000; -381.000; -271.000
257.188;  -94.900; -351.000; -264.000
257.329; -138.600; -525.000; -464.000
257.471; -223.000; -939.000; -807.000
257.613; -121.000; -584.000; -498.000
257.755; -316.800;-1073.000; -982.000
257.896;  122.900;  286.000;  392.000
258.038; -142.900; -403.000; -352.000
258.180;  -83.400; -354.000; -279.000
258.321; -155.900; -581.000; -457.000
258.463;   14.700;  -71.000;  133.000
258.605; -162.100; -562.000; -570.000
258.746; -200.400; -886.000; -772.000
258.888; -290.100;-1026.000;-1020.000
259.029;   52.800;  121.000;   -8.000
259.171; -161.800; -614.000; -550.000
259.313;   13.200;  -49.000;  -47.000
259.454; -163.200; -536.000; -414.000
259.596; -150.000; -483.000; -390.000
259.737; -150.000; -590.000; -474.000
259.879;   74.000;  217.000;  311.000
260.020;  210.600;  901.000;  636.000
260.162;  -58.900; -146.000; -253.000
260.303; -211.600; -768.000; -687.000
260.445; -165.900; -609.000; -613.000
260.586;   47.500;  392.000;  157.000
260.728;  -78.400; -360.000; -248.000
260.869; -123.300; -350.000; -343.000
261.011;  178.600;  706.000;  537.000
261.152; -137.800; -479.000; -319.000
261.293; -144.900; -576.000; -595.000
261.435;  -39.900; -219.000; -184.000
261.576;  -98.500; -455.000; -325.000
261.718;  133.200;  420.000;  470.000
261.859; -242.400; -940.000; -949.000
262.000; -255.100; -951.000;-1016.000
262.142;  -15.800;  -52.000;  -60.000
262.283; -228.500; -808.000; -691.000
262.424; -172.600; -666.000; -625.000
262.566; -318.500;-1161.000; -983.000
262.707; -224.900; -840.000; -830.000
262.848; -238.100; -769.000; -726.000
262.990;  -79.300; -362.000; -345.000
263.131;  173.700;  650.000;  681.000
263.272;   10.800;  -61.000;  -41.000
263.413; -177.300; -589.000; -561.000
263.555; -140.400; -669.000; -143.000
263.696; -165.500; -550.000; -641.000
263.837; -124.900; -449.000; -551.000
263.978;    9.500;   -5.000;  -77.000
264.119; -101.400; -283.000; -264.000
264.261; -222.500; -847.000; -630.000
264.402;    8.500;   33.000;   40.000
264.543; -142.200; -509.000; -524.000
264.684;   11.800;   61.000;  -50.000
264.825; -131.400; -816.000; -538.000
264.966;   19.400;  -84.000;  -67.000
265.107; -236.700; -646.000; -670.000
265.248; -233.100; -825.000; -812.000
265.390;   -1.800;  152.000;   -9.000
265.531;    1.600; -238.000; -107.000
265.672; -189.400; -557.000; -630.000
265.813;  121.900;  563.000;  439.000
265.954; -293.800; -959.000; -940.000
266.095;    9.100; -372.000; -322.000
266.236; -205.500; -686.000; -548.000
266.377;  -84.200; -243.000; -297.000
266.518; -154.500; -619.000; -547.000
266.659;   61.400;  170.000;  268.000
266.800;   14.400;   83.000;   85.000
266.941; -151.100; -487.000; -478.000
267.082;   33.800;  354.000;   99.000
267.223; -103.200; -344.000; -273.000
267.364; -251.100; -892.000; -686.000
267.504;   -1.700;    3.000;  135.000
267.645;   22.900;  160.000;   67.000
267.786;  -37.200; -147.000;  -86.000
267.927; -100.800; -473.000; -379.000
268.068;  -17.700; -186.000;  -61.000
268.209;  -81.000; -175.000; -413.000
268.350; -124.000; -388.000; -532.000
268.490; -143.500; -648.000; -521.000
268.631;  115.200;  127.000;  225.000
268.772; -208.200; -874.000; -647.000
268.913;  -96.200; -328.000; -476.000
269.054;  -40.700; -117.000;   12.000
269.194;  -88.600; -418.000; -402.000
269.335; -318.700;-1137.000;-1074.000
269.476;  -27.300;   33.000;  -35.000
269.617;  -99.100; -347.000; -392.000
269.757; -179.800; -713.000; -646.000
269.898; -206.100; -856.000; -613.000
270.039; -121.300; -415.000; -405.000
270.180; -268.500; -952.000; -816.000
270.320;  -32.300; -190.000; -250.000
270.461;  -70.500; -277.000; -249.000
270.602;    4.000; -186.000; -156.000
270.742; -266.800; -868.000; -943.000
270.883; -105.000; -442.000; -390.000
271.023;  -89.400; -358.000; -357.000
271.164; -133.300; -607.000; -528.000
271.305; -196.100; -666.000; -654.000
271.445; -177.900; -722.000; -683.000
271.586; -123.500; -462.000; -283.000
271.726;  -87.700; -397.000; -322.000
271.867; -131.300; -594.000; -534.000
272.008;  264.800; -473.000; -285.000
272.148;  245.600;  462.000;  468.000
272.289;    9.500; -113.000; -181.000
272.429;   23.000;   19.000;  185.000
272.570; -151.700; -633.000; -737.000
272.710; -210.800; -825.000; -775.000
272.851;  -47.200;  113.000; -130.000
272.991; -315.300;-1173.000;-1077.000
273.131; -141.300; -419.000; -459.000
273.272; -184.600; -683.000; -723.000
273.412;   13.900; -143.000;  -31.000
273.553;  -99.300; -488.000; -507.000
273.693;  257.800;  913.000;  858.000
273.834; -211.200; -894.000; -692.000
273.974; -161.800; -664.000; -615.000
274.114; -195.300; -772.000; -560.000
274.255;  166.800;  414.000;  373.000
274.395;   36.400; -180.000; -125.000
274.535;   94.800;  199.000;  350.000
274.676;   79.300;  225.000;   94.000
274.816;   42.700;  110.000;   34.000
274.956; -154.900; -624.000; -690.000
275.097; -147.600;-1014.000; -922.000
275.237; -228.600; -913.000; -803.000
275.377; -172.500; -778.000; -689.000
275.517; -286.300; -878.000; -937.000
275.658; -115.000; -590.000; -555.000
275.798; -139.200; -606.000; -413.000
275.938;   78.300;  215.000;  323.000
276.078; -180.500; -626.000; -395.000
276.218;   15.400;   99.000;  104.000
276.359; -289.500;-1026.000;-1024.000
276.499; -122.500; -605.000; -446.000
276.639;  -34.500; -305.000; -151.000
276.779;  -45.700; -475.000; -357.000
276.919; -203.800; -783.000; -624.000
277.059;  -43.000; -261.000; -212.000
277.199;  -90.600; -357.000; -259.000
277.340;  130.300;  287.000;  175.000
277.480; -233.300; -840.000; -693.000
277.620;   85.000;  192.000;   16.000
277.760; -378.600;-1533.000;-1294.000
277.900;   20.600;  113.000;   33.000
278.040;   23.000;  137.000;  159.000
278.180;   98.400;  270.000;  170.000
278.320;   19.200;   21.000;   56.000
278.460; -137.700; -443.000; -469.000
278.600; -172.600; -708.000; -598.000
278.740;  132.300;  448.000;  224.000
278.880; -134.600; -768.000; -791.000
279.020;   64.900; -194.000; -144.000
279.160; -164.800; -672.000; -595.000
279.300; -232.300; -926.000; -873.000
279.440; -199.500; -709.000; -622.000
279.579;  -96.900;-1014.000; -929.000
279.719;  -91.800; -410.000; -394.000
279.859;  125.700;   -4.000;   41.000
279.999;   35.600; -208.000;  101.000
280.139;  -46.600; -435.000; -387.000
280.279; -148.400; -708.000; -745.000
280.419;  -13.400; -229.000; -147.000
280.559;  -27.600; -259.000; -180.000
280.698; -143.100; -790.000; -639.000
280.838; -186.800; -778.000; -800.000
280.978; -205.400; -846.000; -790.000
281.118; -213.100; -811.000; -704.000
281.257;   48.300;   24.000;    6.000
281.397; -262.100;-1094.000; -960.000
281.537; -172.800; -599.000; -712.000
281.677;  -42.900; -150.000; -101.000
281.816; -171.600; -700.000; -630.000
281.956;  -81.600; -193.000; -257.000
282.096; -114.600; -539.000; -396.000
282.235; -183.400; -672.000; -638.000
282.375;   13.400; -243.000;  -98.000
282.515; -193.100; -715.000; -707.000
282.654;   90.400;   29.000;  106.000
282.794;   70.800;  388.000;  244.000
282.934;  -86.300; -530.000; -491.000
283.073; -251.800;-1030.000; -857.000
283.213;  -91.100; -460.000; -467.000
283.353;  -65.600; -408.000; -349.000
283.492;  -51.100; -264.000; -296.000
283.632; -102.900; -254.000; -168.000
283.771; -172.600; -859.000; -730.000
283.911;  -81.300; -369.000; -260.000
284.050; -195.300; -794.000; -748.000
284.190; -330.300;-1229.000;-1096.000
284.329; -261.200;-1055.000; -964.000
284.469; -151.200; -516.000; -591.000
284.608; -105.200; -559.000; -598.000
284.748; -173.700; -614.000; -570.000
284.887;   11.800;  -87.000;  -20.000
285.027; -238.700; -844.000; -892.000
285.166;  -34.400; -192.000; -249.000
285.306;   10.900; -116.000;  -33.000
285.445;  -52.700; -229.000; -343.000
285.584; -150.200; -630.000; -494.000
285.724;  -61.500; -282.000; -322.000
285.863; -225.900; -857.000; -507.000
286.002;  -86.500; -366.000; -276.000
286.142; -196.500; -715.000; -622.000
286.281; -123.800; -525.000; -493.000
286.420; -149.000; -554.000; -417.000
286.560;  241.400;  653.000;  623.000
286.699; -264.300; -958.000; -912.000
286.838; -161.700; -590.000; -591.000
286.978; -168.900; -533.000; -537.000
287.117; -258.700;-1085.000; -950.000
287.256;  -49.200; -228.000; -211.000
287.395;  -69.400; -197.000; -378.000
287.535; -106.400; -370.000; -298.000
287.674; -128.600; -509.000; -484.000
287.813;  134.600;  661.000;  533.000
287.952; -267.700;-1010.000; -871.000
288.091; -280.600;-1049.000; -915.000
288.231;   85.200;   13.000;   15.000
288.370; -320.000;-1217.000;-1200.000
288.509; -167.900; -728.000; -645.000
288.648; -171.100; -770.000; -548.000
288.787;  -33.100; -243.000;  -87.000
288.926; -125.700; -454.000; -475.000
289.065;  260.400;  859.000;  672.000
289.204; -113.300; -377.000; -217.000
289.344; -191.200; -791.000; -690.000
289.483;   69.200;  416.000;  304.000
289.622;  -60.600; -291.000; -149.000
289.761;   -4.400; -309.000; -166.000
289.900; -205.800; -785.000; -626.000
290.039;  -14.600;  -12.000;  -95.000
290.178;  -55.300; -274.000; -180.000
290.317; -189.000; -618.000; -479.000
290.456; -113.800; -463.000; -451.000
290.595; -278.400; -961.000; -833.000
290.734; -283.900; -904.000; -891.000
290.873; -133.100; -456.000; -420.000
291.011; -212.000; -833.000; -843.000
291.150; -190.500; -770.000; -682.000
291.289;  -30.100; -343.000; -110.000
291.428; -171.800; -599.000; -480.000
291.567;  -79.400; -370.000; -442.000
291.706;    9.400;  109.000;  154.000
291.845; -143.400; -597.000; -505.000
291.984; -327.100;-1234.000;-1061.000
292.122;  170.000;  602.000;  582.000
292.261;  125.900;  620.000;  463.000
292.400;   52.600; -144.000;  211.000
292.539; -256.900; -959.000; -813.000
292.678;  -53.000; -325.000; -300.000
292.816; -288.700;-1136.000; -965.000
292.955; -153.500; -844.000; -684.000
293.094;  -21.500; -173.000; -337.000
293.233; -112.800; -556.000; -400.000
293.371;  -53.100; -225.000;  -84.000
293.510; -186.100; -866.000; -780.000
293.649; -241.400; -959.000; -924.000
293.787; -153.800;-1083.000;-1012.000
293.926;   29.800; -113.000;  -32.000
294.065;  -80.700; -379.000; -290.000
294.203;  116.700;  298.000;  406.000
294.342;   49.700;   74.000;  156.000
294.481;11590.700;51180.000; -836.000
294.619;  -12.600; -425.000; -582.000
294.758; -271.000;-1230.000;-1137.000
294.896;  126.900; -125.000;    5.000
295.035; -251.600;-1040.000;-1006.000
295.174; -241.300;-1082.000; -954.000
295.312;  -53.200; -323.000; -203.000
295.451;  -30.800; -307.000; -428.000
295.589;  -97.600; -389.000; -518.000
295.728;   63.400; -292.000; -165.000
295.866;   25.200;  -36.000;  -51.000
296.005; -128.900; -584.000; -341.000
296.143; -134.000; -558.000; -596.000
296.282; -185.400; -957.000; -881.000
296.420; -169.900; -657.000; -557.000
296.559; -161.900; -892.000; -633.000
296.697;   11.700; -847.000; -665.000
296.835;   55.200;-1141.000;-1002.000
296.974;  116.800;  -23.000;   39.000
297.112;   30.000; -443.000; -504.000
297.251; -138.400; -815.000; -755.000
297.389;  118.800; -576.000; -438.000
297.527;   67.300; -145.000;  -83.000
297.666;  -90.200; -486.000; -438.000
297.804; -100.200; -404.000; -264.000
297.942;  -28.100; -136.000; -161.000
298.081;   24.100; -183.000;   63.000
298.219;  149.400;  -17.000;  -19.000
298.357;   74.200; -144.000;  -71.000
298.495;   25.100; -810.000; -812.000
298.634;  156.800;  245.000;  219.000
298.772;   61.900; -220.000; -338.000
298.910;  -54.500; -309.000; -182.000
299.048;    0.000; -130.000; -153.000
299.187;  -32.100; -350.000; -250.000
299.325;   72.500;   52.000;  122.000
299.463;   48.500; -389.000; -299.000
299.601;  181.800; -327.000; -271.000
299.739; -214.200; -908.000; -883.000
299.877; -135.000; -791.000; -703.000
300.016; -135.600;-1095.000; -935.000
300.154;  292.200;  -19.000; -161.000
300.292;   94.900; -428.000; -348.000
300.430;   74.700; -408.000; -291.000
300.568; -212.200; -940.000; -874.000
300.706;  -70.500; -366.000; -469.000
300.844; -200.500;-1108.000; -979.000
300.982;  261.100;  246.000;  282.000
301.120; -222.400; -965.000; -866.000
301.258; -147.300; -812.000; -705.000
301.396;   54.200;  104.000;  -41.000
301.534;  120.300; -218.000; -293.000
301.672;  -33.700; -664.000; -521.000
301.810;   14.400; -613.000; -545.000
301.948;  232.700;   53.000;  149.000
302.086;  885.300; -250.000;  -32.000
302.224; 1441.900; -610.000; -585.000
302.362;   32.100; -558.000; -622.000
302.500; -107.000; -923.000; -893.000
302.638;  183.800;  128.000;  245.000
302.776;   12.000; -352.000; -408.000
302.913;  117.400;  447.000;  236.000
303.051;    1.300;  -86.000;  -23.000
303.189;  121.300;   90.000;  118.000
303.327;  -45.000; -341.000; -256.000
303.465; -162.400; -832.000; -588.000
303.603; -178.900; -805.000; -604.000
303.740;  176.500;  417.000;  241.000
303.878;   39.700; -800.000; -759.000
304.016; -191.400; -915.000; -790.000
304.154; -280.800;-1123.000;-1152.000
304.291;  -60.900; -505.000; -554.000
304.429;   25.000;  102.000;   74.000
304.567; -226.400; -908.000; -893.000
304.705;  -71.300; -408.000; -515.000
304.842;  124.700; -616.000; -540.000
304.980;  146.500;  215.000;   35.000
305.118;   48.900; -367.000; -365.000
305.255; -174.800; -945.000; -927.000
305.393;  127.300;  178.000;  239.000
305.531; -215.600;-1173.000; -956.000
305.668; -135.800; -663.000; -582.000
305.806;  127.800; -358.000; -439.000
305.943;  134.300; -629.000; -637.000
306.081;   86.000; -378.000; -267.000
306.219; -189.800; -863.000; -748.000
306.356;   38.900;  158.000;   27.000
306.494;  328.800;  981.000;  761.000
306.631;   74.300;  -11.000;  -55.000
306.769;   20.000; -613.000; -485.000
306.906;   -8.800; -284.000; -258.000
307.044; -103.600; -473.000; -488.000
307.181;  -80.400; -410.000; -332.000
307.319;  113.100;  112.000;   87.000
307.456; -358.700;-1191.000;-1153.000
307.594; -180.700; -980.000; -727.000
307.731;   13.100; -371.000; -164.000
307.868;    3.200;  -15.000;   20.000
308.006; -265.800; -961.000; -847.000
308.143;  -89.900; -618.000; -330.000
308.281;  350.200;  -37.000; -254.000
308.418;   -4.300; -748.000; -640.000
308.555; -105.000; -400.000; -250.000
308.693;  -83.500; -577.000; -573.000
308.830; -166.600; -712.000; -657.000
308.967;   30.200; -215.000;  -95.000
309.105;  -63.100; -507.000; -396.000
309.242;   70.100; -468.000; -367.000
309.379;  649.500; -577.000; -655.000
309.517; -112.100; -936.000; -948.000
309.654; -180.400; -910.000; -734.000
309.791; -129.200; -662.000; -580.000
309.928; -215.700; -977.000; -914.000
310.065;  394.600;  819.000;  697.000
310.203;  -57.100; -825.000; -850.000
310.340;  -13.000; -465.000; -321.000
310.477; -152.000; -412.000; -516.000
310.614;  -92.400; -383.000; -473.000
310.751; -126.700; -427.000; -518.000
310.889;    1.600;    1.000;   11.000
311.026; -291.600;-1161.000; -939.000
311.163;  -76.700; -386.000; -380.000
311.300; -124.100; -512.000; -479.000
311.437; -126.800; -658.000; -619.000
311.574; -326.600;-1226.000; -985.000
311.711; -116.000; -595.000; -433.000
311.848;  -62.000; -380.000; -388.000
311.985;   41.900;  270.000;   93.000
312.122; -180.700; -932.000; -762.000
312.259; -206.200; -941.000; -994.000
312.396; -112.400; -508.000; -551.000
312.533; -110.900; -812.000; -790.000
312.670; -266.000;-1070.000; -898.000
312.807;  -32.000; -352.000; -367.000
312.944; -124.500; -513.000; -611.000
313.081;  -12.700; -150.000; -415.000
313.218; -175.800;-1111.000; -867.000
313.355;   22.200; -531.000; -449.000
313.492;   56.500; -455.000; -292.000
313.629;  284.200;  815.000;  735.000
313.766; -309.200;-1176.000;-1008.000
313.902;  -26.100; -186.000;   21.000
314.039;  -66.700; -372.000; -289.000
314.176;  120.500;  286.000;  192.000
314.313; -119.000; -569.000; -473.000
314.450; -136.900; -788.000; -684.000
314.587;  -93.200; -468.000; -480.000
314.723;   42.000;  -78.000;  130.000
314.860;   89.300;  318.000;  332.000
314.997;   76.600;  223.000;  142.000
315.134;  -82.600; -385.000; -368.000
315.270;  -43.700; -480.000; -496.000
315.407; -238.000;-1094.000; -967.000
315.544;  -67.900; -657.000; -538.000
315.681; -134.100; -681.000; -565.000
315.817;   85.100; -133.000; -176.000
315.954;   12.500; -613.000; -392.000
316.091; -231.000;-1045.000;-1023.000
316.227;   14.700;  -71.000; -179.000
316.364;   54.200;   23.000;    6.000
316.500;  -53.100; -113.000; -300.000
316.637;  -24.100; -181.000; -302.000
316.774; -150.300; -625.000; -358.000
316.910; -170.700; -598.000; -629.000
317.047; -122.000; -487.000; -351.000
317.183;  -94.200; -435.000; -566.000
317.320;  -40.800; -367.000; -321.000
317.456; -119.100; -733.000; -805.000
317.593; -144.000; -598.000; -641.000
317.729;   46.700;  168.000;  -67.000
317.866; -390.100;-1434.000;-1285.000
318.002; -154.900; -708.000; -948.000
318.139; -203.100; -883.000; -867.000
318.275; -211.300;-1003.000; -738.000
318.412; -129.900; -517.000; -336.000
318.548;  -69.400; -751.000; -720.000
318.685; -213.300; -985.000; -888.000
318.821; -168.000; -762.000; -735.000
318.957;  -45.900;   34.000;  -23.000
319.094;  137.400;  297.000;  154.000
319.230; -151.500; -756.000; -742.000
319.367;  198.400; -471.000; -520.000
319.503;   54.200; -538.000; -436.000
319.639; -192.100; -877.000; -793.000
319.775; -125.000; -750.000; -685.000
319.912;  -86.700; -424.000; -519.000
320.048; -189.800;-1184.000;-1184.000
320.184;  187.400;   59.000;   70.000
320.321; -101.000; -497.000; -467.000
320.457;  161.400;  475.000;  662.000
320.593; -127.100; -375.000; -382.000
320.729; -200.200; -732.000; -734.000
320.866; -124.100; -577.000; -635.000
321.002; -164.200; -759.000; -809.000
321.138;  -20.100; -135.000; -211.000
321.274;  123.300; -148.000; -115.000
321.410;  -55.100; -585.000; -353.000
321.546;  -74.400;-1011.000; -911.000
321.683;  141.100;  400.000;  185.000
321.819;   64.600;  -48.000; -117.000
321.955; -200.000; -743.000; -722.000
322.091;  -60.000; -585.000; -540.000
322.227;  -27.000; -382.000; -202.000
322.363;  -48.200; -320.000; -215.000
322.499;  -79.100; -343.000; -331.000
322.635;  350.300;  636.000;  443.000
322.771;   55.700; -139.000;   12.000
322.907;  210.200;  129.000;  327.000
323.043;  -43.000; -115.000; -206.000
323.179;  -41.500; -394.000; -363.000
323.315;   18.800; -401.000; -371.000
323.451;  140.100; -328.000; -236.000
323.587;  128.000;  -60.000;  -77.000
323.723;   24.900; -682.000; -601.000
323.859;  -19.400; -258.000;  -76.000
323.995;  -45.600; -467.000; -409.000
324.131; -242.400; -967.000; -892.000
324.267;  -30.100; -254.000; -276.000
324.402; -275.600; -960.000; -983.000
324.538;   -9.600; -279.000; -104.000
324.674;   74.900;  164.000;   77.000
324.810;  282.200;  226.000;  308.000
324.946;   40.500; -810.000; -658.000
325.082; -126.400; -568.000; -475.000
325.217;   31.500;  -62.000;   16.000
325.353; -172.500; -764.000; -659.000
325.489; -118.800; -540.000; -506.000
325.625; -111.400; -579.000; -525.000
325.760;  138.800;  517.000;  376.000
325.896;  -35.200; -515.000; -702.000
326.032;  -82.600; -403.000; -352.000
326.168; -106.700; -462.000; -369.000
326.303; -123.500; -352.000; -461.000
326.439;    6.600; -336.000; -276.000
326.575;   18.200; -190.000;  -29.000
326.710;  -13.800; -156.000;  -30.000
326.846;   -7.400;  146.000;  103.000
326.982; -165.300; -530.000; -548.000
327.117; -121.400; -481.000; -442.000
327.253; -141.400; -745.000; -742.000
327.388; -311.900;-1137.000;-1153.000
327.524;  -87.900; -811.000; -578.000
327.659;  -16.900;  -58.000;  -22.000
327.795;   36.500;   69.000;   45.000
327.931; -147.600; -723.000; -499.000
328.066;   -9.600; -417.000; -276.000
328.202;    4.000;   12.000; -129.000
328.337;  267.100;  957.000;  713.000
328.473;   -4.500;  -12.000;  -74.000
328.608;    4.600; -256.000; -267.000
328.743; -184.200; -799.000; -664.000
328.879;   72.100;  214.000;  114.000
329.014; -101.900; -102.000; -122.000
329.150; -142.000; -358.000; -483.000
329.285; -138.400; -465.000; -466.000
329.421;  -58.700; -548.000; -246.000
329.556;   17.200;  -36.000;   85.000
329.691; -146.200; -633.000; -615.000
329.827; -116.300; -626.000; -480.000
329.962;  -52.000;  131.000; -301.000
330.097; -145.300; -673.000; -585.000
330.233;  -61.300; -410.000; -223.000
330.368; -219.500; -839.000; -628.000
330.503;   -9.200;    3.000;   98.000
330.638;   34.000;  -93.000; -125.000
330.774; -108.300; -609.000; -530.000
330.909;  -55.600; -434.000; -244.000
331.044; -162.200; -714.000; -708.000
331.179; -321.200;-1217.000;-1109.000
331.315;   52.400;   77.000;   20.000
331.450;   58.000;  157.000;  285.000
331.585; -142.900; -805.000; -706.000
331.720; -153.000; -510.000; -460.000
331.855;   19.700;  -35.000; -102.000
331.990;  471.600;   62.000;  138.000
332.126;  309.300; -110.000;   71.000
332.261;  -36.600; -379.000; -265.000
332.396;   37.700; -135.000; -242.000
332.531; -168.500;-1074.000;-1031.000
332.666;   99.900; -519.000; -363.000
332.801; -204.500; -726.000; -807.000
332.936;  -20.300; -192.000; -122.000
333.071; -281.800; -870.000; -817.000
333.206;   68.900;  307.000;  379.000
333.341;   57.600;  344.000;  418.000
333.476; -162.400; -627.000; -623.000
333.611;  -55.200; -251.000; -173.000
333.746;  -35.300; -381.000; -464.000
333.881; -204.100; -973.000; -935.000
334.016; -224.100; -936.000; -917.000
334.151; -239.000; -746.000; -702.000
334.286;   98.300;  152.000;  186.000
334.421;  -16.300; -125.000; -178.000
334.556; -137.000; -611.000; -567.000
334.690; -145.100; -631.000; -577.000
334.825;  161.000;  381.000;   83.000
334.960;  -97.000; -285.000; -413.000
335.095;   54.000;  135.000;  -91.000
335.230; -186.000; -722.000; -738.000
335.365; -246.600;-1084.000; -990.000
335.499; -278.500;-1108.000;-1037.000
335.634;   54.800;    9.000;  534.000
335.769; -216.100; -755.000; -720.000
335.904; -106.300; -603.000; -561.000
336.038; -136.200; -735.000; -657.000
336.173; -236.100;-1206.000;-1194.000
336.308;   43.800; -116.000; -189.000
336.443;   45.700; -544.000; -634.000
336.577; -161.800; -936.000; -787.000
336.712;  140.800;   -4.000;  -12.000
336.847;  -89.200; -724.000; -607.000
336.981;  107.800; -272.000; -208.000
337.116;  456.000;  615.000;  501.000
337.250;  223.500; -434.000; -421.000
337.385;  461.500; -297.000; -208.000
337.520;  179.900; -632.000; -603.000
337.654;  -41.700; -215.000; -126.000
337.789; -251.200; -989.000; -933.000
337.923;  -50.300; -104.000; -205.000
338.058; -150.000; -673.000; -738.000
338.192;  -72.300; -611.000; -488.000
338.327;  -34.900;  -18.000; -155.000
338.461; -113.400; -299.000; -469.000
338.596; -147.700; -780.000; -638.000
338.730; -188.200; -767.000; -803.000
338.865;  213.500;  -46.000; -140.000
338.999; -134.500; -846.000; -702.000
339.134;  -55.700; -634.000; -536.000
339.268;   17.000; -741.000; -603.000
339.403;  633.200; -740.000; -775.000
339.537;  252.800; -894.000; -820.000
339.671; -181.700; -829.000; -813.000
339.806; -102.400; -556.000; -512.000
339.940;   56.300; -261.000; -235.000
340.074; -175.100; -685.000; -510.000
340.209;  -78.200; -351.000; -230.000
340.343; -138.200; -517.000; -573.000
340.477;  333.600;  998.000; 1036.000
340.612;  -95.300;-1033.000; -900.000
340.746;  287.400; -199.000; -243.000
340.880; -141.100; -924.000; -785.000
341.014;  -12.800;  -45.000; -154.000
341.149; -172.000; -756.000; -718.000
341.283; -164.100; -839.000; -754.000
341.417; -179.300;-1124.000; -938.000
341.551;  158.300; -768.000; -708.000
341.685;  -75.200; -633.000; -611.000
341.820;  -74.400; -562.000; -493.000
341.954;  -88.500; -218.000; -349.000
342.088; -277.000;-1102.000;-1019.000
342.222;  116.400;  565.000;  618.000
342.356; -115.200; -395.000; -335.000
342.490; -185.800; -880.000; -841.000
342.624;  -44.400; -339.000; -242.000
342.758;  -10.300; -364.000; -312.000
342.892;  -99.800; -710.000; -585.000
343.026;  -51.100;  -58.000; -116.000
343.160;  -68.700; -426.000; -376.000
343.294; -128.000; -474.000; -337.000
343.428;  -27.000; -488.000; -448.000
343.562;   10.200; -172.000;  -23.000
343.696;  -34.700; -385.000; -314.000
343.830;  -43.000; -362.000; -356.000
343.964;   54.800; -231.000; -168.000
344.098; 1377.700;  199.000;   70.000
344.232; 1171.300; -266.000; -127.000
344.366;  127.400; -567.000; -453.000
344.500;   88.200; -665.000; -744.000
344.634;   43.600; -324.000; -164.000
344.768;  -16.200; -531.000; -341.000
344.902;   65.900;  278.000;  256.000
345.035; -108.500; -556.000; -496.000
345.169; -218.900; -933.000; -656.000
345.303;  -36.000; -308.000; -482.000
345.437; -172.300; -826.000; -717.000
345.571; -117.500; -675.000; -594.000
345.704;  -75.200; -309.000; -532.000
345.838;   -9.300; -331.000; -284.000
345.972;  -84.400; -543.000; -495.000
346.106;  334.900; -179.000; -190.000
346.239;  699.900; -312.000; -243.000
346.373;   51.000; -343.000; -302.000
346.507; -254.600; -950.000; -962.000
346.640;  209.200;  -30.000;   13.000
346.774; -105.100; -650.000; -797.000
346.908;   -7.300; -138.000;  -11.000
347.041; -179.500; -646.000; -593.000
347.175;   32.600;  259.000;   27.000
347.309; -153.700; -698.000; -628.000
347.442; -170.200; -883.000; -732.000
347.576;  493.400;  670.000;  668.000
347.709;  332.900; -123.000;  -52.000
347.843; -180.400; -933.000; -825.000
347.976;  136.000;  235.000;  294.000
348.110; -349.400;-1268.000;-1186.000
348.243; -175.200; -679.000; -772.000
348.377;   17.100;  -26.000;   60.000
348.510;  146.700;  403.000;  540.000
348.644;  -38.500;  -37.000; -159.000
348.777;   25.700;  180.000;  191.000
348.911;  -61.600; -142.000; -112.000
349.044;  330.000;  471.000;  448.000
349.178;  165.500;-1069.000;-1006.000
349.311;  249.100;  141.000;  255.000
349.444;  -18.800; -927.000; -813.000
349.578;  -15.800; -347.000; -200.000
349.711; -182.200; -959.000; -862.000
349.845;  -16.600; -661.000; -591.000
349.978; -310.600;-1224.000;-1137.000
350.111; -134.600; -546.000; -612.000
350.244; -140.900; -596.000; -700.000
350.378;   34.600; -392.000; -393.000
350.511; -113.300; -393.000; -426.000
350.644; -200.100; -808.000; -806.000
350.778;   25.900;  168.000;  104.000
350.911;   40.300;  134.000;  140.000
351.044; -164.800; -685.000; -615.000
351.177;  -57.300; -321.000; -281.000
351.310;   -5.400;    3.000; -131.000
351.444; -143.800; -888.000; -788.000
351.577;  208.800;  140.000;   90.000
351.710;  251.300;  593.000;  417.000
351.843;  -33.200; -165.000;  -77.000
351.976;   35.400;  149.000;  -79.000
352.109; -172.500; -621.000; -612.000
352.242;  -36.800; -464.000; -419.000
352.376; -127.700; -580.000; -636.000
352.509;  263.800; -437.000; -356.000
352.642;  -65.000; -654.000; -604.000
352.775;  125.700; -141.000;  -98.000
352.908; -215.700; -933.000; -904.000
353.041; -181.700; -814.000; -824.000
353.174; -129.200; -551.000; -424.000
353.307; -163.100; -753.000; -764.000
353.440;  171.800;  541.000;  453.000
353.573; -213.100; -957.000;-1008.000
353.706; -101.400; -384.000; -558.000
353.839;   -5.900; -264.000; -220.000
353.971; -171.400; -657.000; -512.000
354.104; -131.100; -896.000; -835.000
354.237; -104.200; -627.000; -662.000
354.370; -148.900; -846.000; -879.000
354.503; -350.600;-1231.000;-1308.000
354.636;  -86.200; -529.000; -348.000
354.769; -227.700; -937.000; -860.000
354.902;  -26.500; -230.000; -139.000
355.034;   -1.700; -164.000; -220.000
355.167;  -20.900; -262.000; -162.000
355.300; -190.000;-1061.000; -880.000
355.433; 1835.600;  -71.000;  -14.000
355.565; 2773.300; -402.000; -384.000
355.698;  692.300; -356.000; -296.000
355.831;  -18.000; -882.000; -801.000
355.964;  134.800; -285.000; -170.000
356.096; -171.200; -856.000; -843.000
356.229;   -9.900; -523.000; -530.000
356.362;  650.000; -373.000; -266.000
356.494; 1123.600; -229.000; -162.000
356.627;  820.600;  269.000;  377.000
356.760; 1269.600;  120.000;   53.000
356.892; 1814.800; -286.000; -601.000
357.025; 1106.600;  403.000;  389.000
357.157;  956.000; -167.000; -179.000
357.290; 1241.600; -856.000; -713.000
357.423;  363.600; -667.000; -556.000
357.555;  212.100; -217.000; -228.000
357.688;  168.700; -483.000; -364.000
357.820;  625.000; -870.000; -877.000
357.953; 5580.600; -563.000; -589.000
358.085; 1183.100; -632.000; -612.000
358.218; 1640.200;-1131.000; -932.000
358.350;  352.000;  -58.000;  312.000
358.483; -229.700;-1300.000;-1187.000
358.615;  -83.600;-1182.000;-1078.000
358.747; -167.100;-1187.000;-1058.000
358.880;    7.400; -810.000; -744.000
359.012;   -3.600; -376.000; -202.000
359.145;  -35.200; -480.000; -511.000
359.277;   57.900; -962.000; -913.000
359.409; 4636.100;  536.000;  231.000
359.542; 1129.400; -738.000; -688.000
359.674;  133.700;   46.000;   13.000
359.806;  -98.300; -565.000; -438.000
359.939;  -57.500; -617.000; -516.000
360.071;   -2.300; -583.000; -579.000
360.203;    4.100; -411.000; -364.000
360.335;   91.500;  164.000;  -16.000
360.468;  330.000; -249.000; -307.000
360.600; 3849.000; -547.000; -454.000
360.732; 5124.700; -546.000; -423.000
360.864;  674.400;-1216.000;-1044.000
360.996;  447.100; -516.000; -554.000
361.129;   47.900; -389.000; -598.000
361.261;   63.100;  110.000; -113.000
361.393;  -26.700; -252.000; -214.000
361.525;   93.900;   94.000;  244.000
361.657;  -86.600; -821.000; -703.000
361.789;   89.600; -139.000; -155.000
361.921;  344.900; -642.000; -593.000
362.053;  472.800;  524.000;  541.000
362.185;  114.000;  288.000;   72.000
362.318; -128.800; -709.000; -705.000
362.450;  211.700;  294.000;  444.000
362.582;   99.700; -913.000; -870.000
362.714;  -33.500; -353.000; -332.000
362.846; -118.200; -606.000; -490.000
362.978; -256.500; -941.000; -811.000
363.109;   87.100; -161.000; -260.000
363.241;  679.900; -739.000; -749.000
363.373;  776.600; -649.000; -564.000
363.505; 1269.400; -186.000;  -91.000
363.637;  297.900; -787.000; -601.000
363.769; -229.700;-1067.000;-1080.000
363.901; -108.200; -596.000; -654.000
364.033; -238.500;-1103.000;-1062.000
364.165;    7.400; -283.000; -283.000
364.296;  168.300; -316.000; -177.000
364.428;  128.900;-1344.000;-1220.000
364.560; -111.800; -679.000; -661.000
364.692; -118.200; -738.000; -835.000
364.824;  382.300; -588.000; -456.000
364.955;  823.300; -402.000; -564.000
365.087; 1761.700;-1097.000; -852.000
365.219;   55.200; -686.000; -816.000
365.351; -113.200; -526.000; -572.000
365.482;  136.400;  300.000;  240.000
365.614;  -95.000; -402.000; -314.000
365.746; -145.800; -729.000; -752.000
365.877; -151.300; -706.000; -672.000
366.009;  540.300;  -35.000;  -62.000
366.141; -185.600;-1249.000;-1134.000
366.272; -188.600; -803.000; -719.000
366.404; -213.600;-1005.000; -874.000
366.535;   24.900; -139.000;  -12.000
366.667; -159.000; -644.000; -649.000
366.799;  115.900;  353.000;  203.000
366.930; -217.500; -862.000; -996.000
367.062;  253.000; -639.000; -613.000
367.193;  298.400; -872.000; -842.000
367.325;  -73.700; -580.000; -684.000
367.456;   62.900; -246.000;   31.000
367.588;  336.400; -371.000; -318.000
367.719;   65.900;  -44.000;  -45.000
367.851;   18.200; -222.000; -241.000
367.982; -127.000; -875.000; -732.000
368.113;  186.800; -475.000; -358.000
368.245; -245.200; -960.000; -841.000
368.376;   13.600; -254.000; -302.000
368.508;  -61.100; -188.000; -263.000
368.639; -255.500;-1166.000;-1034.000
368.770;  -46.200; -670.000; -589.000
368.902; -108.600; -836.000; -926.000
369.033; -205.300; -906.000; -855.000
369.164;  -77.400; -720.000; -653.000
369.296; -191.400; -452.000; -601.000
369.427;   17.000; -209.000; -144.000
369.558;  -75.300; -593.000; -377.000
369.689; -142.200; -721.000; -569.000
369.821; -225.300; -951.000; -845.000
369.952;   12.100;   42.000; -108.000
370.083;  -59.600; -229.000; -108.000
370.214; -100.900; -735.000; -650.000
370.345;   40.800;   65.000;   81.000
370.477; -155.900; -810.000; -790.000
370.608;  370.500; -328.000; -264.000
370.739; -159.200;-1233.000;-1292.000
370.870; -113.100;-1102.000; -923.000
371.001;  140.800; -378.000; -467.000
371.132; -138.500; -754.000; -735.000
371.263;  -14.300;  -42.000; -148.000
371.394; -240.400; -841.000; -748.000
371.525;  136.200;  345.000;  225.000
371.657; -188.900; -808.000; -670.000
371.788;  172.800;  103.000;  199.000
371.919;  263.100; -384.000; -304.000
372.050; 5507.500;  -91.000; -156.000
372.181; 1565.700; -188.000; -294.000
372.311;  585.200;   42.000; -127.000
372.442;   32.400; -457.000; -451.000
372.573;   -7.700; -444.000; -340.000
372.704; -247.000;-1008.000; -980.000
372.835;  167.900; -228.000; -289.000
372.966; -107.700; -646.000; -554.000
373.097; -143.500; -575.000; -711.000
373.228; -103.400; -717.000; -542.000
373.359;  165.800; -824.000; -536.000
373.490; 1429.300; -881.000; -727.000
373.620; 1658.300;-1001.000; -803.000
373.751; 2679.500; -332.000; -396.000
373.882; 1125.000; -663.000; -733.000
374.013;  102.000; -449.000; -262.000
374.143;  -67.100; -581.000; -659.000
374.274; -202.100; -987.000; -908.000
374.405;  289.800; -388.000; -276.000
374.536;  703.700; -526.000; -387.000
374.666; 1650.100; -759.000; -807.000
374.797;  301.000; -817.000; -868.000
374.928; 1275.700; -710.000; -560.000
375.058; 1315.600; -535.000; -500.000
375.189;  143.400;  -59.000;  -93.000
375.320; -199.800; -928.000;-1034.000
375.450;  -70.900; -625.000; -616.000
375.581;  -94.700; -526.000; -436.000
375.712;  -45.000; -574.000; -250.000
375.842;  479.900; -438.000; -415.000
375.973;  326.200; -554.000; -513.000
376.103;  -86.000; -665.000; -648.000
376.234; -120.800; -531.000; -552.000
376.364; -111.500; -944.000; -867.000
376.495;  577.000;  925.000;  529.000
376.625;  -19.400; -472.000; -485.000
376.756;   52.800; -709.000; -678.000
376.886; -167.600;-1178.000;-1026.000
377.017;  142.300;-1048.000;-1061.000
377.147;  630.800; -786.000; -782.000
377.278;  153.500;  174.000;  228.000
377.408; -234.900; -801.000; -815.000
377.538; -179.300; -707.000; -693.000
377.669; -119.500; -537.000; -613.000
377.799; -159.300; -645.000; -635.000
377.929;  -78.800; -610.000; -428.000
378.060; -237.500; -781.000; -847.000
378.190;  -80.200; -726.000; -531.000
378.320;  -72.400; -401.000; -406.000
378.451;    2.000; -131.000;  -22.000
378.581;   52.700;  -67.000; -110.000
378.711;  322.900; 1035.000;  866.000
378.841;  -60.400; -533.000; -675.000
378.972; -155.500; -871.000; -751.000
379.102;  -28.600; -652.000; -579.000
379.232;  -21.800; -126.000;  -73.000
379.362; -194.500;-1001.000; -885.000
379.492;   -5.300; -373.000; -424.000
379.623;  197.600;    0.000;  111.000
379.753; -186.100;-1107.000; -974.000
379.883;  379.000;   59.000;  156.000
380.013;  -41.900;-1081.000;-1017.000
380.143; -210.600;-1097.000;-1056.000
380.273; -176.300; -985.000; -861.000
380.403;   20.600; -344.000; -257.000
380.533;  -56.500; -651.000; -664.000
380.663;  167.100;  173.000;  128.000
380.793; -184.400;-1027.000;-1074.000
380.923;    6.900; -103.000;  -34.000
381.053; -156.400; -613.000; -623.000
381.183;   23.300; -106.000; -248.000
381.313;   70.800; -656.000; -470.000
381.443;   74.400; -692.000; -473.000
381.573;  313.400; -402.000; -409.000
381.703;  319.900;-1249.000;-1095.000
381.833; -262.700;-1454.000;-1336.000
381.963;  229.600; -134.000;  -87.000
382.093; 2164.900; -925.000; -909.000
382.223;  552.900; -713.000; -602.000
382.353;  -47.200; -801.000; -608.000
382.482;  511.700;-1091.000; -964.000
382.612; 1138.100; -872.000; -644.000
382.742;  635.400; -695.000; -622.000
382.872;  411.200; -565.000; -551.000
383.002;  187.600;  347.000; -132.000
383.131;    2.800; -226.000; -160.000
383.261;  -51.800; -706.000; -768.000
383.391;  528.600; -552.000; -377.000
383.521; 6135.900;  451.000;  263.000
383.650; 1297.900; -947.000; -904.000
383.780;  -37.100; -783.000; -656.000
383.910;  306.200;  880.000;  802.000
384.039;   12.200; -794.000; -656.000
384.169;  254.600;-1205.000;-1017.000
384.299;  -47.300; -650.000; -662.000
384.428; -118.000; -764.000; -680.000
384.558;   -9.200; -308.000; -275.000
384.687;  -25.800; -414.000; -334.000
384.817;   79.100;   75.000;   -2.000
384.947;   65.900; -234.000; -141.000
385.076;  579.300;  982.000;  912.000
385.206;  268.500;  369.000;  480.000
385.335;  -35.500; -549.000; -417.000
385.465; -137.300; -655.000; -663.000
385.594;  247.100;  -53.000;  -44.000
385.724;  609.200; -868.000; -838.000
385.853;  159.800; -296.000; -270.000
385.982; 2110.500; -743.000; -787.000
386.112; 3085.100;-1052.000; -871.000
386.241;  208.500; -307.000; -312.000
386.371;   88.200; -174.000;  -87.000
386.500;  -25.800; -825.000; -789.000
386.629;   22.200; -874.000; -817.000
386.759;  146.600;  -43.000;   68.000
386.888;   46.400; -170.000; -250.000
387.017; -142.200; -648.000; -620.000
387.147; -123.600; -771.000; -798.000
387.276;    8.300; -410.000; -397.000
387.405;   27.500; -398.000; -342.000
387.535;  -36.800; -452.000; -361.000
387.664;  -69.600; -692.000; -620.000
387.793;  114.600; -198.000; -113.000
387.922;  847.400;  255.000;  200.000
388.052;   21.300; -576.000; -423.000
388.181;   78.500; -342.000; -472.000
388.310;  -15.500; -889.000; -710.000
388.439;  -71.900; -749.000; -742.000
388.568;  356.000;  365.000;  244.000
388.697; 1580.200; -756.000; -653.000
388.826;  259.700; -768.000; -666.000
388.956;  101.800; -285.000; -307.000
389.085;  -18.800; -347.000; -287.000
389.214; -179.000; -842.000; -872.000
389.343; -117.800; -645.000; -413.000
389.472;  788.200;  126.000;  149.000
389.601;  917.500;   91.000;    0.000
389.730;   63.100; -568.000; -687.000
389.859;  159.100;  226.000;   46.000
389.988;  330.700; -423.000; -408.000
390.117;  235.200; -168.000; -146.000
390.246;   12.400; -331.000; -320.000
390.375;  196.300; -673.000; -626.000
390.504;  -85.600; -703.000; -621.000
390.633; -167.200; -672.000; -726.000
390.761; -102.900; -732.000; -645.000
390.890;   57.800;   -4.000; -130.000
391.019;  -37.800; -421.000; -441.000
391.148; -238.600; -826.000; -855.000
391.277; -112.500; -576.000; -493.000
391.406; -124.800; -821.000; -805.000
391.534;  115.200;  574.000; -301.000
391.663; -109.100; -583.000; -645.000
391.792; -159.900; -673.000; -701.000
391.921;  172.500;   -3.000;   15.000
392.050;  304.400; -287.000; -228.000
392.178; -114.700;-1206.000;-1061.000
392.307;  201.500; -758.000; -712.000
392.436;   88.600; -427.000; -641.000
392.564;   70.600;  166.000;   -6.000
392.693; -152.800; -860.000; -682.000
392.822;  311.700; -529.000; -534.000
392.950;   82.400; -880.000; -714.000
393.079;  473.600; -188.000; -328.000
393.208;   41.700; -488.000; -511.000
393.336;    5.100; -170.000; -145.000
393.465;  -78.700; -317.000; -199.000
393.593;   17.900;   62.000;   79.000
393.722; -254.300;-1121.000; -916.000
393.850;   -9.900; -188.000;  -61.000
393.979; -248.000; -926.000; -805.000
394.107; -121.400; -517.000; -537.000
394.236;  -55.300; -570.000; -507.000
394.364;  460.700;  383.000;  206.000
394.493;  662.700; -911.000; -767.000
394.621;    9.600; -955.000; -916.000
394.750; 1423.400; -873.000; -923.000
394.878; 5770.800; -247.000; -149.000
395.007; 7310.100; -721.000; -807.000
395.135;  538.700; -790.000; -721.000
395.263; -158.900;-1038.000;-1040.000
395.392;   40.800;  -25.000; -107.000
395.520; -176.600; -818.000; -679.000
395.648; -169.600; -865.000; -915.000
395.777;  -30.700; -366.000; -405.000
395.905;  -57.100; -449.000; -564.000
396.033;   68.900;  217.000;  172.000
396.162; 1162.400; -399.000; -453.000
396.290;  975.600;  -17.000;   -2.000
396.418;  165.300; -555.000; -514.000
396.546; -173.500; -571.000; -466.000
396.674; -148.300; -850.000; -878.000
396.803;   57.200;  -72.000;  -23.000
396.931;  182.800; -179.000; -199.000
397.059;   17.700;-1026.000; -989.000
397.187; -175.600;-1026.000; -975.000
397.315; -260.000; -884.000; -649.000
397.443; -135.000; -592.000; -443.000
397.572; -153.600; -578.000; -424.000
397.700;   -1.400; -607.000; -614.000
397.828;   33.200;  120.000;  -90.000
397.956;  -84.600; -508.000; -478.000
398.084;  -80.800; -767.000; -626.000
398.212;  116.200;  137.000;  124.000
398.340;   36.200;  -56.000;  159.000
398.468;   39.200; -390.000; -169.000
398.596; -243.200; -993.000; -953.000
398.724; -209.000; -762.000; -767.000
398.852; -282.800;-1024.000; -976.000
398.980;  -83.800; -560.000; -560.000
399.108; -117.400; -982.000; -735.000
399.236;   87.300;   13.000;    8.000
399.363;   83.400;  222.000;  196.000
399.491; -108.000; -404.000; -398.000
399.619; -211.800; -829.000; -800.000
399.747; -185.000; -859.000; -771.000
399.875;  190.900;  220.000;  234.000
400.003;  -65.100; -359.000; -284.000
400.130; -145.700; -421.000; -341.000
400.258;   25.800;  -83.000;   38.000
400.386;  -70.500; -352.000; -168.000
400.514;  -33.700; -526.000; -587.000
400.641; -197.900; -928.000; -802.000
400.769; -198.500; -979.000; -888.000
400.897; -200.100; -838.000; -793.000
401.025;   16.700; -166.000; -152.000
401.152;   56.300;  220.000;   38.000
401.280;  -93.100; -430.000; -429.000
401.408; -200.300; -712.000; -576.000
401.535; -193.300; -735.000; -758.000
401.663; -341.700;-1134.000;-1054.000
401.790; -133.700; -514.000; -525.000
401.918;  132.500;  436.000;  405.000
402.046;   24.600;  134.000;  122.000
402.173;  -14.700;  -18.000;    7.000
402.301; -133.700; -519.000; -397.000
402.428;  148.000;  528.000;  383.000
402.556; -251.900;-1188.000; -913.000
402.683;   27.800;  -20.000;   -1.000
402.811;    4.800;  -37.000; -206.000
402.938;   42.400;   20.000;   27.000
403.066;  304.000; -574.000; -558.000
403.193;  505.300;  299.000;  239.000
403.321;  423.500; -396.000; -574.000
403.448;  529.400;   83.000;   27.000
403.575;  246.500;  -90.000;  -46.000
403.703; -165.700; -732.000; -557.000
403.830;  -37.900; -531.000; -496.000
403.957; -222.900;-1117.000;-1023.000
404.085;   76.500;  -61.000; -172.000
404.212;  228.700;  -50.000;   63.000
404.339;  563.300; -566.000; -306.000
404.467;11219.300; -612.000; -524.000
404.594; 6696.100; -287.000; -227.000
404.721; 1421.900; -869.000; -764.000
404.848;  175.000; -113.000; -202.000
404.976; -172.100; -856.000; -783.000
405.103;    8.500;  -14.000;  -82.000
405.230;   36.100;  190.000;  226.000
405.357;  113.100;  117.000;   44.000
405.484;  562.800;  -49.000;    5.000
405.612;   93.300; -548.000; -563.000
405.739;  -96.200; -488.000; -243.000
405.866;  237.500;  669.000;  385.000
405.993;  -27.400; -398.000; -102.000
406.120; -212.600; -801.000; -887.000
406.247;  -66.900; -323.000; -342.000
406.374;  801.900;  540.000;  629.000
406.501;  110.500; -632.000; -702.000
406.628;  -84.600; -621.000; -589.000
406.755; -156.700; -803.000; -620.000
406.882;  -25.900; -228.000; -277.000
407.009; -198.700; -719.000; -628.000
407.136;  120.100; -480.000; -401.000
407.263;  147.500; -939.000; -829.000
407.390; -152.900; -692.000; -614.000
407.517; -274.300;-1139.000;-1187.000
407.644;  -75.200; -332.000; -256.000
407.771;  -68.300; -249.000; -287.000
407.898;   60.700;  168.000;  328.000
408.025;  -98.200; -421.000; -313.000
408.151;   45.100;   82.000;  153.000
408.278; -100.600; -267.000; -216.000
408.405; -204.700; -931.000; -899.000
408.532; -111.600; -549.000; -542.000
408.659; -181.800; -677.000; -648.000
408.785; -336.000;-1298.000;-1170.000
408.912;  -59.700; -412.000; -296.000
409.039; -183.900; -610.000; -686.000
409.166; -161.000; -591.000; -555.000
409.292; -166.800; -571.000; -534.000
409.419; -203.600; -665.000; -649.000
409.546; -103.900; -431.000; -192.000
409.672; -173.500; -713.000; -545.000
409.799;   23.800;  -36.000;   34.000
409.926;  -48.300; -180.000; -179.000
410.052; -319.500;-1127.000;-1091.000
410.179;  -60.300; -368.000; -392.000
410.305; -149.300; -375.000; -493.000
410.432;  -21.400; -220.000; -333.000
410.558; -135.700; -305.000; -380.000
410.685; -168.900; -688.000; -431.000
410.812; -173.700; -409.000; -588.000
410.938; -237.300; -964.000; -808.000
411.065; -158.800; -671.000; -645.000
411.191;    7.600; -189.000; -174.000
411.317; -195.200; -823.000; -742.000
411.444;  -81.100; -317.000; -246.000
411.570; -107.800; -339.000; -294.000
411.697; -188.000; -758.000; -752.000
411.823; -309.200; -989.000; -999.000
411.949;  -20.100;  -56.000;   17.000
412.076; -182.000; -539.000; -519.000
412.202; -215.800; -758.000; -757.000
412.329; -223.000; -798.000; -752.000
412.455; -206.000; -821.000; -657.000
412.581;    5.700;  -15.000;  172.000
412.707;  -89.900; -540.000; -457.000
412.834;   86.500;  156.000;  219.000
412.960; -152.600; -785.000; -784.000
413.086; -175.100; -743.000; -701.000
413.212;  286.400;  604.000;  578.000
413.339; -107.500; -685.000; -701.000
413.465;   17.500; -364.000; -310.000
413.591; -151.000; -757.000; -474.000
413.717;  -40.300; -358.000; -366.000
413.843; -255.000; -839.000; -861.000
413.969;  -69.800;  -47.000; -292.000
414.096; -155.000; -679.000; -679.000
414.222;   39.800;  -33.000;   85.000
414.348;  -65.100; -652.000; -385.000
414.474;  208.900;   38.000;  -52.000
414.600;   17.000; -126.000; -144.000
414.726;   69.400;  -96.000;  -55.000
414.852;  -69.100; -365.000; -342.000
414.978;  119.500;  104.000;  -18.000
415.104;   98.400;   38.000;   80.000
415.230;  106.300; -329.000; -330.000
415.356;  114.600; -409.000; -514.000
415.482;  403.600;   13.000;  -35.000
415.608;  571.400; -247.000; -323.000
415.734; 1942.200;   67.000;   38.000
415.860;39532.900; -875.000; -767.000
415.986;25784.000; -685.000; -607.000
416.111; 2142.800; -798.000; -652.000
416.237;  524.100; -424.000; -571.000
416.363; 2365.900; -765.000; -733.000
416.489; 7911.300; -324.000; -251.000
416.615;  802.400; -707.000; -742.000
416.741;    0.500; -677.000; -784.000
416.866; -142.200; -673.000; -736.000
416.992; -198.300; -801.000; -818.000
417.118;   12.400;  -41.000;  -80.000
417.244; -116.400; -798.000; -531.000
417.369; -142.500; -801.000; -612.000
417.495;   31.400; -325.000; -254.000
417.621; -160.300;-1015.000; -803.000
417.746;   53.000; -579.000; -572.000
417.872;  147.700; -254.000; -144.000
417.998;  113.500; -515.000; -530.000
418.123; 2311.000;-1073.000; -845.000
418.249;10111.900; -512.000; -601.000
418.374; 1291.800; -916.000; -824.000
418.500;  270.500; -383.000; -482.000
418.626;  305.200;   70.000;  -59.000
418.751;  267.900; -549.000; -448.000
418.877;  336.900; -637.000; -643.000
419.002; 3823.300; -688.000; -560.000
419.128;24315.400; -930.000; -721.000
419.253; 5294.600; -967.000; -837.000
419.379;  729.800; -391.000; -338.000
419.504;  814.500;  325.000;  415.000
419.629; 1021.600; -393.000; -212.000
419.755; 7582.000; -317.000; -254.000
419.880;40124.200;  -98.000;   67.000
420.006;22392.500; -280.000; -221.000
420.131;54152.300; -662.000; -775.000
420.256; 7048.900; -315.000; -316.000
420.382; 1000.000; -665.000; -687.000
420.507;  131.200; -649.000; -778.000
420.632;  258.000; -337.000; -339.000
420.758;  378.100; -251.000; -425.000
420.883; -160.300; -876.000; -672.000
421.008; -142.500; -775.000; -619.000
421.133; -100.200; -509.000; -467.000
421.259;   -8.200; -325.000; -259.000
421.384; -173.800; -834.000; -693.000
421.509;  -86.200;-1052.000; -862.000
421.634; 1686.300; -936.000; -820.000
421.759;  631.800; -359.000; -327.000
421.885;  -98.400; -717.000; -656.000
422.010;  -92.400; -673.000; -542.000
422.135; -194.200; -695.000; -727.000
422.260;  128.800;  340.000;  280.000
422.385;  -32.100;   12.000;  -98.000
422.510;   86.100;  151.000;  -26.000
422.635;   75.200;  -87.000;  -43.000
422.760;  151.400; -766.000; -791.000
422.885;  121.000;  -57.000;  -80.000
423.010;   -2.800; -112.000; -169.000
423.135; -111.600; -481.000; -561.000
423.260;   10.000; -150.000; -245.000
423.385;  182.000;  476.000;  222.000
423.510;  102.800;   71.000;  -22.000
423.635;  171.000;  133.000;   45.000
423.760;  168.000;  383.000;  328.000
423.885;  154.800;  336.000;  391.000
424.010;   41.800;  -68.000;  -13.000
424.135;   18.000;    5.000;  -33.000
424.259; -127.300; -654.000; -457.000
424.384;  -62.400; -279.000; -272.000
424.509;   11.500; -260.000; -186.000
424.634; -183.300; -761.000; -623.000
424.759;    5.800; -688.000; -544.000
424.883;   25.100; -506.000; -527.000
425.008;  365.900; -502.000; -410.000
425.133; 3940.000; -679.000; -653.000
425.258; 1668.200; -517.000; -381.000
425.382; 1726.100; -867.000; -774.000
425.507; 3856.800; -487.000; -543.000
425.632;  669.000; -802.000; -663.000
425.756;  916.100; -256.000; -146.000
425.881;13763.500; -831.000; -857.000
426.006;32991.300; -604.000; -355.000
426.130; 4701.300; -696.000; -508.000
426.255;  628.100; -611.000; -491.000
426.379;  297.900; -189.000; -577.000
426.504;  813.300;  660.000;  544.000
426.629; 8198.700; -519.000; -466.000
426.753; 4975.700;   64.000;  -46.000
426.878;  604.300; -252.000; -288.000
427.002;  301.000; -651.000; -668.000
427.127; 3353.500;  -35.000; -158.000
427.251;22008.800;  372.000;  401.000
427.375; 5550.100; -191.000; -173.000
427.500; 3605.500; -616.000; -610.000
427.624; 1110.700; -234.000; -400.000
427.749;  174.900; -216.000; -225.000
427.873;  -64.100; -499.000; -412.000
427.997;    3.000; -222.000; -230.000
428.122;  202.700;  795.000;  703.000
428.246;  190.700;  433.000;  434.000
428.371; -218.900; -869.000; -773.000
428.495; -156.100; -624.000; -646.000
428.619;   20.800; -186.000; -117.000
428.743;   90.200;   65.000;  132.000
428.868;   32.900; -732.000; -643.000
428.992; 2159.100; -219.000; -326.000
429.116;  811.700; -329.000; -357.000
429.240;  469.100;  419.000;  426.000
429.365;  -14.100; -454.000; -574.000
429.489;  -42.300; -638.000; -647.000
429.613;   72.900; -236.000; -177.000
429.737;  163.600; -563.000; -432.000
429.861;  561.500; -247.000; -133.000
429.985;11325.000; -425.000; -305.000
430.109;11035.200; -770.000; -908.000
430.234; 1251.900;   76.000;  -50.000
430.358;  169.200; -250.000; -160.000
430.482;  -93.300; -672.000; -564.000
430.606;  -60.900; -655.000; -375.000
430.730;   53.600; -437.000; -388.000
430.854;  153.900; -909.000; -835.000
430.978;  -95.700; -795.000; -764.000
431.102; -110.800; -499.000; -422.000
431.226; -136.100; -874.000; -815.000
431.350;  136.400;  345.000;  422.000
431.474;  -89.600; -661.000; -373.000
431.597; -241.700;-1060.000; -848.000
431.721; -104.600; -276.000; -267.000
431.845; -207.000; -704.000; -472.000
431.969;  -84.900; -304.000; -349.000
432.093; -108.100; -395.000; -317.000
432.217;   55.700;   32.000;   82.000
432.341; -111.900; -523.000; -518.000
432.464;   57.600;   96.000;   40.000
432.588;  345.300; -401.000; -329.000
432.712;  182.200;  -52.000;  -52.000
432.836;  105.100;  213.000;  263.000
432.959;   38.500; -372.000; -311.000
433.083;  201.900;   11.000;    2.000
433.207;  809.600;  285.000;  930.000
433.330;10229.500; -391.000; -200.000
433.454;11295.100; -654.000; -638.000
433.578; 6790.700;  583.000;  278.000
433.701; 1097.100; -623.000; -675.000
433.825;  232.500; -292.000; -299.000
433.949;  317.100;   28.000;  -72.000
434.072;   75.400; -410.000; -323.000
434.196;   23.700; -309.000; -117.000
434.319; 8074.300;25482.000;25124.000
434.443; 1479.700; -656.000; -603.000
434.566; 5038.500;  281.000;   62.000
434.690;  749.500; -637.000; -383.000
434.813;  129.800; -251.000; -173.000
434.937; -120.000; -569.000; -696.000
435.060;  -57.100; -423.000; -332.000
435.184;  465.400; -492.000; -217.000
435.307;  279.500;  159.000;  102.000
435.431;   43.000;  -40.000;   24.000
435.554;  -70.200; -399.000; -240.000
435.677; -109.100; -350.000; -258.000
435.801;  -33.200;  -25.000;   49.000
435.924;   11.600;    1.000;  -67.000
436.048; -216.700;-1019.000; -732.000
436.171;  -90.100; -240.000;  -66.000
436.294;   10.800; -248.000; -229.000
436.417;  222.900; -963.000; -849.000
436.541; -113.500; -814.000; -840.000
436.664;  -42.700; -242.000; -316.000
436.787;   15.800;   13.000;  113.000
436.910; -154.100; -792.000; -422.000
437.034;   71.700;  142.000;  143.000
437.157;  135.600;  -11.000;    0.000
437.280;  -89.500; -392.000; -292.000
437.403; -168.700; -982.000; -869.000
437.526;  913.800; -903.000; -865.000
437.649; 2987.400; -505.000; -332.000
437.772;  333.500; -692.000; -540.000
437.896;  263.100;  700.000;  544.000
438.019; -140.200; -758.000; -503.000
438.142; -135.800; -596.000; -506.000
438.265;  -34.900; -639.000; -670.000
438.388;  843.100; -520.000; -410.000
438.511;  118.500; -597.000; -394.000
438.634;  -36.900; -247.000; -125.000
438.757; -234.900; -693.000; -619.000
438.880;   -3.200;  -34.000;  -57.000
439.003; -130.700; -417.000; -437.000
439.126;  -58.100; -287.000; -167.000
439.248;  -88.100;  -98.000; -139.000
439.371;   -3.800;    9.000;  -53.000
439.494;  130.800;  510.000;  439.000
439.617;  -30.100;   65.000;  -88.000
439.740; -307.700; -968.000; -816.000
439.863; -209.500; -755.000; -595.000
439.986; -174.300; -476.000; -431.000
440.108;  -29.900; -161.000; -112.000
440.231; -267.900; -950.000; -836.000
440.354;  -41.200;  -64.000; -150.000
440.477;   15.100; -566.000; -542.000
440.599;   15.000; -200.000; -225.000
440.722; -202.900; -709.000; -586.000
440.845;  184.800;  751.000;  928.000
440.968; -163.700; -415.000; -311.000
441.090;  -92.000; -199.000;  -33.000
441.213; -245.800;-1021.000; -825.000
441.336;  -47.700; -159.000;   -5.000
441.458;  -92.100; -549.000; -396.000
441.581; -134.000; -628.000; -629.000
441.703;  -78.100; -152.000;   13.000
441.826; -174.100; -557.000; -400.000
441.948;  -25.400;   56.000;   51.000
442.071;  134.600;  555.000;  424.000
442.193; -190.600; -531.000; -485.000
442.316;   76.300;  152.000;   97.000
442.438;  110.200; -233.000;  -10.000
442.561;  203.800;  272.000;  262.000
442.683;  815.500; -809.000; -522.000
442.806; 1646.900;   -8.000;   74.000
442.928;  -71.700; -859.000; -604.000
443.051;  -91.400; -577.000; -373.000
443.173; -135.900; -341.000; -339.000
443.295; -122.600; -263.000; -371.000
443.418;  -90.200; -321.000;  -29.000
443.540;   10.000; -106.000;   -4.000
443.662; -193.200; -563.000; -465.000
443.785;   48.800;  335.000;  199.000
443.907; -153.300; -362.000; -208.000
444.029; -222.700; -767.000; -494.000
444.152; -193.200; -644.000; -554.000
444.274;  -19.700;  -18.000;  -24.000
444.396; -179.100; -461.000; -221.000
444.518; -221.700; -691.000; -454.000
444.640; -158.700; -268.000; -111.000
444.763;   29.400;  388.000;  249.000
444.885; -182.000; -432.000; -392.000
445.007;    0.200;   35.000;   86.000
445.129; -176.100; -610.000; -515.000
445.251; -169.300; -372.000; -439.000
445.373; -213.900; -537.000; -386.000
445.495;   82.400;  242.000;  350.000
445.617;  178.600;  853.000;  753.000
445.739; -112.400; -215.000;  -97.000
445.861;   -3.500; -245.000; -112.000
445.984;  -22.600; -267.000; -101.000
446.105;  321.700; -418.000; -251.000
446.227;  860.800; -176.000;  -19.000
446.349;  -42.300; -358.000; -249.000
446.471; -167.100; -615.000; -448.000
446.593;  -62.800; -316.000;   19.000
446.715;   47.000;  -67.000;   41.000
446.837;  172.700;  697.000;  832.000
446.959; -163.300; -457.000; -478.000
447.081; -208.900; -628.000; -518.000
447.203;  171.200;  862.000;  834.000
447.325; -124.500; -270.000;   42.000
447.446;   44.600;  286.000;  530.000
447.568; -278.800; -921.000; -803.000
447.690; -127.000; -236.000; -245.000
447.812; -253.400; -798.000; -519.000
447.933;   32.400;  155.000;  127.000
448.055;  -70.000; -306.000; -261.000
448.177;  287.000;   31.000;   79.000
448.299;   52.600; -935.000; -727.000
448.420;  109.200;  -25.000;  159.000
448.542;  -38.400;   -3.000;   33.000
448.664;    5.900;  109.000;  322.000
448.785;  -13.200;  265.000;   83.000
448.907;  -97.600; -614.000; -353.000
449.028;  -75.200; -771.000; -471.000
449.150;  218.700;  492.000;  589.000
449.272; -309.900;-1044.000; -913.000
449.393;  164.200;  612.000;  694.000
449.515; -226.500; -634.000; -581.000
449.636;  -88.200; -264.000; -155.000
449.758;  220.200;  763.000;  622.000
449.879; -145.200; -498.000; -396.000
450.001;  -85.700; -149.000;  -49.000
450.122;   20.200;  -95.000;  162.000
450.244;   -8.300;   37.000;  364.000
450.365; -129.000; -495.000; -301.000
450.486;    4.900;   80.000;  268.000
450.608;  119.900;  393.000;  326.000
450.729;  189.300;  578.000;  645.000
450.850;   67.500; -574.000; -466.000
450.972; 1645.700; -552.000; -389.000
451.093; 9885.100;  190.000;  588.000
451.214; 3670.300; -516.000; -337.000
451.336;  737.200;  773.000;  579.000
451.457;  182.100;  264.000;  393.000
451.578;    0.500; -118.000;  -74.000
451.699; -186.800; -546.000; -540.000
451.821;  -54.000; -284.000;  -50.000
451.942;   89.600;  278.000;  285.000
452.063;  140.500;  228.000;  419.000
452.184; 1224.300;  -54.000;  -49.000
452.305; 2095.200;  103.000;  170.000
452.427;  248.100; -549.000; -301.000
452.548;   28.400;   23.000;   79.000
452.669;  -59.400; -257.000;  -89.000
452.790;  -56.900;    3.000;  -18.000
452.911;   26.600;  195.000;  259.000
453.032;  -72.200; -289.000;  -60.000
453.153;  -33.000;  -29.000;   81.000
453.274;  180.900;  737.000;  868.000
453.395;   -7.600;  -51.000;  175.000
453.516;  326.700; 1317.000; 1388.000
453.637; -111.100; -205.000; -150.000
453.758;  -55.900;   15.000;   69.000
453.879; -162.900; -462.000; -250.000
454.000;  249.000; 1086.000;  948.000
454.121; -186.500; -554.000; -326.000
454.242; -169.100; -599.000; -383.000
454.362;  -27.700;  -99.000;  114.000
454.483;  -21.400; -309.000; -229.000
454.604;  158.400;  512.000;  580.000
454.725; -218.800; -627.000; -555.000
454.846; -248.000; -474.000; -406.000
454.967;   19.900;  230.000;  539.000
455.087;   -8.500;  179.000;  153.000
455.208;  133.800;  554.000;  856.000
455.329;  -56.500;  -22.000;   82.000
455.450;  171.700;  473.000;  633.000
455.570; -122.700; -234.000; -211.000
455.691;    9.900;  201.000;  407.000
455.812; -169.200; -270.000;  -92.000
455.932;  -39.600;  107.000;  -97.000
456.053; -106.100;   36.000;   24.000
456.173; -129.800; -433.000; -355.000
456.294; -235.500; -476.000; -303.000
456.415;  -60.800;  -73.000;   70.000
456.535;  -12.500;  297.000;  273.000
456.656;   -8.200;  132.000;  240.000
456.776;  -83.100;    3.000;  298.000
456.897;   84.500;  308.000;  513.000
457.017;  -94.800; -153.000;   -3.000
457.138; -147.200; -402.000; -249.000
457.258;   -4.400;  263.000;  224.000
457.379;   38.200;  509.000;  521.000
457.499;   18.500;  443.000;  432.000
457.620; -171.800; -407.000; -231.000
457.740; -116.000; -132.000;  -11.000
457.860;  -23.100;   87.000;   44.000
457.981;  -39.500;  132.000;  124.000
458.101; -117.700;  -89.000;   40.000
458.221;   27.600;  336.000;  402.000
458.342;  -47.700;   -4.000;  -37.000
458.462;  123.000;  617.000;  352.000
458.582;  -19.600; -302.000; -294.000
458.703;   83.100;  303.000;  154.000
458.823;   31.300;   22.000;  163.000
458.943;  133.200;  341.000;  467.000
459.063;   33.800; 1124.000;  192.000
459.183;  -16.600;  328.000;  313.000
459.304;   73.600;  315.000;  517.000
459.424;  -46.800; -246.000;  -89.000
459.544;  753.500;  388.000;  764.000
459.664; 1684.700;  499.000;  506.000
459.784;  610.200; 1004.000; 1175.000
459.904;  194.800;  867.000;  744.000
460.024;  185.100;  867.000;  684.000
460.144;   63.200;  449.000;  554.000
460.264;   40.500;  515.000;  327.000
460.385; -112.100; -145.000; -119.000
460.505;  150.500;  905.000;  858.000
460.625; -109.200;  -17.000;  -68.000
460.745;   56.200;  396.000;  541.000
460.864;  -44.200;  153.000;  469.000
460.984;  127.100;  499.000;  573.000
461.104;  363.600; 1656.000; 1775.000
461.224;  134.700;  657.000;  650.000
461.344;   -5.900;  431.000;  360.000
461.464;   23.800;  258.000;  513.000
461.584;   22.700;  283.000;  466.000
461.704;  -58.400;   58.000;  108.000
461.824;  -82.000;  238.000;  259.000
461.943;  -16.500;  191.000;  130.000
462.063; -102.900;    2.000;  324.000
462.183;  125.200;  639.000;  717.000
462.303;  281.400; 1678.000; 1230.000
462.422;  157.100;  781.000;  840.000
462.542;   -8.000;  271.000;  391.000
462.662;  121.500;  353.000;  380.000
462.782;  548.900;  833.000;  572.000
462.901; 1009.000;  545.000;  717.000
463.021;  601.300; 1702.000; 1638.000
463.141;   71.000;  337.000;  770.000
463.260;   26.400;  614.000;  474.000
463.380;  108.800;  902.000;  884.000
463.499;   -9.000;  342.000;  332.000
463.619;   -8.800;  581.000;  559.000
463.738;  314.300; 1644.000;  903.000
463.858;   99.000;  657.000;  811.000
463.978;   22.500;  542.000;  396.000
464.097;  170.500;  921.000; 1114.000
464.217;  327.700; 1196.000; 1143.000
464.336;  294.200; 1068.000; 1130.000
464.455;    6.900;  328.000;  659.000
464.575;  141.900;  597.000;  602.000
464.694;  381.000; 1204.000; 1179.000
464.814;  288.900; 1190.000; 1138.000
464.933;  255.400; 1095.000; 1027.000
465.052;  266.900; 1412.000; 1054.000
465.172;  241.700;  922.000;  799.000
465.291;  360.800; 1376.000; 1320.000
465.410;   88.900;  462.000;  735.000
465.530;  275.100; 1355.000; 1310.000
465.649;  214.300; 1209.000; 1273.000
465.768;  327.400; 1673.000; 1508.000
465.888;  187.100;  941.000; 1174.000
466.007;  264.400; 1335.000; 1440.000
466.126;   40.700;  721.000;  641.000
466.245;  148.300; 1176.000; 1187.000
466.364;  111.000;  950.000; 1060.000
466.484;  216.700; 1024.000; 1213.000
466.603;  108.000; 1101.000; 1222.000
466.722;  324.900; 1490.000; 1769.000
466.841;  216.200; 1151.000; 1401.000
466.960;  140.400; 1069.000;  972.000
467.079;  366.300; 1971.000; 1786.000
467.198;  153.300; 1238.000; 1181.000
467.317;  266.900; 1768.000; 1162.000
467.436;  229.300; 1709.000; 1261.000
467.555;  331.200; 1796.000; 1746.000
467.674;  233.800; 1227.000; 1329.000
467.793;  181.700; 1376.000; 1374.000
467.912;  247.900; 1658.000; 1539.000
468.031;  341.500; 2038.000; 1930.000
468.150;  346.300; 1842.000; 1837.000
468.269;  471.600; 2313.000; 2090.000
468.388;  466.800; 2168.000; 2339.000
468.507;  606.300; 2884.000; 2903.000
468.626;  578.000; 2555.000; 2541.000
468.744;  320.600; 2018.000; 2174.000
468.863;  489.500; 2312.000; 2523.000
468.982;  289.900; 1503.000; 1555.000
469.101;  506.900; 2788.000; 2692.000
469.220;  401.400; 2333.000; 2176.000
469.338;  590.600; 2935.000; 3051.000
469.457;  481.800; 2719.000; 2545.000
469.576;  815.700; 3953.000; 3784.000
469.695;  542.700; 2877.000; 3066.000
469.813;  913.000; 4148.000; 4192.000
469.932;  908.600; 4255.000; 4485.000
470.051;  950.700; 4075.000; 4161.000
470.169; 1841.200; 4470.000; 4338.000
470.288; 3010.200; 4700.000; 4809.000
470.406; 1737.700; 5059.000; 5194.000
470.525; 1385.600; 6101.000; 5787.000
470.644; 1421.400; 6847.000; 6794.000
470.762; 1687.700; 8397.000; 7873.000
470.881; 1937.000; 8651.000; 8464.000
470.999; 2156.400; 9685.000; 9151.000
471.118; 2313.100;11174.000;10711.000

