
Integration time [ms]: 100.000
Averaging Nr. [scans]: 40
Smoothing Nr. [pixels]: 0
Data measured with spectrometer [name]: 2101012U2
Wave   ;Sample   ;Dark     ;Reference
[nm]   ;[counts] ;[counts] ;[counts] 

197.733;   63.975;  516.000;  404.000
197.879;  -84.875; -610.000; -634.000
198.025;  -46.750; -475.000; -420.000
198.171;  -75.475; -602.000; -612.000
198.317;  -22.625; -401.000; -316.000
198.463;  -66.425; -655.000; -404.000
198.609;   40.750;  181.000; -137.000
198.755;  -79.200; -644.000; -410.000
198.901;  -70.950; -505.000; -424.000
199.047;  -62.675; -615.000; -488.000
199.193;  -39.975; -230.000; -468.000
199.339;  -40.350; -222.000; -369.000
199.485;   43.450;  330.000;  271.000
199.631;   24.350;  227.000;  310.000
199.777;  -58.800; -466.000; -398.000
199.923;  -55.175; -610.000; -424.000
200.069;   -0.975; -141.000;  -58.000
200.215;   57.750;  128.000;  453.000
200.361;   52.750;  243.000;  477.000
200.507;  -48.725; -600.000; -373.000
200.653;  -20.725; -371.000; -194.000
200.798;  -34.025; -215.000; -125.000
200.944;   -3.500; -146.000;  -41.000
201.090;   30.650;   61.000;  222.000
201.236;   -9.350; -116.000; -158.000
201.382;  121.125;  874.000;  903.000
201.528;    7.775;  -58.000;  -48.000
201.674;  -62.200; -386.000; -293.000
201.819;  -70.600; -540.000; -439.000
201.965;  -79.450; -699.000; -447.000
202.111;  -30.850; -273.000; -226.000
202.257;  -27.900; -250.000; -238.000
202.402;   15.750;   13.000;  -36.000
202.548;  -32.225; -169.000; -116.000
202.694;   77.650;  410.000; -183.000
202.840;  -75.550; -603.000; -531.000
202.985;  -67.275; -681.000; -639.000
203.131; -103.450; -832.000; -666.000
203.277;  -27.200; -199.000; -262.000
203.423;  -46.525; -434.000; -520.000
203.568;  -33.650; -462.000; -237.000
203.714;  -66.975; -535.000; -542.000
203.860;  -75.900; -682.000; -641.000
204.005;    4.750;  112.000;  167.000
204.151;   62.150;  561.000;  556.000
204.296;  -53.350; -354.000; -221.000
204.442;  -61.800; -600.000; -547.000
204.588;  -80.200; -592.000; -579.000
204.733;   17.950;  178.000;  168.000
204.879; -138.525;-1018.000; -822.000
205.025;   14.650;  -99.000;  126.000
205.170;    1.800;  -17.000;   94.000
205.316;   84.825;  438.000;  661.000
205.461;  -87.975; -698.000; -554.000
205.607;   81.175;  609.000;  665.000
205.752;  -78.200; -626.000; -551.000
205.898;  -69.925; -501.000; -391.000
206.043;  -56.575; -578.000; -506.000
206.189;  -36.175; -243.000; -285.000
206.334;   64.775;  554.000;  606.000
206.480;   88.325;  409.000;  239.000
206.625;  -90.675; -529.000; -552.000
206.771;  -41.275; -451.000; -373.000
206.916;  -35.000; -210.000; -537.000
207.062;  -76.700; -545.000; -591.000
207.207;  -66.825; -546.000; -443.000
207.353;   53.400;  185.000;  460.000
207.498;    6.475;  196.000;   85.000
207.643;  -57.325; -501.000; -370.000
207.789; -135.275;-1069.000; -910.000
207.934;  -90.875; -665.000; -713.000
208.080;  -26.900; -154.000;   66.000
208.225;   -9.725;  -22.000;  -57.000
208.370;  -86.125; -727.000; -619.000
208.516;  -61.325; -741.000; -487.000
208.661;  -25.400; -127.000;  -69.000
208.806;  -16.250; -165.000; -171.000
208.952; -120.450;-1044.000; -731.000
209.097;   65.125;  378.000;  349.000
209.242;  -46.375; -307.000; -382.000
209.387;   63.600;  392.000;  350.000
209.533;  -59.625; -321.000; -350.000
209.678;   70.475;  472.000;  543.000
209.823;  -70.125; -408.000; -310.000
209.969;  -89.875; -860.000; -757.000
210.114; -104.150; -907.000; -719.000
210.259; -121.700; -939.000; -889.000
210.404;  -28.825; -171.000;  103.000
210.549;    3.475;  108.000;    3.000
210.695;  -11.500;   -3.000;  -95.000
210.840;   40.775;   94.000;   67.000
210.985;  -64.500; -484.000; -303.000
211.130;   67.875;  268.000;  406.000
211.275;    7.850;  207.000;  199.000
211.420;  -70.375; -300.000; -289.000
211.566;  -72.525; -536.000; -489.000
211.711;   17.900;  218.000;  157.000
211.856;  -75.900; -545.000; -519.000
212.001;    5.200;  151.000;   44.000
212.146;   35.150;  153.000;   49.000
212.291;  -23.950; -210.000; -186.000
212.436;  -33.100; -280.000;   -6.000
212.581;  -81.225; -685.000; -653.000
212.726;  -72.175; -487.000; -538.000
212.871;  -45.625; -552.000; -217.000
213.016; -144.450;-1172.000;-1029.000
213.161;   62.375;  406.000;  291.000
213.306;  -79.650; -435.000; -577.000
213.451;  -87.600; -778.000; -689.000
213.596;  -47.425; -455.000; -347.000
213.741;  -52.900; -448.000; -538.000
213.886;  -82.225; -498.000; -517.000
214.031;  -25.975; -294.000; -124.000
214.176;  -73.350; -408.000; -341.000
214.321;  -16.300; -296.000; -157.000
214.466;  -31.250; -163.000;  -43.000
214.611;    7.350;  -61.000;  -10.000
214.756; -125.025; -948.000; -858.000
214.901;  -17.475; -388.000; -226.000
215.046; -122.350; -797.000; -825.000
215.191;   18.650;  128.000;   35.000
215.336;  -11.725; -157.000;  -19.000
215.480;  -64.625; -684.000; -505.000
215.625;  -21.825; -175.000;  -19.000
215.770;  -82.600; -757.000; -662.000
215.915;  -17.300;   -5.000;  -97.000
216.060;    1.500; -113.000;  -21.000
216.205; -117.150; -731.000; -779.000
216.349;  -71.025; -470.000; -533.000
216.494; -135.700; -939.000; -867.000
216.639; -123.125; -823.000; -888.000
216.784;  -94.675; -577.000; -525.000
216.929;   51.525;  392.000;  281.000
217.073;  -17.650; -244.000;  -31.000
217.218;    4.275;   78.000;  -47.000
217.363;  -92.725; -656.000; -618.000
217.507;  -77.500; -623.000; -588.000
217.652; -123.100; -845.000; -874.000
217.797;  -85.225; -708.000; -659.000
217.942; -123.250; -856.000; -720.000
218.086;   80.800;  608.000;  539.000
218.231;  -14.075; -174.000;  -26.000
218.376;  -32.950; -337.000; -229.000
218.520;    8.925;  -41.000;   96.000
218.665;  -33.950; -338.000; -204.000
218.810;  -47.000; -275.000; -233.000
218.954;   23.700;  201.000;   35.000
219.099; -115.300; -713.000; -963.000
219.243;  -82.100; -589.000; -554.000
219.388;  -39.575; -264.000; -136.000
219.532;  -12.500; -116.000; -116.000
219.677;  -84.525; -564.000; -521.000
219.822;    6.850;   33.000;   89.000
219.966;    5.675;   17.000;  -99.000
220.111;  -33.800; -328.000;  -40.000
220.255; -104.250; -797.000; -750.000
220.400;  -14.075; -180.000; -146.000
220.544;  -71.675; -516.000; -450.000
220.689;  -65.475; -422.000; -451.000
220.833;  -26.650; -123.000;  -58.000
220.978;  -36.625; -393.000; -563.000
221.122;   23.025;  319.000;  307.000
221.267; -116.475; -906.000; -837.000
221.411;  -66.925; -478.000; -394.000
221.555;   -3.725; -104.000;  -23.000
221.700;  -56.000; -329.000; -222.000
221.844;   50.700;  255.000;  272.000
221.989;  -54.325; -328.000; -311.000
222.133;  -38.100; -289.000; -307.000
222.277;   -8.475;    5.000;   78.000
222.422;   21.325;  227.000;  113.000
222.566;  -41.600; -381.000; -214.000
222.711;  -56.175; -414.000; -479.000
222.855;  -77.500; -643.000; -586.000
222.999;  -88.100; -642.000; -717.000
223.144;  -33.000; -195.000; -194.000
223.288;   57.900;  423.000;  251.000
223.432;   16.775;  184.000;  230.000
223.576;   21.675;  152.000;  -21.000
223.721;   30.550;  364.000;  273.000
223.865;  -63.900; -472.000; -475.000
224.009;  245.850; 1673.000; 1631.000
224.153;  -78.275; -660.000; -671.000
224.298;  -80.275; -531.000; -489.000
224.442;   -1.950;  -74.000;  -33.000
224.586;  -13.025; -169.000; -106.000
224.730;  -95.625; -858.000; -670.000
224.875; -110.900; -739.000; -688.000
225.019;   23.500;  102.000;  188.000
225.163;   46.675;  208.000;  341.000
225.307;   11.925;   97.000;  -91.000
225.451;   44.700;  360.000;  481.000
225.595;   40.425;  264.000;  176.000
225.739;  -19.875; -170.000;  -94.000
225.884;    3.975;   86.000;    5.000
226.028; -105.900; -760.000; -626.000
226.172;  -31.475; -260.000; -273.000
226.316; -131.700; -941.000; -902.000
226.460;  -63.125; -645.000; -493.000
226.604;  -43.050; -406.000; -400.000
226.748;  -99.500; -836.000; -733.000
226.892;  -37.275; -227.000; -181.000
227.036;  -49.750; -537.000; -447.000
227.180;  -64.500; -551.000; -375.000
227.324;  -63.900; -561.000; -580.000
227.468; -113.250; -819.000; -717.000
227.612;   28.825;  242.000;  -28.000
227.756;  -99.875; -845.000; -698.000
227.900;   52.525;  342.000;  441.000
228.044;  -65.425; -509.000; -290.000
228.188;   59.750;  448.000;  568.000
228.332;  -84.925; -546.000; -472.000
228.476;  -30.600; -223.000; -149.000
228.620;  -36.125; -210.000; -150.000
228.764;   72.825;  431.000;  349.000
228.908;  -11.325; -155.000;   30.000
229.052;  -60.000; -615.000; -528.000
229.195;  -13.200; -172.000;   13.000
229.339;  -44.125; -235.000; -305.000
229.483;  -29.900;    5.000; -162.000
229.627;   -6.100; -156.000;  139.000
229.771;  -47.900; -218.000; -294.000
229.915;   14.425;  230.000;   79.000
230.059;  -80.075; -648.000; -663.000
230.202;  -38.325; -370.000; -317.000
230.346;  -10.775; -107.000;  107.000
230.490;  -58.050; -489.000; -521.000
230.634; -111.525; -736.000; -553.000
230.777;   65.350;  478.000;  509.000
230.921;  -53.000; -450.000; -359.000
231.065;  -41.800; -246.000; -286.000
231.209;   34.625;  261.000;  265.000
231.352;   13.900;   54.000;   40.000
231.496;    7.225;  568.000;  188.000
231.640;  -75.750; -693.000; -621.000
231.783;   52.700;  546.000;  525.000
231.927;  -46.875; -294.000; -365.000
232.071; -119.250; -962.000; -736.000
232.214; -114.800; -980.000; -764.000
232.358; -103.700; -683.000; -599.000
232.502;    4.825;  -19.000;    7.000
232.645; -138.575;-1090.000; -927.000
232.789;  -24.975; -257.000; -218.000
232.933;  -34.050; -407.000; -224.000
233.076; -125.050;-1038.000; -897.000
233.220; -110.000; -752.000; -777.000
233.363;  -76.050; -669.000; -477.000
233.507;   51.925;  371.000;  129.000
233.650;  -88.300; -764.000; -834.000
233.794;   42.825;  438.000;  461.000
233.938;  -59.000; -530.000; -362.000
234.081;  -14.625;  -93.000;   31.000
234.225;  -61.500; -631.000; -539.000
234.368; -109.400; -773.000; -723.000
234.512;  -41.775; -385.000; -299.000
234.655;  -95.400; -582.000; -555.000
234.798;  -66.700; -493.000; -466.000
234.942; -129.775; -884.000;-1002.000
235.085;  -73.225; -651.000; -443.000
235.229;  -62.875; -405.000; -410.000
235.372;  -51.275; -247.000; -191.000
235.516;  -49.900; -397.000; -321.000
235.659;   20.450;   92.000;  121.000
235.802;  -19.050;  -38.000;  -22.000
235.946;   22.450;  335.000;  215.000
236.089;   22.300;  126.000;  250.000
236.233;   55.500;  275.000;  298.000
236.376;  -50.050; -235.000; -378.000
236.519;  -36.975; -297.000; -319.000
236.663;  -17.200; -215.000; -117.000
236.806; -151.125;-1029.000; -999.000
236.949;   66.150;  543.000;  431.000
237.092;   61.350;  412.000;  391.000
237.236;  -92.800; -589.000; -502.000
237.379;   70.600;  352.000;  428.000
237.522; -121.375; -879.000; -768.000
237.666;   -9.375; -271.000;   18.000
237.809; -131.125; -851.000; -823.000
237.952;   30.075;  469.000;  271.000
238.095;  -73.025; -447.000; -442.000
238.238;   75.150;  688.000;  700.000
238.382;   -3.450;  166.000;  103.000
238.525;  -56.375; -598.000; -511.000
238.668; -150.250;-1060.000; -985.000
238.811;  -89.000; -638.000; -643.000
238.954;  -63.400; -483.000; -334.000
239.097;   95.975;  617.000;  664.000
239.241;   16.475;  394.000;  326.000
239.384;  -29.325; -254.000; -214.000
239.527;  -73.025; -424.000; -224.000
239.670; -135.850; -994.000;-1091.000
239.813; -107.025; -696.000; -658.000
239.956;   79.800;  579.000;  473.000
240.099; -108.700; -778.000; -725.000
240.242;   66.475;  428.000;  432.000
240.385;   44.100;  466.000;  450.000
240.528;  -60.925; -706.000; -473.000
240.671;   16.600;  189.000;  134.000
240.814;  -44.000; -441.000; -158.000
240.957;  -93.750; -767.000; -578.000
241.100;  -99.825; -779.000; -755.000
241.243; -152.325;-1234.000; -893.000
241.386;  -74.600; -508.000; -379.000
241.529;  -95.150; -735.000; -547.000
241.672;  -65.175; -566.000; -495.000
241.815; -117.725; -832.000; -808.000
241.958;  -35.075; -125.000; -182.000
242.101;  -82.900; -545.000; -390.000
242.244;  -26.250; -270.000; -325.000
242.387;  -46.550; -304.000; -246.000
242.530;   67.700;  470.000;  134.000
242.673;  -41.625; -381.000; -309.000
242.815; -111.250; -925.000; -899.000
242.958;  -77.725; -482.000; -381.000
243.101;   12.800;  132.000;  187.000
243.244;  -87.875; -564.000; -521.000
243.387;  -46.725; -313.000; -316.000
243.530; -100.675; -657.000; -674.000
243.672;    0.400;   43.000;  -92.000
243.815;  -46.650; -355.000; -283.000
243.958;    5.425;   98.000;  -26.000
244.101;   -4.950;   59.000;  -16.000
244.243;  -16.650;  -47.000;  101.000
244.386; -112.450; -761.000; -630.000
244.529;  -20.225; -132.000; -139.000
244.672; -167.450;-1154.000; -951.000
244.814; -100.275; -621.000; -794.000
244.957;  -62.450; -380.000; -304.000
245.100;  -72.900; -489.000; -489.000
245.242;  -61.650; -387.000; -374.000
245.385;   -2.650;  -59.000;  -39.000
245.528; -121.600; -871.000; -705.000
245.670;   84.925;  612.000;  634.000
245.813;  -92.400; -599.000; -547.000
245.956;  -24.375; -324.000; -275.000
246.098;  -77.350; -508.000; -650.000
246.241;    4.950;  194.000;   48.000
246.383;  -21.800; -119.000;  -73.000
246.526;  -81.275; -454.000; -525.000
246.669; -114.750; -889.000; -780.000
246.811;   13.550;  172.000;   -1.000
246.954;  -71.850; -512.000; -426.000
247.096;  -34.525;  -84.000;   -6.000
247.239;  -66.225; -482.000; -445.000
247.381;  -69.575; -647.000; -488.000
247.524;   82.400;  645.000;  679.000
247.666;   -3.400;   58.000;   11.000
247.809; -125.725; -887.000; -691.000
247.951;   -8.750;  -75.000;  138.000
248.094;   29.600;  432.000;  308.000
248.236; -157.725;-1262.000;-1238.000
248.378;    0.600; -356.000;  -81.000
248.521;  -23.175; -334.000; -337.000
248.663;  -47.775; -236.000; -267.000
248.806;  -18.450; -300.000; -266.000
248.948;  -86.775; -886.000; -763.000
249.090;  -40.400; -428.000; -398.000
249.233;  -50.450; -344.000; -381.000
249.375;  -65.675; -474.000; -451.000
249.518;   -7.250;  -83.000; -133.000
249.660;  -12.850; -103.000;    3.000
249.802; -174.825;-1303.000;-1189.000
249.945;  -76.725; -612.000; -540.000
250.087; -118.900; -834.000; -768.000
250.229;  -43.950; -362.000; -480.000
250.371;  -79.050; -494.000; -439.000
250.514;  -54.200; -310.000; -244.000
250.656;  -54.850;   69.000;  102.000
250.798; -114.500; -849.000; -800.000
250.940;  -57.875; -322.000; -322.000
251.083;  -40.525; -335.000; -111.000
251.225;   45.075;  338.000;  310.000
251.367;  -45.125; -274.000; -373.000
251.509;  -39.175; -265.000; -210.000
251.651;  -92.800; -731.000; -671.000
251.794;   68.225;  538.000;  632.000
251.936; -110.125; -821.000; -747.000
252.078;  -86.375; -540.000; -461.000
252.220;  -65.550; -645.000; -477.000
252.362;   85.175;  344.000;  462.000
252.504;  -65.875; -677.000; -584.000
252.646; -115.725; -875.000; -722.000
252.788;   -7.625;   14.000; -128.000
252.931;  -38.275; -257.000; -253.000
253.073;  -26.750; -376.000; -317.000
253.215;   -4.575;  141.000;  122.000
253.357;  -17.100;   82.000; -153.000
253.499;  -37.200; -374.000; -234.000
253.641;  -82.675; -749.000; -594.000
253.783;  -99.825; -609.000; -527.000
253.925;  -73.725; -586.000; -591.000
254.067; -108.050; -744.000; -667.000
254.209;  -21.150; -391.000; -259.000
254.351; -136.150; -865.000; -883.000
254.493;  -79.025; -441.000; -417.000
254.635; -124.475; -936.000; -818.000
254.777;  -92.250; -752.000; -687.000
254.918;  -77.775; -512.000; -430.000
255.060;  -64.375; -551.000; -395.000
255.202;  -60.000; -473.000; -261.000
255.344;  -73.000; -658.000; -455.000
255.486;  -74.175; -471.000; -406.000
255.628; -111.475; -780.000; -781.000
255.770;  -93.850; -676.000; -536.000
255.912;  -68.675; -559.000; -468.000
256.053;  -90.975; -730.000; -508.000
256.195;  136.250; 1008.000;  903.000
256.337; -100.275; -861.000; -595.000
256.479;   58.850;  532.000;  416.000
256.621;  -59.425; -394.000; -212.000
256.762;  -98.125; -789.000; -742.000
256.904;   48.350;  485.000;  487.000
257.046;  -34.650; -381.000; -271.000
257.188;  -49.900; -351.000; -264.000
257.329;  -73.650; -525.000; -464.000
257.471; -116.500; -939.000; -807.000
257.613;  -63.400; -584.000; -498.000
257.755; -149.800;-1073.000; -982.000
257.896;   36.975;  286.000;  392.000
258.038;  -62.725; -403.000; -352.000
258.180;  -46.725; -354.000; -279.000
258.321;  -87.725; -581.000; -457.000
258.463;   -1.050;  -71.000;  133.000
258.605;  -93.325; -562.000; -570.000
258.746;  -90.750; -886.000; -772.000
258.888; -141.725;-1026.000;-1020.000
259.029;   12.225;  121.000;   -8.000
259.171;  -88.725; -614.000; -550.000
259.313;   -5.675;  -49.000;  -47.000
259.454;  -65.125; -536.000; -414.000
259.596;  -62.500; -483.000; -390.000
259.737;  -71.800; -590.000; -474.000
259.879;   34.925;  217.000;  311.000
260.020;   93.775;  901.000;  636.000
260.162;  -36.250; -146.000; -253.000
260.303; -118.150; -768.000; -687.000
260.445;  -83.275; -609.000; -613.000
260.586;   27.625;  392.000;  157.000
260.728;  -49.225; -360.000; -248.000
260.869; -108.525; -350.000; -343.000
261.011;   75.000;  706.000;  537.000
261.152;  -51.650; -479.000; -319.000
261.293;  -71.950; -576.000; -595.000
261.435;  -40.025; -219.000; -184.000
261.576;  -57.800; -455.000; -325.000
261.718;   52.575;  420.000;  470.000
261.859; -118.600; -940.000; -949.000
262.000; -129.850; -951.000;-1016.000
262.142;  -29.125;  -52.000;  -60.000
262.283; -122.850; -808.000; -691.000
262.424;  -74.925; -666.000; -625.000
262.566; -148.725;-1161.000; -983.000
262.707; -112.850; -840.000; -830.000
262.848; -123.550; -769.000; -726.000
262.990;  -49.375; -362.000; -345.000
263.131;   69.650;  650.000;  681.000
263.272;  -10.525;  -61.000;  -41.000
263.413;  -99.050; -589.000; -561.000
263.555;  -77.275; -669.000; -143.000
263.696;  -99.100; -550.000; -641.000
263.837;  -59.450; -449.000; -551.000
263.978;  -13.025;   -5.000;  -77.000
264.119;  -44.400; -283.000; -264.000
264.261; -122.100; -847.000; -630.000
264.402;   -2.400;   33.000;   40.000
264.543;  -86.700; -509.000; -524.000
264.684;  -14.325;   61.000;  -50.000
264.825;  -77.800; -816.000; -538.000
264.966;   -4.450;  -84.000;  -67.000
265.107; -119.625; -646.000; -670.000
265.248; -120.725; -825.000; -812.000
265.390;   -3.425;  152.000;   -9.000
265.531;  -23.350; -238.000; -107.000
265.672;  -95.675; -557.000; -630.000
265.813;   53.025;  563.000;  439.000
265.954; -151.800; -959.000; -940.000
266.095;  -29.025; -372.000; -322.000
266.236;  -98.625; -686.000; -548.000
266.377;  -41.700; -243.000; -297.000
266.518;  -71.150; -619.000; -547.000
266.659;   34.100;  170.000;  268.000
266.800;   21.250;   83.000;   85.000
266.941;  -84.425; -487.000; -478.000
267.082;   -0.025;  354.000;   99.000
267.223;  -49.925; -344.000; -273.000
267.364; -127.125; -892.000; -686.000
267.504;   -6.550;    3.000;  135.000
267.645;   -2.325;  160.000;   67.000
267.786;  -33.500; -147.000;  -86.000
267.927;  -81.075; -473.000; -379.000
268.068;   -9.075; -186.000;  -61.000
268.209;  -47.825; -175.000; -413.000
268.350;  -56.650; -388.000; -532.000
268.490;  -91.450; -648.000; -521.000
268.631;   20.500;  127.000;  225.000
268.772; -124.925; -874.000; -647.000
268.913;  -44.825; -328.000; -476.000
269.054;  -12.425; -117.000;   12.000
269.194;  -40.575; -418.000; -402.000
269.335; -159.875;-1137.000;-1074.000
269.476;   -9.425;   33.000;  -35.000
269.617;  -53.400; -347.000; -392.000
269.757;  -91.800; -713.000; -646.000
269.898; -106.825; -856.000; -613.000
270.039;  -60.800; -415.000; -405.000
270.180; -137.950; -952.000; -816.000
270.320;  -14.350; -190.000; -250.000
270.461;  -44.275; -277.000; -249.000
270.602;   -6.450; -186.000; -156.000
270.742; -133.275; -868.000; -943.000
270.883;  -47.100; -442.000; -390.000
271.023;  -61.300; -358.000; -357.000
271.164;  -85.375; -607.000; -528.000
271.305; -104.100; -666.000; -654.000
271.445;  -97.800; -722.000; -683.000
271.586;  -73.200; -462.000; -283.000
271.726;  -59.850; -397.000; -322.000
271.867;  -61.200; -594.000; -534.000
272.008;  195.300; -473.000; -285.000
272.148;  124.850;  462.000;  468.000
272.289;   20.075; -113.000; -181.000
272.429;    9.925;   19.000;  185.000
272.570;  -91.325; -633.000; -737.000
272.710;  -94.550; -825.000; -775.000
272.851;  -20.600;  113.000; -130.000
272.991; -156.575;-1173.000;-1077.000
273.131;  -64.825; -419.000; -459.000
273.272; -108.625; -683.000; -723.000
273.412;   -0.950; -143.000;  -31.000
273.553;  -48.400; -488.000; -507.000
273.693;  146.275;  913.000;  858.000
273.834;  -98.350; -894.000; -692.000
273.974;  -73.500; -664.000; -615.000
274.114;  -90.725; -772.000; -560.000
274.255;   79.275;  414.000;  373.000
274.395;   11.575; -180.000; -125.000
274.535;   49.925;  199.000;  350.000
274.676;   18.200;  225.000;   94.000
274.816;   10.825;  110.000;   34.000
274.956; -100.675; -624.000; -690.000
275.097;  -55.425;-1014.000; -922.000
275.237; -118.625; -913.000; -803.000
275.377; -107.100; -778.000; -689.000
275.517; -138.850; -878.000; -937.000
275.658;  -51.500; -590.000; -555.000
275.798;  -53.750; -606.000; -413.000
275.938;   36.800;  215.000;  323.000
276.078; -107.325; -626.000; -395.000
276.218;   18.750;   99.000;  104.000
276.359; -129.350;-1026.000;-1024.000
276.499;  -68.950; -605.000; -446.000
276.639;  -42.750; -305.000; -151.000
276.779;  -41.925; -475.000; -357.000
276.919; -102.675; -783.000; -624.000
277.059;   -7.975; -261.000; -212.000
277.199;  -52.025; -357.000; -259.000
277.340;   41.950;  287.000;  175.000
277.480;  -96.700; -840.000; -693.000
277.620;   34.125;  192.000;   16.000
277.760; -195.400;-1533.000;-1294.000
277.900;   19.225;  113.000;   33.000
278.040;   18.225;  137.000;  159.000
278.180;   37.500;  270.000;  170.000
278.320;   -0.025;   21.000;   56.000
278.460;  -56.200; -443.000; -469.000
278.600;  -92.750; -708.000; -598.000
278.740;   47.800;  448.000;  224.000
278.880;  -40.525; -768.000; -791.000
279.020;   -8.425; -194.000; -144.000
279.160;  -95.850; -672.000; -595.000
279.300; -105.475; -926.000; -873.000
279.440;  -93.775; -709.000; -622.000
279.579;    2.300;-1014.000; -929.000
279.719;  -48.625; -410.000; -394.000
279.859;   73.950;   -4.000;   41.000
279.999;   30.500; -208.000;  101.000
280.139;  -18.350; -435.000; -387.000
280.279;  -71.425; -708.000; -745.000
280.419;  -17.250; -229.000; -147.000
280.559;  -33.100; -259.000; -180.000
280.698;  -83.275; -790.000; -639.000
280.838;  -86.875; -778.000; -800.000
280.978;  -97.300; -846.000; -790.000
281.118; -119.775; -811.000; -704.000
281.257;    1.325;   24.000;    6.000
281.397; -110.525;-1094.000; -960.000
281.537;  -88.650; -599.000; -712.000
281.677;  -20.075; -150.000; -101.000
281.816;  -84.900; -700.000; -630.000
281.956;  -43.600; -193.000; -257.000
282.096;  -72.850; -539.000; -396.000
282.235; -114.925; -672.000; -638.000
282.375;  -12.525; -243.000;  -98.000
282.515; -106.625; -715.000; -707.000
282.654;   26.175;   29.000;  106.000
282.794;   23.875;  388.000;  244.000
282.934;  -61.250; -530.000; -491.000
283.073; -137.175;-1030.000; -857.000
283.213;  -49.400; -460.000; -467.000
283.353;  -37.650; -408.000; -349.000
283.492;  -25.375; -264.000; -296.000
283.632;  -47.475; -254.000; -168.000
283.771;  -93.175; -859.000; -730.000
283.911;  -48.300; -369.000; -260.000
284.050; -111.225; -794.000; -748.000
284.190; -158.025;-1229.000;-1096.000
284.329; -131.225;-1055.000; -964.000
284.469;  -59.300; -516.000; -591.000
284.608;  -49.850; -559.000; -598.000
284.748;  -89.175; -614.000; -570.000
284.887;    5.650;  -87.000;  -20.000
285.027; -122.725; -844.000; -892.000
285.166;  -24.200; -192.000; -249.000
285.306;    5.350; -116.000;  -33.000
285.445;  -40.950; -229.000; -343.000
285.584; -101.200; -630.000; -494.000
285.724;  -43.975; -282.000; -322.000
285.863; -123.625; -857.000; -507.000
286.002;  -40.450; -366.000; -276.000
286.142; -107.025; -715.000; -622.000
286.281;  -69.750; -525.000; -493.000
286.420;  -84.475; -554.000; -417.000
286.560;   81.025;  653.000;  623.000
286.699; -136.500; -958.000; -912.000
286.838;  -70.800; -590.000; -591.000
286.978;  -84.250; -533.000; -537.000
287.117; -137.325;-1085.000; -950.000
287.256;  -33.775; -228.000; -211.000
287.395;  -59.350; -197.000; -378.000
287.535;  -56.350; -370.000; -298.000
287.674;  -68.550; -509.000; -484.000
287.813;   52.925;  661.000;  533.000
287.952; -131.325;-1010.000; -871.000
288.091; -160.850;-1049.000; -915.000
288.231;   11.600;   13.000;   15.000
288.370; -178.325;-1217.000;-1200.000
288.509;  -92.450; -728.000; -645.000
288.648; -100.375; -770.000; -548.000
288.787;  -29.300; -243.000;  -87.000
288.926;  -60.650; -454.000; -475.000
289.065;  121.525;  859.000;  672.000
289.204;  -57.675; -377.000; -217.000
289.344;  -90.700; -791.000; -690.000
289.483;   21.800;  416.000;  304.000
289.622;  -24.175; -291.000; -149.000
289.761;  -13.875; -309.000; -166.000
289.900; -103.950; -785.000; -626.000
290.039;  -18.150;  -12.000;  -95.000
290.178;  -29.300; -274.000; -180.000
290.317;  -79.500; -618.000; -479.000
290.456;  -70.925; -463.000; -451.000
290.595; -131.200; -961.000; -833.000
290.734; -138.950; -904.000; -891.000
290.873;  -66.750; -456.000; -420.000
291.011; -105.150; -833.000; -843.000
291.150; -105.825; -770.000; -682.000
291.289;  -16.000; -343.000; -110.000
291.428;  -95.725; -599.000; -480.000
291.567;  -38.875; -370.000; -442.000
291.706;   -7.000;  109.000;  154.000
291.845;  -74.650; -597.000; -505.000
291.984; -172.225;-1234.000;-1061.000
292.122;   74.525;  602.000;  582.000
292.261;   51.000;  620.000;  463.000
292.400;   16.925; -144.000;  211.000
292.539; -114.800; -959.000; -813.000
292.678;  -29.775; -325.000; -300.000
292.816; -156.750;-1136.000; -965.000
292.955;  -94.225; -844.000; -684.000
293.094;  -26.900; -173.000; -337.000
293.233;  -41.200; -556.000; -400.000
293.371;  -29.925; -225.000;  -84.000
293.510; -108.500; -866.000; -780.000
293.649; -130.125; -959.000; -924.000
293.787;  -31.925;-1083.000;-1012.000
293.926;  -13.150; -113.000;  -32.000
294.065;  -52.775; -379.000; -290.000
294.203;   47.050;  298.000;  406.000
294.342;   19.225;   74.000;  156.000
294.481; 5456.300;51180.000; -836.000
294.619;  -22.925; -425.000; -582.000
294.758; -151.475;-1230.000;-1137.000
294.896;   81.950; -125.000;    5.000
295.035; -127.925;-1040.000;-1006.000
295.174; -118.550;-1082.000; -954.000
295.312;  -46.475; -323.000; -203.000
295.451;    2.975; -307.000; -428.000
295.589;  -59.400; -389.000; -518.000
295.728;   38.450; -292.000; -165.000
295.866;   10.700;  -36.000;  -51.000
296.005;  -63.100; -584.000; -341.000
296.143;  -72.450; -558.000; -596.000
296.282;  -93.775; -957.000; -881.000
296.420;  -79.425; -657.000; -557.000
296.559;  -87.775; -892.000; -633.000
296.697;   37.000; -847.000; -665.000
296.835;   84.775;-1141.000;-1002.000
296.974;   41.575;  -23.000;   39.000
297.112;   11.725; -443.000; -504.000
297.251;  -74.750; -815.000; -755.000
297.389;  118.100; -576.000; -438.000
297.527;   57.400; -145.000;  -83.000
297.666;  -47.200; -486.000; -438.000
297.804;  -56.025; -404.000; -264.000
297.942;   -5.175; -136.000; -161.000
298.081;    2.675; -183.000;   63.000
298.219;   83.650;  -17.000;  -19.000
298.357;   72.200; -144.000;  -71.000
298.495;   52.725; -810.000; -812.000
298.634;   91.225;  245.000;  219.000
298.772;   77.200; -220.000; -338.000
298.910;  -34.600; -309.000; -182.000
299.048;  -18.525; -130.000; -153.000
299.187;  -41.175; -350.000; -250.000
299.325;   14.650;   52.000;  122.000
299.463;   79.600; -389.000; -299.000
299.601;  130.250; -327.000; -271.000
299.739;  -88.950; -908.000; -883.000
299.877;  -80.125; -791.000; -703.000
300.016;  -27.175;-1095.000; -935.000
300.154;  197.800;  -19.000; -161.000
300.292;   83.950; -428.000; -348.000
300.430;   42.450; -408.000; -291.000
300.568;  -94.100; -940.000; -874.000
300.706;  -44.025; -366.000; -469.000
300.844;  -59.700;-1108.000; -979.000
300.982;  136.200;  246.000;  282.000
301.120; -113.900; -965.000; -866.000
301.258;  -66.000; -812.000; -705.000
301.396;   47.400;  104.000;  -41.000
301.534;  112.775; -218.000; -293.000
301.672;    0.750; -664.000; -521.000
301.810;   61.675; -613.000; -545.000
301.948;  140.550;   53.000;  149.000
302.086;  712.425; -250.000;  -32.000
302.224; 1076.400; -610.000; -585.000
302.362;   69.875; -558.000; -622.000
302.500;   -1.100; -923.000; -893.000
302.638;  124.600;  128.000;  245.000
302.776;   18.925; -352.000; -408.000
302.913;   53.150;  447.000;  236.000
303.051;   14.950;  -86.000;  -23.000
303.189;   65.375;   90.000;  118.000
303.327;  -44.000; -341.000; -256.000
303.465;  -71.050; -832.000; -588.000
303.603;  -90.775; -805.000; -604.000
303.740;  108.600;  417.000;  241.000
303.878;   39.275; -800.000; -759.000
304.016;  -92.475; -915.000; -790.000
304.154; -113.050;-1123.000;-1152.000
304.291;  -26.875; -505.000; -554.000
304.429;   14.875;  102.000;   74.000
304.567; -115.950; -908.000; -893.000
304.705;  -49.925; -408.000; -515.000
304.842;  124.950; -616.000; -540.000
304.980;   66.250;  215.000;   35.000
305.118;   59.900; -367.000; -365.000
305.255;  -62.450; -945.000; -927.000
305.393;   76.500;  178.000;  239.000
305.531;  -94.800;-1173.000; -956.000
305.668;  -70.375; -663.000; -582.000
305.806;  123.975; -358.000; -439.000
305.943;  126.325; -629.000; -637.000
306.081;   76.675; -378.000; -267.000
306.219;  -93.125; -863.000; -748.000
306.356;    1.275;  158.000;   27.000
306.494;  115.525;  981.000;  761.000
306.631;    5.625;  -11.000;  -55.000
306.769;   24.825; -613.000; -485.000
306.906;  -16.400; -284.000; -258.000
307.044;  -61.525; -473.000; -488.000
307.181;  -67.525; -410.000; -332.000
307.319;   15.475;  112.000;   87.000
307.456; -173.275;-1191.000;-1153.000
307.594;  -96.875; -980.000; -727.000
307.731;  -24.975; -371.000; -164.000
307.868;   -4.400;  -15.000;   20.000
308.006; -121.225; -961.000; -847.000
308.143;  -63.150; -618.000; -330.000
308.281;  181.775;  -37.000; -254.000
308.418;   -7.425; -748.000; -640.000
308.555;  -65.825; -400.000; -250.000
308.693;  -69.250; -577.000; -573.000
308.830; -111.050; -712.000; -657.000
308.967;  -18.700; -215.000;  -95.000
309.105;  -31.375; -507.000; -396.000
309.242;   34.375; -468.000; -367.000
309.379;  321.725; -577.000; -655.000
309.517;  -59.525; -936.000; -948.000
309.654; -103.875; -910.000; -734.000
309.791;  -63.125; -662.000; -580.000
309.928; -111.100; -977.000; -914.000
310.065;  177.875;  819.000;  697.000
310.203;   22.425; -825.000; -850.000
310.340;  -15.000; -465.000; -321.000
310.477;  -73.375; -412.000; -516.000
310.614;  -71.275; -383.000; -473.000
310.751;  -78.925; -427.000; -518.000
310.889;  -16.800;    1.000;   11.000
311.026; -155.925;-1161.000; -939.000
311.163;  -51.050; -386.000; -380.000
311.300;  -70.600; -512.000; -479.000
311.437;  -69.475; -658.000; -619.000
311.574; -162.350;-1226.000; -985.000
311.711;  -56.550; -595.000; -433.000
311.848;  -29.700; -380.000; -388.000
311.985;   17.300;  270.000;   93.000
312.122; -119.200; -932.000; -762.000
312.259; -121.800; -941.000; -994.000
312.396;  -79.950; -508.000; -551.000
312.533;  -85.275; -812.000; -790.000
312.670; -128.525;-1070.000; -898.000
312.807;  -25.225; -352.000; -367.000
312.944;  -79.700; -513.000; -611.000
313.081;  -40.775; -150.000; -415.000
313.218; -102.725;-1111.000; -867.000
313.355;   33.425; -531.000; -449.000
313.492;   -4.475; -455.000; -292.000
313.629;  124.925;  815.000;  735.000
313.766; -151.650;-1176.000;-1008.000
313.902;  -12.750; -186.000;   21.000
314.039;  -62.125; -372.000; -289.000
314.176;   21.850;  286.000;  192.000
314.313;  -69.925; -569.000; -473.000
314.450;  -75.575; -788.000; -684.000
314.587;  -55.775; -468.000; -480.000
314.723;   11.725;  -78.000;  130.000
314.860;   31.750;  318.000;  332.000
314.997;   25.475;  223.000;  142.000
315.134;  -42.025; -385.000; -368.000
315.270;  -15.775; -480.000; -496.000
315.407; -122.575;-1094.000; -967.000
315.544;  -46.800; -657.000; -538.000
315.681;  -57.800; -681.000; -565.000
315.817;   41.750; -133.000; -176.000
315.954;   36.050; -613.000; -392.000
316.091; -107.725;-1045.000;-1023.000
316.227;  -35.175;  -71.000; -179.000
316.364;   -0.450;   23.000;    6.000
316.500;  -50.975; -113.000; -300.000
316.637;  -41.675; -181.000; -302.000
316.774;  -89.750; -625.000; -358.000
316.910;  -86.400; -598.000; -629.000
317.047;  -60.775; -487.000; -351.000
317.183;  -55.925; -435.000; -566.000
317.320;  -16.900; -367.000; -321.000
317.456;  -64.725; -733.000; -805.000
317.593;  -84.700; -598.000; -641.000
317.729;    6.175;  168.000;  -67.000
317.866; -203.250;-1434.000;-1285.000
318.002;  -96.375; -708.000; -948.000
318.139;  -81.775; -883.000; -867.000
318.275; -108.050;-1003.000; -738.000
318.412;  -56.825; -517.000; -336.000
318.548;  -10.950; -751.000; -720.000
318.685; -105.750; -985.000; -888.000
318.821;  -98.250; -762.000; -735.000
318.957;  -21.925;   34.000;  -23.000
319.094;   46.800;  297.000;  154.000
319.230;  -51.350; -756.000; -742.000
319.367;  149.925; -471.000; -520.000
319.503;   74.175; -538.000; -436.000
319.639;  -92.075; -877.000; -793.000
319.775;  -57.075; -750.000; -685.000
319.912;  -43.100; -424.000; -519.000
320.048;  -75.375;-1184.000;-1184.000
320.184;   64.900;   59.000;   70.000
320.321;  -75.325; -497.000; -467.000
320.457;   62.775;  475.000;  662.000
320.593;  -58.300; -375.000; -382.000
320.729;  -94.950; -732.000; -734.000
320.866;  -80.900; -577.000; -635.000
321.002;  -70.050; -759.000; -809.000
321.138;   11.525; -135.000; -211.000
321.274;   81.325; -148.000; -115.000
321.410;  -12.425; -585.000; -353.000
321.546;   -0.750;-1011.000; -911.000
321.683;   60.425;  400.000;  185.000
321.819;    0.550;  -48.000; -117.000
321.955; -108.900; -743.000; -722.000
322.091;  -48.725; -585.000; -540.000
322.227;  -13.475; -382.000; -202.000
322.363;   -4.375; -320.000; -215.000
322.499;  -40.800; -343.000; -331.000
322.635;  182.350;  636.000;  443.000
322.771;   23.625; -139.000;   12.000
322.907;  102.500;  129.000;  327.000
323.043;  -33.875; -115.000; -206.000
323.179;  -31.900; -394.000; -363.000
323.315;   36.700; -401.000; -371.000
323.451;  123.525; -328.000; -236.000
323.587;   60.375;  -60.000;  -77.000
323.723;   31.550; -682.000; -601.000
323.859;  -12.650; -258.000;  -76.000
323.995;  -31.125; -467.000; -409.000
324.131; -124.450; -967.000; -892.000
324.267;  -46.750; -254.000; -276.000
324.402; -133.400; -960.000; -983.000
324.538;  -15.700; -279.000; -104.000
324.674;   27.025;  164.000;   77.000
324.810;  144.200;  226.000;  308.000
324.946;   24.125; -810.000; -658.000
325.082;  -67.025; -568.000; -475.000
325.217;  -16.050;  -62.000;   16.000
325.353; -100.500; -764.000; -659.000
325.489;  -93.800; -540.000; -506.000
325.625;  -66.300; -579.000; -525.000
325.760;   64.675;  517.000;  376.000
325.896;  -27.775; -515.000; -702.000
326.032;  -53.950; -403.000; -352.000
326.168;  -57.900; -462.000; -369.000
326.303;  -66.675; -352.000; -461.000
326.439;  -15.525; -336.000; -276.000
326.575;    9.850; -190.000;  -29.000
326.710;   -8.025; -156.000;  -30.000
326.846;  -16.150;  146.000;  103.000
326.982;  -79.075; -530.000; -548.000
327.117;  -75.425; -481.000; -442.000
327.253;  -90.425; -745.000; -742.000
327.388; -122.500;-1137.000;-1153.000
327.524;  -34.025; -811.000; -578.000
327.659;  -15.300;  -58.000;  -22.000
327.795;  -24.825;   69.000;   45.000
327.931;  -95.150; -723.000; -499.000
328.066;  -27.875; -417.000; -276.000
328.202;   -4.575;   12.000; -129.000
328.337;   99.950;  957.000;  713.000
328.473;   32.150;  -12.000;  -74.000
328.608;   -9.925; -256.000; -267.000
328.743;  -80.250; -799.000; -664.000
328.879;   16.800;  214.000;  114.000
329.014;  -43.575; -102.000; -122.000
329.150;  -82.450; -358.000; -483.000
329.285;  -64.275; -465.000; -466.000
329.421;  -46.450; -548.000; -246.000
329.556;  -18.975;  -36.000;   85.000
329.691; -103.325; -633.000; -615.000
329.827;  -82.750; -626.000; -480.000
329.962;  -35.950;  131.000; -301.000
330.097;  -85.175; -673.000; -585.000
330.233;  -42.700; -410.000; -223.000
330.368; -129.200; -839.000; -628.000
330.503;   -7.375;    3.000;   98.000
330.638;    5.700;  -93.000; -125.000
330.774;  -48.750; -609.000; -530.000
330.909;  -50.350; -434.000; -244.000
331.044;  -94.000; -714.000; -708.000
331.179; -177.925;-1217.000;-1109.000
331.315;   16.525;   77.000;   20.000
331.450;    9.850;  157.000;  285.000
331.585;  -84.025; -805.000; -706.000
331.720;  -87.375; -510.000; -460.000
331.855;   -1.175;  -35.000; -102.000
331.990;  208.025;   62.000;  138.000
332.126;  115.975; -110.000;   71.000
332.261;  -17.850; -379.000; -265.000
332.396;    1.600; -135.000; -242.000
332.531; -104.600;-1074.000;-1031.000
332.666;   14.175; -519.000; -363.000
332.801; -100.975; -726.000; -807.000
332.936;  -29.300; -192.000; -122.000
333.071; -149.975; -870.000; -817.000
333.206;   22.425;  307.000;  379.000
333.341;   34.675;  344.000;  418.000
333.476;  -94.525; -627.000; -623.000
333.611;  -45.575; -251.000; -173.000
333.746;  -37.975; -381.000; -464.000
333.881; -102.950; -973.000; -935.000
334.016; -122.475; -936.000; -917.000
334.151; -118.300; -746.000; -702.000
334.286;   31.800;  152.000;  186.000
334.421;   -9.125; -125.000; -178.000
334.556;  -71.975; -611.000; -567.000
334.690;  -87.825; -631.000; -577.000
334.825;   58.800;  381.000;   83.000
334.960;  -50.425; -285.000; -413.000
335.095;    6.875;  135.000;  -91.000
335.230;  -91.450; -722.000; -738.000
335.365; -135.650;-1084.000; -990.000
335.499; -132.000;-1108.000;-1037.000
335.634;   24.250;    9.000;  534.000
335.769;  -99.600; -755.000; -720.000
335.904;  -48.075; -603.000; -561.000
336.038;  -58.725; -735.000; -657.000
336.173; -107.175;-1206.000;-1194.000
336.308;   10.500; -116.000; -189.000
336.443;   34.175; -544.000; -634.000
336.577;  -55.575; -936.000; -787.000
336.712;   77.525;   -4.000;  -12.000
336.847;  -11.700; -724.000; -607.000
336.981;   91.425; -272.000; -208.000
337.116;  321.950;  615.000;  501.000
337.250;  176.275; -434.000; -421.000
337.385;  210.725; -297.000; -208.000
337.520;   80.350; -632.000; -603.000
337.654;  -39.900; -215.000; -126.000
337.789; -110.350; -989.000; -933.000
337.923;  -33.575; -104.000; -205.000
338.058;  -73.075; -673.000; -738.000
338.192;  -27.425; -611.000; -488.000
338.327;    4.850;  -18.000; -155.000
338.461;  -66.650; -299.000; -469.000
338.596;  -86.675; -780.000; -638.000
338.730;  -89.375; -767.000; -803.000
338.865;   82.900;  -46.000; -140.000
338.999;  -62.550; -846.000; -702.000
339.134;  -41.050; -634.000; -536.000
339.268;   16.750; -741.000; -603.000
339.403;  343.975; -740.000; -775.000
339.537;   96.675; -894.000; -820.000
339.671; -113.750; -829.000; -813.000
339.806;  -70.250; -556.000; -512.000
339.940;   15.225; -261.000; -235.000
340.074;  -97.450; -685.000; -510.000
340.209;  -45.900; -351.000; -230.000
340.343;  -82.575; -517.000; -573.000
340.477;  157.675;  998.000; 1036.000
340.612;  -58.450;-1033.000; -900.000
340.746;  139.550; -199.000; -243.000
340.880;  -64.100; -924.000; -785.000
341.014;   -9.350;  -45.000; -154.000
341.149; -124.050; -756.000; -718.000
341.283; -110.750; -839.000; -754.000
341.417;  -90.100;-1124.000; -938.000
341.551;  183.175; -768.000; -708.000
341.685;  -32.550; -633.000; -611.000
341.820;  -57.875; -562.000; -493.000
341.954;  -49.350; -218.000; -349.000
342.088; -140.950;-1102.000;-1019.000
342.222;   54.825;  565.000;  618.000
342.356;  -45.350; -395.000; -335.000
342.490;  -95.550; -880.000; -841.000
342.624;  -30.075; -339.000; -242.000
342.758;   10.850; -364.000; -312.000
342.892;  -62.025; -710.000; -585.000
343.026;  -42.725;  -58.000; -116.000
343.160;  -47.875; -426.000; -376.000
343.294;  -91.225; -474.000; -337.000
343.428;  -18.950; -488.000; -448.000
343.562;  -20.875; -172.000;  -23.000
343.696;   -8.500; -385.000; -314.000
343.830;  -10.850; -362.000; -356.000
343.964;   28.025; -231.000; -168.000
344.098; 1051.825;  199.000;   70.000
344.232;  867.275; -266.000; -127.000
344.366;   92.625; -567.000; -453.000
344.500;   75.650; -665.000; -744.000
344.634;   42.825; -324.000; -164.000
344.768;   17.550; -531.000; -341.000
344.902;   24.600;  278.000;  256.000
345.035;  -62.875; -556.000; -496.000
345.169; -141.225; -933.000; -656.000
345.303;  -18.375; -308.000; -482.000
345.437;  -62.175; -826.000; -717.000
345.571;  -70.825; -675.000; -594.000
345.704;  -54.075; -309.000; -532.000
345.838;  -16.350; -331.000; -284.000
345.972;  -38.775; -543.000; -495.000
346.106;  148.650; -179.000; -190.000
346.239;  426.725; -312.000; -243.000
346.373;   23.350; -343.000; -302.000
346.507; -134.325; -950.000; -962.000
346.640;  166.350;  -30.000;   13.000
346.774;  -37.925; -650.000; -797.000
346.908;   -9.425; -138.000;  -11.000
347.041;  -89.150; -646.000; -593.000
347.175;    7.450;  259.000;   27.000
347.309;  -60.775; -698.000; -628.000
347.442;  -83.850; -883.000; -732.000
347.576;  301.625;  670.000;  668.000
347.709;  232.550; -123.000;  -52.000
347.843;  -87.025; -933.000; -825.000
347.976;   40.425;  235.000;  294.000
348.110; -180.150;-1268.000;-1186.000
348.243; -101.150; -679.000; -772.000
348.377;    3.025;  -26.000;   60.000
348.510;   48.225;  403.000;  540.000
348.644;  -47.475;  -37.000; -159.000
348.777;    7.300;  180.000;  191.000
348.911;  -58.175; -142.000; -112.000
349.044;  192.700;  471.000;  448.000
349.178;  203.800;-1069.000;-1006.000
349.311;  121.150;  141.000;  255.000
349.444;   -1.300; -927.000; -813.000
349.578;   -6.800; -347.000; -200.000
349.711;  -82.650; -959.000; -862.000
349.845;   31.725; -661.000; -591.000
349.978; -138.675;-1224.000;-1137.000
350.111;  -79.800; -546.000; -612.000
350.244;  -70.875; -596.000; -700.000
350.378;   18.925; -392.000; -393.000
350.511;  -70.450; -393.000; -426.000
350.644;  -84.400; -808.000; -806.000
350.778;    8.100;  168.000;  104.000
350.911;    5.275;  134.000;  140.000
351.044;  -88.425; -685.000; -615.000
351.177;  -36.100; -321.000; -281.000
351.310;  -11.375;    3.000; -131.000
351.444;  -64.700; -888.000; -788.000
351.577;  154.400;  140.000;   90.000
351.710;   85.900;  593.000;  417.000
351.843;  -30.025; -165.000;  -77.000
351.976;    5.450;  149.000;  -79.000
352.109;  -90.825; -621.000; -612.000
352.242;  -17.200; -464.000; -419.000
352.376;  -53.775; -580.000; -636.000
352.509;  223.825; -437.000; -356.000
352.642;   30.575; -654.000; -604.000
352.775;   95.150; -141.000;  -98.000
352.908; -114.200; -933.000; -904.000
353.041; -116.925; -814.000; -824.000
353.174;  -56.675; -551.000; -424.000
353.307;  -73.725; -753.000; -764.000
353.440;   63.525;  541.000;  453.000
353.573; -115.350; -957.000;-1008.000
353.706;  -11.600; -384.000; -558.000
353.839;   -4.900; -264.000; -220.000
353.971;  -92.050; -657.000; -512.000
354.104;  -70.325; -896.000; -835.000
354.237;  -27.725; -627.000; -662.000
354.370;  -80.250; -846.000; -879.000
354.503; -173.325;-1231.000;-1308.000
354.636;  -26.650; -529.000; -348.000
354.769; -128.600; -937.000; -860.000
354.902;    3.775; -230.000; -139.000
355.034;  -17.950; -164.000; -220.000
355.167;  -18.900; -262.000; -162.000
355.300;  -86.600;-1061.000; -880.000
355.433;  914.525;  -71.000;  -14.000
355.565; 1413.400; -402.000; -384.000
355.698;  365.200; -356.000; -296.000
355.831;    5.850; -882.000; -801.000
355.964;   99.475; -285.000; -170.000
356.096;  -69.200; -856.000; -843.000
356.229;   21.450; -523.000; -530.000
356.362;  303.375; -373.000; -266.000
356.494;  570.050; -229.000; -162.000
356.627;  537.250;  269.000;  377.000
356.760;  643.900;  120.000;   53.000
356.892;  902.025; -286.000; -601.000
357.025;  741.250;  403.000;  389.000
357.157;  689.600; -167.000; -179.000
357.290;  606.675; -856.000; -713.000
357.423;  189.025; -667.000; -556.000
357.555;  138.100; -217.000; -228.000
357.688;  147.725; -483.000; -364.000
357.820;  525.475; -870.000; -877.000
357.953; 4093.875; -563.000; -589.000
358.085;  915.275; -632.000; -612.000
358.218; 1397.500;-1131.000; -932.000
358.350;  244.950;  -58.000;  312.000
358.483; -109.575;-1300.000;-1187.000
358.615;   -1.125;-1182.000;-1078.000
358.747;  -36.050;-1187.000;-1058.000
358.880;   49.300; -810.000; -744.000
359.012;   -3.625; -376.000; -202.000
359.145;  -30.775; -480.000; -511.000
359.277;   86.325; -962.000; -913.000
359.409; 3431.775;  536.000;  231.000
359.542;  898.725; -738.000; -688.000
359.674;   73.600;   46.000;   13.000
359.806;  -62.500; -565.000; -438.000
359.939;  -28.675; -617.000; -516.000
360.071;  -15.125; -583.000; -579.000
360.203;  -21.975; -411.000; -364.000
360.335;   47.650;  164.000;  -16.000
360.468;  207.725; -249.000; -307.000
360.600; 2693.375; -547.000; -454.000
360.732; 2660.375; -546.000; -423.000
360.864;  351.550;-1216.000;-1044.000
360.996;  330.425; -516.000; -554.000
361.129;   66.500; -389.000; -598.000
361.261;   25.000;  110.000; -113.000
361.393;  -35.525; -252.000; -214.000
361.525;   39.450;   94.000;  244.000
361.657;  -32.125; -821.000; -703.000
361.789;   16.750; -139.000; -155.000
361.921;  288.775; -642.000; -593.000
362.053;  305.300;  524.000;  541.000
362.185;   59.350;  288.000;   72.000
362.318;  -68.825; -709.000; -705.000
362.450;  157.425;  294.000;  444.000
362.582;  175.200; -913.000; -870.000
362.714;  -19.900; -353.000; -332.000
362.846;  -83.025; -606.000; -490.000
362.978; -136.500; -941.000; -811.000
363.109;   56.300; -161.000; -260.000
363.241;  513.250; -739.000; -749.000
363.373;  434.075; -649.000; -564.000
363.505;  621.925; -186.000;  -91.000
363.637;  151.900; -787.000; -601.000
363.769; -115.200;-1067.000;-1080.000
363.901;  -59.575; -596.000; -654.000
364.033; -104.100;-1103.000;-1062.000
364.165;   -5.975; -283.000; -283.000
364.296;   64.575; -316.000; -177.000
364.428;   42.775;-1344.000;-1220.000
364.560;  -71.600; -679.000; -661.000
364.692;  -60.200; -738.000; -835.000
364.824;  335.500; -588.000; -456.000
364.955;  467.450; -402.000; -564.000
365.087;  799.825;-1097.000; -852.000
365.219;   21.875; -686.000; -816.000
365.351;  -50.900; -526.000; -572.000
365.482;   70.625;  300.000;  240.000
365.614;  -39.500; -402.000; -314.000
365.746;  -92.575; -729.000; -752.000
365.877;  -92.625; -706.000; -672.000
366.009;  242.625;  -35.000;  -62.000
366.141;  -83.550;-1249.000;-1134.000
366.272;  -94.400; -803.000; -719.000
366.404; -111.500;-1005.000; -874.000
366.535;    6.525; -139.000;  -12.000
366.667; -101.800; -644.000; -649.000
366.799;   42.225;  353.000;  203.000
366.930; -105.075; -862.000; -996.000
367.062;  109.900; -639.000; -613.000
367.193;  125.475; -872.000; -842.000
367.325;  -45.000; -580.000; -684.000
367.456;   86.400; -246.000;   31.000
367.588;  151.250; -371.000; -318.000
367.719;   18.800;  -44.000;  -45.000
367.851;   -5.425; -222.000; -241.000
367.982;  -42.150; -875.000; -732.000
368.113;  132.500; -475.000; -358.000
368.245;  -98.525; -960.000; -841.000
368.376;  -16.875; -254.000; -302.000
368.508;   -7.750; -188.000; -263.000
368.639; -119.850;-1166.000;-1034.000
368.770;   -1.775; -670.000; -589.000
368.902;  -55.850; -836.000; -926.000
369.033; -101.550; -906.000; -855.000
369.164;  -58.100; -720.000; -653.000
369.296; -113.000; -452.000; -601.000
369.427;    1.250; -209.000; -144.000
369.558;  -48.175; -593.000; -377.000
369.689;  -83.350; -721.000; -569.000
369.821; -122.225; -951.000; -845.000
369.952;   -6.075;   42.000; -108.000
370.083;  -55.025; -229.000; -108.000
370.214;  -91.250; -735.000; -650.000
370.345;   -8.125;   65.000;   81.000
370.477;  -77.000; -810.000; -790.000
370.608;  277.575; -328.000; -264.000
370.739;  -23.000;-1233.000;-1292.000
370.870;  -24.125;-1102.000; -923.000
371.001;  120.625; -378.000; -467.000
371.132;  -66.325; -754.000; -735.000
371.263;  -13.700;  -42.000; -148.000
371.394; -128.325; -841.000; -748.000
371.525;   32.050;  345.000;  225.000
371.657;  -91.625; -808.000; -670.000
371.788;   88.225;  103.000;  199.000
371.919;  200.625; -384.000; -304.000
372.050; 4150.800;  -91.000; -156.000
372.181; 1249.475; -188.000; -294.000
372.311;  442.975;   42.000; -127.000
372.442;   58.700; -457.000; -451.000
372.573;   -2.225; -444.000; -340.000
372.704; -106.400;-1008.000; -980.000
372.835;  111.175; -228.000; -289.000
372.966;  -49.200; -646.000; -554.000
373.097;  -47.400; -575.000; -711.000
373.228;  -19.125; -717.000; -542.000
373.359;  179.550; -824.000; -536.000
373.490; 1112.400; -881.000; -727.000
373.620; 1378.050;-1001.000; -803.000
373.751; 2074.500; -332.000; -396.000
373.882;  951.425; -663.000; -733.000
374.013;   90.050; -449.000; -262.000
374.143;  -21.400; -581.000; -659.000
374.274;  -91.825; -987.000; -908.000
374.405;  214.450; -388.000; -276.000
374.536;  509.950; -526.000; -387.000
374.666; 1321.525; -759.000; -807.000
374.797;  282.500; -817.000; -868.000
374.928; 1048.250; -710.000; -560.000
375.058; 1037.125; -535.000; -500.000
375.189;  111.575;  -59.000;  -93.000
375.320; -105.125; -928.000;-1034.000
375.450;  -24.675; -625.000; -616.000
375.581;  -46.700; -526.000; -436.000
375.712;  -21.800; -574.000; -250.000
375.842;  359.950; -438.000; -415.000
375.973;  278.825; -554.000; -513.000
376.103;  -31.675; -665.000; -648.000
376.234;  -79.475; -531.000; -552.000
376.364;  -24.025; -944.000; -867.000
376.495;  381.700;  925.000;  529.000
376.625;   11.475; -472.000; -485.000
376.756;   98.150; -709.000; -678.000
376.886;  -53.975;-1178.000;-1026.000
377.017;   44.375;-1048.000;-1061.000
377.147;  301.775; -786.000; -782.000
377.278;   74.225;  174.000;  228.000
377.408; -122.775; -801.000; -815.000
377.538;  -89.675; -707.000; -693.000
377.669;  -83.325; -537.000; -613.000
377.799;  -80.025; -645.000; -635.000
377.929;  -60.475; -610.000; -428.000
378.060; -128.400; -781.000; -847.000
378.190;  -73.100; -726.000; -531.000
378.320;  -48.675; -401.000; -406.000
378.451;    8.550; -131.000;  -22.000
378.581;    7.300;  -67.000; -110.000
378.711;  151.600; 1035.000;  866.000
378.841;  -10.450; -533.000; -675.000
378.972;  -55.250; -871.000; -751.000
379.102;   17.300; -652.000; -579.000
379.232;  -20.525; -126.000;  -73.000
379.362;  -98.550;-1001.000; -885.000
379.492;   37.175; -373.000; -424.000
379.623;  126.550;    0.000;  111.000
379.753; -100.250;-1107.000; -974.000
379.883;  224.875;   59.000;  156.000
380.013;   38.950;-1081.000;-1017.000
380.143;  -86.725;-1097.000;-1056.000
380.273;  -92.275; -985.000; -861.000
380.403;    8.675; -344.000; -257.000
380.533;  -20.675; -651.000; -664.000
380.663;   74.975;  173.000;  128.000
380.793;  -82.225;-1027.000;-1074.000
380.923;  -21.000; -103.000;  -34.000
381.053; -101.100; -613.000; -623.000
381.183;  -27.125; -106.000; -248.000
381.313;   60.775; -656.000; -470.000
381.443;   67.375; -692.000; -473.000
381.573;  254.050; -402.000; -409.000
381.703;  354.175;-1249.000;-1095.000
381.833; -101.525;-1454.000;-1336.000
381.963;  119.575; -134.000;  -87.000
382.093; 1591.400; -925.000; -909.000
382.223;  515.175; -713.000; -602.000
382.353;   -6.500; -801.000; -608.000
382.482;  476.900;-1091.000; -964.000
382.612;  895.475; -872.000; -644.000
382.742;  505.025; -695.000; -622.000
382.872;  341.125; -565.000; -551.000
383.002;   83.200;  347.000; -132.000
383.131;  -16.625; -226.000; -160.000
383.261;  -30.450; -706.000; -768.000
383.391;  317.125; -552.000; -377.000
383.521; 2969.275;  451.000;  263.000
383.650;  664.375; -947.000; -904.000
383.780;  -26.050; -783.000; -656.000
383.910;  123.250;  880.000;  802.000
384.039;   54.075; -794.000; -656.000
384.169;  290.300;-1205.000;-1017.000
384.299;  -10.100; -650.000; -662.000
384.428;  -92.000; -764.000; -680.000
384.558;  -43.475; -308.000; -275.000
384.687;  -44.075; -414.000; -334.000
384.817;   28.450;   75.000;   -2.000
384.947;   25.900; -234.000; -141.000
385.076;  336.025;  982.000;  912.000
385.206;  102.500;  369.000;  480.000
385.335;  -22.875; -549.000; -417.000
385.465;  -72.975; -655.000; -663.000
385.594;  164.300;  -53.000;  -44.000
385.724;  529.550; -868.000; -838.000
385.853;  169.150; -296.000; -270.000
385.982; 1586.875; -743.000; -787.000
386.112; 2500.950;-1052.000; -871.000
386.241;  185.600; -307.000; -312.000
386.371;   41.525; -174.000;  -87.000
386.500;   21.050; -825.000; -789.000
386.629;   37.200; -874.000; -817.000
386.759;   58.100;  -43.000;   68.000
386.888;   -7.175; -170.000; -250.000
387.017;  -65.925; -648.000; -620.000
387.147;  -74.775; -771.000; -798.000
387.276;   15.400; -410.000; -397.000
387.405;   27.850; -398.000; -342.000
387.535;  -28.000; -452.000; -361.000
387.664;  -59.525; -692.000; -620.000
387.793;   66.500; -198.000; -113.000
387.922;  605.225;  255.000;  200.000
388.052;   43.875; -576.000; -423.000
388.181;   41.300; -342.000; -472.000
388.310;   32.475; -889.000; -710.000
388.439;  -38.025; -749.000; -742.000
388.568;  218.300;  365.000;  244.000
388.697; 1225.500; -756.000; -653.000
388.826;  260.950; -768.000; -666.000
388.956;   99.775; -285.000; -307.000
389.085;  -32.525; -347.000; -287.000
389.214; -110.525; -842.000; -872.000
389.343;  -74.025; -645.000; -413.000
389.472;  379.725;  126.000;  149.000
389.601;  534.500;   91.000;    0.000
389.730;   39.650; -568.000; -687.000
389.859;   63.800;  226.000;   46.000
389.988;  226.900; -423.000; -408.000
390.117;  184.200; -168.000; -146.000
390.246;    3.300; -331.000; -320.000
390.375;  145.500; -673.000; -626.000
390.504;  -60.350; -703.000; -621.000
390.633;  -87.125; -672.000; -726.000
390.761;  -65.200; -732.000; -645.000
390.890;   36.725;   -4.000; -130.000
391.019;   -9.875; -421.000; -441.000
391.148; -136.125; -826.000; -855.000
391.277;  -56.775; -576.000; -493.000
391.406;  -74.575; -821.000; -805.000
391.534;   17.950;  574.000; -301.000
391.663;  -59.900; -583.000; -645.000
391.792;  -64.800; -673.000; -701.000
391.921;  135.850;   -3.000;   15.000
392.050;  238.900; -287.000; -228.000
392.178;  -13.425;-1206.000;-1061.000
392.307;  197.775; -758.000; -712.000
392.436;   94.500; -427.000; -641.000
392.564;   20.700;  166.000;   -6.000
392.693;  -94.250; -860.000; -682.000
392.822;  258.875; -529.000; -534.000
392.950;  125.925; -880.000; -714.000
393.079;  395.575; -188.000; -328.000
393.208;   36.725; -488.000; -511.000
393.336;  -10.525; -170.000; -145.000
393.465;  -40.950; -317.000; -199.000
393.593;    4.575;   62.000;   79.000
393.722; -137.850;-1121.000; -916.000
393.850;  -23.325; -188.000;  -61.000
393.979; -150.050; -926.000; -805.000
394.107;  -73.025; -517.000; -537.000
394.236;  -10.325; -570.000; -507.000
394.364;  218.000;  383.000;  206.000
394.493;  371.200; -911.000; -767.000
394.621;  -15.850; -955.000; -916.000
394.750;  656.925; -873.000; -923.000
394.878; 2763.075; -247.000; -149.000
395.007; 3785.900; -721.000; -807.000
395.135;  268.150; -790.000; -721.000
395.263; -103.925;-1038.000;-1040.000
395.392;   17.700;  -25.000; -107.000
395.520; -145.850; -818.000; -679.000
395.648;  -84.200; -865.000; -915.000
395.777;  -10.450; -366.000; -405.000
395.905;  -42.850; -449.000; -564.000
396.033;   18.775;  217.000;  172.000
396.162;  594.275; -399.000; -453.000
396.290;  544.550;  -17.000;   -2.000
396.418;  126.825; -555.000; -514.000
396.546;  -51.950; -571.000; -466.000
396.674;  -95.900; -850.000; -878.000
396.803;   12.550;  -72.000;  -23.000
396.931;  123.700; -179.000; -199.000
397.059;   88.875;-1026.000; -989.000
397.187;  -98.525;-1026.000; -975.000
397.315; -127.000; -884.000; -649.000
397.443;  -98.050; -592.000; -443.000
397.572;  -96.850; -578.000; -424.000
397.700;   23.200; -607.000; -614.000
397.828;   34.925;  120.000;  -90.000
397.956;  -45.100; -508.000; -478.000
398.084;  -61.825; -767.000; -626.000
398.212;   47.025;  137.000;  124.000
398.340;   13.275;  -56.000;  159.000
398.468;   41.800; -390.000; -169.000
398.596; -133.925; -993.000; -953.000
398.724; -116.725; -762.000; -767.000
398.852; -162.050;-1024.000; -976.000
398.980;  -61.250; -560.000; -560.000
399.108;  -53.175; -982.000; -735.000
399.236;   66.125;   13.000;    8.000
399.363;    8.450;  222.000;  196.000
399.491;  -65.225; -404.000; -398.000
399.619; -127.500; -829.000; -800.000
399.747;  -96.875; -859.000; -771.000
399.875;   91.350;  220.000;  234.000
400.003;  -52.700; -359.000; -284.000
400.130;  -88.025; -421.000; -341.000
400.258;  -28.950;  -83.000;   38.000
400.386;  -72.650; -352.000; -168.000
400.514;  -38.725; -526.000; -587.000
400.641;  -71.650; -928.000; -802.000
400.769; -129.925; -979.000; -888.000
400.897; -113.600; -838.000; -793.000
401.025;  -18.225; -166.000; -152.000
401.152;   -2.550;  220.000;   38.000
401.280;  -79.250; -430.000; -429.000
401.408; -128.225; -712.000; -576.000
401.535; -113.125; -735.000; -758.000
401.663; -196.175;-1134.000;-1054.000
401.790;  -70.200; -514.000; -525.000
401.918;   27.725;  436.000;  405.000
402.046;  -20.500;  134.000;  122.000
402.173;  -45.375;  -18.000;    7.000
402.301;  -69.825; -519.000; -397.000
402.428;   38.000;  528.000;  383.000
402.556; -147.950;-1188.000; -913.000
402.683;  -29.850;  -20.000;   -1.000
402.811;  -15.925;  -37.000; -206.000
402.938;  -14.225;   20.000;   27.000
403.066;  235.125; -574.000; -558.000
403.193;  375.075;  299.000;  239.000
403.321;  311.475; -396.000; -574.000
403.448;  372.275;   83.000;   27.000
403.575;  182.500;  -90.000;  -46.000
403.703; -103.050; -732.000; -557.000
403.830;  -63.700; -531.000; -496.000
403.957; -146.550;-1117.000;-1023.000
404.085;    8.125;  -61.000; -172.000
404.212;  117.725;  -50.000;   63.000
404.339;  250.050; -566.000; -306.000
404.467; 5404.800; -612.000; -524.000
404.594; 3777.350; -287.000; -227.000
404.721;  949.075; -869.000; -764.000
404.848;   84.200; -113.000; -202.000
404.976;  -97.500; -856.000; -783.000
405.103;   -9.625;  -14.000;  -82.000
405.230;  -17.325;  190.000;  226.000
405.357;   27.500;  117.000;   44.000
405.484;  239.200;  -49.000;    5.000
405.612;   48.250; -548.000; -563.000
405.739;  -64.700; -488.000; -243.000
405.866;  104.300;  669.000;  385.000
405.993;  -41.375; -398.000; -102.000
406.120; -148.725; -801.000; -887.000
406.247;  -50.175; -323.000; -342.000
406.374;  512.250;  540.000;  629.000
406.501;  149.250; -632.000; -702.000
406.628;  -78.150; -621.000; -589.000
406.755;  -98.275; -803.000; -620.000
406.882;  -30.200; -228.000; -277.000
407.009; -101.700; -719.000; -628.000
407.136;   73.875; -480.000; -401.000
407.263;  186.650; -939.000; -829.000
407.390;  -65.100; -692.000; -614.000
407.517; -171.650;-1139.000;-1187.000
407.644;  -54.025; -332.000; -256.000
407.771;  -68.175; -249.000; -287.000
407.898;   13.125;  168.000;  328.000
408.025;  -65.850; -421.000; -313.000
408.151;   -9.875;   82.000;  153.000
408.278;  -61.900; -267.000; -216.000
408.405; -115.600; -931.000; -899.000
408.532;  -64.175; -549.000; -542.000
408.659; -120.575; -677.000; -648.000
408.785; -202.950;-1298.000;-1170.000
408.912;  -59.700; -412.000; -296.000
409.039; -115.200; -610.000; -686.000
409.166;  -96.500; -591.000; -555.000
409.292; -111.350; -571.000; -534.000
409.419; -117.800; -665.000; -649.000
409.546;  -96.550; -431.000; -192.000
409.672; -111.775; -713.000; -545.000
409.799;  -27.975;  -36.000;   34.000
409.926;  -41.025; -180.000; -179.000
410.052; -172.725;-1127.000;-1091.000
410.179;  -67.425; -368.000; -392.000
410.305;  -86.450; -375.000; -493.000
410.432;  -58.650; -220.000; -333.000
410.558;  -88.250; -305.000; -380.000
410.685; -107.300; -688.000; -431.000
410.812;  -96.800; -409.000; -588.000
410.938; -136.725; -964.000; -808.000
411.065;  -91.050; -671.000; -645.000
411.191;  -12.825; -189.000; -174.000
411.317; -117.825; -823.000; -742.000
411.444;  -57.850; -317.000; -246.000
411.570;  -70.775; -339.000; -294.000
411.697; -125.750; -758.000; -752.000
411.823; -164.650; -989.000; -999.000
411.949;  -25.025;  -56.000;   17.000
412.076; -115.675; -539.000; -519.000
412.202; -101.325; -758.000; -757.000
412.329; -118.225; -798.000; -752.000
412.455; -113.450; -821.000; -657.000
412.581;  -19.050;  -15.000;  172.000
412.707;  -64.350; -540.000; -457.000
412.834;   20.225;  156.000;  219.000
412.960;  -83.325; -785.000; -784.000
413.086; -101.250; -743.000; -701.000
413.212;  163.700;  604.000;  578.000
413.339;  -61.450; -685.000; -701.000
413.465;   12.675; -364.000; -310.000
413.591;  -68.375; -757.000; -474.000
413.717;  -48.000; -358.000; -366.000
413.843; -143.775; -839.000; -861.000
413.969;  -45.850;  -47.000; -292.000
414.096;  -96.225; -679.000; -679.000
414.222;   -5.425;  -33.000;   85.000
414.348;   -7.425; -652.000; -385.000
414.474;  123.900;   38.000;  -52.000
414.600;  -21.925; -126.000; -144.000
414.726;  -23.275;  -96.000;  -55.000
414.852;  -57.300; -365.000; -342.000
414.978;   37.200;  104.000;  -18.000
415.104;   44.125;   38.000;   80.000
415.230;    6.100; -329.000; -330.000
415.356;   26.800; -409.000; -514.000
415.482;  201.800;   13.000;  -35.000
415.608;  258.800; -247.000; -323.000
415.734;  930.600;   67.000;   38.000
415.860;19119.975; -875.000; -767.000
415.986;14040.950; -685.000; -607.000
416.111; 1200.600; -798.000; -652.000
416.237;  244.300; -424.000; -571.000
416.363; 1055.700; -765.000; -733.000
416.489; 3974.075; -324.000; -251.000
416.615;  418.875; -707.000; -742.000
416.741;  -20.700; -677.000; -784.000
416.866;  -95.450; -673.000; -736.000
416.992; -127.525; -801.000; -818.000
417.118;  -33.700;  -41.000;  -80.000
417.244;  -61.700; -798.000; -531.000
417.369;  -82.975; -801.000; -612.000
417.495;   -5.525; -325.000; -254.000
417.621;  -88.175;-1015.000; -803.000
417.746;    9.350; -579.000; -572.000
417.872;   54.575; -254.000; -144.000
417.998;   52.575; -515.000; -530.000
418.123;  987.375;-1073.000; -845.000
418.249; 5120.400; -512.000; -601.000
418.374;  710.275; -916.000; -824.000
418.500;   99.275; -383.000; -482.000
418.626;  115.800;   70.000;  -59.000
418.751;  119.175; -549.000; -448.000
418.877;  202.175; -637.000; -643.000
419.002; 1669.500; -688.000; -560.000
419.128;11873.175; -930.000; -721.000
419.253; 2903.800; -967.000; -837.000
419.379;  379.550; -391.000; -338.000
419.504;  376.825;  325.000;  415.000
419.629;  487.250; -393.000; -212.000
419.755; 3269.425; -317.000; -254.000
419.880;19623.225;  -98.000;   67.000
420.006;10791.325; -280.000; -221.000
420.131;28060.125; -662.000; -775.000
420.256; 4117.900; -315.000; -316.000
420.382;  515.950; -665.000; -687.000
420.507;   63.900; -649.000; -778.000
420.632;  158.925; -337.000; -339.000
420.758;  305.275; -251.000; -425.000
420.883;  -73.100; -876.000; -672.000
421.008;  -96.250; -775.000; -619.000
421.133;  -82.325; -509.000; -467.000
421.259;  -49.775; -325.000; -259.000
421.384; -112.075; -834.000; -693.000
421.509;   -6.375;-1052.000; -862.000
421.634; 1426.775; -936.000; -820.000
421.759;  619.525; -359.000; -327.000
421.885;  -46.125; -717.000; -656.000
422.010;  -59.700; -673.000; -542.000
422.135; -155.575; -695.000; -727.000
422.260;   36.375;  340.000;  280.000
422.385;  -41.575;   12.000;  -98.000
422.510;   11.300;  151.000;  -26.000
422.635;   15.425;  -87.000;  -43.000
422.760;  111.000; -766.000; -791.000
422.885;   59.375;  -57.000;  -80.000
423.010;  -30.500; -112.000; -169.000
423.135;  -93.950; -481.000; -561.000
423.260;    2.100; -150.000; -245.000
423.385;   73.150;  476.000;  222.000
423.510;   26.550;   71.000;  -22.000
423.635;   88.075;  133.000;   45.000
423.760;   67.900;  383.000;  328.000
423.885;   59.675;  336.000;  391.000
424.010;   20.900;  -68.000;  -13.000
424.135;  -19.800;    5.000;  -33.000
424.259;  -83.775; -654.000; -457.000
424.384;  -68.425; -279.000; -272.000
424.509;  -20.125; -260.000; -186.000
424.634; -106.625; -761.000; -623.000
424.759;  -16.250; -688.000; -544.000
424.883;  -20.675; -506.000; -527.000
425.008;  166.325; -502.000; -410.000
425.133; 1899.100; -679.000; -653.000
425.258;  920.250; -517.000; -381.000
425.382; 1148.625; -867.000; -774.000
425.507; 2981.800; -487.000; -543.000
425.632;  496.350; -802.000; -663.000
425.756;  445.750; -256.000; -146.000
425.881; 5985.825; -831.000; -857.000
426.006;16264.950; -604.000; -355.000
426.130; 2616.125; -696.000; -508.000
426.255;  340.275; -611.000; -491.000
426.379;  147.250; -189.000; -577.000
426.504;  370.375;  660.000;  544.000
426.629; 3908.250; -519.000; -466.000
426.753; 2695.850;   64.000;  -46.000
426.878;  297.675; -252.000; -288.000
427.002;  135.125; -651.000; -668.000
427.127; 1515.800;  -35.000; -158.000
427.251;10749.050;  372.000;  401.000
427.375; 3142.525; -191.000; -173.000
427.500; 2550.000; -616.000; -610.000
427.624;  894.425; -234.000; -400.000
427.749;  115.525; -216.000; -225.000
427.873;  -34.525; -499.000; -412.000
427.997;  -45.700; -222.000; -230.000
428.122;   75.725;  795.000;  703.000
428.246;   85.375;  433.000;  434.000
428.371; -120.475; -869.000; -773.000
428.495; -105.050; -624.000; -646.000
428.619;  -28.350; -186.000; -117.000
428.743;   35.475;   65.000;  132.000
428.868;   19.500; -732.000; -643.000
428.992; 1597.675; -219.000; -326.000
429.116;  672.925; -329.000; -357.000
429.240;  323.925;  419.000;  426.000
429.365;  -20.100; -454.000; -574.000
429.489;  -35.825; -638.000; -647.000
429.613;   24.025; -236.000; -177.000
429.737;   34.450; -563.000; -432.000
429.861;  251.775; -247.000; -133.000
429.985; 5290.000; -425.000; -305.000
430.109; 5881.475; -770.000; -908.000
430.234;  675.575;   76.000;  -50.000
430.358;   49.900; -250.000; -160.000
430.482;  -57.975; -672.000; -564.000
430.606;  -58.100; -655.000; -375.000
430.730;   37.500; -437.000; -388.000
430.854;  169.025; -909.000; -835.000
430.978;  -65.825; -795.000; -764.000
431.102;  -86.650; -499.000; -422.000
431.226; -107.950; -874.000; -815.000
431.350;   19.350;  345.000;  422.000
431.474;  -62.925; -661.000; -373.000
431.597; -144.175;-1060.000; -848.000
431.721;  -64.150; -276.000; -267.000
431.845; -141.975; -704.000; -472.000
431.969;  -83.950; -304.000; -349.000
432.093;  -95.450; -395.000; -317.000
432.217;  -11.025;   32.000;   82.000
432.341;  -82.975; -523.000; -518.000
432.464;   14.175;   96.000;   40.000
432.588;  250.575; -401.000; -329.000
432.712;  116.050;  -52.000;  -52.000
432.836;   45.400;  213.000;  263.000
432.959;  -12.375; -372.000; -311.000
433.083;   71.375;   11.000;    2.000
433.207;  357.675;  285.000;  930.000
433.330; 4735.900; -391.000; -200.000
433.454; 5926.475; -654.000; -638.000
433.578; 3430.625;  583.000;  278.000
433.701;  658.900; -623.000; -675.000
433.825;  166.325; -292.000; -299.000
433.949;  234.250;   28.000;  -72.000
434.072;   85.150; -410.000; -323.000
434.196;  -12.950; -309.000; -117.000
434.319; 3697.150;25482.000;25124.000
434.443;  730.275; -656.000; -603.000
434.566; 2542.775;  281.000;   62.000
434.690;  413.950; -637.000; -383.000
434.813;   41.675; -251.000; -173.000
434.937;  -82.475; -569.000; -696.000
435.060;  -40.450; -423.000; -332.000
435.184;  406.450; -492.000; -217.000
435.307;  202.325;  159.000;  102.000
435.431;    1.100;  -40.000;   24.000
435.554;  -75.000; -399.000; -240.000
435.677;  -80.875; -350.000; -258.000
435.801;  -42.800;  -25.000;   49.000
435.924;   -7.900;    1.000;  -67.000
436.048; -109.650;-1019.000; -732.000
436.171;  -66.125; -240.000;  -66.000
436.294;  -40.925; -248.000; -229.000
436.417;   84.125; -963.000; -849.000
436.541;  -83.275; -814.000; -840.000
436.664;  -39.950; -242.000; -316.000
436.787;  -26.675;   13.000;  113.000
436.910; -113.150; -792.000; -422.000
437.034;   -6.825;  142.000;  143.000
437.157;   77.800;  -11.000;    0.000
437.280;  -45.800; -392.000; -292.000
437.403;  -64.225; -982.000; -869.000
437.526;  797.825; -903.000; -865.000
437.649; 2813.275; -505.000; -332.000
437.772;  432.275; -692.000; -540.000
437.896;  148.500;  700.000;  544.000
438.019;  -99.875; -758.000; -503.000
438.142;  -81.025; -596.000; -506.000
438.265;   -1.525; -639.000; -670.000
438.388;  685.875; -520.000; -410.000
438.511;  126.875; -597.000; -394.000
438.634;  -40.825; -247.000; -125.000
438.757; -139.000; -693.000; -619.000
438.880;  -30.500;  -34.000;  -57.000
439.003;  -84.500; -417.000; -437.000
439.126;  -73.250; -287.000; -167.000
439.248;  -73.425;  -98.000; -139.000
439.371;  -43.150;    9.000;  -53.000
439.494;   28.325;  510.000;  439.000
439.617;  -60.050;   65.000;  -88.000
439.740; -189.000; -968.000; -816.000
439.863; -153.500; -755.000; -595.000
439.986; -136.425; -476.000; -431.000
440.108;  -44.675; -161.000; -112.000
440.231; -162.550; -950.000; -836.000
440.354;  -21.900;  -64.000; -150.000
440.477;   43.275; -566.000; -542.000
440.599;   17.700; -200.000; -225.000
440.722; -106.825; -709.000; -586.000
440.845;   57.125;  751.000;  928.000
440.968; -115.400; -415.000; -311.000
441.090;  -73.875; -199.000;  -33.000
441.213; -183.625;-1021.000; -825.000
441.336;  -53.525; -159.000;   -5.000
441.458;  -85.300; -549.000; -396.000
441.581;  -76.000; -628.000; -629.000
441.703;  -67.000; -152.000;   13.000
441.826; -114.525; -557.000; -400.000
441.948;  -55.300;   56.000;   51.000
442.071;   19.425;  555.000;  424.000
442.193; -121.600; -531.000; -485.000
442.316;   33.900;  152.000;   97.000
442.438;   46.575; -233.000;  -10.000
442.561;   70.950;  272.000;  262.000
442.683;  662.200; -809.000; -522.000
442.806; 1391.000;   -8.000;   74.000
442.928;   56.325; -859.000; -604.000
443.051;  -58.200; -577.000; -373.000
443.173;  -91.325; -341.000; -339.000
443.295;  -85.475; -263.000; -371.000
443.418;  -62.950; -321.000;  -29.000
443.540;  -10.275; -106.000;   -4.000
443.662; -125.675; -563.000; -465.000
443.785;   -9.125;  335.000;  199.000
443.907; -110.075; -362.000; -208.000
444.029; -138.300; -767.000; -494.000
444.152; -151.050; -644.000; -554.000
444.274;  -32.100;  -18.000;  -24.000
444.396; -122.350; -461.000; -221.000
444.518; -130.600; -691.000; -454.000
444.640; -109.725; -268.000; -111.000
444.763;  -17.650;  388.000;  249.000
444.885; -127.450; -432.000; -392.000
445.007;  -34.625;   35.000;   86.000
445.129; -125.825; -610.000; -515.000
445.251; -111.425; -372.000; -439.000
445.373; -130.775; -537.000; -386.000
445.495;   -4.850;  242.000;  350.000
445.617;   42.100;  853.000;  753.000
445.739;  -58.375; -215.000;  -97.000
445.861;  -20.900; -245.000; -112.000
445.984;  -34.675; -267.000; -101.000
446.105;  238.575; -418.000; -251.000
446.227;  727.075; -176.000;  -19.000
446.349;   37.625; -358.000; -249.000
446.471;  -86.400; -615.000; -448.000
446.593;  -69.825; -316.000;   19.000
446.715;    7.450;  -67.000;   41.000
446.837;   64.400;  697.000;  832.000
446.959; -100.600; -457.000; -478.000
447.081; -135.425; -628.000; -518.000
447.203;   63.825;  862.000;  834.000
447.325;  -99.100; -270.000;   42.000
447.446;   -6.975;  286.000;  530.000
447.568; -161.875; -921.000; -803.000
447.690;  -74.075; -236.000; -245.000
447.812; -154.450; -798.000; -519.000
447.933;  -31.750;  155.000;  127.000
448.055;  -72.675; -306.000; -261.000
448.177;  176.350;   31.000;   79.000
448.299;  115.750; -935.000; -727.000
448.420;   32.475;  -25.000;  159.000
448.542;  -53.575;   -3.000;   33.000
448.664;  -32.950;  109.000;  322.000
448.785;  -54.525;  265.000;   83.000
448.907;  -68.750; -614.000; -353.000
449.028;  -30.325; -771.000; -471.000
449.150;   74.400;  492.000;  589.000
449.272; -177.075;-1044.000; -913.000
449.393;   41.900;  612.000;  694.000
449.515; -141.125; -634.000; -581.000
449.636;  -56.300; -264.000; -155.000
449.758;   82.400;  763.000;  622.000
449.879;  -83.600; -498.000; -396.000
450.001;  -89.225; -149.000;  -49.000
450.122;  -38.775;  -95.000;  162.000
450.244;  -30.425;   37.000;  364.000
450.365;  -97.650; -495.000; -301.000
450.486;  -37.300;   80.000;  268.000
450.608;   11.150;  393.000;  326.000
450.729;   64.975;  578.000;  645.000
450.850;  -17.325; -574.000; -466.000
450.972;  659.975; -552.000; -389.000
451.093; 4503.675;  190.000;  588.000
451.214; 2009.750; -516.000; -337.000
451.336;  389.725;  773.000;  579.000
451.457;   45.425;  264.000;  393.000
451.578;  -43.800; -118.000;  -74.000
451.699; -122.250; -546.000; -540.000
451.821;  -75.650; -284.000;  -50.000
451.942;   -1.700;  278.000;  285.000
452.063;   17.500;  228.000;  419.000
452.184;  540.850;  -54.000;  -49.000
452.305; 1035.100;  103.000;  170.000
452.427;  117.725; -549.000; -301.000
452.548;  -15.500;   23.000;   79.000
452.669;  -49.750; -257.000;  -89.000
452.790;  -53.900;    3.000;  -18.000
452.911;   -1.050;  195.000;  259.000
453.032;  -79.000; -289.000;  -60.000
453.153;  -30.600;  -29.000;   81.000
453.274;   62.300;  737.000;  868.000
453.395;  -46.950;  -51.000;  175.000
453.516;   21.200; 1317.000; 1388.000
453.637;  -56.100; -205.000; -150.000
453.758;  -59.825;   15.000;   69.000
453.879; -117.300; -462.000; -250.000
454.000;   87.225; 1086.000;  948.000
454.121; -116.525; -554.000; -326.000
454.242; -114.975; -599.000; -383.000
454.362;  -58.650;  -99.000;  114.000
454.483;  -39.550; -309.000; -229.000
454.604;   63.125;  512.000;  580.000
454.725; -131.175; -627.000; -555.000
454.846; -123.525; -474.000; -406.000
454.967;  -32.025;  230.000;  539.000
455.087;  -41.500;  179.000;  153.000
455.208;   19.625;  554.000;  856.000
455.329;  -65.775;  -22.000;   82.000
455.450;   31.200;  473.000;  633.000
455.570;  -95.375; -234.000; -211.000
455.691;  -53.775;  201.000;  407.000
455.812; -103.775; -270.000;  -92.000
455.932;  -50.325;  107.000;  -97.000
456.053;  -94.425;   36.000;   24.000
456.173; -114.775; -433.000; -355.000
456.294; -135.725; -476.000; -303.000
456.415;  -69.950;  -73.000;   70.000
456.535;  -43.675;  297.000;  273.000
456.656;  -60.900;  132.000;  240.000
456.776;  -65.425;    3.000;  298.000
456.897;  -14.300;  308.000;  513.000
457.017;  -76.000; -153.000;   -3.000
457.138; -103.950; -402.000; -249.000
457.258;  -31.225;  263.000;  224.000
457.379;  -15.450;  509.000;  521.000
457.499;  -25.300;  443.000;  432.000
457.620; -135.325; -407.000; -231.000
457.740; -109.950; -132.000;  -11.000
457.860;  -62.175;   87.000;   44.000
457.981;  -36.625;  132.000;  124.000
458.101;  -78.275;  -89.000;   40.000
458.221;  -29.525;  336.000;  402.000
458.342;  -63.975;   -4.000;  -37.000
458.462;    3.300;  617.000;  352.000
458.582;  -41.925; -302.000; -294.000
458.703;   -7.075;  303.000;  154.000
458.823;  -25.125;   22.000;  163.000
458.943;    5.725;  341.000;  467.000
459.063;  -50.550; 1124.000;  192.000
459.183;  -32.175;  328.000;  313.000
459.304;   11.750;  315.000;  517.000
459.424;  -69.750; -246.000;  -89.000
459.544;  305.550;  388.000;  764.000
459.664;  763.975;  499.000;  506.000
459.784;  289.750; 1004.000; 1175.000
459.904;   53.250;  867.000;  744.000
460.024;   75.025;  867.000;  684.000
460.144;   26.175;  449.000;  554.000
460.264;  -12.775;  515.000;  327.000
460.385;  -92.975; -145.000; -119.000
460.505;   28.400;  905.000;  858.000
460.625;  -86.075;  -17.000;  -68.000
460.745;  -30.600;  396.000;  541.000
460.864;  -56.275;  153.000;  469.000
460.984;   12.825;  499.000;  573.000
461.104;  145.950; 1656.000; 1775.000
461.224;   20.825;  657.000;  650.000
461.344;  -39.825;  431.000;  360.000
461.464;  -34.850;  258.000;  513.000
461.584;  -13.075;  283.000;  466.000
461.704;  -54.500;   58.000;  108.000
461.824;  -50.925;  238.000;  259.000
461.943;  -48.100;  191.000;  130.000
462.063;  -72.125;    2.000;  324.000
462.183;   36.350;  639.000;  717.000
462.303;  104.250; 1678.000; 1230.000
462.422;   30.475;  781.000;  840.000
462.542;  -40.475;  271.000;  391.000
462.662;   39.075;  353.000;  380.000
462.782;  222.500;  833.000;  572.000
462.901;  457.400;  545.000;  717.000
463.021;  255.975; 1702.000; 1638.000
463.141;  -15.750;  337.000;  770.000
463.260;  -10.825;  614.000;  474.000
463.380;   18.250;  902.000;  884.000
463.499;  -32.450;  342.000;  332.000
463.619;  -43.725;  581.000;  559.000
463.738;  108.525; 1644.000;  903.000
463.858;   29.875;  657.000;  811.000
463.978;  -29.175;  542.000;  396.000
464.097;   36.175;  921.000; 1114.000
464.217;   99.775; 1196.000; 1143.000
464.336;  114.600; 1068.000; 1130.000
464.455;  -35.250;  328.000;  659.000
464.575;   55.000;  597.000;  602.000
464.694;  174.900; 1204.000; 1179.000
464.814;  130.750; 1190.000; 1138.000
464.933;   71.775; 1095.000; 1027.000
465.052;   94.425; 1412.000; 1054.000
465.172;  102.250;  922.000;  799.000
465.291;  136.100; 1376.000; 1320.000
465.410;   13.150;  462.000;  735.000
465.530;   81.650; 1355.000; 1310.000
465.649;   72.225; 1209.000; 1273.000
465.768;  145.525; 1673.000; 1508.000
465.888;   48.350;  941.000; 1174.000
466.007;   84.950; 1335.000; 1440.000
466.126;    3.325;  721.000;  641.000
466.245;   47.325; 1176.000; 1187.000
466.364;    9.250;  950.000; 1060.000
466.484;   63.450; 1024.000; 1213.000
466.603;   30.025; 1101.000; 1222.000
466.722;  128.175; 1490.000; 1769.000
466.841;   76.875; 1151.000; 1401.000
466.960;   35.200; 1069.000;  972.000
467.079;  119.850; 1971.000; 1786.000
467.198;   43.100; 1238.000; 1181.000
467.317;   78.675; 1768.000; 1162.000
467.436;   75.125; 1709.000; 1261.000
467.555;  114.050; 1796.000; 1746.000
467.674;   75.650; 1227.000; 1329.000
467.793;   38.875; 1376.000; 1374.000
467.912;   81.950; 1658.000; 1539.000
468.031;  110.700; 2038.000; 1930.000
468.150;  141.675; 1842.000; 1837.000
468.269;  187.600; 2313.000; 2090.000
468.388;  199.700; 2168.000; 2339.000
468.507;  250.375; 2884.000; 2903.000
468.626;  222.700; 2555.000; 2541.000
468.744;  128.425; 2018.000; 2174.000
468.863;  191.450; 2312.000; 2523.000
468.982;   84.925; 1503.000; 1555.000
469.101;  226.500; 2788.000; 2692.000
469.220;  161.775; 2333.000; 2176.000
469.338;  252.450; 2935.000; 3051.000
469.457;  187.200; 2719.000; 2545.000
469.576;  348.900; 3953.000; 3784.000
469.695;  233.400; 2877.000; 3066.000
469.813;  416.050; 4148.000; 4192.000
469.932;  408.200; 4255.000; 4485.000
470.051;  437.550; 4075.000; 4161.000
470.169;  825.125; 4470.000; 4338.000
470.288; 1422.850; 4700.000; 4809.000
470.406;  838.525; 5059.000; 5194.000
470.525;  618.725; 6101.000; 5787.000
470.644;  625.075; 6847.000; 6794.000
470.762;  810.725; 8397.000; 7873.000
470.881;  904.175; 8651.000; 8464.000
470.999; 1055.575; 9685.000; 9151.000
471.118; 1093.725;11174.000;10711.000

