
Integration time [ms]: 100.000
Averaging Nr. [scans]: 40
Smoothing Nr. [pixels]: 0
Data measured with spectrometer [name]: 2101012U2
Wave   ;Sample   ;Dark     ;Reference
[nm]   ;[counts] ;[counts] ;[counts] 

197.733;   67.200;  516.000;  404.000
197.879;  -75.700; -610.000; -634.000
198.025;  -62.200; -475.000; -420.000
198.171;  -81.650; -602.000; -612.000
198.317;  -39.200; -401.000; -316.000
198.463;  -57.275; -655.000; -404.000
198.609;   18.725;  181.000; -137.000
198.755;  -81.700; -644.000; -410.000
198.901;  -54.375; -505.000; -424.000
199.047;  -60.500; -615.000; -488.000
199.193;  -45.475; -230.000; -468.000
199.339;  -41.375; -222.000; -369.000
199.485;   37.875;  330.000;  271.000
199.631;   17.000;  227.000;  310.000
199.777;  -50.025; -466.000; -398.000
199.923;  -63.250; -610.000; -424.000
200.069;   10.875; -141.000;  -58.000
200.215;   59.125;  128.000;  453.000
200.361;   36.225;  243.000;  477.000
200.507;  -50.025; -600.000; -373.000
200.653;  -25.275; -371.000; -194.000
200.798;  -23.450; -215.000; -125.000
200.944;  -16.850; -146.000;  -41.000
201.090;   43.250;   61.000;  222.000
201.236;    3.375; -116.000; -158.000
201.382;  131.600;  874.000;  903.000
201.528;    9.725;  -58.000;  -48.000
201.674;  -56.575; -386.000; -293.000
201.819;  -62.950; -540.000; -439.000
201.965;  -91.350; -699.000; -447.000
202.111;  -32.125; -273.000; -226.000
202.257;  -48.525; -250.000; -238.000
202.402;    4.600;   13.000;  -36.000
202.548;  -29.450; -169.000; -116.000
202.694;   86.800;  410.000; -183.000
202.840;  -77.375; -603.000; -531.000
202.985;  -63.925; -681.000; -639.000
203.131; -110.325; -832.000; -666.000
203.277;  -21.400; -199.000; -262.000
203.423;  -49.450; -434.000; -520.000
203.568;  -43.350; -462.000; -237.000
203.714;  -54.350; -535.000; -542.000
203.860;  -73.025; -682.000; -641.000
204.005;   21.225;  112.000;  167.000
204.151;   78.500;  561.000;  556.000
204.296;  -46.475; -354.000; -221.000
204.442;  -76.000; -600.000; -547.000
204.588;  -81.350; -592.000; -579.000
204.733;   17.850;  178.000;  168.000
204.879; -134.500;-1018.000; -822.000
205.025;    6.625;  -99.000;  126.000
205.170;   11.825;  -17.000;   94.000
205.316;   82.175;  438.000;  661.000
205.461;  -85.325; -698.000; -554.000
205.607;   77.175;  609.000;  665.000
205.752;  -68.425; -626.000; -551.000
205.898;  -41.450; -501.000; -391.000
206.043;  -70.125; -578.000; -506.000
206.189;  -50.300; -243.000; -285.000
206.334;   82.625;  554.000;  606.000
206.480;   86.100;  409.000;  239.000
206.625;  -77.975; -529.000; -552.000
206.771;  -46.200; -451.000; -373.000
206.916;  -40.200; -210.000; -537.000
207.062;  -64.000; -545.000; -591.000
207.207;  -64.875; -546.000; -443.000
207.353;   57.275;  185.000;  460.000
207.498;   25.850;  196.000;   85.000
207.643;  -50.600; -501.000; -370.000
207.789; -122.900;-1069.000; -910.000
207.934;  -91.700; -665.000; -713.000
208.080;  -29.200; -154.000;   66.000
208.225;    3.000;  -22.000;  -57.000
208.370;  -79.775; -727.000; -619.000
208.516;  -78.700; -741.000; -487.000
208.661;  -31.200; -127.000;  -69.000
208.806;  -24.825; -165.000; -171.000
208.952; -116.850;-1044.000; -731.000
209.097;   73.700;  378.000;  349.000
209.242;  -40.500; -307.000; -382.000
209.387;   55.300;  392.000;  350.000
209.533;  -46.375; -321.000; -350.000
209.678;   84.300;  472.000;  543.000
209.823;  -44.325; -408.000; -310.000
209.969; -104.900; -860.000; -757.000
210.114; -107.600; -907.000; -719.000
210.259; -119.600; -939.000; -889.000
210.404;   12.525; -171.000;  103.000
210.549;    3.950;  108.000;    3.000
210.695;  -13.950;   -3.000;  -95.000
210.840;   40.700;   94.000;   67.000
210.985;  -56.075; -484.000; -303.000
211.130;   81.275;  268.000;  406.000
211.275;   15.100;  207.000;  199.000
211.420;  -56.175; -300.000; -289.000
211.566;  -72.675; -536.000; -489.000
211.711;   24.875;  218.000;  157.000
211.856;  -67.450; -545.000; -519.000
212.001;   10.075;  151.000;   44.000
212.146;   34.300;  153.000;   49.000
212.291;  -19.725; -210.000; -186.000
212.436;  -33.325; -280.000;   -6.000
212.581;  -83.775; -685.000; -653.000
212.726;  -72.575; -487.000; -538.000
212.871;  -65.475; -552.000; -217.000
213.016; -159.075;-1172.000;-1029.000
213.161;   69.600;  406.000;  291.000
213.306;  -76.950; -435.000; -577.000
213.451;  -94.400; -778.000; -689.000
213.596;  -38.525; -455.000; -347.000
213.741;  -63.425; -448.000; -538.000
213.886;  -75.000; -498.000; -517.000
214.031;  -26.500; -294.000; -124.000
214.176;  -35.925; -408.000; -341.000
214.321;  -22.700; -296.000; -157.000
214.466;  -27.750; -163.000;  -43.000
214.611;  -10.125;  -61.000;  -10.000
214.756; -115.450; -948.000; -858.000
214.901;  -23.450; -388.000; -226.000
215.046; -127.025; -797.000; -825.000
215.191;    8.775;  128.000;   35.000
215.336;   -1.125; -157.000;  -19.000
215.480;  -67.050; -684.000; -505.000
215.625;  -13.550; -175.000;  -19.000
215.770;  -77.900; -757.000; -662.000
215.915;  -12.200;   -5.000;  -97.000
216.060;    4.225; -113.000;  -21.000
216.205; -111.750; -731.000; -779.000
216.349;  -67.350; -470.000; -533.000
216.494; -135.625; -939.000; -867.000
216.639; -117.800; -823.000; -888.000
216.784;  -78.875; -577.000; -525.000
216.929;   51.600;  392.000;  281.000
217.073;   -5.300; -244.000;  -31.000
217.218;   10.900;   78.000;  -47.000
217.363;  -87.100; -656.000; -618.000
217.507;  -85.275; -623.000; -588.000
217.652; -123.600; -845.000; -874.000
217.797;  -96.325; -708.000; -659.000
217.942; -110.900; -856.000; -720.000
218.086;   79.775;  608.000;  539.000
218.231;  -18.300; -174.000;  -26.000
218.376;  -36.000; -337.000; -229.000
218.520;  -11.925;  -41.000;   96.000
218.665;  -27.850; -338.000; -204.000
218.810;  -25.675; -275.000; -233.000
218.954;   21.250;  201.000;   35.000
219.099; -123.150; -713.000; -963.000
219.243;  -73.650; -589.000; -554.000
219.388;  -28.150; -264.000; -136.000
219.532;    6.325; -116.000; -116.000
219.677;  -69.200; -564.000; -521.000
219.822;    9.675;   33.000;   89.000
219.966;    6.375;   17.000;  -99.000
220.111;  -38.450; -328.000;  -40.000
220.255;  -98.750; -797.000; -750.000
220.400;  -21.550; -180.000; -146.000
220.544;  -73.450; -516.000; -450.000
220.689;  -55.900; -422.000; -451.000
220.833;  -22.550; -123.000;  -58.000
220.978;  -40.900; -393.000; -563.000
221.122;   21.425;  319.000;  307.000
221.267; -114.000; -906.000; -837.000
221.411;  -66.925; -478.000; -394.000
221.555;  -22.675; -104.000;  -23.000
221.700;  -48.050; -329.000; -222.000
221.844;   36.525;  255.000;  272.000
221.989;  -49.525; -328.000; -311.000
222.133;  -47.100; -289.000; -307.000
222.277;   -0.450;    5.000;   78.000
222.422;   26.100;  227.000;  113.000
222.566;  -42.000; -381.000; -214.000
222.711;  -65.500; -414.000; -479.000
222.855;  -71.300; -643.000; -586.000
222.999;  -84.450; -642.000; -717.000
223.144;  -27.850; -195.000; -194.000
223.288;   59.925;  423.000;  251.000
223.432;   31.675;  184.000;  230.000
223.576;   10.650;  152.000;  -21.000
223.721;   51.950;  364.000;  273.000
223.865;  -65.575; -472.000; -475.000
224.009;  261.200; 1673.000; 1631.000
224.153;  -82.475; -660.000; -671.000
224.298;  -62.925; -531.000; -489.000
224.442;   -1.275;  -74.000;  -33.000
224.586;  -15.125; -169.000; -106.000
224.730; -106.175; -858.000; -670.000
224.875; -107.950; -739.000; -688.000
225.019;   21.925;  102.000;  188.000
225.163;   71.050;  208.000;  341.000
225.307;   23.325;   97.000;  -91.000
225.451;   39.475;  360.000;  481.000
225.595;   33.700;  264.000;  176.000
225.739;   -0.150; -170.000;  -94.000
225.884;   -8.175;   86.000;    5.000
226.028;  -92.700; -760.000; -626.000
226.172;  -41.875; -260.000; -273.000
226.316; -120.450; -941.000; -902.000
226.460;  -68.900; -645.000; -493.000
226.604;  -58.075; -406.000; -400.000
226.748; -120.025; -836.000; -733.000
226.892;  -37.425; -227.000; -181.000
227.036;  -49.225; -537.000; -447.000
227.180;  -48.800; -551.000; -375.000
227.324;  -67.550; -561.000; -580.000
227.468; -111.100; -819.000; -717.000
227.612;    9.000;  242.000;  -28.000
227.756;  -94.350; -845.000; -698.000
227.900;   47.075;  342.000;  441.000
228.044;  -56.675; -509.000; -290.000
228.188;   73.375;  448.000;  568.000
228.332;  -85.225; -546.000; -472.000
228.476;  -28.750; -223.000; -149.000
228.620;  -31.100; -210.000; -150.000
228.764;   59.025;  431.000;  349.000
228.908;   -6.025; -155.000;   30.000
229.052;  -61.675; -615.000; -528.000
229.195;  -19.700; -172.000;   13.000
229.339;  -26.700; -235.000; -305.000
229.483;  -27.575;    5.000; -162.000
229.627;    2.175; -156.000;  139.000
229.771;  -52.150; -218.000; -294.000
229.915;   10.850;  230.000;   79.000
230.059;  -84.775; -648.000; -663.000
230.202;  -48.925; -370.000; -317.000
230.346;   -8.775; -107.000;  107.000
230.490;  -68.650; -489.000; -521.000
230.634; -106.225; -736.000; -553.000
230.777;   72.675;  478.000;  509.000
230.921;  -59.600; -450.000; -359.000
231.065;  -51.300; -246.000; -286.000
231.209;   21.225;  261.000;  265.000
231.352;   12.450;   54.000;   40.000
231.496;   10.850;  568.000;  188.000
231.640;  -79.600; -693.000; -621.000
231.783;   79.975;  546.000;  525.000
231.927;  -47.075; -294.000; -365.000
232.071; -122.175; -962.000; -736.000
232.214; -122.700; -980.000; -764.000
232.358;  -92.825; -683.000; -599.000
232.502;   18.300;  -19.000;    7.000
232.645; -120.850;-1090.000; -927.000
232.789;  -25.450; -257.000; -218.000
232.933;  -36.600; -407.000; -224.000
233.076; -130.450;-1038.000; -897.000
233.220; -101.350; -752.000; -777.000
233.363;  -77.650; -669.000; -477.000
233.507;   69.925;  371.000;  129.000
233.650;  -99.250; -764.000; -834.000
233.794;   53.650;  438.000;  461.000
233.938;  -57.575; -530.000; -362.000
234.081;  -19.450;  -93.000;   31.000
234.225;  -59.650; -631.000; -539.000
234.368;  -98.100; -773.000; -723.000
234.512;  -49.525; -385.000; -299.000
234.655;  -90.300; -582.000; -555.000
234.798;  -58.150; -493.000; -466.000
234.942; -126.225; -884.000;-1002.000
235.085;  -71.850; -651.000; -443.000
235.229;  -67.175; -405.000; -410.000
235.372;  -46.250; -247.000; -191.000
235.516;  -57.300; -397.000; -321.000
235.659;   24.000;   92.000;  121.000
235.802;  -15.000;  -38.000;  -22.000
235.946;   28.850;  335.000;  215.000
236.089;   35.350;  126.000;  250.000
236.233;   44.475;  275.000;  298.000
236.376;  -40.200; -235.000; -378.000
236.519;  -49.175; -297.000; -319.000
236.663;  -13.875; -215.000; -117.000
236.806; -129.625;-1029.000; -999.000
236.949;   59.100;  543.000;  431.000
237.092;   60.025;  412.000;  391.000
237.236;  -75.100; -589.000; -502.000
237.379;   68.425;  352.000;  428.000
237.522; -108.575; -879.000; -768.000
237.666;   -9.450; -271.000;   18.000
237.809; -114.950; -851.000; -823.000
237.952;   32.875;  469.000;  271.000
238.095;  -59.550; -447.000; -442.000
238.238;   88.925;  688.000;  700.000
238.382;    4.925;  166.000;  103.000
238.525;  -67.850; -598.000; -511.000
238.668; -131.000;-1060.000; -985.000
238.811;  -91.100; -638.000; -643.000
238.954;  -59.000; -483.000; -334.000
239.097;   82.575;  617.000;  664.000
239.241;   14.300;  394.000;  326.000
239.384;  -49.200; -254.000; -214.000
239.527;  -68.250; -424.000; -224.000
239.670; -161.050; -994.000;-1091.000
239.813; -105.250; -696.000; -658.000
239.956;   71.500;  579.000;  473.000
240.099; -107.125; -778.000; -725.000
240.242;   49.725;  428.000;  432.000
240.385;   48.275;  466.000;  450.000
240.528;  -71.700; -706.000; -473.000
240.671;   18.250;  189.000;  134.000
240.814;  -48.675; -441.000; -158.000
240.957;  -89.175; -767.000; -578.000
241.100;  -92.225; -779.000; -755.000
241.243; -133.150;-1234.000; -893.000
241.386;  -72.300; -508.000; -379.000
241.529; -103.150; -735.000; -547.000
241.672;  -61.425; -566.000; -495.000
241.815; -119.425; -832.000; -808.000
241.958;  -16.750; -125.000; -182.000
242.101;  -84.750; -545.000; -390.000
242.244;  -38.700; -270.000; -325.000
242.387;  -34.700; -304.000; -246.000
242.530;   51.775;  470.000;  134.000
242.673;  -36.425; -381.000; -309.000
242.815; -128.825; -925.000; -899.000
242.958;  -78.050; -482.000; -381.000
243.101;   14.275;  132.000;  187.000
243.244;  -87.075; -564.000; -521.000
243.387;  -49.300; -313.000; -316.000
243.530;  -86.425; -657.000; -674.000
243.672;    3.250;   43.000;  -92.000
243.815;  -61.775; -355.000; -283.000
243.958;    5.725;   98.000;  -26.000
244.101;   -5.825;   59.000;  -16.000
244.243;  -17.200;  -47.000;  101.000
244.386; -109.325; -761.000; -630.000
244.529;  -25.200; -132.000; -139.000
244.672; -160.575;-1154.000; -951.000
244.814; -103.000; -621.000; -794.000
244.957;  -44.675; -380.000; -304.000
245.100;  -88.525; -489.000; -489.000
245.242;  -57.425; -387.000; -374.000
245.385;  -18.850;  -59.000;  -39.000
245.528; -111.350; -871.000; -705.000
245.670;   87.150;  612.000;  634.000
245.813;  -82.975; -599.000; -547.000
245.956;  -37.050; -324.000; -275.000
246.098;  -68.475; -508.000; -650.000
246.241;    2.325;  194.000;   48.000
246.383;  -23.800; -119.000;  -73.000
246.526;  -81.225; -454.000; -525.000
246.669; -110.000; -889.000; -780.000
246.811;   -0.450;  172.000;   -1.000
246.954;  -65.025; -512.000; -426.000
247.096;  -24.975;  -84.000;   -6.000
247.239;  -70.425; -482.000; -445.000
247.381;  -62.550; -647.000; -488.000
247.524;   95.950;  645.000;  679.000
247.666;   -7.500;   58.000;   11.000
247.809; -107.725; -887.000; -691.000
247.951;  -16.350;  -75.000;  138.000
248.094;   44.175;  432.000;  308.000
248.236; -168.275;-1262.000;-1238.000
248.378;   -0.125; -356.000;  -81.000
248.521;  -32.300; -334.000; -337.000
248.663;  -46.925; -236.000; -267.000
248.806;  -28.650; -300.000; -266.000
248.948; -107.525; -886.000; -763.000
249.090;  -42.675; -428.000; -398.000
249.233;  -46.625; -344.000; -381.000
249.375;  -68.475; -474.000; -451.000
249.518;  -12.700;  -83.000; -133.000
249.660;   -6.625; -103.000;    3.000
249.802; -163.375;-1303.000;-1189.000
249.945;  -92.125; -612.000; -540.000
250.087; -122.900; -834.000; -768.000
250.229;  -57.100; -362.000; -480.000
250.371;  -64.575; -494.000; -439.000
250.514;  -59.950; -310.000; -244.000
250.656;  -66.525;   69.000;  102.000
250.798; -127.300; -849.000; -800.000
250.940;  -58.575; -322.000; -322.000
251.083;  -31.225; -335.000; -111.000
251.225;   62.125;  338.000;  310.000
251.367;  -40.975; -274.000; -373.000
251.509;  -36.375; -265.000; -210.000
251.651;  -99.450; -731.000; -671.000
251.794;   49.250;  538.000;  632.000
251.936; -108.800; -821.000; -747.000
252.078;  -75.625; -540.000; -461.000
252.220;  -74.425; -645.000; -477.000
252.362;   75.475;  344.000;  462.000
252.504;  -64.875; -677.000; -584.000
252.646; -116.475; -875.000; -722.000
252.788;   -7.875;   14.000; -128.000
252.931;  -31.350; -257.000; -253.000
253.073;  -53.850; -376.000; -317.000
253.215;   -0.725;  141.000;  122.000
253.357;  -24.700;   82.000; -153.000
253.499;  -55.050; -374.000; -234.000
253.641;  -88.875; -749.000; -594.000
253.783; -105.425; -609.000; -527.000
253.925;  -85.850; -586.000; -591.000
254.067;  -97.075; -744.000; -667.000
254.209;  -28.075; -391.000; -259.000
254.351; -132.275; -865.000; -883.000
254.493;  -60.075; -441.000; -417.000
254.635; -125.950; -936.000; -818.000
254.777;  -94.950; -752.000; -687.000
254.918;  -85.175; -512.000; -430.000
255.060;  -55.050; -551.000; -395.000
255.202;  -67.225; -473.000; -261.000
255.344;  -93.800; -658.000; -455.000
255.486;  -61.975; -471.000; -406.000
255.628; -103.325; -780.000; -781.000
255.770;  -89.750; -676.000; -536.000
255.912;  -61.425; -559.000; -468.000
256.053;  -90.675; -730.000; -508.000
256.195;  157.900; 1008.000;  903.000
256.337; -105.050; -861.000; -595.000
256.479;   51.525;  532.000;  416.000
256.621;  -48.250; -394.000; -212.000
256.762;  -98.875; -789.000; -742.000
256.904;   64.675;  485.000;  487.000
257.046;  -32.625; -381.000; -271.000
257.188;  -44.400; -351.000; -264.000
257.329;  -85.175; -525.000; -464.000
257.471; -119.275; -939.000; -807.000
257.613;  -66.225; -584.000; -498.000
257.755; -151.475;-1073.000; -982.000
257.896;   28.950;  286.000;  392.000
258.038;  -54.300; -403.000; -352.000
258.180;  -56.075; -354.000; -279.000
258.321;  -86.225; -581.000; -457.000
258.463;  -12.650;  -71.000;  133.000
258.605;  -88.825; -562.000; -570.000
258.746; -120.075; -886.000; -772.000
258.888; -151.950;-1026.000;-1020.000
259.029;   14.425;  121.000;   -8.000
259.171;  -88.750; -614.000; -550.000
259.313;  -14.725;  -49.000;  -47.000
259.454;  -68.675; -536.000; -414.000
259.596;  -50.675; -483.000; -390.000
259.737;  -81.750; -590.000; -474.000
259.879;   44.500;  217.000;  311.000
260.020;   89.200;  901.000;  636.000
260.162;  -27.500; -146.000; -253.000
260.303; -111.125; -768.000; -687.000
260.445; -102.325; -609.000; -613.000
260.586;   43.650;  392.000;  157.000
260.728;  -46.800; -360.000; -248.000
260.869; -114.000; -350.000; -343.000
261.011;   66.700;  706.000;  537.000
261.152;  -65.625; -479.000; -319.000
261.293;  -95.875; -576.000; -595.000
261.435;  -31.725; -219.000; -184.000
261.576;  -66.475; -455.000; -325.000
261.718;   54.500;  420.000;  470.000
261.859; -133.075; -940.000; -949.000
262.000; -137.200; -951.000;-1016.000
262.142;  -28.025;  -52.000;  -60.000
262.283; -125.425; -808.000; -691.000
262.424;  -82.200; -666.000; -625.000
262.566; -144.350;-1161.000; -983.000
262.707; -110.800; -840.000; -830.000
262.848; -120.675; -769.000; -726.000
262.990;  -52.300; -362.000; -345.000
263.131;   95.125;  650.000;  681.000
263.272;  -17.275;  -61.000;  -41.000
263.413;  -96.625; -589.000; -561.000
263.555;  -79.450; -669.000; -143.000
263.696;  -78.250; -550.000; -641.000
263.837;  -51.100; -449.000; -551.000
263.978;   13.375;   -5.000;  -77.000
264.119;  -48.975; -283.000; -264.000
264.261; -109.225; -847.000; -630.000
264.402;   -8.900;   33.000;   40.000
264.543;  -74.425; -509.000; -524.000
264.684;  -23.225;   61.000;  -50.000
264.825;  -72.825; -816.000; -538.000
264.966;   -9.975;  -84.000;  -67.000
265.107; -118.525; -646.000; -670.000
265.248; -134.100; -825.000; -812.000
265.390;    4.500;  152.000;   -9.000
265.531;  -19.175; -238.000; -107.000
265.672;  -80.525; -557.000; -630.000
265.813;   46.050;  563.000;  439.000
265.954; -145.075; -959.000; -940.000
266.095;  -20.025; -372.000; -322.000
266.236;  -85.625; -686.000; -548.000
266.377;  -46.525; -243.000; -297.000
266.518;  -63.825; -619.000; -547.000
266.659;    8.350;  170.000;  268.000
266.800;    0.575;   83.000;   85.000
266.941;  -69.900; -487.000; -478.000
267.082;   39.575;  354.000;   99.000
267.223;  -48.750; -344.000; -273.000
267.364; -120.475; -892.000; -686.000
267.504;  -17.450;    3.000;  135.000
267.645;   -3.100;  160.000;   67.000
267.786;  -36.875; -147.000;  -86.000
267.927;  -81.025; -473.000; -379.000
268.068;  -22.175; -186.000;  -61.000
268.209;  -39.850; -175.000; -413.000
268.350;  -71.000; -388.000; -532.000
268.490;  -84.025; -648.000; -521.000
268.631;   36.525;  127.000;  225.000
268.772; -109.725; -874.000; -647.000
268.913;  -58.675; -328.000; -476.000
269.054;   -9.700; -117.000;   12.000
269.194;  -50.325; -418.000; -402.000
269.335; -146.075;-1137.000;-1074.000
269.476;  -14.625;   33.000;  -35.000
269.617;  -50.100; -347.000; -392.000
269.757;  -93.250; -713.000; -646.000
269.898;  -93.100; -856.000; -613.000
270.039;  -74.450; -415.000; -405.000
270.180; -140.075; -952.000; -816.000
270.320;  -22.400; -190.000; -250.000
270.461;  -39.875; -277.000; -249.000
270.602;  -21.150; -186.000; -156.000
270.742; -128.050; -868.000; -943.000
270.883;  -66.625; -442.000; -390.000
271.023;  -57.125; -358.000; -357.000
271.164;  -82.800; -607.000; -528.000
271.305; -100.375; -666.000; -654.000
271.445;  -97.900; -722.000; -683.000
271.586;  -68.300; -462.000; -283.000
271.726;  -44.000; -397.000; -322.000
271.867;  -50.525; -594.000; -534.000
272.008;  175.125; -473.000; -285.000
272.148;  127.675;  462.000;  468.000
272.289;    2.125; -113.000; -181.000
272.429;   24.750;   19.000;  185.000
272.570;  -97.500; -633.000; -737.000
272.710;  -96.675; -825.000; -775.000
272.851;  -22.950;  113.000; -130.000
272.991; -163.375;-1173.000;-1077.000
273.131;  -73.575; -419.000; -459.000
273.272;  -99.775; -683.000; -723.000
273.412;   12.225; -143.000;  -31.000
273.553;  -63.675; -488.000; -507.000
273.693;  123.750;  913.000;  858.000
273.834;  -94.600; -894.000; -692.000
273.974;  -74.425; -664.000; -615.000
274.114; -101.125; -772.000; -560.000
274.255;   72.975;  414.000;  373.000
274.395;    9.600; -180.000; -125.000
274.535;   39.950;  199.000;  350.000
274.676;   34.500;  225.000;   94.000
274.816;   11.200;  110.000;   34.000
274.956;  -80.375; -624.000; -690.000
275.097;  -78.600;-1014.000; -922.000
275.237; -115.125; -913.000; -803.000
275.377; -102.575; -778.000; -689.000
275.517; -147.975; -878.000; -937.000
275.658;  -54.650; -590.000; -555.000
275.798;  -69.600; -606.000; -413.000
275.938;   23.975;  215.000;  323.000
276.078; -105.625; -626.000; -395.000
276.218;    8.425;   99.000;  104.000
276.359; -129.225;-1026.000;-1024.000
276.499;  -74.725; -605.000; -446.000
276.639;  -36.100; -305.000; -151.000
276.779;  -56.500; -475.000; -357.000
276.919; -103.925; -783.000; -624.000
277.059;  -32.675; -261.000; -212.000
277.199;  -44.875; -357.000; -259.000
277.340;   47.200;  287.000;  175.000
277.480; -107.875; -840.000; -693.000
277.620;   18.600;  192.000;   16.000
277.760; -196.425;-1533.000;-1294.000
277.900;    6.625;  113.000;   33.000
278.040;   14.375;  137.000;  159.000
278.180;   33.775;  270.000;  170.000
278.320;  -17.075;   21.000;   56.000
278.460;  -75.125; -443.000; -469.000
278.600;  -83.875; -708.000; -598.000
278.740;   49.650;  448.000;  224.000
278.880;  -67.125; -768.000; -791.000
279.020;  -20.975; -194.000; -144.000
279.160;  -87.825; -672.000; -595.000
279.300; -130.150; -926.000; -873.000
279.440; -107.550; -709.000; -622.000
279.579;  -25.675;-1014.000; -929.000
279.719;  -44.225; -410.000; -394.000
279.859;   68.450;   -4.000;   41.000
279.999;   19.700; -208.000;  101.000
280.139;  -13.700; -435.000; -387.000
280.279;  -70.125; -708.000; -745.000
280.419;  -24.400; -229.000; -147.000
280.559;  -30.400; -259.000; -180.000
280.698;  -92.550; -790.000; -639.000
280.838;  -87.475; -778.000; -800.000
280.978; -112.125; -846.000; -790.000
281.118; -116.025; -811.000; -704.000
281.257;    6.225;   24.000;    6.000
281.397; -122.300;-1094.000; -960.000
281.537;  -95.625; -599.000; -712.000
281.677;  -20.350; -150.000; -101.000
281.816; -101.900; -700.000; -630.000
281.956;  -37.800; -193.000; -257.000
282.096;  -65.875; -539.000; -396.000
282.235; -108.925; -672.000; -638.000
282.375;  -49.950; -243.000;  -98.000
282.515; -108.075; -715.000; -707.000
282.654;    5.175;   29.000;  106.000
282.794;   31.375;  388.000;  244.000
282.934;  -60.875; -530.000; -491.000
283.073; -131.225;-1030.000; -857.000
283.213;  -58.150; -460.000; -467.000
283.353;  -31.825; -408.000; -349.000
283.492;  -42.125; -264.000; -296.000
283.632;  -44.900; -254.000; -168.000
283.771;  -95.150; -859.000; -730.000
283.911;  -43.425; -369.000; -260.000
284.050; -116.500; -794.000; -748.000
284.190; -158.425;-1229.000;-1096.000
284.329; -146.525;-1055.000; -964.000
284.469;  -65.075; -516.000; -591.000
284.608;  -67.575; -559.000; -598.000
284.748;  -81.875; -614.000; -570.000
284.887;   -8.975;  -87.000;  -20.000
285.027; -134.325; -844.000; -892.000
285.166;  -41.350; -192.000; -249.000
285.306;    3.475; -116.000;  -33.000
285.445;  -46.175; -229.000; -343.000
285.584; -105.000; -630.000; -494.000
285.724;  -48.275; -282.000; -322.000
285.863; -111.775; -857.000; -507.000
286.002;  -59.275; -366.000; -276.000
286.142; -115.450; -715.000; -622.000
286.281;  -61.850; -525.000; -493.000
286.420;  -70.900; -554.000; -417.000
286.560;  109.325;  653.000;  623.000
286.699; -142.750; -958.000; -912.000
286.838;  -86.650; -590.000; -591.000
286.978;  -90.850; -533.000; -537.000
287.117; -139.325;-1085.000; -950.000
287.256;  -34.375; -228.000; -211.000
287.395;  -45.225; -197.000; -378.000
287.535;  -51.325; -370.000; -298.000
287.674;  -87.175; -509.000; -484.000
287.813;   54.700;  661.000;  533.000
287.952; -126.225;-1010.000; -871.000
288.091; -161.300;-1049.000; -915.000
288.231;    1.100;   13.000;   15.000
288.370; -177.400;-1217.000;-1200.000
288.509;  -82.475; -728.000; -645.000
288.648;  -82.300; -770.000; -548.000
288.787;  -37.025; -243.000;  -87.000
288.926;  -69.850; -454.000; -475.000
289.065;  105.650;  859.000;  672.000
289.204;  -62.625; -377.000; -217.000
289.344;  -96.350; -791.000; -690.000
289.483;   31.075;  416.000;  304.000
289.622;  -29.250; -291.000; -149.000
289.761;  -23.500; -309.000; -166.000
289.900; -100.575; -785.000; -626.000
290.039;  -28.025;  -12.000;  -95.000
290.178;  -41.600; -274.000; -180.000
290.317;  -80.775; -618.000; -479.000
290.456;  -81.550; -463.000; -451.000
290.595; -137.300; -961.000; -833.000
290.734; -141.425; -904.000; -891.000
290.873;  -78.625; -456.000; -420.000
291.011; -112.025; -833.000; -843.000
291.150;  -94.325; -770.000; -682.000
291.289;  -27.875; -343.000; -110.000
291.428;  -95.675; -599.000; -480.000
291.567;  -57.250; -370.000; -442.000
291.706;   -5.350;  109.000;  154.000
291.845;  -94.700; -597.000; -505.000
291.984; -177.725;-1234.000;-1061.000
292.122;   68.625;  602.000;  582.000
292.261;   47.600;  620.000;  463.000
292.400;    5.875; -144.000;  211.000
292.539; -109.875; -959.000; -813.000
292.678;  -36.000; -325.000; -300.000
292.816; -139.450;-1136.000; -965.000
292.955;  -95.525; -844.000; -684.000
293.094;  -26.575; -173.000; -337.000
293.233;  -69.775; -556.000; -400.000
293.371;  -18.950; -225.000;  -84.000
293.510; -111.850; -866.000; -780.000
293.649; -130.700; -959.000; -924.000
293.787;  -66.125;-1083.000;-1012.000
293.926;    0.075; -113.000;  -32.000
294.065;  -53.850; -379.000; -290.000
294.203;   49.950;  298.000;  406.000
294.342;   21.475;   74.000;  156.000
294.481; 7216.200;51180.000; -836.000
294.619;  -30.350; -425.000; -582.000
294.758; -137.875;-1230.000;-1137.000
294.896;   50.700; -125.000;    5.000
295.035; -122.525;-1040.000;-1006.000
295.174; -122.800;-1082.000; -954.000
295.312;  -40.200; -323.000; -203.000
295.451;   -9.025; -307.000; -428.000
295.589;  -56.600; -389.000; -518.000
295.728;   10.025; -292.000; -165.000
295.866;    6.375;  -36.000;  -51.000
296.005;  -77.225; -584.000; -341.000
296.143;  -70.625; -558.000; -596.000
296.282; -108.450; -957.000; -881.000
296.420;  -87.525; -657.000; -557.000
296.559;  -78.900; -892.000; -633.000
296.697;   31.275; -847.000; -665.000
296.835;   65.550;-1141.000;-1002.000
296.974;   46.975;  -23.000;   39.000
297.112;   16.475; -443.000; -504.000
297.251;  -81.725; -815.000; -755.000
297.389;  107.075; -576.000; -438.000
297.527;   42.300; -145.000;  -83.000
297.666;  -69.625; -486.000; -438.000
297.804;  -38.000; -404.000; -264.000
297.942;  -13.075; -136.000; -161.000
298.081;   -6.525; -183.000;   63.000
298.219;   57.050;  -17.000;  -19.000
298.357;   49.800; -144.000;  -71.000
298.495;   32.725; -810.000; -812.000
298.634;   74.150;  245.000;  219.000
298.772;   62.300; -220.000; -338.000
298.910;  -50.850; -309.000; -182.000
299.048;   -9.650; -130.000; -153.000
299.187;  -35.400; -350.000; -250.000
299.325;   16.350;   52.000;  122.000
299.463;   38.300; -389.000; -299.000
299.601;  106.250; -327.000; -271.000
299.739; -102.625; -908.000; -883.000
299.877;  -88.200; -791.000; -703.000
300.016;  -55.525;-1095.000; -935.000
300.154;  156.375;  -19.000; -161.000
300.292;   54.025; -428.000; -348.000
300.430;   29.775; -408.000; -291.000
300.568; -108.875; -940.000; -874.000
300.706;  -57.275; -366.000; -469.000
300.844;  -64.775;-1108.000; -979.000
300.982;  116.500;  246.000;  282.000
301.120; -108.600; -965.000; -866.000
301.258;  -84.675; -812.000; -705.000
301.396;   42.325;  104.000;  -41.000
301.534;   63.325; -218.000; -293.000
301.672;   -7.500; -664.000; -521.000
301.810;   30.825; -613.000; -545.000
301.948;  117.475;   53.000;  149.000
302.086;  585.125; -250.000;  -32.000
302.224;  937.050; -610.000; -585.000
302.362;   35.075; -558.000; -622.000
302.500;  -31.750; -923.000; -893.000
302.638;   99.575;  128.000;  245.000
302.776;   -6.025; -352.000; -408.000
302.913;   43.975;  447.000;  236.000
303.051;   -2.575;  -86.000;  -23.000
303.189;   37.975;   90.000;  118.000
303.327;  -29.675; -341.000; -256.000
303.465;  -90.375; -832.000; -588.000
303.603;  -79.700; -805.000; -604.000
303.740;   94.875;  417.000;  241.000
303.878;    9.050; -800.000; -759.000
304.016; -113.550; -915.000; -790.000
304.154; -129.025;-1123.000;-1152.000
304.291;  -45.425; -505.000; -554.000
304.429;   13.725;  102.000;   74.000
304.567; -125.350; -908.000; -893.000
304.705;  -49.625; -408.000; -515.000
304.842;   95.975; -616.000; -540.000
304.980;   63.000;  215.000;   35.000
305.118;   39.350; -367.000; -365.000
305.255;  -79.575; -945.000; -927.000
305.393;   45.325;  178.000;  239.000
305.531; -109.825;-1173.000; -956.000
305.668;  -78.350; -663.000; -582.000
305.806;  101.150; -358.000; -439.000
305.943;  118.350; -629.000; -637.000
306.081;   44.400; -378.000; -267.000
306.219; -110.175; -863.000; -748.000
306.356;    6.700;  158.000;   27.000
306.494;   95.925;  981.000;  761.000
306.631;  -11.775;  -11.000;  -55.000
306.769;   -6.825; -613.000; -485.000
306.906;  -28.375; -284.000; -258.000
307.044;  -69.075; -473.000; -488.000
307.181;  -73.600; -410.000; -332.000
307.319;    3.850;  112.000;   87.000
307.456; -178.875;-1191.000;-1153.000
307.594; -104.900; -980.000; -727.000
307.731;  -31.700; -371.000; -164.000
307.868;   -6.475;  -15.000;   20.000
308.006; -137.700; -961.000; -847.000
308.143;  -74.200; -618.000; -330.000
308.281;  121.400;  -37.000; -254.000
308.418;  -14.250; -748.000; -640.000
308.555;  -68.175; -400.000; -250.000
308.693;  -78.950; -577.000; -573.000
308.830; -121.175; -712.000; -657.000
308.967;  -13.000; -215.000;  -95.000
309.105;  -57.000; -507.000; -396.000
309.242;   10.300; -468.000; -367.000
309.379;  236.150; -577.000; -655.000
309.517;  -88.950; -936.000; -948.000
309.654; -102.050; -910.000; -734.000
309.791;  -87.800; -662.000; -580.000
309.928; -115.500; -977.000; -914.000
310.065;  171.375;  819.000;  697.000
310.203;   -9.025; -825.000; -850.000
310.340;  -22.050; -465.000; -321.000
310.477;  -71.400; -412.000; -516.000
310.614;  -77.025; -383.000; -473.000
310.751;  -82.700; -427.000; -518.000
310.889;  -19.275;    1.000;   11.000
311.026; -159.850;-1161.000; -939.000
311.163;  -47.575; -386.000; -380.000
311.300;  -66.725; -512.000; -479.000
311.437;  -78.625; -658.000; -619.000
311.574; -172.375;-1226.000; -985.000
311.711;  -65.875; -595.000; -433.000
311.848;  -49.625; -380.000; -388.000
311.985;   18.350;  270.000;   93.000
312.122; -123.400; -932.000; -762.000
312.259; -128.450; -941.000; -994.000
312.396;  -84.200; -508.000; -551.000
312.533;  -88.825; -812.000; -790.000
312.670; -132.850;-1070.000; -898.000
312.807;  -36.225; -352.000; -367.000
312.944;  -94.750; -513.000; -611.000
313.081;  -41.100; -150.000; -415.000
313.218; -113.325;-1111.000; -867.000
313.355;    3.725; -531.000; -449.000
313.492;   -0.325; -455.000; -292.000
313.629;  116.725;  815.000;  735.000
313.766; -162.350;-1176.000;-1008.000
313.902;  -16.250; -186.000;   21.000
314.039;  -43.725; -372.000; -289.000
314.176;   26.600;  286.000;  192.000
314.313;  -76.350; -569.000; -473.000
314.450;  -76.850; -788.000; -684.000
314.587;  -61.150; -468.000; -480.000
314.723;   -5.975;  -78.000;  130.000
314.860;   24.600;  318.000;  332.000
314.997;   22.400;  223.000;  142.000
315.134;  -37.125; -385.000; -368.000
315.270;  -30.400; -480.000; -496.000
315.407; -121.250;-1094.000; -967.000
315.544;  -55.950; -657.000; -538.000
315.681;  -71.700; -681.000; -565.000
315.817;   31.250; -133.000; -176.000
315.954;   10.075; -613.000; -392.000
316.091; -131.175;-1045.000;-1023.000
316.227;  -27.750;  -71.000; -179.000
316.364;   -4.400;   23.000;    6.000
316.500;  -45.675; -113.000; -300.000
316.637;  -47.725; -181.000; -302.000
316.774;  -88.025; -625.000; -358.000
316.910;  -93.300; -598.000; -629.000
317.047;  -78.200; -487.000; -351.000
317.183;  -56.575; -435.000; -566.000
317.320;   -5.950; -367.000; -321.000
317.456;  -77.650; -733.000; -805.000
317.593;  -92.350; -598.000; -641.000
317.729;   -3.000;  168.000;  -67.000
317.866; -193.000;-1434.000;-1285.000
318.002;  -88.775; -708.000; -948.000
318.139;  -95.250; -883.000; -867.000
318.275; -122.425;-1003.000; -738.000
318.412;  -73.700; -517.000; -336.000
318.548;  -34.850; -751.000; -720.000
318.685;  -99.350; -985.000; -888.000
318.821; -106.375; -762.000; -735.000
318.957;  -25.325;   34.000;  -23.000
319.094;   44.100;  297.000;  154.000
319.230;  -60.350; -756.000; -742.000
319.367;  123.600; -471.000; -520.000
319.503;   56.800; -538.000; -436.000
319.639; -103.450; -877.000; -793.000
319.775;  -59.075; -750.000; -685.000
319.912;  -61.950; -424.000; -519.000
320.048;  -97.125;-1184.000;-1184.000
320.184;   72.775;   59.000;   70.000
320.321;  -57.350; -497.000; -467.000
320.457;   53.025;  475.000;  662.000
320.593;  -65.875; -375.000; -382.000
320.729; -112.425; -732.000; -734.000
320.866;  -80.900; -577.000; -635.000
321.002;  -80.650; -759.000; -809.000
321.138;  -15.150; -135.000; -211.000
321.274;   69.100; -148.000; -115.000
321.410;  -24.925; -585.000; -353.000
321.546;  -31.325;-1011.000; -911.000
321.683;   53.175;  400.000;  185.000
321.819;   -9.050;  -48.000; -117.000
321.955; -115.375; -743.000; -722.000
322.091;  -50.175; -585.000; -540.000
322.227;  -15.675; -382.000; -202.000
322.363;  -30.550; -320.000; -215.000
322.499;  -41.700; -343.000; -331.000
322.635;  154.675;  636.000;  443.000
322.771;   19.975; -139.000;   12.000
322.907;   89.675;  129.000;  327.000
323.043;  -28.075; -115.000; -206.000
323.179;  -39.625; -394.000; -363.000
323.315;   24.600; -401.000; -371.000
323.451;   84.825; -328.000; -236.000
323.587;   62.300;  -60.000;  -77.000
323.723;    4.600; -682.000; -601.000
323.859;  -17.975; -258.000;  -76.000
323.995;  -43.000; -467.000; -409.000
324.131; -114.875; -967.000; -892.000
324.267;  -38.725; -254.000; -276.000
324.402; -122.425; -960.000; -983.000
324.538;  -22.800; -279.000; -104.000
324.674;   16.375;  164.000;   77.000
324.810;  104.950;  226.000;  308.000
324.946;    0.250; -810.000; -658.000
325.082;  -81.575; -568.000; -475.000
325.217;   -3.725;  -62.000;   16.000
325.353; -113.250; -764.000; -659.000
325.489;  -88.875; -540.000; -506.000
325.625;  -66.025; -579.000; -525.000
325.760;   52.075;  517.000;  376.000
325.896;  -36.950; -515.000; -702.000
326.032;  -47.350; -403.000; -352.000
326.168;  -75.425; -462.000; -369.000
326.303;  -54.325; -352.000; -461.000
326.439;  -27.175; -336.000; -276.000
326.575;    8.375; -190.000;  -29.000
326.710;  -15.025; -156.000;  -30.000
326.846;   -9.150;  146.000;  103.000
326.982; -106.725; -530.000; -548.000
327.117;  -63.075; -481.000; -442.000
327.253;  -95.725; -745.000; -742.000
327.388; -141.925;-1137.000;-1153.000
327.524;  -76.300; -811.000; -578.000
327.659;  -36.000;  -58.000;  -22.000
327.795;  -18.300;   69.000;   45.000
327.931;  -91.600; -723.000; -499.000
328.066;  -44.875; -417.000; -276.000
328.202;  -18.925;   12.000; -129.000
328.337;  110.125;  957.000;  713.000
328.473;   28.600;  -12.000;  -74.000
328.608;  -31.125; -256.000; -267.000
328.743;  -89.725; -799.000; -664.000
328.879;    5.450;  214.000;  114.000
329.014;  -35.575; -102.000; -122.000
329.150;  -83.425; -358.000; -483.000
329.285;  -78.725; -465.000; -466.000
329.421;  -61.750; -548.000; -246.000
329.556;  -22.950;  -36.000;   85.000
329.691; -107.325; -633.000; -615.000
329.827;  -78.275; -626.000; -480.000
329.962;  -34.625;  131.000; -301.000
330.097;  -90.750; -673.000; -585.000
330.233;  -60.100; -410.000; -223.000
330.368; -118.300; -839.000; -628.000
330.503;  -27.600;    3.000;   98.000
330.638;    9.825;  -93.000; -125.000
330.774;  -62.900; -609.000; -530.000
330.909;  -35.100; -434.000; -244.000
331.044;  -96.250; -714.000; -708.000
331.179; -182.175;-1217.000;-1109.000
331.315;   -1.550;   77.000;   20.000
331.450;   18.325;  157.000;  285.000
331.585;  -84.775; -805.000; -706.000
331.720;  -91.750; -510.000; -460.000
331.855;  -20.175;  -35.000; -102.000
331.990;  237.200;   62.000;  138.000
332.126;  120.225; -110.000;   71.000
332.261;  -13.025; -379.000; -265.000
332.396;    2.950; -135.000; -242.000
332.531; -111.825;-1074.000;-1031.000
332.666;   36.175; -519.000; -363.000
332.801; -105.725; -726.000; -807.000
332.936;  -31.600; -192.000; -122.000
333.071; -142.875; -870.000; -817.000
333.206;   11.550;  307.000;  379.000
333.341;   33.175;  344.000;  418.000
333.476; -107.875; -627.000; -623.000
333.611;  -29.025; -251.000; -173.000
333.746;  -47.475; -381.000; -464.000
333.881; -117.300; -973.000; -935.000
334.016; -128.050; -936.000; -917.000
334.151; -117.925; -746.000; -702.000
334.286;   24.475;  152.000;  186.000
334.421;  -22.475; -125.000; -178.000
334.556;  -82.675; -611.000; -567.000
334.690;  -91.800; -631.000; -577.000
334.825;   55.925;  381.000;   83.000
334.960;  -45.125; -285.000; -413.000
335.095;    5.100;  135.000;  -91.000
335.230;  -98.450; -722.000; -738.000
335.365; -129.675;-1084.000; -990.000
335.499; -146.700;-1108.000;-1037.000
335.634;   20.425;    9.000;  534.000
335.769;  -94.825; -755.000; -720.000
335.904;  -64.100; -603.000; -561.000
336.038;  -60.800; -735.000; -657.000
336.173; -123.200;-1206.000;-1194.000
336.308;    6.325; -116.000; -189.000
336.443;   15.675; -544.000; -634.000
336.577;  -74.125; -936.000; -787.000
336.712;   65.225;   -4.000;  -12.000
336.847;  -38.075; -724.000; -607.000
336.981;   64.300; -272.000; -208.000
337.116;  288.650;  615.000;  501.000
337.250;  141.400; -434.000; -421.000
337.385;  265.575; -297.000; -208.000
337.520;   74.775; -632.000; -603.000
337.654;  -48.775; -215.000; -126.000
337.789; -131.025; -989.000; -933.000
337.923;  -42.800; -104.000; -205.000
338.058; -100.025; -673.000; -738.000
338.192;  -44.125; -611.000; -488.000
338.327;  -18.125;  -18.000; -155.000
338.461;  -70.150; -299.000; -469.000
338.596; -103.150; -780.000; -638.000
338.730; -104.750; -767.000; -803.000
338.865;   88.525;  -46.000; -140.000
338.999;  -38.275; -846.000; -702.000
339.134;  -21.950; -634.000; -536.000
339.268;   11.975; -741.000; -603.000
339.403;  355.700; -740.000; -775.000
339.537;  122.875; -894.000; -820.000
339.671; -124.225; -829.000; -813.000
339.806;  -73.700; -556.000; -512.000
339.940;   15.550; -261.000; -235.000
340.074;  -91.625; -685.000; -510.000
340.209;  -58.900; -351.000; -230.000
340.343;  -90.875; -517.000; -573.000
340.477;  152.050;  998.000; 1036.000
340.612;  -50.225;-1033.000; -900.000
340.746;  141.525; -199.000; -243.000
340.880;  -72.175; -924.000; -785.000
341.014;  -29.925;  -45.000; -154.000
341.149; -118.200; -756.000; -718.000
341.283; -105.450; -839.000; -754.000
341.417;  -88.625;-1124.000; -938.000
341.551;  133.050; -768.000; -708.000
341.685;  -44.275; -633.000; -611.000
341.820;  -57.200; -562.000; -493.000
341.954;  -46.175; -218.000; -349.000
342.088; -155.125;-1102.000;-1019.000
342.222;   53.000;  565.000;  618.000
342.356;  -57.500; -395.000; -335.000
342.490;  -95.275; -880.000; -841.000
342.624;  -65.925; -339.000; -242.000
342.758;    1.700; -364.000; -312.000
342.892;  -78.800; -710.000; -585.000
343.026;  -32.800;  -58.000; -116.000
343.160;  -58.725; -426.000; -376.000
343.294;  -77.075; -474.000; -337.000
343.428;  -39.500; -488.000; -448.000
343.562;  -16.225; -172.000;  -23.000
343.696;  -27.625; -385.000; -314.000
343.830;  -20.125; -362.000; -356.000
343.964;    3.125; -231.000; -168.000
344.098;  914.175;  199.000;   70.000
344.232;  750.200; -266.000; -127.000
344.366;   81.350; -567.000; -453.000
344.500;   55.425; -665.000; -744.000
344.634;   38.925; -324.000; -164.000
344.768;   -7.350; -531.000; -341.000
344.902;   11.575;  278.000;  256.000
345.035;  -72.975; -556.000; -496.000
345.169; -130.100; -933.000; -656.000
345.303;  -54.400; -308.000; -482.000
345.437;  -77.350; -826.000; -717.000
345.571;  -80.100; -675.000; -594.000
345.704;  -64.400; -309.000; -532.000
345.838;  -17.900; -331.000; -284.000
345.972;  -46.975; -543.000; -495.000
346.106;  164.550; -179.000; -190.000
346.239;  422.375; -312.000; -243.000
346.373;   -0.925; -343.000; -302.000
346.507; -138.350; -950.000; -962.000
346.640;  147.425;  -30.000;   13.000
346.774;  -42.025; -650.000; -797.000
346.908;  -12.075; -138.000;  -11.000
347.041;  -90.750; -646.000; -593.000
347.175;   -7.000;  259.000;   27.000
347.309;  -87.975; -698.000; -628.000
347.442; -114.475; -883.000; -732.000
347.576;  271.875;  670.000;  668.000
347.709;  200.025; -123.000;  -52.000
347.843;  -95.350; -933.000; -825.000
347.976;   27.925;  235.000;  294.000
348.110; -192.950;-1268.000;-1186.000
348.243; -118.550; -679.000; -772.000
348.377;   -5.925;  -26.000;   60.000
348.510;   64.475;  403.000;  540.000
348.644;  -37.400;  -37.000; -159.000
348.777;  -13.525;  180.000;  191.000
348.911;  -43.175; -142.000; -112.000
349.044;  159.025;  471.000;  448.000
349.178;  140.575;-1069.000;-1006.000
349.311;  106.975;  141.000;  255.000
349.444;   -6.850; -927.000; -813.000
349.578;  -23.975; -347.000; -200.000
349.711; -112.400; -959.000; -862.000
349.845;  -13.350; -661.000; -591.000
349.978; -147.675;-1224.000;-1137.000
350.111;  -88.450; -546.000; -612.000
350.244;  -80.750; -596.000; -700.000
350.378;    1.150; -392.000; -393.000
350.511;  -74.975; -393.000; -426.000
350.644; -106.875; -808.000; -806.000
350.778;   17.975;  168.000;  104.000
350.911;   -9.575;  134.000;  140.000
351.044;  -85.575; -685.000; -615.000
351.177;  -25.825; -321.000; -281.000
351.310;  -18.300;    3.000; -131.000
351.444;  -81.800; -888.000; -788.000
351.577;  114.850;  140.000;   90.000
351.710;   81.575;  593.000;  417.000
351.843;  -32.400; -165.000;  -77.000
351.976;   -1.100;  149.000;  -79.000
352.109;  -85.600; -621.000; -612.000
352.242;  -34.775; -464.000; -419.000
352.376;  -65.775; -580.000; -636.000
352.509;  165.875; -437.000; -356.000
352.642;    6.425; -654.000; -604.000
352.775;   65.125; -141.000;  -98.000
352.908; -110.550; -933.000; -904.000
353.041; -110.975; -814.000; -824.000
353.174;  -69.250; -551.000; -424.000
353.307;  -96.650; -753.000; -764.000
353.440;   73.725;  541.000;  453.000
353.573; -119.850; -957.000;-1008.000
353.706;  -45.075; -384.000; -558.000
353.839;  -32.525; -264.000; -220.000
353.971;  -79.700; -657.000; -512.000
354.104;  -86.725; -896.000; -835.000
354.237;  -32.175; -627.000; -662.000
354.370;  -94.350; -846.000; -879.000
354.503; -180.525;-1231.000;-1308.000
354.636;  -35.800; -529.000; -348.000
354.769; -131.000; -937.000; -860.000
354.902;  -19.375; -230.000; -139.000
355.034;  -14.225; -164.000; -220.000
355.167;  -24.350; -262.000; -162.000
355.300;  -92.525;-1061.000; -880.000
355.433;  962.000;  -71.000;  -14.000
355.565; 1508.400; -402.000; -384.000
355.698;  372.275; -356.000; -296.000
355.831;   -2.475; -882.000; -801.000
355.964;   75.875; -285.000; -170.000
356.096;  -74.825; -856.000; -843.000
356.229;  -16.275; -523.000; -530.000
356.362;  314.200; -373.000; -266.000
356.494;  595.675; -229.000; -162.000
356.627;  469.025;  269.000;  377.000
356.760;  655.025;  120.000;   53.000
356.892;  929.200; -286.000; -601.000
357.025;  632.275;  403.000;  389.000
357.157;  577.850; -167.000; -179.000
357.290;  669.925; -856.000; -713.000
357.423;  199.600; -667.000; -556.000
357.555;  112.900; -217.000; -228.000
357.688;  128.250; -483.000; -364.000
357.820;  444.525; -870.000; -877.000
357.953; 3669.875; -563.000; -589.000
358.085;  776.275; -632.000; -612.000
358.218; 1107.700;-1131.000; -932.000
358.350;  198.500;  -58.000;  312.000
358.483; -129.150;-1300.000;-1187.000
358.615;  -28.725;-1182.000;-1078.000
358.747;  -54.875;-1187.000;-1058.000
358.880;    7.900; -810.000; -744.000
359.012;   -7.250; -376.000; -202.000
359.145;  -50.725; -480.000; -511.000
359.277;   56.525; -962.000; -913.000
359.409; 3056.325;  536.000;  231.000
359.542;  796.950; -738.000; -688.000
359.674;   60.650;   46.000;   13.000
359.806;  -64.475; -565.000; -438.000
359.939;  -39.425; -617.000; -516.000
360.071;  -20.375; -583.000; -579.000
360.203;  -25.700; -411.000; -364.000
360.335;   44.675;  164.000;  -16.000
360.468;  170.725; -249.000; -307.000
360.600; 2468.825; -547.000; -454.000
360.732; 2822.800; -546.000; -423.000
360.864;  387.875;-1216.000;-1044.000
360.996;  278.500; -516.000; -554.000
361.129;   48.025; -389.000; -598.000
361.261;   10.700;  110.000; -113.000
361.393;  -25.925; -252.000; -214.000
361.525;   30.200;   94.000;  244.000
361.657;  -46.375; -821.000; -703.000
361.789;   12.275; -139.000; -155.000
361.921;  220.275; -642.000; -593.000
362.053;  241.225;  524.000;  541.000
362.185;   50.825;  288.000;   72.000
362.318;  -78.900; -709.000; -705.000
362.450;  118.475;  294.000;  444.000
362.582;   77.100; -913.000; -870.000
362.714;  -52.200; -353.000; -332.000
362.846;  -89.200; -606.000; -490.000
362.978; -133.825; -941.000; -811.000
363.109;   44.200; -161.000; -260.000
363.241;  426.500; -739.000; -749.000
363.373;  421.475; -649.000; -564.000
363.505;  660.125; -186.000;  -91.000
363.637;  155.400; -787.000; -601.000
363.769; -122.100;-1067.000;-1080.000
363.901;  -70.150; -596.000; -654.000
364.033; -129.275;-1103.000;-1062.000
364.165;   -2.750; -283.000; -283.000
364.296;   68.775; -316.000; -177.000
364.428;   52.150;-1344.000;-1220.000
364.560;  -54.975; -679.000; -661.000
364.692;  -57.625; -738.000; -835.000
364.824;  240.825; -588.000; -456.000
364.955;  432.275; -402.000; -564.000
365.087;  927.250;-1097.000; -852.000
365.219;   33.900; -686.000; -816.000
365.351;  -78.750; -526.000; -572.000
365.482;   57.800;  300.000;  240.000
365.614;  -71.100; -402.000; -314.000
365.746; -100.150; -729.000; -752.000
365.877;  -94.275; -706.000; -672.000
366.009;  259.275;  -35.000;  -62.000
366.141;  -93.300;-1249.000;-1134.000
366.272; -106.025; -803.000; -719.000
366.404; -106.575;-1005.000; -874.000
366.535;  -26.875; -139.000;  -12.000
366.667; -109.975; -644.000; -649.000
366.799;   26.800;  353.000;  203.000
366.930; -123.825; -862.000; -996.000
367.062;  122.425; -639.000; -613.000
367.193;  159.425; -872.000; -842.000
367.325;  -64.950; -580.000; -684.000
367.456;   51.075; -246.000;   31.000
367.588;  158.975; -371.000; -318.000
367.719;   25.875;  -44.000;  -45.000
367.851;  -21.975; -222.000; -241.000
367.982;  -38.675; -875.000; -732.000
368.113;   97.400; -475.000; -358.000
368.245; -118.875; -960.000; -841.000
368.376;  -29.175; -254.000; -302.000
368.508;  -43.400; -188.000; -263.000
368.639; -139.425;-1166.000;-1034.000
368.770;  -15.425; -670.000; -589.000
368.902;  -73.200; -836.000; -926.000
369.033; -106.100; -906.000; -855.000
369.164;  -51.625; -720.000; -653.000
369.296;  -98.100; -452.000; -601.000
369.427;   -2.200; -209.000; -144.000
369.558;  -44.800; -593.000; -377.000
369.689;  -97.750; -721.000; -569.000
369.821; -132.300; -951.000; -845.000
369.952;  -23.325;   42.000; -108.000
370.083;  -50.925; -229.000; -108.000
370.214;  -94.550; -735.000; -650.000
370.345;    5.450;   65.000;   81.000
370.477;  -87.575; -810.000; -790.000
370.608;  212.375; -328.000; -264.000
370.739;  -56.825;-1233.000;-1292.000
370.870;  -40.700;-1102.000; -923.000
371.001;   77.850; -378.000; -467.000
371.132;  -70.500; -754.000; -735.000
371.263;  -26.775;  -42.000; -148.000
371.394; -129.300; -841.000; -748.000
371.525;   17.325;  345.000;  225.000
371.657;  -94.150; -808.000; -670.000
371.788;   61.775;  103.000;  199.000
371.919;  155.875; -384.000; -304.000
372.050; 3626.175;  -91.000; -156.000
372.181; 1066.150; -188.000; -294.000
372.311;  368.875;   42.000; -127.000
372.442;   31.925; -457.000; -451.000
372.573;  -30.975; -444.000; -340.000
372.704; -120.750;-1008.000; -980.000
372.835;   86.500; -228.000; -289.000
372.966;  -65.075; -646.000; -554.000
373.097;  -73.175; -575.000; -711.000
373.228;  -46.475; -717.000; -542.000
373.359;  136.275; -824.000; -536.000
373.490;  911.275; -881.000; -727.000
373.620; 1143.250;-1001.000; -803.000
373.751; 1771.875; -332.000; -396.000
373.882;  746.000; -663.000; -733.000
374.013;   73.725; -449.000; -262.000
374.143;  -44.250; -581.000; -659.000
374.274;  -97.750; -987.000; -908.000
374.405;  159.600; -388.000; -276.000
374.536;  432.225; -526.000; -387.000
374.666; 1083.300; -759.000; -807.000
374.797;  204.050; -817.000; -868.000
374.928;  842.200; -710.000; -560.000
375.058;  882.375; -535.000; -500.000
375.189;   74.275;  -59.000;  -93.000
375.320; -111.750; -928.000;-1034.000
375.450;  -62.700; -625.000; -616.000
375.581;  -56.475; -526.000; -436.000
375.712;  -39.100; -574.000; -250.000
375.842;  300.550; -438.000; -415.000
375.973;  214.000; -554.000; -513.000
376.103;  -38.125; -665.000; -648.000
376.234;  -74.725; -531.000; -552.000
376.364;  -42.500; -944.000; -867.000
376.495;  307.400;  925.000;  529.000
376.625;    2.600; -472.000; -485.000
376.756;   52.800; -709.000; -678.000
376.886;  -85.025;-1178.000;-1026.000
377.017;   39.150;-1048.000;-1061.000
377.147;  351.650; -786.000; -782.000
377.278;   60.300;  174.000;  228.000
377.408; -121.525; -801.000; -815.000
377.538; -113.325; -707.000; -693.000
377.669;  -77.200; -537.000; -613.000
377.799; -100.200; -645.000; -635.000
377.929;  -60.475; -610.000; -428.000
378.060; -135.200; -781.000; -847.000
378.190;  -62.700; -726.000; -531.000
378.320;  -45.900; -401.000; -406.000
378.451;   -8.250; -131.000;  -22.000
378.581;  -10.675;  -67.000; -110.000
378.711;  148.800; 1035.000;  866.000
378.841;  -28.150; -533.000; -675.000
378.972;  -77.775; -871.000; -751.000
379.102;   -6.350; -652.000; -579.000
379.232;  -23.950; -126.000;  -73.000
379.362; -110.950;-1001.000; -885.000
379.492;    3.375; -373.000; -424.000
379.623;  107.025;    0.000;  111.000
379.753;  -89.375;-1107.000; -974.000
379.883;  192.175;   59.000;  156.000
380.013;    0.600;-1081.000;-1017.000
380.143; -109.350;-1097.000;-1056.000
380.273; -101.125; -985.000; -861.000
380.403;    5.100; -344.000; -257.000
380.533;  -30.050; -651.000; -664.000
380.663;   61.950;  173.000;  128.000
380.793;  -98.850;-1027.000;-1074.000
380.923;  -39.675; -103.000;  -34.000
381.053;  -96.600; -613.000; -623.000
381.183;  -29.750; -106.000; -248.000
381.313;   47.200; -656.000; -470.000
381.443;   31.950; -692.000; -473.000
381.573;  190.000; -402.000; -409.000
381.703;  247.425;-1249.000;-1095.000
381.833; -137.450;-1454.000;-1336.000
381.963;  113.325; -134.000;  -87.000
382.093; 1380.350; -925.000; -909.000
382.223;  409.500; -713.000; -602.000
382.353;  -14.575; -801.000; -608.000
382.482;  349.000;-1091.000; -964.000
382.612;  759.975; -872.000; -644.000
382.742;  437.025; -695.000; -622.000
382.872;  250.325; -565.000; -551.000
383.002;   59.050;  347.000; -132.000
383.131;  -17.350; -226.000; -160.000
383.261;  -47.275; -706.000; -768.000
383.391;  284.450; -552.000; -377.000
383.521; 3211.350;  451.000;  263.000
383.650;  761.400; -947.000; -904.000
383.780;  -19.800; -783.000; -656.000
383.910;  119.250;  880.000;  802.000
384.039;   15.575; -794.000; -656.000
384.169;  212.575;-1205.000;-1017.000
384.299;  -24.125; -650.000; -662.000
384.428;  -96.800; -764.000; -680.000
384.558;  -45.500; -308.000; -275.000
384.687;  -43.800; -414.000; -334.000
384.817;   16.550;   75.000;   -2.000
384.947;   29.225; -234.000; -141.000
385.076;  279.425;  982.000;  912.000
385.206;   98.800;  369.000;  480.000
385.335;  -43.925; -549.000; -417.000
385.465;  -84.775; -655.000; -663.000
385.594;  109.525;  -53.000;  -44.000
385.724;  404.625; -868.000; -838.000
385.853;  104.450; -296.000; -270.000
385.982; 1342.775; -743.000; -787.000
386.112; 2107.625;-1052.000; -871.000
386.241;  138.050; -307.000; -312.000
386.371;   19.975; -174.000;  -87.000
386.500;   -4.825; -825.000; -789.000
386.629;   24.175; -874.000; -817.000
386.759;   61.450;  -43.000;   68.000
386.888;  -10.200; -170.000; -250.000
387.017;  -80.225; -648.000; -620.000
387.147;  -90.550; -771.000; -798.000
387.276;  -13.225; -410.000; -397.000
387.405;    9.750; -398.000; -342.000
387.535;  -46.275; -452.000; -361.000
387.664;  -71.075; -692.000; -620.000
387.793;   55.375; -198.000; -113.000
387.922;  496.600;  255.000;  200.000
388.052;   15.900; -576.000; -423.000
388.181;  -16.425; -342.000; -472.000
388.310;  -12.700; -889.000; -710.000
388.439;  -61.900; -749.000; -742.000
388.568;  187.950;  365.000;  244.000
388.697; 1026.850; -756.000; -653.000
388.826;  199.600; -768.000; -666.000
388.956;   53.025; -285.000; -307.000
389.085;  -26.200; -347.000; -287.000
389.214; -107.275; -842.000; -872.000
389.343;  -81.900; -645.000; -413.000
389.472;  401.800;  126.000;  149.000
389.601;  514.025;   91.000;    0.000
389.730;    4.950; -568.000; -687.000
389.859;   64.000;  226.000;   46.000
389.988;  184.175; -423.000; -408.000
390.117;  136.475; -168.000; -146.000
390.246;  -10.650; -331.000; -320.000
390.375;   98.075; -673.000; -626.000
390.504;  -63.025; -703.000; -621.000
390.633;  -92.275; -672.000; -726.000
390.761;  -81.500; -732.000; -645.000
390.890;   14.275;   -4.000; -130.000
391.019;  -33.375; -421.000; -441.000
391.148; -124.750; -826.000; -855.000
391.277;  -65.325; -576.000; -493.000
391.406;  -79.175; -821.000; -805.000
391.534;   19.475;  574.000; -301.000
391.663;  -65.700; -583.000; -645.000
391.792;  -95.700; -673.000; -701.000
391.921;   92.200;   -3.000;   15.000
392.050;  168.100; -287.000; -228.000
392.178;  -53.675;-1206.000;-1061.000
392.307;  134.725; -758.000; -712.000
392.436;   67.500; -427.000; -641.000
392.564;    8.825;  166.000;   -6.000
392.693;  -86.500; -860.000; -682.000
392.822;  182.825; -529.000; -534.000
392.950;   88.425; -880.000; -714.000
393.079;  304.475; -188.000; -328.000
393.208;   27.450; -488.000; -511.000
393.336;  -11.125; -170.000; -145.000
393.465;  -54.325; -317.000; -199.000
393.593;  -11.200;   62.000;   79.000
393.722; -162.300;-1121.000; -916.000
393.850;  -35.675; -188.000;  -61.000
393.979; -147.450; -926.000; -805.000
394.107;  -66.275; -517.000; -537.000
394.236;  -34.350; -570.000; -507.000
394.364;  177.850;  383.000;  206.000
394.493;  271.275; -911.000; -767.000
394.621;  -34.150; -955.000; -916.000
394.750;  715.975; -873.000; -923.000
394.878; 2950.425; -247.000; -149.000
395.007; 3989.275; -721.000; -807.000
395.135;  285.600; -790.000; -721.000
395.263;  -80.050;-1038.000;-1040.000
395.392;   -6.275;  -25.000; -107.000
395.520; -143.775; -818.000; -679.000
395.648; -105.600; -865.000; -915.000
395.777;  -19.350; -366.000; -405.000
395.905;  -55.750; -449.000; -564.000
396.033;   12.775;  217.000;  172.000
396.162;  453.975; -399.000; -453.000
396.290;  398.300;  -17.000;   -2.000
396.418;   97.075; -555.000; -514.000
396.546;  -62.725; -571.000; -466.000
396.674; -104.025; -850.000; -878.000
396.803;    9.150;  -72.000;  -23.000
396.931;   84.550; -179.000; -199.000
397.059;   41.875;-1026.000; -989.000
397.187; -114.625;-1026.000; -975.000
397.315; -149.850; -884.000; -649.000
397.443; -100.775; -592.000; -443.000
397.572;  -94.875; -578.000; -424.000
397.700;  -37.875; -607.000; -614.000
397.828;    7.325;  120.000;  -90.000
397.956;  -56.850; -508.000; -478.000
398.084;  -61.075; -767.000; -626.000
398.212;   28.775;  137.000;  124.000
398.340;   10.175;  -56.000;  159.000
398.468;   25.975; -390.000; -169.000
398.596; -138.875; -993.000; -953.000
398.724; -129.700; -762.000; -767.000
398.852; -172.125;-1024.000; -976.000
398.980;  -69.800; -560.000; -560.000
399.108;  -51.250; -982.000; -735.000
399.236;   34.225;   13.000;    8.000
399.363;    7.250;  222.000;  196.000
399.491;  -80.050; -404.000; -398.000
399.619; -125.225; -829.000; -800.000
399.747; -114.500; -859.000; -771.000
399.875;   75.900;  220.000;  234.000
400.003;  -62.500; -359.000; -284.000
400.130;  -92.550; -421.000; -341.000
400.258;  -43.225;  -83.000;   38.000
400.386;  -69.200; -352.000; -168.000
400.514;  -53.950; -526.000; -587.000
400.641;  -97.800; -928.000; -802.000
400.769; -156.650; -979.000; -888.000
400.897; -115.150; -838.000; -793.000
401.025;  -32.225; -166.000; -152.000
401.152;   -4.325;  220.000;   38.000
401.280;  -80.225; -430.000; -429.000
401.408; -122.850; -712.000; -576.000
401.535; -113.500; -735.000; -758.000
401.663; -195.100;-1134.000;-1054.000
401.790;  -91.000; -514.000; -525.000
401.918;   35.900;  436.000;  405.000
402.046;  -17.075;  134.000;  122.000
402.173;  -26.900;  -18.000;    7.000
402.301;  -74.225; -519.000; -397.000
402.428;   40.650;  528.000;  383.000
402.556; -149.175;-1188.000; -913.000
402.683;  -33.800;  -20.000;   -1.000
402.811;  -36.050;  -37.000; -206.000
402.938;   -9.200;   20.000;   27.000
403.066;  191.950; -574.000; -558.000
403.193;  329.850;  299.000;  239.000
403.321;  259.925; -396.000; -574.000
403.448;  320.275;   83.000;   27.000
403.575;  134.875;  -90.000;  -46.000
403.703;  -92.700; -732.000; -557.000
403.830;  -77.400; -531.000; -496.000
403.957; -145.725;-1117.000;-1023.000
404.085;   12.800;  -61.000; -172.000
404.212;  105.175;  -50.000;   63.000
404.339;  259.350; -566.000; -306.000
404.467; 5814.475; -612.000; -524.000
404.594; 3777.275; -287.000; -227.000
404.721;  888.100; -869.000; -764.000
404.848;   80.050; -113.000; -202.000
404.976; -117.100; -856.000; -783.000
405.103;   -9.500;  -14.000;  -82.000
405.230;   -3.575;  190.000;  226.000
405.357;   11.850;  117.000;   44.000
405.484;  282.775;  -49.000;    5.000
405.612;   30.925; -548.000; -563.000
405.739;  -68.175; -488.000; -243.000
405.866;   83.225;  669.000;  385.000
405.993;  -52.250; -398.000; -102.000
406.120; -132.150; -801.000; -887.000
406.247;  -54.575; -323.000; -342.000
406.374;  413.800;  540.000;  629.000
406.501;   84.125; -632.000; -702.000
406.628;  -97.600; -621.000; -589.000
406.755; -101.850; -803.000; -620.000
406.882;  -53.225; -228.000; -277.000
407.009;  -98.775; -719.000; -628.000
407.136;   48.100; -480.000; -401.000
407.263;  119.925; -939.000; -829.000
407.390;  -89.575; -692.000; -614.000
407.517; -165.950;-1139.000;-1187.000
407.644;  -68.950; -332.000; -256.000
407.771;  -57.075; -249.000; -287.000
407.898;    4.375;  168.000;  328.000
408.025;  -75.925; -421.000; -313.000
408.151;  -21.875;   82.000;  153.000
408.278;  -72.375; -267.000; -216.000
408.405; -124.725; -931.000; -899.000
408.532;  -69.025; -549.000; -542.000
408.659; -111.475; -677.000; -648.000
408.785; -205.525;-1298.000;-1170.000
408.912;  -68.800; -412.000; -296.000
409.039; -114.500; -610.000; -686.000
409.166; -107.075; -591.000; -555.000
409.292; -113.125; -571.000; -534.000
409.419; -121.400; -665.000; -649.000
409.546;  -75.350; -431.000; -192.000
409.672; -109.475; -713.000; -545.000
409.799;  -13.825;  -36.000;   34.000
409.926;  -48.075; -180.000; -179.000
410.052; -176.800;-1127.000;-1091.000
410.179;  -74.025; -368.000; -392.000
410.305;  -84.850; -375.000; -493.000
410.432;  -43.050; -220.000; -333.000
410.558;  -89.700; -305.000; -380.000
410.685; -105.500; -688.000; -431.000
410.812; -105.325; -409.000; -588.000
410.938; -134.625; -964.000; -808.000
411.065; -113.950; -671.000; -645.000
411.191;  -10.425; -189.000; -174.000
411.317; -119.600; -823.000; -742.000
411.444;  -61.575; -317.000; -246.000
411.570;  -79.850; -339.000; -294.000
411.697; -139.400; -758.000; -752.000
411.823; -182.225; -989.000; -999.000
411.949;  -29.725;  -56.000;   17.000
412.076; -120.025; -539.000; -519.000
412.202; -129.875; -758.000; -757.000
412.329; -118.025; -798.000; -752.000
412.455; -122.575; -821.000; -657.000
412.581;  -24.575;  -15.000;  172.000
412.707;  -65.000; -540.000; -457.000
412.834;   -0.525;  156.000;  219.000
412.960;  -91.475; -785.000; -784.000
413.086; -111.775; -743.000; -701.000
413.212;  134.975;  604.000;  578.000
413.339;  -74.425; -685.000; -701.000
413.465;   -3.325; -364.000; -310.000
413.591; -103.475; -757.000; -474.000
413.717;  -55.950; -358.000; -366.000
413.843; -131.150; -839.000; -861.000
413.969;  -49.475;  -47.000; -292.000
414.096;  -89.875; -679.000; -679.000
414.222;   -6.700;  -33.000;   85.000
414.348;  -31.425; -652.000; -385.000
414.474;   77.975;   38.000;  -52.000
414.600;  -27.300; -126.000; -144.000
414.726;  -34.600;  -96.000;  -55.000
414.852;  -65.175; -365.000; -342.000
414.978;   31.675;  104.000;  -18.000
415.104;   35.400;   38.000;   80.000
415.230;   16.425; -329.000; -330.000
415.356;   41.750; -409.000; -514.000
415.482;  206.550;   13.000;  -35.000
415.608;  283.150; -247.000; -323.000
415.734;  960.725;   67.000;   38.000
415.860;20232.825; -875.000; -767.000
415.986;14361.275; -685.000; -607.000
416.111; 1200.100; -798.000; -652.000
416.237;  234.525; -424.000; -571.000
416.363; 1165.600; -765.000; -733.000
416.489; 4198.850; -324.000; -251.000
416.615;  443.175; -707.000; -742.000
416.741;  -36.375; -677.000; -784.000
416.866;  -89.125; -673.000; -736.000
416.992; -135.225; -801.000; -818.000
417.118;  -23.100;  -41.000;  -80.000
417.244;  -76.125; -798.000; -531.000
417.369;  -81.800; -801.000; -612.000
417.495;   -4.950; -325.000; -254.000
417.621;  -87.150;-1015.000; -803.000
417.746;    4.850; -579.000; -572.000
417.872;   38.000; -254.000; -144.000
417.998;   51.775; -515.000; -530.000
418.123; 1080.275;-1073.000; -845.000
418.249; 5407.175; -512.000; -601.000
418.374;  744.425; -916.000; -824.000
418.500;  110.150; -383.000; -482.000
418.626;  117.275;   70.000;  -59.000
418.751;  110.500; -549.000; -448.000
418.877;  176.975; -637.000; -643.000
419.002; 1831.625; -688.000; -560.000
419.128;12589.925; -930.000; -721.000
419.253; 3032.775; -967.000; -837.000
419.379;  404.800; -391.000; -338.000
419.504;  403.400;  325.000;  415.000
419.629;  502.375; -393.000; -212.000
419.755; 3631.725; -317.000; -254.000
419.880;21289.325;  -98.000;   67.000
420.006;11548.225; -280.000; -221.000
420.131;29421.325; -662.000; -775.000
420.256; 4137.375; -315.000; -316.000
420.382;  542.275; -665.000; -687.000
420.507;   77.775; -649.000; -778.000
420.632;  131.050; -337.000; -339.000
420.758;  242.350; -251.000; -425.000
420.883;  -84.325; -876.000; -672.000
421.008;  -96.500; -775.000; -619.000
421.133;  -87.850; -509.000; -467.000
421.259;  -46.850; -325.000; -259.000
421.384; -114.750; -834.000; -693.000
421.509;  -51.850;-1052.000; -862.000
421.634; 1122.925; -936.000; -820.000
421.759;  479.575; -359.000; -327.000
421.885;  -62.275; -717.000; -656.000
422.010;  -80.425; -673.000; -542.000
422.135; -140.025; -695.000; -727.000
422.260;   38.600;  340.000;  280.000
422.385;  -39.800;   12.000;  -98.000
422.510;   -2.900;  151.000;  -26.000
422.635;   22.525;  -87.000;  -43.000
422.760;   97.825; -766.000; -791.000
422.885;   55.600;  -57.000;  -80.000
423.010;  -42.275; -112.000; -169.000
423.135; -102.850; -481.000; -561.000
423.260;  -17.525; -150.000; -245.000
423.385;   78.225;  476.000;  222.000
423.510;   27.100;   71.000;  -22.000
423.635;   68.250;  133.000;   45.000
423.760;   37.375;  383.000;  328.000
423.885;   40.950;  336.000;  391.000
424.010;   -5.500;  -68.000;  -13.000
424.135;  -22.250;    5.000;  -33.000
424.259;  -89.825; -654.000; -457.000
424.384;  -67.075; -279.000; -272.000
424.509;  -32.000; -260.000; -186.000
424.634; -106.125; -761.000; -623.000
424.759;  -48.075; -688.000; -544.000
424.883;  -11.200; -506.000; -527.000
425.008;  165.750; -502.000; -410.000
425.133; 2027.425; -679.000; -653.000
425.258;  929.850; -517.000; -381.000
425.382; 1056.675; -867.000; -774.000
425.507; 2569.700; -487.000; -543.000
425.632;  426.000; -802.000; -663.000
425.756;  443.775; -256.000; -146.000
425.881; 6705.575; -831.000; -857.000
426.006;17782.850; -604.000; -355.000
426.130; 2729.900; -696.000; -508.000
426.255;  338.225; -611.000; -491.000
426.379;  162.225; -189.000; -577.000
426.504;  372.575;  660.000;  544.000
426.629; 4052.600; -519.000; -466.000
426.753; 2757.925;   64.000;  -46.000
426.878;  312.325; -252.000; -288.000
427.002;  165.850; -651.000; -668.000
427.127; 1601.025;  -35.000; -158.000
427.251;11497.825;  372.000;  401.000
427.375; 3216.000; -191.000; -173.000
427.500; 2256.975; -616.000; -610.000
427.624;  749.400; -234.000; -400.000
427.749;   85.200; -216.000; -225.000
427.873;  -47.350; -499.000; -412.000
427.997;  -48.875; -222.000; -230.000
428.122;   71.675;  795.000;  703.000
428.246;   70.650;  433.000;  434.000
428.371; -127.300; -869.000; -773.000
428.495; -110.775; -624.000; -646.000
428.619;  -39.075; -186.000; -117.000
428.743;   23.075;   65.000;  132.000
428.868;   10.625; -732.000; -643.000
428.992; 1418.725; -219.000; -326.000
429.116;  563.175; -329.000; -357.000
429.240;  257.500;  419.000;  426.000
429.365;   -3.975; -454.000; -574.000
429.489;  -59.725; -638.000; -647.000
429.613;   13.000; -236.000; -177.000
429.737;   28.975; -563.000; -432.000
429.861;  279.450; -247.000; -133.000
429.985; 5616.825; -425.000; -305.000
430.109; 6127.700; -770.000; -908.000
430.234;  678.025;   76.000;  -50.000
430.358;   44.375; -250.000; -160.000
430.482;  -87.875; -672.000; -564.000
430.606;  -56.375; -655.000; -375.000
430.730;    4.450; -437.000; -388.000
430.854;  115.225; -909.000; -835.000
430.978;  -83.975; -795.000; -764.000
431.102;  -95.925; -499.000; -422.000
431.226; -124.325; -874.000; -815.000
431.350;   30.225;  345.000;  422.000
431.474;  -82.100; -661.000; -373.000
431.597; -163.750;-1060.000; -848.000
431.721;  -84.275; -276.000; -267.000
431.845; -138.950; -704.000; -472.000
431.969;  -81.900; -304.000; -349.000
432.093;  -97.650; -395.000; -317.000
432.217;  -12.225;   32.000;   82.000
432.341;  -88.350; -523.000; -518.000
432.464;   -4.325;   96.000;   40.000
432.588;  187.775; -401.000; -329.000
432.712;   74.550;  -52.000;  -52.000
432.836;   48.975;  213.000;  263.000
432.959;  -23.600; -372.000; -311.000
433.083;   77.750;   11.000;    2.000
433.207;  367.200;  285.000;  930.000
433.330; 5123.950; -391.000; -200.000
433.454; 6188.200; -654.000; -638.000
433.578; 3629.150;  583.000;  278.000
433.701;  639.225; -623.000; -675.000
433.825;  136.125; -292.000; -299.000
433.949;  167.825;   28.000;  -72.000
434.072;   47.200; -410.000; -323.000
434.196;  -17.950; -309.000; -117.000
434.319; 3793.625;25482.000;25124.000
434.443;  720.775; -656.000; -603.000
434.566; 2665.150;  281.000;   62.000
434.690;  431.575; -637.000; -383.000
434.813;   58.675; -251.000; -173.000
434.937;  -87.050; -569.000; -696.000
435.060;  -36.750; -423.000; -332.000
435.184;  272.600; -492.000; -217.000
435.307;  156.100;  159.000;  102.000
435.431;  -22.675;  -40.000;   24.000
435.554;  -86.500; -399.000; -240.000
435.677;  -86.500; -350.000; -258.000
435.801;  -35.800;  -25.000;   49.000
435.924;  -13.500;    1.000;  -67.000
436.048; -123.700;-1019.000; -732.000
436.171;  -80.925; -240.000;  -66.000
436.294;  -35.750; -248.000; -229.000
436.417;   84.300; -963.000; -849.000
436.541;  -86.425; -814.000; -840.000
436.664;  -60.150; -242.000; -316.000
436.787;  -34.375;   13.000;  113.000
436.910; -126.850; -792.000; -422.000
437.034;   -1.650;  142.000;  143.000
437.157;   36.950;  -11.000;    0.000
437.280;  -40.900; -392.000; -292.000
437.403;  -97.125; -982.000; -869.000
437.526;  619.500; -903.000; -865.000
437.649; 2192.475; -505.000; -332.000
437.772;  291.525; -692.000; -540.000
437.896;  111.950;  700.000;  544.000
438.019;  -98.950; -758.000; -503.000
438.142;  -79.650; -596.000; -506.000
438.265;  -11.100; -639.000; -670.000
438.388;  533.975; -520.000; -410.000
438.511;   84.175; -597.000; -394.000
438.634;  -54.175; -247.000; -125.000
438.757; -140.550; -693.000; -619.000
438.880;  -36.700;  -34.000;  -57.000
439.003;  -72.500; -417.000; -437.000
439.126;  -75.325; -287.000; -167.000
439.248;  -77.650;  -98.000; -139.000
439.371;  -58.175;    9.000;  -53.000
439.494;   28.125;  510.000;  439.000
439.617;  -55.500;   65.000;  -88.000
439.740; -183.700; -968.000; -816.000
439.863; -139.200; -755.000; -595.000
439.986; -124.050; -476.000; -431.000
440.108;  -61.000; -161.000; -112.000
440.231; -160.650; -950.000; -836.000
440.354;  -47.850;  -64.000; -150.000
440.477;   22.650; -566.000; -542.000
440.599;   -5.125; -200.000; -225.000
440.722; -129.325; -709.000; -586.000
440.845;   60.450;  751.000;  928.000
440.968; -110.150; -415.000; -311.000
441.090;  -80.700; -199.000;  -33.000
441.213; -177.975;-1021.000; -825.000
441.336;  -54.500; -159.000;   -5.000
441.458;  -80.725; -549.000; -396.000
441.581; -108.450; -628.000; -629.000
441.703;  -82.825; -152.000;   13.000
441.826; -125.650; -557.000; -400.000
441.948;  -60.750;   56.000;   51.000
442.071;   35.850;  555.000;  424.000
442.193; -117.200; -531.000; -485.000
442.316;   18.825;  152.000;   97.000
442.438;   37.325; -233.000;  -10.000
442.561;   62.100;  272.000;  262.000
442.683;  525.750; -809.000; -522.000
442.806; 1116.825;   -8.000;   74.000
442.928;    3.150; -859.000; -604.000
443.051;  -71.925; -577.000; -373.000
443.173;  -95.400; -341.000; -339.000
443.295;  -78.100; -263.000; -371.000
443.418;  -79.075; -321.000;  -29.000
443.540;  -26.325; -106.000;   -4.000
443.662; -117.175; -563.000; -465.000
443.785;  -26.900;  335.000;  199.000
443.907;  -85.325; -362.000; -208.000
444.029; -135.625; -767.000; -494.000
444.152; -148.525; -644.000; -554.000
444.274;  -34.800;  -18.000;  -24.000
444.396; -105.075; -461.000; -221.000
444.518; -143.850; -691.000; -454.000
444.640; -114.300; -268.000; -111.000
444.763;   -8.700;  388.000;  249.000
444.885; -125.300; -432.000; -392.000
445.007;  -49.850;   35.000;   86.000
445.129; -110.925; -610.000; -515.000
445.251; -120.875; -372.000; -439.000
445.373; -132.075; -537.000; -386.000
445.495;   -1.425;  242.000;  350.000
445.617;   46.600;  853.000;  753.000
445.739;  -83.450; -215.000;  -97.000
445.861;  -39.625; -245.000; -112.000
445.984;  -48.525; -267.000; -101.000
446.105;  189.400; -418.000; -251.000
446.227;  582.400; -176.000;  -19.000
446.349;    9.175; -358.000; -249.000
446.471; -110.600; -615.000; -448.000
446.593;  -66.100; -316.000;   19.000
446.715;  -10.775;  -67.000;   41.000
446.837;   53.175;  697.000;  832.000
446.959; -110.800; -457.000; -478.000
447.081; -136.350; -628.000; -518.000
447.203;   38.850;  862.000;  834.000
447.325;  -89.600; -270.000;   42.000
447.446;  -16.050;  286.000;  530.000
447.568; -163.900; -921.000; -803.000
447.690;  -84.775; -236.000; -245.000
447.812; -142.625; -798.000; -519.000
447.933;  -41.950;  155.000;  127.000
448.055;  -78.275; -306.000; -261.000
448.177;  132.225;   31.000;   79.000
448.299;   75.025; -935.000; -727.000
448.420;   10.500;  -25.000;  159.000
448.542;  -63.150;   -3.000;   33.000
448.664;  -18.400;  109.000;  322.000
448.785;  -40.100;  265.000;   83.000
448.907;  -87.500; -614.000; -353.000
449.028;  -47.600; -771.000; -471.000
449.150;   57.375;  492.000;  589.000
449.272; -180.900;-1044.000; -913.000
449.393;   29.075;  612.000;  694.000
449.515; -152.175; -634.000; -581.000
449.636;  -65.975; -264.000; -155.000
449.758;   74.275;  763.000;  622.000
449.879; -104.600; -498.000; -396.000
450.001;  -70.100; -149.000;  -49.000
450.122;  -49.775;  -95.000;  162.000
450.244;  -36.950;   37.000;  364.000
450.365;  -80.050; -495.000; -301.000
450.486;  -19.925;   80.000;  268.000
450.608;   15.675;  393.000;  326.000
450.729;   62.800;  578.000;  645.000
450.850;    9.225; -574.000; -466.000
450.972;  767.075; -552.000; -389.000
451.093; 4960.750;  190.000;  588.000
451.214; 2116.725; -516.000; -337.000
451.336;  378.250;  773.000;  579.000
451.457;   62.800;  264.000;  393.000
451.578;  -45.225; -118.000;  -74.000
451.699; -132.400; -546.000; -540.000
451.821;  -76.850; -284.000;  -50.000
451.942;   -9.900;  278.000;  285.000
452.063;   33.200;  228.000;  419.000
452.184;  561.900;  -54.000;  -49.000
452.305; 1092.150;  103.000;  170.000
452.427;  125.750; -549.000; -301.000
452.548;  -10.300;   23.000;   79.000
452.669;  -52.175; -257.000;  -89.000
452.790;  -58.625;    3.000;  -18.000
452.911;  -12.750;  195.000;  259.000
453.032;  -75.475; -289.000;  -60.000
453.153;  -42.200;  -29.000;   81.000
453.274;   59.350;  737.000;  868.000
453.395;  -48.400;  -51.000;  175.000
453.516;  115.125; 1317.000; 1388.000
453.637;  -60.250; -205.000; -150.000
453.758;  -65.775;   15.000;   69.000
453.879; -123.650; -462.000; -250.000
454.000;   64.100; 1086.000;  948.000
454.121; -127.700; -554.000; -326.000
454.242; -124.625; -599.000; -383.000
454.362;  -50.200;  -99.000;  114.000
454.483;  -54.325; -309.000; -229.000
454.604;   39.975;  512.000;  580.000
454.725; -128.175; -627.000; -555.000
454.846; -119.100; -474.000; -406.000
454.967;  -29.675;  230.000;  539.000
455.087;  -42.900;  179.000;  153.000
455.208;    2.325;  554.000;  856.000
455.329;  -62.275;  -22.000;   82.000
455.450;   37.300;  473.000;  633.000
455.570;  -78.650; -234.000; -211.000
455.691;  -39.075;  201.000;  407.000
455.812; -106.575; -270.000;  -92.000
455.932;  -64.375;  107.000;  -97.000
456.053;  -81.475;   36.000;   24.000
456.173; -107.900; -433.000; -355.000
456.294; -122.200; -476.000; -303.000
456.415;  -64.450;  -73.000;   70.000
456.535;  -28.525;  297.000;  273.000
456.656;  -49.625;  132.000;  240.000
456.776;  -61.125;    3.000;  298.000
456.897;   -7.900;  308.000;  513.000
457.017;  -84.800; -153.000;   -3.000
457.138; -111.100; -402.000; -249.000
457.258;  -32.950;  263.000;  224.000
457.379;  -23.650;  509.000;  521.000
457.499;  -33.625;  443.000;  432.000
457.620; -128.275; -407.000; -231.000
457.740; -100.275; -132.000;  -11.000
457.860;  -62.050;   87.000;   44.000
457.981;  -47.600;  132.000;  124.000
458.101;  -79.875;  -89.000;   40.000
458.221;  -11.875;  336.000;  402.000
458.342;  -60.375;   -4.000;  -37.000
458.462;   17.875;  617.000;  352.000
458.582;  -57.100; -302.000; -294.000
458.703;    2.000;  303.000;  154.000
458.823;  -32.450;   22.000;  163.000
458.943;   12.325;  341.000;  467.000
459.063;  -37.550; 1124.000;  192.000
459.183;  -26.375;  328.000;  313.000
459.304;   13.700;  315.000;  517.000
459.424;  -63.675; -246.000;  -89.000
459.544;  331.800;  388.000;  764.000
459.664;  843.575;  499.000;  506.000
459.784;  312.050; 1004.000; 1175.000
459.904;   60.500;  867.000;  744.000
460.024;   62.875;  867.000;  684.000
460.144;    3.025;  449.000;  554.000
460.264;  -15.050;  515.000;  327.000
460.385;  -90.175; -145.000; -119.000
460.505;   37.750;  905.000;  858.000
460.625; -107.475;  -17.000;  -68.000
460.745;  -28.975;  396.000;  541.000
460.864;  -63.725;  153.000;  469.000
460.984;  -16.850;  499.000;  573.000
461.104;  139.050; 1656.000; 1775.000
461.224;   22.250;  657.000;  650.000
461.344;  -26.675;  431.000;  360.000
461.464;  -39.300;  258.000;  513.000
461.584;   -6.375;  283.000;  466.000
461.704;  -37.525;   58.000;  108.000
461.824;  -64.025;  238.000;  259.000
461.943;  -56.800;  191.000;  130.000
462.063;  -61.875;    2.000;  324.000
462.183;   27.750;  639.000;  717.000
462.303;  102.525; 1678.000; 1230.000
462.422;   14.750;  781.000;  840.000
462.542;  -39.200;  271.000;  391.000
462.662;   44.925;  353.000;  380.000
462.782;  242.125;  833.000;  572.000
462.901;  484.875;  545.000;  717.000
463.021;  265.750; 1702.000; 1638.000
463.141;   -9.750;  337.000;  770.000
463.260;  -15.725;  614.000;  474.000
463.380;    4.725;  902.000;  884.000
463.499;  -44.725;  342.000;  332.000
463.619;  -47.250;  581.000;  559.000
463.738;  105.575; 1644.000;  903.000
463.858;    3.450;  657.000;  811.000
463.978;  -31.125;  542.000;  396.000
464.097;   44.925;  921.000; 1114.000
464.217;  116.375; 1196.000; 1143.000
464.336;  120.725; 1068.000; 1130.000
464.455;  -39.225;  328.000;  659.000
464.575;   26.550;  597.000;  602.000
464.694;  159.650; 1204.000; 1179.000
464.814;  131.550; 1190.000; 1138.000
464.933;   66.025; 1095.000; 1027.000
465.052;   90.100; 1412.000; 1054.000
465.172;   84.900;  922.000;  799.000
465.291;  131.425; 1376.000; 1320.000
465.410;   15.625;  462.000;  735.000
465.530;   87.450; 1355.000; 1310.000
465.649;   50.975; 1209.000; 1273.000
465.768;  134.850; 1673.000; 1508.000
465.888;   30.950;  941.000; 1174.000
466.007;   82.500; 1335.000; 1440.000
466.126;   -6.825;  721.000;  641.000
466.245;   47.500; 1176.000; 1187.000
466.364;   17.800;  950.000; 1060.000
466.484;   47.750; 1024.000; 1213.000
466.603;   37.475; 1101.000; 1222.000
466.722;  119.225; 1490.000; 1769.000
466.841;   67.475; 1151.000; 1401.000
466.960;   32.225; 1069.000;  972.000
467.079;  125.550; 1971.000; 1786.000
467.198;   38.200; 1238.000; 1181.000
467.317;   95.525; 1768.000; 1162.000
467.436;   65.250; 1709.000; 1261.000
467.555;  140.325; 1796.000; 1746.000
467.674;   64.925; 1227.000; 1329.000
467.793;   42.950; 1376.000; 1374.000
467.912;   83.825; 1658.000; 1539.000
468.031;  140.225; 2038.000; 1930.000
468.150;  138.725; 1842.000; 1837.000
468.269;  200.150; 2313.000; 2090.000
468.388;  188.800; 2168.000; 2339.000
468.507;  266.850; 2884.000; 2903.000
468.626;  220.600; 2555.000; 2541.000
468.744;  150.175; 2018.000; 2174.000
468.863;  210.225; 2312.000; 2523.000
468.982;   99.900; 1503.000; 1555.000
469.101;  228.650; 2788.000; 2692.000
469.220;  164.275; 2333.000; 2176.000
469.338;  262.100; 2935.000; 3051.000
469.457;  202.275; 2719.000; 2545.000
469.576;  349.025; 3953.000; 3784.000
469.695;  225.575; 2877.000; 3066.000
469.813;  430.000; 4148.000; 4192.000
469.932;  403.350; 4255.000; 4485.000
470.051;  430.275; 4075.000; 4161.000
470.169;  854.175; 4470.000; 4338.000
470.288; 1465.475; 4700.000; 4809.000
470.406;  877.050; 5059.000; 5194.000
470.525;  645.475; 6101.000; 5787.000
470.644;  671.800; 6847.000; 6794.000
470.762;  815.800; 8397.000; 7873.000
470.881;  917.575; 8651.000; 8464.000
470.999; 1023.450; 9685.000; 9151.000
471.118; 1114.925;11174.000;10711.000

