
Integration time [ms]: 100.000
Averaging Nr. [scans]: 40
Smoothing Nr. [pixels]: 0
Data measured with spectrometer [name]: 2101012U2
Wave   ;Sample   ;Dark     ;Reference
[nm]   ;[counts] ;[counts] ;[counts] 

197.733;   59.875;  516.000;  404.000
197.879;  -89.975; -610.000; -634.000
198.025;  -45.825; -475.000; -420.000
198.171;  -71.975; -602.000; -612.000
198.317;  -34.575; -401.000; -316.000
198.463;  -65.850; -655.000; -404.000
198.609;   29.775;  181.000; -137.000
198.755;  -83.500; -644.000; -410.000
198.901;  -69.725; -505.000; -424.000
199.047;  -68.275; -615.000; -488.000
199.193;  -30.600; -230.000; -468.000
199.339;  -41.575; -222.000; -369.000
199.485;   37.675;  330.000;  271.000
199.631;   11.450;  227.000;  310.000
199.777;  -48.875; -466.000; -398.000
199.923;  -52.550; -610.000; -424.000
200.069;   -8.650; -141.000;  -58.000
200.215;   58.200;  128.000;  453.000
200.361;   46.675;  243.000;  477.000
200.507;  -68.500; -600.000; -373.000
200.653;   -9.550; -371.000; -194.000
200.798;  -42.250; -215.000; -125.000
200.944;    6.000; -146.000;  -41.000
201.090;   31.275;   61.000;  222.000
201.236;    1.925; -116.000; -158.000
201.382;  129.375;  874.000;  903.000
201.528;   20.650;  -58.000;  -48.000
201.674;  -42.450; -386.000; -293.000
201.819;  -54.550; -540.000; -439.000
201.965;  -80.450; -699.000; -447.000
202.111;  -23.625; -273.000; -226.000
202.257;  -26.025; -250.000; -238.000
202.402;   15.350;   13.000;  -36.000
202.548;  -32.925; -169.000; -116.000
202.694;   83.300;  410.000; -183.000
202.840;  -74.875; -603.000; -531.000
202.985;  -72.350; -681.000; -639.000
203.131; -118.900; -832.000; -666.000
203.277;  -15.550; -199.000; -262.000
203.423;  -59.900; -434.000; -520.000
203.568;  -38.675; -462.000; -237.000
203.714;  -54.675; -535.000; -542.000
203.860;  -65.850; -682.000; -641.000
204.005;   -4.800;  112.000;  167.000
204.151;   76.600;  561.000;  556.000
204.296;  -56.300; -354.000; -221.000
204.442;  -65.625; -600.000; -547.000
204.588;  -80.650; -592.000; -579.000
204.733;   29.675;  178.000;  168.000
204.879; -132.400;-1018.000; -822.000
205.025;   14.425;  -99.000;  126.000
205.170;   -3.925;  -17.000;   94.000
205.316;   91.875;  438.000;  661.000
205.461;  -83.800; -698.000; -554.000
205.607;   89.300;  609.000;  665.000
205.752;  -85.625; -626.000; -551.000
205.898;  -39.575; -501.000; -391.000
206.043;  -78.650; -578.000; -506.000
206.189;  -46.875; -243.000; -285.000
206.334;   78.075;  554.000;  606.000
206.480;   90.225;  409.000;  239.000
206.625;  -87.975; -529.000; -552.000
206.771;  -49.275; -451.000; -373.000
206.916;  -41.750; -210.000; -537.000
207.062;  -64.900; -545.000; -591.000
207.207;  -64.100; -546.000; -443.000
207.353;   61.325;  185.000;  460.000
207.498;    8.375;  196.000;   85.000
207.643;  -49.275; -501.000; -370.000
207.789; -127.625;-1069.000; -910.000
207.934;  -89.925; -665.000; -713.000
208.080;  -21.050; -154.000;   66.000
208.225;   -7.175;  -22.000;  -57.000
208.370;  -97.075; -727.000; -619.000
208.516;  -75.725; -741.000; -487.000
208.661;  -32.750; -127.000;  -69.000
208.806;  -12.575; -165.000; -171.000
208.952; -136.975;-1044.000; -731.000
209.097;   72.275;  378.000;  349.000
209.242;  -50.425; -307.000; -382.000
209.387;   76.250;  392.000;  350.000
209.533;  -56.425; -321.000; -350.000
209.678;   79.175;  472.000;  543.000
209.823;  -63.675; -408.000; -310.000
209.969;  -98.600; -860.000; -757.000
210.114; -111.250; -907.000; -719.000
210.259; -101.775; -939.000; -889.000
210.404;  -12.050; -171.000;  103.000
210.549;   18.675;  108.000;    3.000
210.695;  -12.250;   -3.000;  -95.000
210.840;   30.225;   94.000;   67.000
210.985;  -70.675; -484.000; -303.000
211.130;   66.000;  268.000;  406.000
211.275;   12.150;  207.000;  199.000
211.420;  -54.000; -300.000; -289.000
211.566;  -78.125; -536.000; -489.000
211.711;   21.575;  218.000;  157.000
211.856;  -78.250; -545.000; -519.000
212.001;    6.950;  151.000;   44.000
212.146;   32.125;  153.000;   49.000
212.291;  -22.525; -210.000; -186.000
212.436;  -32.675; -280.000;   -6.000
212.581;  -86.175; -685.000; -653.000
212.726;  -83.425; -487.000; -538.000
212.871;  -51.100; -552.000; -217.000
213.016; -143.200;-1172.000;-1029.000
213.161;   61.275;  406.000;  291.000
213.306;  -71.950; -435.000; -577.000
213.451;  -89.200; -778.000; -689.000
213.596;  -44.175; -455.000; -347.000
213.741;  -51.825; -448.000; -538.000
213.886;  -78.950; -498.000; -517.000
214.031;  -22.675; -294.000; -124.000
214.176;  -52.275; -408.000; -341.000
214.321;  -22.550; -296.000; -157.000
214.466;  -42.300; -163.000;  -43.000
214.611;    9.125;  -61.000;  -10.000
214.756; -128.700; -948.000; -858.000
214.901;  -25.975; -388.000; -226.000
215.046; -124.025; -797.000; -825.000
215.191;   13.575;  128.000;   35.000
215.336;  -20.175; -157.000;  -19.000
215.480;  -71.975; -684.000; -505.000
215.625;  -18.050; -175.000;  -19.000
215.770;  -82.600; -757.000; -662.000
215.915;    7.125;   -5.000;  -97.000
216.060;   -9.175; -113.000;  -21.000
216.205; -108.000; -731.000; -779.000
216.349;  -84.700; -470.000; -533.000
216.494; -144.775; -939.000; -867.000
216.639; -114.100; -823.000; -888.000
216.784;  -95.125; -577.000; -525.000
216.929;   52.125;  392.000;  281.000
217.073;  -16.775; -244.000;  -31.000
217.218;   18.050;   78.000;  -47.000
217.363;  -85.025; -656.000; -618.000
217.507;  -73.550; -623.000; -588.000
217.652; -127.150; -845.000; -874.000
217.797;  -74.500; -708.000; -659.000
217.942; -121.325; -856.000; -720.000
218.086;   78.875;  608.000;  539.000
218.231;  -28.225; -174.000;  -26.000
218.376;  -27.125; -337.000; -229.000
218.520;   -6.825;  -41.000;   96.000
218.665;  -22.100; -338.000; -204.000
218.810;  -44.800; -275.000; -233.000
218.954;   24.975;  201.000;   35.000
219.099; -103.375; -713.000; -963.000
219.243;  -69.275; -589.000; -554.000
219.388;  -30.925; -264.000; -136.000
219.532;   -3.175; -116.000; -116.000
219.677;  -79.275; -564.000; -521.000
219.822;   -0.250;   33.000;   89.000
219.966;    3.500;   17.000;  -99.000
220.111;  -30.100; -328.000;  -40.000
220.255; -105.400; -797.000; -750.000
220.400;   -9.225; -180.000; -146.000
220.544;  -71.875; -516.000; -450.000
220.689;  -59.675; -422.000; -451.000
220.833;  -31.025; -123.000;  -58.000
220.978;  -41.975; -393.000; -563.000
221.122;   12.350;  319.000;  307.000
221.267; -114.375; -906.000; -837.000
221.411;  -73.900; -478.000; -394.000
221.555;    4.700; -104.000;  -23.000
221.700;  -43.125; -329.000; -222.000
221.844;   35.525;  255.000;  272.000
221.989;  -53.750; -328.000; -311.000
222.133;  -40.450; -289.000; -307.000
222.277;   -7.900;    5.000;   78.000
222.422;   11.225;  227.000;  113.000
222.566;  -49.375; -381.000; -214.000
222.711;  -41.850; -414.000; -479.000
222.855;  -86.875; -643.000; -586.000
222.999;  -86.975; -642.000; -717.000
223.144;  -53.550; -195.000; -194.000
223.288;   51.275;  423.000;  251.000
223.432;   18.775;  184.000;  230.000
223.576;   27.475;  152.000;  -21.000
223.721;   19.850;  364.000;  273.000
223.865;  -46.675; -472.000; -475.000
224.009;  209.375; 1673.000; 1631.000
224.153;  -76.950; -660.000; -671.000
224.298;  -65.050; -531.000; -489.000
224.442;   -8.400;  -74.000;  -33.000
224.586;   -8.900; -169.000; -106.000
224.730;  -95.500; -858.000; -670.000
224.875; -111.675; -739.000; -688.000
225.019;   17.325;  102.000;  188.000
225.163;   57.925;  208.000;  341.000
225.307;   29.825;   97.000;  -91.000
225.451;   32.200;  360.000;  481.000
225.595;   29.925;  264.000;  176.000
225.739;  -28.000; -170.000;  -94.000
225.884;    6.300;   86.000;    5.000
226.028; -106.825; -760.000; -626.000
226.172;  -24.850; -260.000; -273.000
226.316; -119.925; -941.000; -902.000
226.460;  -63.100; -645.000; -493.000
226.604;  -55.525; -406.000; -400.000
226.748;  -91.525; -836.000; -733.000
226.892;  -38.550; -227.000; -181.000
227.036;  -51.000; -537.000; -447.000
227.180;  -59.925; -551.000; -375.000
227.324;  -64.600; -561.000; -580.000
227.468; -121.300; -819.000; -717.000
227.612;   -2.125;  242.000;  -28.000
227.756;  -99.525; -845.000; -698.000
227.900;   51.700;  342.000;  441.000
228.044;  -63.500; -509.000; -290.000
228.188;   69.975;  448.000;  568.000
228.332;  -93.350; -546.000; -472.000
228.476;  -25.750; -223.000; -149.000
228.620;  -30.400; -210.000; -150.000
228.764;   57.950;  431.000;  349.000
228.908;  -16.400; -155.000;   30.000
229.052;  -52.400; -615.000; -528.000
229.195;  -31.925; -172.000;   13.000
229.339;  -26.050; -235.000; -305.000
229.483;  -34.700;    5.000; -162.000
229.627;   -4.825; -156.000;  139.000
229.771;  -48.150; -218.000; -294.000
229.915;   10.800;  230.000;   79.000
230.059;  -93.225; -648.000; -663.000
230.202;  -39.525; -370.000; -317.000
230.346;  -24.725; -107.000;  107.000
230.490;  -53.050; -489.000; -521.000
230.634; -115.725; -736.000; -553.000
230.777;   76.000;  478.000;  509.000
230.921;  -67.100; -450.000; -359.000
231.065;  -37.600; -246.000; -286.000
231.209;   23.500;  261.000;  265.000
231.352;   12.500;   54.000;   40.000
231.496;   29.375;  568.000;  188.000
231.640;  -79.300; -693.000; -621.000
231.783;   54.050;  546.000;  525.000
231.927;  -41.800; -294.000; -365.000
232.071; -122.025; -962.000; -736.000
232.214; -119.300; -980.000; -764.000
232.358; -116.900; -683.000; -599.000
232.502;    9.600;  -19.000;    7.000
232.645; -139.175;-1090.000; -927.000
232.789;  -27.950; -257.000; -218.000
232.933;  -54.225; -407.000; -224.000
233.076; -122.250;-1038.000; -897.000
233.220; -111.175; -752.000; -777.000
233.363;  -73.575; -669.000; -477.000
233.507;   53.800;  371.000;  129.000
233.650;  -87.575; -764.000; -834.000
233.794;   40.875;  438.000;  461.000
233.938;  -59.575; -530.000; -362.000
234.081;  -19.075;  -93.000;   31.000
234.225;  -70.575; -631.000; -539.000
234.368; -111.325; -773.000; -723.000
234.512;  -34.450; -385.000; -299.000
234.655;  -86.550; -582.000; -555.000
234.798;  -62.450; -493.000; -466.000
234.942; -134.275; -884.000;-1002.000
235.085;  -83.175; -651.000; -443.000
235.229;  -84.850; -405.000; -410.000
235.372;  -44.150; -247.000; -191.000
235.516;  -65.325; -397.000; -321.000
235.659;   10.725;   92.000;  121.000
235.802;  -14.150;  -38.000;  -22.000
235.946;   32.200;  335.000;  215.000
236.089;   26.550;  126.000;  250.000
236.233;   43.475;  275.000;  298.000
236.376;  -46.050; -235.000; -378.000
236.519;  -47.450; -297.000; -319.000
236.663;  -34.975; -215.000; -117.000
236.806; -131.000;-1029.000; -999.000
236.949;   66.275;  543.000;  431.000
237.092;   45.775;  412.000;  391.000
237.236;  -87.775; -589.000; -502.000
237.379;   68.000;  352.000;  428.000
237.522; -121.775; -879.000; -768.000
237.666;  -15.525; -271.000;   18.000
237.809; -127.750; -851.000; -823.000
237.952;   38.725;  469.000;  271.000
238.095;  -83.000; -447.000; -442.000
238.238;   84.725;  688.000;  700.000
238.382;   -7.875;  166.000;  103.000
238.525;  -67.475; -598.000; -511.000
238.668; -137.275;-1060.000; -985.000
238.811;  -77.525; -638.000; -643.000
238.954;  -67.325; -483.000; -334.000
239.097;   90.475;  617.000;  664.000
239.241;   27.500;  394.000;  326.000
239.384;  -45.125; -254.000; -214.000
239.527;  -63.525; -424.000; -224.000
239.670; -135.700; -994.000;-1091.000
239.813; -106.125; -696.000; -658.000
239.956;   85.650;  579.000;  473.000
240.099; -108.650; -778.000; -725.000
240.242;   59.050;  428.000;  432.000
240.385;   52.200;  466.000;  450.000
240.528;  -67.875; -706.000; -473.000
240.671;   -4.975;  189.000;  134.000
240.814;  -37.500; -441.000; -158.000
240.957; -104.025; -767.000; -578.000
241.100;  -80.500; -779.000; -755.000
241.243; -151.100;-1234.000; -893.000
241.386;  -67.225; -508.000; -379.000
241.529;  -96.175; -735.000; -547.000
241.672;  -60.675; -566.000; -495.000
241.815; -124.525; -832.000; -808.000
241.958;  -18.500; -125.000; -182.000
242.101;  -80.875; -545.000; -390.000
242.244;  -38.550; -270.000; -325.000
242.387;  -43.750; -304.000; -246.000
242.530;   66.000;  470.000;  134.000
242.673;  -57.225; -381.000; -309.000
242.815; -122.250; -925.000; -899.000
242.958;  -91.825; -482.000; -381.000
243.101;    9.475;  132.000;  187.000
243.244;  -97.875; -564.000; -521.000
243.387;  -45.325; -313.000; -316.000
243.530; -103.525; -657.000; -674.000
243.672;    5.225;   43.000;  -92.000
243.815;  -60.700; -355.000; -283.000
243.958;    2.600;   98.000;  -26.000
244.101;  -14.175;   59.000;  -16.000
244.243;  -35.125;  -47.000;  101.000
244.386; -103.875; -761.000; -630.000
244.529;  -21.050; -132.000; -139.000
244.672; -157.700;-1154.000; -951.000
244.814;  -98.675; -621.000; -794.000
244.957;  -51.225; -380.000; -304.000
245.100;  -69.175; -489.000; -489.000
245.242;  -60.225; -387.000; -374.000
245.385;   -7.475;  -59.000;  -39.000
245.528; -140.175; -871.000; -705.000
245.670;   79.075;  612.000;  634.000
245.813;  -97.950; -599.000; -547.000
245.956;  -38.150; -324.000; -275.000
246.098;  -80.250; -508.000; -650.000
246.241;    0.250;  194.000;   48.000
246.383;  -28.750; -119.000;  -73.000
246.526;  -60.150; -454.000; -525.000
246.669; -128.325; -889.000; -780.000
246.811;    2.600;  172.000;   -1.000
246.954;  -60.400; -512.000; -426.000
247.096;   -7.925;  -84.000;   -6.000
247.239;  -74.425; -482.000; -445.000
247.381;  -61.475; -647.000; -488.000
247.524;   75.450;  645.000;  679.000
247.666;   -6.725;   58.000;   11.000
247.809; -130.850; -887.000; -691.000
247.951;  -17.400;  -75.000;  138.000
248.094;   39.150;  432.000;  308.000
248.236; -156.175;-1262.000;-1238.000
248.378;    6.475; -356.000;  -81.000
248.521;  -25.700; -334.000; -337.000
248.663;  -51.275; -236.000; -267.000
248.806;  -29.400; -300.000; -266.000
248.948;  -80.800; -886.000; -763.000
249.090;  -38.125; -428.000; -398.000
249.233;  -53.900; -344.000; -381.000
249.375;  -73.700; -474.000; -451.000
249.518;  -21.825;  -83.000; -133.000
249.660;   -7.050; -103.000;    3.000
249.802; -164.600;-1303.000;-1189.000
249.945;  -65.950; -612.000; -540.000
250.087; -108.375; -834.000; -768.000
250.229;  -52.500; -362.000; -480.000
250.371;  -77.400; -494.000; -439.000
250.514;  -56.075; -310.000; -244.000
250.656;  -12.200;   69.000;  102.000
250.798; -116.300; -849.000; -800.000
250.940;  -71.300; -322.000; -322.000
251.083;  -12.050; -335.000; -111.000
251.225;   48.800;  338.000;  310.000
251.367;  -29.925; -274.000; -373.000
251.509;  -43.000; -265.000; -210.000
251.651;  -89.300; -731.000; -671.000
251.794;   47.875;  538.000;  632.000
251.936;  -98.025; -821.000; -747.000
252.078;  -76.825; -540.000; -461.000
252.220;  -69.050; -645.000; -477.000
252.362;   71.675;  344.000;  462.000
252.504;  -63.300; -677.000; -584.000
252.646; -116.675; -875.000; -722.000
252.788;   -1.800;   14.000; -128.000
252.931;  -43.125; -257.000; -253.000
253.073;  -40.425; -376.000; -317.000
253.215;  -16.950;  141.000;  122.000
253.357;  -16.950;   82.000; -153.000
253.499;  -49.775; -374.000; -234.000
253.641;  -86.050; -749.000; -594.000
253.783;  -87.875; -609.000; -527.000
253.925;  -88.250; -586.000; -591.000
254.067; -111.200; -744.000; -667.000
254.209;  -23.500; -391.000; -259.000
254.351; -139.475; -865.000; -883.000
254.493;  -54.975; -441.000; -417.000
254.635; -139.975; -936.000; -818.000
254.777;  -88.900; -752.000; -687.000
254.918;  -57.925; -512.000; -430.000
255.060;  -47.325; -551.000; -395.000
255.202;  -57.200; -473.000; -261.000
255.344;  -70.275; -658.000; -455.000
255.486;  -88.375; -471.000; -406.000
255.628; -110.775; -780.000; -781.000
255.770;  -91.450; -676.000; -536.000
255.912;  -61.625; -559.000; -468.000
256.053;  -90.650; -730.000; -508.000
256.195;  160.800; 1008.000;  903.000
256.337; -110.425; -861.000; -595.000
256.479;   65.925;  532.000;  416.000
256.621;  -52.075; -394.000; -212.000
256.762;  -90.200; -789.000; -742.000
256.904;   44.500;  485.000;  487.000
257.046;  -40.125; -381.000; -271.000
257.188;  -35.525; -351.000; -264.000
257.329;  -75.825; -525.000; -464.000
257.471; -127.700; -939.000; -807.000
257.613;  -61.225; -584.000; -498.000
257.755; -161.050;-1073.000; -982.000
257.896;   33.925;  286.000;  392.000
258.038;  -61.475; -403.000; -352.000
258.180;  -49.300; -354.000; -279.000
258.321;  -75.525; -581.000; -457.000
258.463;   -5.300;  -71.000;  133.000
258.605; -102.675; -562.000; -570.000
258.746; -109.525; -886.000; -772.000
258.888; -148.900;-1026.000;-1020.000
259.029;   18.900;  121.000;   -8.000
259.171;  -84.500; -614.000; -550.000
259.313;    2.850;  -49.000;  -47.000
259.454;  -85.875; -536.000; -414.000
259.596;  -52.075; -483.000; -390.000
259.737;  -85.400; -590.000; -474.000
259.879;   37.525;  217.000;  311.000
260.020;  101.650;  901.000;  636.000
260.162;  -22.200; -146.000; -253.000
260.303; -116.750; -768.000; -687.000
260.445;  -78.175; -609.000; -613.000
260.586;   12.150;  392.000;  157.000
260.728;  -33.500; -360.000; -248.000
260.869; -123.650; -350.000; -343.000
261.011;   77.275;  706.000;  537.000
261.152;  -65.375; -479.000; -319.000
261.293;  -80.450; -576.000; -595.000
261.435;  -40.325; -219.000; -184.000
261.576;  -48.175; -455.000; -325.000
261.718;   38.300;  420.000;  470.000
261.859; -119.050; -940.000; -949.000
262.000; -127.675; -951.000;-1016.000
262.142;   -1.825;  -52.000;  -60.000
262.283; -118.350; -808.000; -691.000
262.424;  -82.800; -666.000; -625.000
262.566; -153.950;-1161.000; -983.000
262.707; -117.575; -840.000; -830.000
262.848; -121.825; -769.000; -726.000
262.990;  -54.650; -362.000; -345.000
263.131;   80.050;  650.000;  681.000
263.272;   -5.250;  -61.000;  -41.000
263.413; -105.300; -589.000; -561.000
263.555;  -60.575; -669.000; -143.000
263.696;  -83.625; -550.000; -641.000
263.837;  -43.900; -449.000; -551.000
263.978;  -10.800;   -5.000;  -77.000
264.119;  -44.125; -283.000; -264.000
264.261; -119.900; -847.000; -630.000
264.402;   -2.650;   33.000;   40.000
264.543;  -74.875; -509.000; -524.000
264.684;  -10.750;   61.000;  -50.000
264.825;  -79.325; -816.000; -538.000
264.966;    2.325;  -84.000;  -67.000
265.107; -122.625; -646.000; -670.000
265.248; -116.975; -825.000; -812.000
265.390;  -14.275;  152.000;   -9.000
265.531;  -17.825; -238.000; -107.000
265.672;  -96.650; -557.000; -630.000
265.813;   60.025;  563.000;  439.000
265.954; -145.250; -959.000; -940.000
266.095;  -18.950; -372.000; -322.000
266.236; -104.650; -686.000; -548.000
266.377;  -35.875; -243.000; -297.000
266.518;  -64.875; -619.000; -547.000
266.659;   32.425;  170.000;  268.000
266.800;   11.100;   83.000;   85.000
266.941;  -69.950; -487.000; -478.000
267.082;    8.000;  354.000;   99.000
267.223;  -54.600; -344.000; -273.000
267.364; -123.575; -892.000; -686.000
267.504;  -18.850;    3.000;  135.000
267.645;  -10.525;  160.000;   67.000
267.786;  -31.250; -147.000;  -86.000
267.927;  -68.000; -473.000; -379.000
268.068;  -21.700; -186.000;  -61.000
268.209;  -54.100; -175.000; -413.000
268.350;  -47.300; -388.000; -532.000
268.490;  -81.525; -648.000; -521.000
268.631;   29.650;  127.000;  225.000
268.772; -110.150; -874.000; -647.000
268.913;  -52.900; -328.000; -476.000
269.054;  -16.450; -117.000;   12.000
269.194;  -54.750; -418.000; -402.000
269.335; -160.500;-1137.000;-1074.000
269.476;   -2.275;   33.000;  -35.000
269.617;  -47.950; -347.000; -392.000
269.757;  -83.425; -713.000; -646.000
269.898;  -98.650; -856.000; -613.000
270.039;  -63.975; -415.000; -405.000
270.180; -136.350; -952.000; -816.000
270.320;  -19.550; -190.000; -250.000
270.461;  -43.350; -277.000; -249.000
270.602;  -15.050; -186.000; -156.000
270.742; -123.550; -868.000; -943.000
270.883;  -51.275; -442.000; -390.000
271.023;  -63.025; -358.000; -357.000
271.164;  -71.775; -607.000; -528.000
271.305;  -91.625; -666.000; -654.000
271.445;  -90.900; -722.000; -683.000
271.586;  -64.800; -462.000; -283.000
271.726;  -42.450; -397.000; -322.000
271.867;  -47.425; -594.000; -534.000
272.008;  204.725; -473.000; -285.000
272.148;  150.525;  462.000;  468.000
272.289;   18.850; -113.000; -181.000
272.429;   18.275;   19.000;  185.000
272.570;  -85.375; -633.000; -737.000
272.710;  -95.675; -825.000; -775.000
272.851;   -7.275;  113.000; -130.000
272.991; -170.000;-1173.000;-1077.000
273.131;  -64.925; -419.000; -459.000
273.272; -102.150; -683.000; -723.000
273.412;   26.900; -143.000;  -31.000
273.553;  -45.400; -488.000; -507.000
273.693;  140.700;  913.000;  858.000
273.834;  -75.425; -894.000; -692.000
273.974;  -54.475; -664.000; -615.000
274.114; -101.450; -772.000; -560.000
274.255;   89.325;  414.000;  373.000
274.395;    9.125; -180.000; -125.000
274.535;   46.175;  199.000;  350.000
274.676;   16.750;  225.000;   94.000
274.816;   18.975;  110.000;   34.000
274.956;  -76.250; -624.000; -690.000
275.097;  -50.775;-1014.000; -922.000
275.237; -107.850; -913.000; -803.000
275.377;  -92.275; -778.000; -689.000
275.517; -145.475; -878.000; -937.000
275.658;  -41.700; -590.000; -555.000
275.798;  -62.400; -606.000; -413.000
275.938;   22.400;  215.000;  323.000
276.078;  -99.650; -626.000; -395.000
276.218;   17.100;   99.000;  104.000
276.359; -125.300;-1026.000;-1024.000
276.499;  -59.100; -605.000; -446.000
276.639;  -33.400; -305.000; -151.000
276.779;  -46.450; -475.000; -357.000
276.919;  -98.900; -783.000; -624.000
277.059;   -8.925; -261.000; -212.000
277.199;  -36.375; -357.000; -259.000
277.340;   49.750;  287.000;  175.000
277.480; -112.425; -840.000; -693.000
277.620;   47.825;  192.000;   16.000
277.760; -199.400;-1533.000;-1294.000
277.900;   40.650;  113.000;   33.000
278.040;   18.800;  137.000;  159.000
278.180;   37.925;  270.000;  170.000
278.320;   -7.700;   21.000;   56.000
278.460;  -67.875; -443.000; -469.000
278.600;  -99.725; -708.000; -598.000
278.740;   47.950;  448.000;  224.000
278.880;  -25.500; -768.000; -791.000
279.020;    8.075; -194.000; -144.000
279.160;  -90.225; -672.000; -595.000
279.300; -111.000; -926.000; -873.000
279.440;  -91.325; -709.000; -622.000
279.579;   -1.800;-1014.000; -929.000
279.719;  -42.325; -410.000; -394.000
279.859;   74.700;   -4.000;   41.000
279.999;   33.125; -208.000;  101.000
280.139;   -7.375; -435.000; -387.000
280.279;  -72.450; -708.000; -745.000
280.419;    1.300; -229.000; -147.000
280.559;  -33.575; -259.000; -180.000
280.698;  -78.600; -790.000; -639.000
280.838;  -84.525; -778.000; -800.000
280.978; -105.925; -846.000; -790.000
281.118; -107.200; -811.000; -704.000
281.257;   12.025;   24.000;    6.000
281.397;  -98.325;-1094.000; -960.000
281.537;  -80.825; -599.000; -712.000
281.677;  -14.625; -150.000; -101.000
281.816;  -85.050; -700.000; -630.000
281.956;  -41.900; -193.000; -257.000
282.096;  -61.200; -539.000; -396.000
282.235; -116.800; -672.000; -638.000
282.375;  -20.650; -243.000;  -98.000
282.515; -117.125; -715.000; -707.000
282.654;   45.025;   29.000;  106.000
282.794;   27.050;  388.000;  244.000
282.934;  -50.325; -530.000; -491.000
283.073; -139.250;-1030.000; -857.000
283.213;  -58.150; -460.000; -467.000
283.353;  -41.075; -408.000; -349.000
283.492;  -21.075; -264.000; -296.000
283.632;  -55.625; -254.000; -168.000
283.771;  -85.250; -859.000; -730.000
283.911;  -49.500; -369.000; -260.000
284.050; -102.050; -794.000; -748.000
284.190; -163.375;-1229.000;-1096.000
284.329; -120.850;-1055.000; -964.000
284.469;  -42.625; -516.000; -591.000
284.608;  -34.525; -559.000; -598.000
284.748;  -93.175; -614.000; -570.000
284.887;    9.125;  -87.000;  -20.000
285.027; -123.650; -844.000; -892.000
285.166;  -29.075; -192.000; -249.000
285.306;   27.725; -116.000;  -33.000
285.445;  -41.450; -229.000; -343.000
285.584;  -90.850; -630.000; -494.000
285.724;  -28.575; -282.000; -322.000
285.863; -123.525; -857.000; -507.000
286.002;  -43.000; -366.000; -276.000
286.142; -103.700; -715.000; -622.000
286.281;  -65.700; -525.000; -493.000
286.420;  -73.975; -554.000; -417.000
286.560;  100.275;  653.000;  623.000
286.699; -143.300; -958.000; -912.000
286.838;  -67.675; -590.000; -591.000
286.978;  -90.750; -533.000; -537.000
287.117; -124.825;-1085.000; -950.000
287.256;  -30.700; -228.000; -211.000
287.395;  -37.900; -197.000; -378.000
287.535;  -50.950; -370.000; -298.000
287.674;  -78.100; -509.000; -484.000
287.813;   46.000;  661.000;  533.000
287.952; -122.950;-1010.000; -871.000
288.091; -139.950;-1049.000; -915.000
288.231;   30.450;   13.000;   15.000
288.370; -179.375;-1217.000;-1200.000
288.509;  -84.200; -728.000; -645.000
288.648;  -90.800; -770.000; -548.000
288.787;  -43.450; -243.000;  -87.000
288.926;  -64.500; -454.000; -475.000
289.065;  115.200;  859.000;  672.000
289.204;  -51.900; -377.000; -217.000
289.344;  -90.475; -791.000; -690.000
289.483;   17.500;  416.000;  304.000
289.622;  -27.225; -291.000; -149.000
289.761;  -21.375; -309.000; -166.000
289.900; -102.950; -785.000; -626.000
290.039;  -31.400;  -12.000;  -95.000
290.178;  -38.525; -274.000; -180.000
290.317;  -82.750; -618.000; -479.000
290.456;  -55.750; -463.000; -451.000
290.595; -147.600; -961.000; -833.000
290.734; -130.200; -904.000; -891.000
290.873;  -75.225; -456.000; -420.000
291.011; -108.500; -833.000; -843.000
291.150;  -80.975; -770.000; -682.000
291.289;   -9.600; -343.000; -110.000
291.428;  -98.550; -599.000; -480.000
291.567;  -46.600; -370.000; -442.000
291.706;  -13.975;  109.000;  154.000
291.845;  -80.875; -597.000; -505.000
291.984; -161.225;-1234.000;-1061.000
292.122;   80.550;  602.000;  582.000
292.261;   46.625;  620.000;  463.000
292.400;    4.675; -144.000;  211.000
292.539; -115.725; -959.000; -813.000
292.678;  -19.675; -325.000; -300.000
292.816; -162.025;-1136.000; -965.000
292.955;  -66.350; -844.000; -684.000
293.094;  -28.250; -173.000; -337.000
293.233;  -46.950; -556.000; -400.000
293.371;  -38.625; -225.000;  -84.000
293.510; -107.650; -866.000; -780.000
293.649; -128.250; -959.000; -924.000
293.787;  -31.600;-1083.000;-1012.000
293.926;   -3.150; -113.000;  -32.000
294.065;  -28.050; -379.000; -290.000
294.203;   30.400;  298.000;  406.000
294.342;   25.125;   74.000;  156.000
294.481; 5609.525;51180.000; -836.000
294.619;  -21.725; -425.000; -582.000
294.758; -131.000;-1230.000;-1137.000
294.896;   98.875; -125.000;    5.000
295.035; -103.400;-1040.000;-1006.000
295.174; -100.625;-1082.000; -954.000
295.312;  -38.175; -323.000; -203.000
295.451;    5.950; -307.000; -428.000
295.589;  -48.150; -389.000; -518.000
295.728;   43.700; -292.000; -165.000
295.866;   17.125;  -36.000;  -51.000
296.005;  -47.775; -584.000; -341.000
296.143;  -58.050; -558.000; -596.000
296.282; -104.625; -957.000; -881.000
296.420;  -76.200; -657.000; -557.000
296.559;  -73.100; -892.000; -633.000
296.697;   86.625; -847.000; -665.000
296.835;  131.225;-1141.000;-1002.000
296.974;   61.925;  -23.000;   39.000
297.112;   58.900; -443.000; -504.000
297.251;  -66.475; -815.000; -755.000
297.389;  145.975; -576.000; -438.000
297.527;   56.300; -145.000;  -83.000
297.666;  -32.225; -486.000; -438.000
297.804;  -63.150; -404.000; -264.000
297.942;    7.550; -136.000; -161.000
298.081;  -11.400; -183.000;   63.000
298.219;  104.425;  -17.000;  -19.000
298.357;   88.425; -144.000;  -71.000
298.495;   85.050; -810.000; -812.000
298.634;  112.550;  245.000;  219.000
298.772;  105.725; -220.000; -338.000
298.910;  -24.900; -309.000; -182.000
299.048;   -1.325; -130.000; -153.000
299.187;  -33.525; -350.000; -250.000
299.325;   20.350;   52.000;  122.000
299.463;   97.100; -389.000; -299.000
299.601;  169.250; -327.000; -271.000
299.739;  -96.025; -908.000; -883.000
299.877;  -74.475; -791.000; -703.000
300.016;  -39.000;-1095.000; -935.000
300.154;  226.475;  -19.000; -161.000
300.292;   87.025; -428.000; -348.000
300.430;   66.000; -408.000; -291.000
300.568;  -95.525; -940.000; -874.000
300.706;  -34.550; -366.000; -469.000
300.844;  -33.900;-1108.000; -979.000
300.982;  143.350;  246.000;  282.000
301.120;  -97.800; -965.000; -866.000
301.258;  -49.375; -812.000; -705.000
301.396;   56.150;  104.000;  -41.000
301.534;  152.950; -218.000; -293.000
301.672;   36.500; -664.000; -521.000
301.810;   94.700; -613.000; -545.000
301.948;  160.675;   53.000;  149.000
302.086;  789.975; -250.000;  -32.000
302.224; 1234.775; -610.000; -585.000
302.362;   98.300; -558.000; -622.000
302.500;   23.950; -923.000; -893.000
302.638;  154.875;  128.000;  245.000
302.776;    5.950; -352.000; -408.000
302.913;   61.925;  447.000;  236.000
303.051;    9.275;  -86.000;  -23.000
303.189;   71.050;   90.000;  118.000
303.327;  -31.875; -341.000; -256.000
303.465;  -65.800; -832.000; -588.000
303.603;  -87.225; -805.000; -604.000
303.740;  128.575;  417.000;  241.000
303.878;   53.925; -800.000; -759.000
304.016;  -80.175; -915.000; -790.000
304.154; -110.825;-1123.000;-1152.000
304.291;  -24.275; -505.000; -554.000
304.429;   22.775;  102.000;   74.000
304.567; -113.750; -908.000; -893.000
304.705;  -48.450; -408.000; -515.000
304.842;  160.550; -616.000; -540.000
304.980;   69.600;  215.000;   35.000
305.118;   87.075; -367.000; -365.000
305.255;  -56.450; -945.000; -927.000
305.393;   69.975;  178.000;  239.000
305.531;  -87.300;-1173.000; -956.000
305.668;  -46.900; -663.000; -582.000
305.806;  134.575; -358.000; -439.000
305.943;  156.825; -629.000; -637.000
306.081;   83.675; -378.000; -267.000
306.219;  -89.050; -863.000; -748.000
306.356;   -0.375;  158.000;   27.000
306.494;  113.325;  981.000;  761.000
306.631;    0.950;  -11.000;  -55.000
306.769;   30.050; -613.000; -485.000
306.906;   -7.300; -284.000; -258.000
307.044;  -42.800; -473.000; -488.000
307.181;  -68.775; -410.000; -332.000
307.319;    1.050;  112.000;   87.000
307.456; -173.275;-1191.000;-1153.000
307.594;  -84.625; -980.000; -727.000
307.731;   -0.550; -371.000; -164.000
307.868;   23.175;  -15.000;   20.000
308.006; -123.025; -961.000; -847.000
308.143;  -49.075; -618.000; -330.000
308.281;  209.825;  -37.000; -254.000
308.418;    9.125; -748.000; -640.000
308.555;  -65.000; -400.000; -250.000
308.693;  -74.700; -577.000; -573.000
308.830; -107.775; -712.000; -657.000
308.967;  -14.625; -215.000;  -95.000
309.105;  -50.650; -507.000; -396.000
309.242;   72.575; -468.000; -367.000
309.379;  407.775; -577.000; -655.000
309.517;  -43.950; -936.000; -948.000
309.654; -105.625; -910.000; -734.000
309.791;  -58.675; -662.000; -580.000
309.928; -117.750; -977.000; -914.000
310.065;  191.200;  819.000;  697.000
310.203;   25.750; -825.000; -850.000
310.340;   28.200; -465.000; -321.000
310.477;  -93.300; -412.000; -516.000
310.614;  -49.800; -383.000; -473.000
310.751;  -84.975; -427.000; -518.000
310.889;  -12.300;    1.000;   11.000
311.026; -147.475;-1161.000; -939.000
311.163;  -41.175; -386.000; -380.000
311.300;  -69.375; -512.000; -479.000
311.437;  -85.450; -658.000; -619.000
311.574; -146.700;-1226.000; -985.000
311.711;  -59.375; -595.000; -433.000
311.848;  -38.425; -380.000; -388.000
311.985;   16.625;  270.000;   93.000
312.122; -113.825; -932.000; -762.000
312.259; -124.050; -941.000; -994.000
312.396;  -88.975; -508.000; -551.000
312.533;  -77.150; -812.000; -790.000
312.670; -127.825;-1070.000; -898.000
312.807;  -23.150; -352.000; -367.000
312.944;  -63.325; -513.000; -611.000
313.081;  -27.425; -150.000; -415.000
313.218;  -92.450;-1111.000; -867.000
313.355;   20.600; -531.000; -449.000
313.492;   25.875; -455.000; -292.000
313.629;  148.350;  815.000;  735.000
313.766; -148.550;-1176.000;-1008.000
313.902;  -11.150; -186.000;   21.000
314.039;  -60.000; -372.000; -289.000
314.176;   42.000;  286.000;  192.000
314.313;  -71.600; -569.000; -473.000
314.450;  -68.625; -788.000; -684.000
314.587;  -55.250; -468.000; -480.000
314.723;    5.800;  -78.000;  130.000
314.860;   32.650;  318.000;  332.000
314.997;   44.525;  223.000;  142.000
315.134;  -51.025; -385.000; -368.000
315.270;  -15.525; -480.000; -496.000
315.407; -110.875;-1094.000; -967.000
315.544;  -45.025; -657.000; -538.000
315.681;  -70.800; -681.000; -565.000
315.817;   39.175; -133.000; -176.000
315.954;   43.800; -613.000; -392.000
316.091; -109.150;-1045.000;-1023.000
316.227;  -33.075;  -71.000; -179.000
316.364;   12.225;   23.000;    6.000
316.500;  -49.975; -113.000; -300.000
316.637;  -43.500; -181.000; -302.000
316.774;  -94.725; -625.000; -358.000
316.910;  -80.775; -598.000; -629.000
317.047;  -66.675; -487.000; -351.000
317.183;  -40.450; -435.000; -566.000
317.320;  -26.225; -367.000; -321.000
317.456;  -87.825; -733.000; -805.000
317.593;  -86.525; -598.000; -641.000
317.729;   -0.200;  168.000;  -67.000
317.866; -189.200;-1434.000;-1285.000
318.002;  -80.675; -708.000; -948.000
318.139;  -83.550; -883.000; -867.000
318.275;  -87.075;-1003.000; -738.000
318.412;  -60.275; -517.000; -336.000
318.548;    1.500; -751.000; -720.000
318.685;  -87.350; -985.000; -888.000
318.821;  -90.200; -762.000; -735.000
318.957;  -19.750;   34.000;  -23.000
319.094;   35.800;  297.000;  154.000
319.230;  -46.875; -756.000; -742.000
319.367;  189.925; -471.000; -520.000
319.503;   80.000; -538.000; -436.000
319.639;  -80.775; -877.000; -793.000
319.775;  -46.125; -750.000; -685.000
319.912;  -44.950; -424.000; -519.000
320.048;  -89.500;-1184.000;-1184.000
320.184;   74.875;   59.000;   70.000
320.321;  -77.325; -497.000; -467.000
320.457;   73.450;  475.000;  662.000
320.593;  -70.900; -375.000; -382.000
320.729;  -97.125; -732.000; -734.000
320.866;  -86.850; -577.000; -635.000
321.002;  -74.300; -759.000; -809.000
321.138;  -15.125; -135.000; -211.000
321.274;   92.625; -148.000; -115.000
321.410;   -6.675; -585.000; -353.000
321.546;   -3.000;-1011.000; -911.000
321.683;   55.600;  400.000;  185.000
321.819;   22.675;  -48.000; -117.000
321.955; -106.675; -743.000; -722.000
322.091;  -25.700; -585.000; -540.000
322.227;  -10.900; -382.000; -202.000
322.363;   12.325; -320.000; -215.000
322.499;  -45.725; -343.000; -331.000
322.635;  176.650;  636.000;  443.000
322.771;   35.425; -139.000;   12.000
322.907;  121.100;  129.000;  327.000
323.043;  -21.300; -115.000; -206.000
323.179;  -16.400; -394.000; -363.000
323.315;   45.800; -401.000; -371.000
323.451;  157.400; -328.000; -236.000
323.587;   80.600;  -60.000;  -77.000
323.723;   61.550; -682.000; -601.000
323.859;  -19.375; -258.000;  -76.000
323.995;  -13.550; -467.000; -409.000
324.131; -123.675; -967.000; -892.000
324.267;  -38.075; -254.000; -276.000
324.402; -115.400; -960.000; -983.000
324.538;   -0.825; -279.000; -104.000
324.674;   29.900;  164.000;   77.000
324.810;  188.300;  226.000;  308.000
324.946;   39.500; -810.000; -658.000
325.082;  -63.200; -568.000; -475.000
325.217;    0.000;  -62.000;   16.000
325.353;  -94.500; -764.000; -659.000
325.489;  -87.950; -540.000; -506.000
325.625;  -63.250; -579.000; -525.000
325.760;   47.825;  517.000;  376.000
325.896;  -26.825; -515.000; -702.000
326.032;  -67.975; -403.000; -352.000
326.168;  -52.175; -462.000; -369.000
326.303;  -65.925; -352.000; -461.000
326.439;  -15.750; -336.000; -276.000
326.575;    2.975; -190.000;  -29.000
326.710;    0.050; -156.000;  -30.000
326.846;   -8.550;  146.000;  103.000
326.982;  -90.550; -530.000; -548.000
327.117;  -68.800; -481.000; -442.000
327.253;  -87.600; -745.000; -742.000
327.388; -121.025;-1137.000;-1153.000
327.524;  -25.950; -811.000; -578.000
327.659;  -30.350;  -58.000;  -22.000
327.795;  -11.650;   69.000;   45.000
327.931;  -88.000; -723.000; -499.000
328.066;  -18.300; -417.000; -276.000
328.202;   11.875;   12.000; -129.000
328.337;  113.400;  957.000;  713.000
328.473;   42.275;  -12.000;  -74.000
328.608;  -12.100; -256.000; -267.000
328.743;  -76.450; -799.000; -664.000
328.879;   28.375;  214.000;  114.000
329.014;  -38.050; -102.000; -122.000
329.150;  -80.750; -358.000; -483.000
329.285;  -69.075; -465.000; -466.000
329.421;  -42.925; -548.000; -246.000
329.556;  -17.925;  -36.000;   85.000
329.691;  -95.425; -633.000; -615.000
329.827;  -86.475; -626.000; -480.000
329.962;  -35.225;  131.000; -301.000
330.097;  -83.775; -673.000; -585.000
330.233;  -39.850; -410.000; -223.000
330.368; -119.700; -839.000; -628.000
330.503;   -9.000;    3.000;   98.000
330.638;    9.725;  -93.000; -125.000
330.774;  -32.325; -609.000; -530.000
330.909;  -49.675; -434.000; -244.000
331.044;  -88.300; -714.000; -708.000
331.179; -162.000;-1217.000;-1109.000
331.315;   15.450;   77.000;   20.000
331.450;    9.600;  157.000;  285.000
331.585;  -76.675; -805.000; -706.000
331.720;  -80.375; -510.000; -460.000
331.855;    0.550;  -35.000; -102.000
331.990;  197.675;   62.000;  138.000
332.126;  108.600; -110.000;   71.000
332.261;  -36.475; -379.000; -265.000
332.396;    7.425; -135.000; -242.000
332.531; -104.000;-1074.000;-1031.000
332.666;   35.750; -519.000; -363.000
332.801; -102.575; -726.000; -807.000
332.936;  -17.450; -192.000; -122.000
333.071; -142.275; -870.000; -817.000
333.206;   20.075;  307.000;  379.000
333.341;   25.500;  344.000;  418.000
333.476;  -82.225; -627.000; -623.000
333.611;  -31.850; -251.000; -173.000
333.746;  -43.075; -381.000; -464.000
333.881; -111.200; -973.000; -935.000
334.016; -116.975; -936.000; -917.000
334.151; -124.150; -746.000; -702.000
334.286;   40.875;  152.000;  186.000
334.421;   -6.925; -125.000; -178.000
334.556;  -57.325; -611.000; -567.000
334.690;  -68.600; -631.000; -577.000
334.825;   66.150;  381.000;   83.000
334.960;  -63.275; -285.000; -413.000
335.095;   22.425;  135.000;  -91.000
335.230;  -92.150; -722.000; -738.000
335.365; -114.950;-1084.000; -990.000
335.499; -123.275;-1108.000;-1037.000
335.634;   46.975;    9.000;  534.000
335.769;  -89.475; -755.000; -720.000
335.904;  -40.700; -603.000; -561.000
336.038;  -38.350; -735.000; -657.000
336.173;  -94.950;-1206.000;-1194.000
336.308;   25.425; -116.000; -189.000
336.443;   37.050; -544.000; -634.000
336.577;  -55.850; -936.000; -787.000
336.712;   92.925;   -4.000;  -12.000
336.847;  -10.000; -724.000; -607.000
336.981;  120.625; -272.000; -208.000
337.116;  349.450;  615.000;  501.000
337.250;  229.025; -434.000; -421.000
337.385;  206.175; -297.000; -208.000
337.520;   47.325; -632.000; -603.000
337.654;  -37.700; -215.000; -126.000
337.789; -118.825; -989.000; -933.000
337.923;  -36.425; -104.000; -205.000
338.058;  -86.275; -673.000; -738.000
338.192;  -14.175; -611.000; -488.000
338.327;    5.825;  -18.000; -155.000
338.461;  -70.125; -299.000; -469.000
338.596;  -78.575; -780.000; -638.000
338.730; -103.050; -767.000; -803.000
338.865;   76.675;  -46.000; -140.000
338.999;  -57.650; -846.000; -702.000
339.134;  -31.025; -634.000; -536.000
339.268;    2.100; -741.000; -603.000
339.403;  332.950; -740.000; -775.000
339.537;   60.875; -894.000; -820.000
339.671; -115.000; -829.000; -813.000
339.806;  -71.775; -556.000; -512.000
339.940;    8.775; -261.000; -235.000
340.074;  -95.750; -685.000; -510.000
340.209;  -41.075; -351.000; -230.000
340.343;  -75.875; -517.000; -573.000
340.477;  152.375;  998.000; 1036.000
340.612;  -69.250;-1033.000; -900.000
340.746;  105.050; -199.000; -243.000
340.880;  -48.475; -924.000; -785.000
341.014;  -28.025;  -45.000; -154.000
341.149; -116.175; -756.000; -718.000
341.283;  -97.450; -839.000; -754.000
341.417;  -75.575;-1124.000; -938.000
341.551;  224.050; -768.000; -708.000
341.685;  -13.950; -633.000; -611.000
341.820;  -43.600; -562.000; -493.000
341.954;  -45.500; -218.000; -349.000
342.088; -152.725;-1102.000;-1019.000
342.222;   40.200;  565.000;  618.000
342.356;  -43.000; -395.000; -335.000
342.490;  -75.775; -880.000; -841.000
342.624;  -35.150; -339.000; -242.000
342.758;   36.850; -364.000; -312.000
342.892;  -40.050; -710.000; -585.000
343.026;  -45.975;  -58.000; -116.000
343.160;  -46.350; -426.000; -376.000
343.294;  -73.925; -474.000; -337.000
343.428;   24.025; -488.000; -448.000
343.562;   -2.500; -172.000;  -23.000
343.696;    6.525; -385.000; -314.000
343.830;  -10.525; -362.000; -356.000
343.964;   46.025; -231.000; -168.000
344.098; 1260.150;  199.000;   70.000
344.232; 1040.425; -266.000; -127.000
344.366;  107.325; -567.000; -453.000
344.500;  130.325; -665.000; -744.000
344.634;   68.475; -324.000; -164.000
344.768;   21.275; -531.000; -341.000
344.902;   30.825;  278.000;  256.000
345.035;  -44.925; -556.000; -496.000
345.169; -132.175; -933.000; -656.000
345.303;    5.300; -308.000; -482.000
345.437;  -57.775; -826.000; -717.000
345.571;  -62.000; -675.000; -594.000
345.704;  -56.075; -309.000; -532.000
345.838;   -6.575; -331.000; -284.000
345.972;  -17.850; -543.000; -495.000
346.106;  143.200; -179.000; -190.000
346.239;  449.100; -312.000; -243.000
346.373;   26.700; -343.000; -302.000
346.507; -133.375; -950.000; -962.000
346.640;  208.050;  -30.000;   13.000
346.774;  -20.675; -650.000; -797.000
346.908;   -8.125; -138.000;  -11.000
347.041; -100.050; -646.000; -593.000
347.175;   13.800;  259.000;   27.000
347.309;  -61.075; -698.000; -628.000
347.442;  -84.025; -883.000; -732.000
347.576;  363.825;  670.000;  668.000
347.709;  279.550; -123.000;  -52.000
347.843;  -79.325; -933.000; -825.000
347.976;   40.350;  235.000;  294.000
348.110; -180.075;-1268.000;-1186.000
348.243;  -88.525; -679.000; -772.000
348.377;    3.225;  -26.000;   60.000
348.510;   62.275;  403.000;  540.000
348.644;  -32.550;  -37.000; -159.000
348.777;   18.550;  180.000;  191.000
348.911;  -51.825; -142.000; -112.000
349.044;  233.175;  471.000;  448.000
349.178;  253.850;-1069.000;-1006.000
349.311;  125.900;  141.000;  255.000
349.444;  -10.500; -927.000; -813.000
349.578;    7.550; -347.000; -200.000
349.711;  -78.650; -959.000; -862.000
349.845;   40.500; -661.000; -591.000
349.978; -138.925;-1224.000;-1137.000
350.111;  -64.275; -546.000; -612.000
350.244;  -71.225; -596.000; -700.000
350.378;   18.375; -392.000; -393.000
350.511;  -69.550; -393.000; -426.000
350.644;  -94.275; -808.000; -806.000
350.778;   12.425;  168.000;  104.000
350.911;   19.625;  134.000;  140.000
351.044;  -80.750; -685.000; -615.000
351.177;   -9.200; -321.000; -281.000
351.310;  -18.000;    3.000; -131.000
351.444;  -47.150; -888.000; -788.000
351.577;  138.850;  140.000;   90.000
351.710;  103.175;  593.000;  417.000
351.843;  -41.375; -165.000;  -77.000
351.976;   21.825;  149.000;  -79.000
352.109;  -71.575; -621.000; -612.000
352.242;    6.525; -464.000; -419.000
352.376;  -29.600; -580.000; -636.000
352.509;  264.050; -437.000; -356.000
352.642;   57.025; -654.000; -604.000
352.775;  101.900; -141.000;  -98.000
352.908; -101.700; -933.000; -904.000
353.041;  -93.075; -814.000; -824.000
353.174;  -59.500; -551.000; -424.000
353.307;  -80.350; -753.000; -764.000
353.440;   83.050;  541.000;  453.000
353.573;  -98.400; -957.000;-1008.000
353.706;  -46.175; -384.000; -558.000
353.839;   -4.225; -264.000; -220.000
353.971;  -91.950; -657.000; -512.000
354.104;  -70.825; -896.000; -835.000
354.237;  -17.000; -627.000; -662.000
354.370;  -70.550; -846.000; -879.000
354.503; -171.025;-1231.000;-1308.000
354.636;  -15.375; -529.000; -348.000
354.769; -120.500; -937.000; -860.000
354.902;   10.975; -230.000; -139.000
355.034;  -18.375; -164.000; -220.000
355.167;    9.800; -262.000; -162.000
355.300;  -82.850;-1061.000; -880.000
355.433;  868.675;  -71.000;  -14.000
355.565; 1312.975; -402.000; -384.000
355.698;  336.350; -356.000; -296.000
355.831;   10.675; -882.000; -801.000
355.964;  129.650; -285.000; -170.000
356.096;  -68.675; -856.000; -843.000
356.229;   35.850; -523.000; -530.000
356.362;  275.200; -373.000; -266.000
356.494;  541.550; -229.000; -162.000
356.627;  599.350;  269.000;  377.000
356.760;  626.325;  120.000;   53.000
356.892;  821.925; -286.000; -601.000
357.025;  847.400;  403.000;  389.000
357.157;  799.550; -167.000; -179.000
357.290;  540.800; -856.000; -713.000
357.423;  179.725; -667.000; -556.000
357.555;  162.575; -217.000; -228.000
357.688;  193.925; -483.000; -364.000
357.820;  608.900; -870.000; -877.000
357.953; 4582.875; -563.000; -589.000
358.085; 1106.750; -632.000; -612.000
358.218; 1749.750;-1131.000; -932.000
358.350;  323.200;  -58.000;  312.000
358.483; -113.100;-1300.000;-1187.000
358.615;   68.200;-1182.000;-1078.000
358.747;   -3.375;-1187.000;-1058.000
358.880;   77.775; -810.000; -744.000
359.012;    5.450; -376.000; -202.000
359.145;  -22.025; -480.000; -511.000
359.277;  110.275; -962.000; -913.000
359.409; 3808.525;  536.000;  231.000
359.542; 1048.075; -738.000; -688.000
359.674;   96.375;   46.000;   13.000
359.806;  -55.600; -565.000; -438.000
359.939;  -37.000; -617.000; -516.000
360.071;  -25.750; -583.000; -579.000
360.203;  -15.475; -411.000; -364.000
360.335;   80.450;  164.000;  -16.000
360.468;  238.575; -249.000; -307.000
360.600; 2953.200; -547.000; -454.000
360.732; 2457.075; -546.000; -423.000
360.864;  337.325;-1216.000;-1044.000
360.996;  437.725; -516.000; -554.000
361.129;   90.725; -389.000; -598.000
361.261;   30.025;  110.000; -113.000
361.393;  -36.275; -252.000; -214.000
361.525;   49.500;   94.000;  244.000
361.657;  -14.450; -821.000; -703.000
361.789;   18.175; -139.000; -155.000
361.921;  359.525; -642.000; -593.000
362.053;  344.400;  524.000;  541.000
362.185;   64.075;  288.000;   72.000
362.318;  -61.275; -709.000; -705.000
362.450;  178.875;  294.000;  444.000
362.582;  256.400; -913.000; -870.000
362.714;  -23.050; -353.000; -332.000
362.846;  -74.175; -606.000; -490.000
362.978; -135.600; -941.000; -811.000
363.109;   93.175; -161.000; -260.000
363.241;  616.225; -739.000; -749.000
363.373;  403.425; -649.000; -564.000
363.505;  550.500; -186.000;  -91.000
363.637;  158.525; -787.000; -601.000
363.769; -111.525;-1067.000;-1080.000
363.901;  -58.325; -596.000; -654.000
364.033; -105.325;-1103.000;-1062.000
364.165;   29.000; -283.000; -283.000
364.296;   53.125; -316.000; -177.000
364.428;   58.475;-1344.000;-1220.000
364.560;  -74.050; -679.000; -661.000
364.692;  -48.300; -738.000; -835.000
364.824;  409.750; -588.000; -456.000
364.955;  471.800; -402.000; -564.000
365.087;  670.775;-1097.000; -852.000
365.219;   25.500; -686.000; -816.000
365.351;  -67.900; -526.000; -572.000
365.482;   69.975;  300.000;  240.000
365.614;  -45.350; -402.000; -314.000
365.746;  -80.750; -729.000; -752.000
365.877; -103.425; -706.000; -672.000
366.009;  218.575;  -35.000;  -62.000
366.141; -108.625;-1249.000;-1134.000
366.272; -103.025; -803.000; -719.000
366.404; -109.350;-1005.000; -874.000
366.535;    2.350; -139.000;  -12.000
366.667; -105.975; -644.000; -649.000
366.799;   51.925;  353.000;  203.000
366.930; -108.725; -862.000; -996.000
367.062;  138.475; -639.000; -613.000
367.193;   92.675; -872.000; -842.000
367.325;  -55.900; -580.000; -684.000
367.456;  105.775; -246.000;   31.000
367.588;  155.025; -371.000; -318.000
367.719;   13.200;  -44.000;  -45.000
367.851;    8.300; -222.000; -241.000
367.982;  -28.950; -875.000; -732.000
368.113;  168.600; -475.000; -358.000
368.245; -103.025; -960.000; -841.000
368.376;  -11.950; -254.000; -302.000
368.508;  -22.525; -188.000; -263.000
368.639; -122.250;-1166.000;-1034.000
368.770;   16.825; -670.000; -589.000
368.902;  -19.675; -836.000; -926.000
369.033;  -96.800; -906.000; -855.000
369.164;  -42.700; -720.000; -653.000
369.296; -103.450; -452.000; -601.000
369.427;   20.325; -209.000; -144.000
369.558;  -26.925; -593.000; -377.000
369.689;  -75.075; -721.000; -569.000
369.821; -130.850; -951.000; -845.000
369.952;  -10.900;   42.000; -108.000
370.083;  -53.425; -229.000; -108.000
370.214;  -72.725; -735.000; -650.000
370.345;    0.375;   65.000;   81.000
370.477;  -66.100; -810.000; -790.000
370.608;  352.725; -328.000; -264.000
370.739;    2.375;-1233.000;-1292.000
370.870;    5.550;-1102.000; -923.000
371.001;  144.700; -378.000; -467.000
371.132;  -65.300; -754.000; -735.000
371.263;   -4.900;  -42.000; -148.000
371.394; -133.150; -841.000; -748.000
371.525;   37.625;  345.000;  225.000
371.657;  -83.750; -808.000; -670.000
371.788;   93.350;  103.000;  199.000
371.919;  234.475; -384.000; -304.000
372.050; 4726.075;  -91.000; -156.000
372.181; 1419.650; -188.000; -294.000
372.311;  537.875;   42.000; -127.000
372.442;   82.800; -457.000; -451.000
372.573;   -3.175; -444.000; -340.000
372.704; -107.200;-1008.000; -980.000
372.835;  147.975; -228.000; -289.000
372.966;  -43.575; -646.000; -554.000
373.097;  -40.225; -575.000; -711.000
373.228;  -13.900; -717.000; -542.000
373.359;  236.375; -824.000; -536.000
373.490; 1296.775; -881.000; -727.000
373.620; 1637.150;-1001.000; -803.000
373.751; 2439.475; -332.000; -396.000
373.882; 1140.325; -663.000; -733.000
374.013;  120.550; -449.000; -262.000
374.143;  -18.750; -581.000; -659.000
374.274;  -91.875; -987.000; -908.000
374.405;  240.775; -388.000; -276.000
374.536;  616.925; -526.000; -387.000
374.666; 1619.900; -759.000; -807.000
374.797;  364.075; -817.000; -868.000
374.928; 1230.925; -710.000; -560.000
375.058; 1242.875; -535.000; -500.000
375.189;  121.700;  -59.000;  -93.000
375.320; -102.500; -928.000;-1034.000
375.450;  -19.825; -625.000; -616.000
375.581;  -57.200; -526.000; -436.000
375.712;   -1.375; -574.000; -250.000
375.842;  436.275; -438.000; -415.000
375.973;  344.225; -554.000; -513.000
376.103;   -5.150; -665.000; -648.000
376.234;  -74.850; -531.000; -552.000
376.364;    3.225; -944.000; -867.000
376.495;  418.600;  925.000;  529.000
376.625;   40.475; -472.000; -485.000
376.756;  128.650; -709.000; -678.000
376.886;  -34.075;-1178.000;-1026.000
377.017;   27.175;-1048.000;-1061.000
377.147;  288.625; -786.000; -782.000
377.278;   57.725;  174.000;  228.000
377.408; -122.650; -801.000; -815.000
377.538;  -88.875; -707.000; -693.000
377.669;  -79.625; -537.000; -613.000
377.799;  -69.600; -645.000; -635.000
377.929;  -29.500; -610.000; -428.000
378.060; -117.075; -781.000; -847.000
378.190;  -63.150; -726.000; -531.000
378.320;  -36.150; -401.000; -406.000
378.451;   -3.025; -131.000;  -22.000
378.581;   21.175;  -67.000; -110.000
378.711;  195.075; 1035.000;  866.000
378.841;   23.825; -533.000; -675.000
378.972;  -46.650; -871.000; -751.000
379.102;   36.525; -652.000; -579.000
379.232;   -4.625; -126.000;  -73.000
379.362;  -78.850;-1001.000; -885.000
379.492;   55.950; -373.000; -424.000
379.623;  136.475;    0.000;  111.000
379.753;  -67.100;-1107.000; -974.000
379.883;  260.250;   59.000;  156.000
380.013;   61.250;-1081.000;-1017.000
380.143;  -74.700;-1097.000;-1056.000
380.273;  -75.250; -985.000; -861.000
380.403;   17.550; -344.000; -257.000
380.533;   -2.675; -651.000; -664.000
380.663;  118.900;  173.000;  128.000
380.793;  -63.800;-1027.000;-1074.000
380.923;  -15.100; -103.000;  -34.000
381.053;  -92.675; -613.000; -623.000
381.183;    2.300; -106.000; -248.000
381.313;   89.375; -656.000; -470.000
381.443;  108.875; -692.000; -473.000
381.573;  305.700; -402.000; -409.000
381.703;  486.500;-1249.000;-1095.000
381.833; -102.600;-1454.000;-1336.000
381.963;  148.600; -134.000;  -87.000
382.093; 1792.025; -925.000; -909.000
382.223;  601.800; -713.000; -602.000
382.353;   28.400; -801.000; -608.000
382.482;  594.200;-1091.000; -964.000
382.612; 1017.375; -872.000; -644.000
382.742;  605.700; -695.000; -622.000
382.872;  401.000; -565.000; -551.000
383.002;   99.950;  347.000; -132.000
383.131;   -6.175; -226.000; -160.000
383.261;  -29.850; -706.000; -768.000
383.391;  291.750; -552.000; -377.000
383.521; 2682.650;  451.000;  263.000
383.650;  573.725; -947.000; -904.000
383.780;  -13.375; -783.000; -656.000
383.910;  114.350;  880.000;  802.000
384.039;   85.400; -794.000; -656.000
384.169;  365.700;-1205.000;-1017.000
384.299;   32.550; -650.000; -662.000
384.428;  -83.125; -764.000; -680.000
384.558;  -26.175; -308.000; -275.000
384.687;  -34.900; -414.000; -334.000
384.817;   44.300;   75.000;   -2.000
384.947;   50.450; -234.000; -141.000
385.076;  359.650;  982.000;  912.000
385.206;  126.775;  369.000;  480.000
385.335;   -6.875; -549.000; -417.000
385.465;  -67.450; -655.000; -663.000
385.594;  211.300;  -53.000;  -44.000
385.724;  650.025; -868.000; -838.000
385.853;  192.425; -296.000; -270.000
385.982; 1874.500; -743.000; -787.000
386.112; 2988.900;-1052.000; -871.000
386.241;  219.525; -307.000; -312.000
386.371;   48.725; -174.000;  -87.000
386.500;   46.600; -825.000; -789.000
386.629;   42.325; -874.000; -817.000
386.759;   68.275;  -43.000;   68.000
386.888;    3.925; -170.000; -250.000
387.017;  -68.900; -648.000; -620.000
387.147;  -66.400; -771.000; -798.000
387.276;   26.100; -410.000; -397.000
387.405;   41.475; -398.000; -342.000
387.535;  -25.025; -452.000; -361.000
387.664;  -50.275; -692.000; -620.000
387.793;   91.550; -198.000; -113.000
387.922;  737.550;  255.000;  200.000
388.052;   58.350; -576.000; -423.000
388.181;   64.175; -342.000; -472.000
388.310;   64.625; -889.000; -710.000
388.439;    3.325; -749.000; -742.000
388.568;  264.425;  365.000;  244.000
388.697; 1489.725; -756.000; -653.000
388.826;  331.425; -768.000; -666.000
388.956;   97.625; -285.000; -307.000
389.085;  -24.475; -347.000; -287.000
389.214;  -99.225; -842.000; -872.000
389.343;  -55.625; -645.000; -413.000
389.472;  362.400;  126.000;  149.000
389.601;  519.975;   91.000;    0.000
389.730;   50.075; -568.000; -687.000
389.859;   83.150;  226.000;   46.000
389.988;  284.975; -423.000; -408.000
390.117;  212.700; -168.000; -146.000
390.246;   15.925; -331.000; -320.000
390.375;  186.900; -673.000; -626.000
390.504;  -33.625; -703.000; -621.000
390.633;  -65.750; -672.000; -726.000
390.761;  -30.775; -732.000; -645.000
390.890;   38.900;   -4.000; -130.000
391.019;    1.225; -421.000; -441.000
391.148; -125.300; -826.000; -855.000
391.277;  -56.175; -576.000; -493.000
391.406;  -39.475; -821.000; -805.000
391.534;   29.300;  574.000; -301.000
391.663;  -48.125; -583.000; -645.000
391.792;  -66.600; -673.000; -701.000
391.921;  182.025;   -3.000;   15.000
392.050;  307.650; -287.000; -228.000
392.178;   25.225;-1206.000;-1061.000
392.307;  253.175; -758.000; -712.000
392.436;  142.525; -427.000; -641.000
392.564;   23.350;  166.000;   -6.000
392.693;  -89.925; -860.000; -682.000
392.822;  328.450; -529.000; -534.000
392.950;  200.300; -880.000; -714.000
393.079;  478.225; -188.000; -328.000
393.208;   76.000; -488.000; -511.000
393.336;   -0.625; -170.000; -145.000
393.465;  -42.950; -317.000; -199.000
393.593;    3.875;   62.000;   79.000
393.722; -157.800;-1121.000; -916.000
393.850;  -27.075; -188.000;  -61.000
393.979; -144.550; -926.000; -805.000
394.107;  -47.075; -517.000; -537.000
394.236;   -4.475; -570.000; -507.000
394.364;  256.600;  383.000;  206.000
394.493;  477.475; -911.000; -767.000
394.621;   -1.525; -955.000; -916.000
394.750;  601.350; -873.000; -923.000
394.878; 2571.675; -247.000; -149.000
395.007; 3497.650; -721.000; -807.000
395.135;  270.000; -790.000; -721.000
395.263;  -83.700;-1038.000;-1040.000
395.392;    2.225;  -25.000; -107.000
395.520; -138.525; -818.000; -679.000
395.648;  -63.625; -865.000; -915.000
395.777;   11.425; -366.000; -405.000
395.905;  -30.250; -449.000; -564.000
396.033;   17.375;  217.000;  172.000
396.162;  741.575; -399.000; -453.000
396.290;  668.100;  -17.000;   -2.000
396.418;  190.825; -555.000; -514.000
396.546;  -53.250; -571.000; -466.000
396.674;  -76.425; -850.000; -878.000
396.803;   20.950;  -72.000;  -23.000
396.931;  150.875; -179.000; -199.000
397.059;  150.825;-1026.000; -989.000
397.187;  -97.250;-1026.000; -975.000
397.315; -129.775; -884.000; -649.000
397.443;  -93.200; -592.000; -443.000
397.572;  -83.625; -578.000; -424.000
397.700;   50.700; -607.000; -614.000
397.828;   32.150;  120.000;  -90.000
397.956;  -44.450; -508.000; -478.000
398.084;  -84.550; -767.000; -626.000
398.212;   58.175;  137.000;  124.000
398.340;   26.500;  -56.000;  159.000
398.468;   84.675; -390.000; -169.000
398.596; -132.575; -993.000; -953.000
398.724; -106.375; -762.000; -767.000
398.852; -171.775;-1024.000; -976.000
398.980;  -45.800; -560.000; -560.000
399.108;  -28.575; -982.000; -735.000
399.236;   63.200;   13.000;    8.000
399.363;    2.950;  222.000;  196.000
399.491;  -53.225; -404.000; -398.000
399.619; -121.250; -829.000; -800.000
399.747;  -85.975; -859.000; -771.000
399.875;   96.025;  220.000;  234.000
400.003;  -44.300; -359.000; -284.000
400.130; -102.025; -421.000; -341.000
400.258;  -29.075;  -83.000;   38.000
400.386;  -62.800; -352.000; -168.000
400.514;  -14.525; -526.000; -587.000
400.641;  -57.125; -928.000; -802.000
400.769; -121.375; -979.000; -888.000
400.897;  -90.375; -838.000; -793.000
401.025;    3.325; -166.000; -152.000
401.152;   -2.925;  220.000;   38.000
401.280;  -78.525; -430.000; -429.000
401.408; -116.825; -712.000; -576.000
401.535;  -88.675; -735.000; -758.000
401.663; -181.075;-1134.000;-1054.000
401.790;  -73.625; -514.000; -525.000
401.918;   46.525;  436.000;  405.000
402.046;  -11.825;  134.000;  122.000
402.173;  -48.575;  -18.000;    7.000
402.301;  -59.150; -519.000; -397.000
402.428;   22.875;  528.000;  383.000
402.556; -125.175;-1188.000; -913.000
402.683;  -28.025;  -20.000;   -1.000
402.811;    0.900;  -37.000; -206.000
402.938;  -20.675;   20.000;   27.000
403.066;  300.900; -574.000; -558.000
403.193;  470.825;  299.000;  239.000
403.321;  370.200; -396.000; -574.000
403.448;  415.625;   83.000;   27.000
403.575;  193.575;  -90.000;  -46.000
403.703;  -89.275; -732.000; -557.000
403.830;  -72.600; -531.000; -496.000
403.957; -120.825;-1117.000;-1023.000
404.085;   25.100;  -61.000; -172.000
404.212;  115.875;  -50.000;   63.000
404.339;  225.400; -566.000; -306.000
404.467; 4935.675; -612.000; -524.000
404.594; 3754.050; -287.000; -227.000
404.721; 1031.875; -869.000; -764.000
404.848;   93.600; -113.000; -202.000
404.976; -115.275; -856.000; -783.000
405.103;  -21.675;  -14.000;  -82.000
405.230;  -10.325;  190.000;  226.000
405.357;   42.700;  117.000;   44.000
405.484;  214.400;  -49.000;    5.000
405.612;   51.275; -548.000; -563.000
405.739;  -70.025; -488.000; -243.000
405.866;   88.925;  669.000;  385.000
405.993;  -38.750; -398.000; -102.000
406.120; -115.675; -801.000; -887.000
406.247;  -48.250; -323.000; -342.000
406.374;  610.450;  540.000;  629.000
406.501;  217.650; -632.000; -702.000
406.628;  -61.875; -621.000; -589.000
406.755;  -86.475; -803.000; -620.000
406.882;  -26.025; -228.000; -277.000
407.009; -111.350; -719.000; -628.000
407.136;  104.175; -480.000; -401.000
407.263;  252.300; -939.000; -829.000
407.390;  -51.625; -692.000; -614.000
407.517; -147.550;-1139.000;-1187.000
407.644;  -37.475; -332.000; -256.000
407.771;  -66.450; -249.000; -287.000
407.898;   17.950;  168.000;  328.000
408.025;  -63.600; -421.000; -313.000
408.151;    0.675;   82.000;  153.000
408.278;  -83.950; -267.000; -216.000
408.405; -106.300; -931.000; -899.000
408.532;  -68.300; -549.000; -542.000
408.659; -101.775; -677.000; -648.000
408.785; -212.450;-1298.000;-1170.000
408.912;  -49.600; -412.000; -296.000
409.039; -113.500; -610.000; -686.000
409.166; -107.400; -591.000; -555.000
409.292; -113.100; -571.000; -534.000
409.419; -119.325; -665.000; -649.000
409.546;  -86.900; -431.000; -192.000
409.672; -115.475; -713.000; -545.000
409.799;  -40.750;  -36.000;   34.000
409.926;  -33.600; -180.000; -179.000
410.052; -173.650;-1127.000;-1091.000
410.179;  -53.725; -368.000; -392.000
410.305;  -81.100; -375.000; -493.000
410.432;  -35.425; -220.000; -333.000
410.558;  -91.200; -305.000; -380.000
410.685; -101.650; -688.000; -431.000
410.812; -102.950; -409.000; -588.000
410.938; -129.275; -964.000; -808.000
411.065;  -94.525; -671.000; -645.000
411.191;  -20.950; -189.000; -174.000
411.317; -114.850; -823.000; -742.000
411.444;  -64.475; -317.000; -246.000
411.570;  -73.525; -339.000; -294.000
411.697; -110.350; -758.000; -752.000
411.823; -168.400; -989.000; -999.000
411.949;  -33.750;  -56.000;   17.000
412.076; -104.925; -539.000; -519.000
412.202; -111.375; -758.000; -757.000
412.329; -119.875; -798.000; -752.000
412.455; -100.625; -821.000; -657.000
412.581;   -1.400;  -15.000;  172.000
412.707;  -57.650; -540.000; -457.000
412.834;   23.300;  156.000;  219.000
412.960;  -68.425; -785.000; -784.000
413.086;  -89.025; -743.000; -701.000
413.212;  199.475;  604.000;  578.000
413.339;  -58.250; -685.000; -701.000
413.465;   40.400; -364.000; -310.000
413.591;  -74.800; -757.000; -474.000
413.717;  -55.475; -358.000; -366.000
413.843; -137.200; -839.000; -861.000
413.969;  -58.800;  -47.000; -292.000
414.096; -110.350; -679.000; -679.000
414.222;    6.450;  -33.000;   85.000
414.348;   -1.900; -652.000; -385.000
414.474;  150.800;   38.000;  -52.000
414.600;  -13.650; -126.000; -144.000
414.726;   -0.475;  -96.000;  -55.000
414.852;  -67.900; -365.000; -342.000
414.978;   38.775;  104.000;  -18.000
415.104;   34.500;   38.000;   80.000
415.230;   19.350; -329.000; -330.000
415.356;   42.650; -409.000; -514.000
415.482;  193.425;   13.000;  -35.000
415.608;  246.650; -247.000; -323.000
415.734;  894.725;   67.000;   38.000
415.860;17966.800; -875.000; -767.000
415.986;13532.025; -685.000; -607.000
416.111; 1167.600; -798.000; -652.000
416.237;  227.375; -424.000; -571.000
416.363;  932.850; -765.000; -733.000
416.489; 3595.625; -324.000; -251.000
416.615;  392.625; -707.000; -742.000
416.741;  -25.200; -677.000; -784.000
416.866;  -98.600; -673.000; -736.000
416.992; -127.750; -801.000; -818.000
417.118;  -47.225;  -41.000;  -80.000
417.244;  -59.500; -798.000; -531.000
417.369;  -79.525; -801.000; -612.000
417.495;    2.475; -325.000; -254.000
417.621;  -77.375;-1015.000; -803.000
417.746;   12.825; -579.000; -572.000
417.872;   41.900; -254.000; -144.000
417.998;   34.550; -515.000; -530.000
418.123;  863.300;-1073.000; -845.000
418.249; 4738.225; -512.000; -601.000
418.374;  670.425; -916.000; -824.000
418.500;   91.675; -383.000; -482.000
418.626;  101.600;   70.000;  -59.000
418.751;  127.425; -549.000; -448.000
418.877;  194.850; -637.000; -643.000
419.002; 1543.275; -688.000; -560.000
419.128;10978.700; -930.000; -721.000
419.253; 2735.225; -967.000; -837.000
419.379;  371.575; -391.000; -338.000
419.504;  365.450;  325.000;  415.000
419.629;  429.100; -393.000; -212.000
419.755; 2858.775; -317.000; -254.000
419.880;17618.550;  -98.000;   67.000
420.006; 9923.500; -280.000; -221.000
420.131;26332.600; -662.000; -775.000
420.256; 3946.750; -315.000; -316.000
420.382;  503.250; -665.000; -687.000
420.507;   61.950; -649.000; -778.000
420.632;  198.000; -337.000; -339.000
420.758;  395.825; -251.000; -425.000
420.883;  -63.300; -876.000; -672.000
421.008;  -92.375; -775.000; -619.000
421.133;  -77.850; -509.000; -467.000
421.259;  -26.025; -325.000; -259.000
421.384; -101.050; -834.000; -693.000
421.509;   -1.600;-1052.000; -862.000
421.634; 1789.150; -936.000; -820.000
421.759;  825.875; -359.000; -327.000
421.885;  -28.300; -717.000; -656.000
422.010;  -56.375; -673.000; -542.000
422.135; -139.025; -695.000; -727.000
422.260;   43.500;  340.000;  280.000
422.385;  -41.100;   12.000;  -98.000
422.510;   15.800;  151.000;  -26.000
422.635;   12.725;  -87.000;  -43.000
422.760;  148.550; -766.000; -791.000
422.885;   61.750;  -57.000;  -80.000
423.010;  -23.100; -112.000; -169.000
423.135;  -91.875; -481.000; -561.000
423.260;   14.100; -150.000; -245.000
423.385;   82.025;  476.000;  222.000
423.510;   45.975;   71.000;  -22.000
423.635;  121.125;  133.000;   45.000
423.760;   70.725;  383.000;  328.000
423.885;   63.000;  336.000;  391.000
424.010;   25.625;  -68.000;  -13.000
424.135;  -10.900;    5.000;  -33.000
424.259;  -85.950; -654.000; -457.000
424.384;  -70.600; -279.000; -272.000
424.509;   -5.225; -260.000; -186.000
424.634; -101.775; -761.000; -623.000
424.759;  -13.225; -688.000; -544.000
424.883;  -32.175; -506.000; -527.000
425.008;  172.500; -502.000; -410.000
425.133; 1767.400; -679.000; -653.000
425.258;  866.075; -517.000; -381.000
425.382; 1272.800; -867.000; -774.000
425.507; 3433.650; -487.000; -543.000
425.632;  555.775; -802.000; -663.000
425.756;  402.325; -256.000; -146.000
425.881; 5151.800; -831.000; -857.000
426.006;14281.300; -604.000; -355.000
426.130; 2394.300; -696.000; -508.000
426.255;  305.200; -611.000; -491.000
426.379;  118.100; -189.000; -577.000
426.504;  334.650;  660.000;  544.000
426.629; 3640.300; -519.000; -466.000
426.753; 2637.950;   64.000;  -46.000
426.878;  292.650; -252.000; -288.000
427.002;  141.600; -651.000; -668.000
427.127; 1446.100;  -35.000; -158.000
427.251; 9978.425;  372.000;  401.000
427.375; 3009.750; -191.000; -173.000
427.500; 2918.425; -616.000; -610.000
427.624; 1064.025; -234.000; -400.000
427.749;  133.975; -216.000; -225.000
427.873;  -22.900; -499.000; -412.000
427.997;  -34.450; -222.000; -230.000
428.122;   76.675;  795.000;  703.000
428.246;   93.150;  433.000;  434.000
428.371; -120.775; -869.000; -773.000
428.495;  -82.725; -624.000; -646.000
428.619;  -33.975; -186.000; -117.000
428.743;   25.075;   65.000;  132.000
428.868;   56.850; -732.000; -643.000
428.992; 1893.750; -219.000; -326.000
429.116;  809.775; -329.000; -357.000
429.240;  399.400;  419.000;  426.000
429.365;   -8.275; -454.000; -574.000
429.489;  -27.900; -638.000; -647.000
429.613;   41.625; -236.000; -177.000
429.737;   30.900; -563.000; -432.000
429.861;  256.075; -247.000; -133.000
429.985; 4876.875; -425.000; -305.000
430.109; 5508.025; -770.000; -908.000
430.234;  655.175;   76.000;  -50.000
430.358;   64.275; -250.000; -160.000
430.482;  -62.925; -672.000; -564.000
430.606;  -62.450; -655.000; -375.000
430.730;   57.225; -437.000; -388.000
430.854;  232.175; -909.000; -835.000
430.978;  -38.000; -795.000; -764.000
431.102;  -77.300; -499.000; -422.000
431.226; -101.600; -874.000; -815.000
431.350;   49.650;  345.000;  422.000
431.474;  -48.550; -661.000; -373.000
431.597; -155.200;-1060.000; -848.000
431.721;  -63.125; -276.000; -267.000
431.845; -146.475; -704.000; -472.000
431.969;  -75.450; -304.000; -349.000
432.093;  -93.400; -395.000; -317.000
432.217;  -10.275;   32.000;   82.000
432.341;  -93.800; -523.000; -518.000
432.464;   21.625;   96.000;   40.000
432.588;  315.100; -401.000; -329.000
432.712;  145.250;  -52.000;  -52.000
432.836;   49.300;  213.000;  263.000
432.959;  -39.150; -372.000; -311.000
433.083;   55.625;   11.000;    2.000
433.207;  339.250;  285.000;  930.000
433.330; 4266.700; -391.000; -200.000
433.454; 5441.200; -654.000; -638.000
433.578; 3133.425;  583.000;  278.000
433.701;  637.000; -623.000; -675.000
433.825;  221.750; -292.000; -299.000
433.949;  304.525;   28.000;  -72.000
434.072;  135.075; -410.000; -323.000
434.196;   -2.200; -309.000; -117.000
434.319; 3643.425;25482.000;25124.000
434.443;  740.875; -656.000; -603.000
434.566; 2362.700;  281.000;   62.000
434.690;  420.200; -637.000; -383.000
434.813;   44.200; -251.000; -173.000
434.937;  -74.250; -569.000; -696.000
435.060;  -13.225; -423.000; -332.000
435.184;  549.175; -492.000; -217.000
435.307;  310.900;  159.000;  102.000
435.431;   17.150;  -40.000;   24.000
435.554;  -84.250; -399.000; -240.000
435.677;  -86.550; -350.000; -258.000
435.801;  -53.500;  -25.000;   49.000
435.924;   15.450;    1.000;  -67.000
436.048;  -91.125;-1019.000; -732.000
436.171;  -62.925; -240.000;  -66.000
436.294;  -41.150; -248.000; -229.000
436.417;   58.500; -963.000; -849.000
436.541;  -85.725; -814.000; -840.000
436.664;  -47.750; -242.000; -316.000
436.787;  -32.150;   13.000;  113.000
436.910; -111.500; -792.000; -422.000
437.034;   23.325;  142.000;  143.000
437.157;  125.500;  -11.000;    0.000
437.280;  -16.825; -392.000; -292.000
437.403;  -39.825; -982.000; -869.000
437.526;  994.700; -903.000; -865.000
437.649; 3606.400; -505.000; -332.000
437.772;  615.900; -692.000; -540.000
437.896;  156.325;  700.000;  544.000
438.019;  -84.325; -758.000; -503.000
438.142;  -72.075; -596.000; -506.000
438.265;   32.300; -639.000; -670.000
438.388;  860.150; -520.000; -410.000
438.511;  210.025; -597.000; -394.000
438.634;  -21.350; -247.000; -125.000
438.757; -118.150; -693.000; -619.000
438.880;   -8.525;  -34.000;  -57.000
439.003;  -64.425; -417.000; -437.000
439.126;  -68.075; -287.000; -167.000
439.248;  -65.675;  -98.000; -139.000
439.371;  -43.050;    9.000;  -53.000
439.494;   24.875;  510.000;  439.000
439.617;  -45.075;   65.000;  -88.000
439.740; -185.600; -968.000; -816.000
439.863; -149.250; -755.000; -595.000
439.986; -121.350; -476.000; -431.000
440.108;  -36.850; -161.000; -112.000
440.231; -168.975; -950.000; -836.000
440.354;  -26.725;  -64.000; -150.000
440.477;  107.950; -566.000; -542.000
440.599;   43.375; -200.000; -225.000
440.722; -128.900; -709.000; -586.000
440.845;   73.275;  751.000;  928.000
440.968; -123.800; -415.000; -311.000
441.090;  -63.375; -199.000;  -33.000
441.213; -172.225;-1021.000; -825.000
441.336;  -60.950; -159.000;   -5.000
441.458;  -85.775; -549.000; -396.000
441.581;  -75.050; -628.000; -629.000
441.703;  -72.650; -152.000;   13.000
441.826; -104.675; -557.000; -400.000
441.948;  -51.825;   56.000;   51.000
442.071;   25.025;  555.000;  424.000
442.193; -116.675; -531.000; -485.000
442.316;   14.900;  152.000;   97.000
442.438;   41.725; -233.000;  -10.000
442.561;   87.675;  272.000;  262.000
442.683;  831.300; -809.000; -522.000
442.806; 1801.150;   -8.000;   74.000
442.928;  146.350; -859.000; -604.000
443.051;  -45.975; -577.000; -373.000
443.173;  -92.625; -341.000; -339.000
443.295;  -72.600; -263.000; -371.000
443.418;  -81.900; -321.000;  -29.000
443.540;   17.725; -106.000;   -4.000
443.662; -118.350; -563.000; -465.000
443.785;  -12.775;  335.000;  199.000
443.907;  -96.625; -362.000; -208.000
444.029; -122.300; -767.000; -494.000
444.152; -154.525; -644.000; -554.000
444.274;  -26.825;  -18.000;  -24.000
444.396; -117.275; -461.000; -221.000
444.518; -117.400; -691.000; -454.000
444.640; -102.700; -268.000; -111.000
444.763;  -13.025;  388.000;  249.000
444.885; -117.075; -432.000; -392.000
445.007;  -28.675;   35.000;   86.000
445.129; -126.025; -610.000; -515.000
445.251;  -84.850; -372.000; -439.000
445.373; -135.075; -537.000; -386.000
445.495;    2.725;  242.000;  350.000
445.617;   48.200;  853.000;  753.000
445.739;  -62.025; -215.000;  -97.000
445.861;  -27.750; -245.000; -112.000
445.984;  -22.850; -267.000; -101.000
446.105;  304.400; -418.000; -251.000
446.227;  888.600; -176.000;  -19.000
446.349;   57.325; -358.000; -249.000
446.471;  -71.525; -615.000; -448.000
446.593;  -68.025; -316.000;   19.000
446.715;    8.250;  -67.000;   41.000
446.837;   64.475;  697.000;  832.000
446.959;  -96.450; -457.000; -478.000
447.081; -137.650; -628.000; -518.000
447.203;   58.075;  862.000;  834.000
447.325;  -93.450; -270.000;   42.000
447.446;   -2.550;  286.000;  530.000
447.568; -154.050; -921.000; -803.000
447.690;  -71.525; -236.000; -245.000
447.812; -157.875; -798.000; -519.000
447.933;  -26.925;  155.000;  127.000
448.055;  -73.125; -306.000; -261.000
448.177;  213.050;   31.000;   79.000
448.299;  185.325; -935.000; -727.000
448.420;   45.650;  -25.000;  159.000
448.542;  -41.650;   -3.000;   33.000
448.664;   -4.900;  109.000;  322.000
448.785;  -42.950;  265.000;   83.000
448.907;  -73.100; -614.000; -353.000
449.028;   -9.400; -771.000; -471.000
449.150;   66.325;  492.000;  589.000
449.272; -182.350;-1044.000; -913.000
449.393;   21.925;  612.000;  694.000
449.515; -149.775; -634.000; -581.000
449.636;  -46.075; -264.000; -155.000
449.758;   79.325;  763.000;  622.000
449.879;  -86.400; -498.000; -396.000
450.001;  -86.925; -149.000;  -49.000
450.122;  -37.000;  -95.000;  162.000
450.244;  -27.100;   37.000;  364.000
450.365;  -91.325; -495.000; -301.000
450.486;  -38.250;   80.000;  268.000
450.608;    7.225;  393.000;  326.000
450.729;   39.425;  578.000;  645.000
450.850;  -10.925; -574.000; -466.000
450.972;  559.025; -552.000; -389.000
451.093; 4061.675;  190.000;  588.000
451.214; 1833.975; -516.000; -337.000
451.336;  342.125;  773.000;  579.000
451.457;   36.075;  264.000;  393.000
451.578;  -46.250; -118.000;  -74.000
451.699; -127.325; -546.000; -540.000
451.821;  -63.625; -284.000;  -50.000
451.942;  -23.125;  278.000;  285.000
452.063;   23.125;  228.000;  419.000
452.184;  443.725;  -54.000;  -49.000
452.305;  955.575;  103.000;  170.000
452.427;  102.375; -549.000; -301.000
452.548;  -18.925;   23.000;   79.000
452.669;  -45.775; -257.000;  -89.000
452.790;  -20.725;    3.000;  -18.000
452.911;  -18.775;  195.000;  259.000
453.032;  -53.650; -289.000;  -60.000
453.153;  -38.975;  -29.000;   81.000
453.274;   74.025;  737.000;  868.000
453.395;  -43.575;  -51.000;  175.000
453.516;  148.225; 1317.000; 1388.000
453.637;  -57.075; -205.000; -150.000
453.758;  -37.800;   15.000;   69.000
453.879; -137.525; -462.000; -250.000
454.000;   83.500; 1086.000;  948.000
454.121; -109.125; -554.000; -326.000
454.242; -117.975; -599.000; -383.000
454.362;  -52.875;  -99.000;  114.000
454.483;  -24.050; -309.000; -229.000
454.604;   65.350;  512.000;  580.000
454.725; -118.450; -627.000; -555.000
454.846; -130.325; -474.000; -406.000
454.967;  -32.350;  230.000;  539.000
455.087;  -43.725;  179.000;  153.000
455.208;    3.900;  554.000;  856.000
455.329;  -61.325;  -22.000;   82.000
455.450;   20.100;  473.000;  633.000
455.570;  -83.725; -234.000; -211.000
455.691;  -38.275;  201.000;  407.000
455.812; -107.475; -270.000;  -92.000
455.932;  -72.550;  107.000;  -97.000
456.053;  -88.800;   36.000;   24.000
456.173; -124.600; -433.000; -355.000
456.294; -139.175; -476.000; -303.000
456.415;  -63.925;  -73.000;   70.000
456.535;  -33.325;  297.000;  273.000
456.656;  -44.825;  132.000;  240.000
456.776;  -70.150;    3.000;  298.000
456.897;   -0.900;  308.000;  513.000
457.017;  -87.700; -153.000;   -3.000
457.138; -101.925; -402.000; -249.000
457.258;  -31.000;  263.000;  224.000
457.379;   -5.675;  509.000;  521.000
457.499;  -35.150;  443.000;  432.000
457.620; -117.700; -407.000; -231.000
457.740;  -99.150; -132.000;  -11.000
457.860;  -60.075;   87.000;   44.000
457.981;  -34.550;  132.000;  124.000
458.101;  -58.625;  -89.000;   40.000
458.221;  -22.650;  336.000;  402.000
458.342;  -59.550;   -4.000;  -37.000
458.462;    1.250;  617.000;  352.000
458.582;  -56.375; -302.000; -294.000
458.703;  -14.050;  303.000;  154.000
458.823;  -35.225;   22.000;  163.000
458.943;   20.500;  341.000;  467.000
459.063;  -19.775; 1124.000;  192.000
459.183;  -20.100;  328.000;  313.000
459.304;   14.250;  315.000;  517.000
459.424;  -75.000; -246.000;  -89.000
459.544;  276.975;  388.000;  764.000
459.664;  702.500;  499.000;  506.000
459.784;  282.825; 1004.000; 1175.000
459.904;   47.225;  867.000;  744.000
460.024;   84.525;  867.000;  684.000
460.144;   19.700;  449.000;  554.000
460.264;   -9.000;  515.000;  327.000
460.385; -108.450; -145.000; -119.000
460.505;   32.925;  905.000;  858.000
460.625; -108.175;  -17.000;  -68.000
460.745;  -32.475;  396.000;  541.000
460.864;  -54.100;  153.000;  469.000
460.984;   14.000;  499.000;  573.000
461.104;  132.550; 1656.000; 1775.000
461.224;   28.375;  657.000;  650.000
461.344;  -33.975;  431.000;  360.000
461.464;  -36.075;  258.000;  513.000
461.584;  -16.900;  283.000;  466.000
461.704;  -28.225;   58.000;  108.000
461.824;  -58.850;  238.000;  259.000
461.943;  -36.250;  191.000;  130.000
462.063;  -75.250;    2.000;  324.000
462.183;   41.375;  639.000;  717.000
462.303;  102.325; 1678.000; 1230.000
462.422;   23.575;  781.000;  840.000
462.542;  -35.575;  271.000;  391.000
462.662;   62.075;  353.000;  380.000
462.782;  203.300;  833.000;  572.000
462.901;  411.575;  545.000;  717.000
463.021;  281.150; 1702.000; 1638.000
463.141;   -9.375;  337.000;  770.000
463.260;  -31.100;  614.000;  474.000
463.380;    8.825;  902.000;  884.000
463.499;  -48.950;  342.000;  332.000
463.619;  -28.525;  581.000;  559.000
463.738;  122.650; 1644.000;  903.000
463.858;   30.175;  657.000;  811.000
463.978;  -21.200;  542.000;  396.000
464.097;   60.025;  921.000; 1114.000
464.217;   91.550; 1196.000; 1143.000
464.336;   99.100; 1068.000; 1130.000
464.455;  -41.950;  328.000;  659.000
464.575;   47.850;  597.000;  602.000
464.694;  191.150; 1204.000; 1179.000
464.814;  134.875; 1190.000; 1138.000
464.933;   60.750; 1095.000; 1027.000
465.052;  114.525; 1412.000; 1054.000
465.172;   96.725;  922.000;  799.000
465.291;  152.700; 1376.000; 1320.000
465.410;   14.800;  462.000;  735.000
465.530;   88.200; 1355.000; 1310.000
465.649;   65.750; 1209.000; 1273.000
465.768;  161.575; 1673.000; 1508.000
465.888;   60.200;  941.000; 1174.000
466.007;   83.725; 1335.000; 1440.000
466.126;  -10.300;  721.000;  641.000
466.245;   61.875; 1176.000; 1187.000
466.364;   17.600;  950.000; 1060.000
466.484;   65.375; 1024.000; 1213.000
466.603;   32.500; 1101.000; 1222.000
466.722;  113.625; 1490.000; 1769.000
466.841;   72.500; 1151.000; 1401.000
466.960;   47.750; 1069.000;  972.000
467.079;  128.150; 1971.000; 1786.000
467.198;   56.150; 1238.000; 1181.000
467.317;   74.525; 1768.000; 1162.000
467.436;   63.425; 1709.000; 1261.000
467.555;  124.075; 1796.000; 1746.000
467.674;   50.575; 1227.000; 1329.000
467.793;   38.325; 1376.000; 1374.000
467.912;   92.200; 1658.000; 1539.000
468.031;  139.750; 2038.000; 1930.000
468.150;  152.075; 1842.000; 1837.000
468.269;  203.625; 2313.000; 2090.000
468.388;  198.925; 2168.000; 2339.000
468.507;  241.275; 2884.000; 2903.000
468.626;  278.275; 2555.000; 2541.000
468.744;  136.900; 2018.000; 2174.000
468.863;  201.275; 2312.000; 2523.000
468.982;   78.350; 1503.000; 1555.000
469.101;  225.675; 2788.000; 2692.000
469.220;  144.950; 2333.000; 2176.000
469.338;  249.825; 2935.000; 3051.000
469.457;  201.550; 2719.000; 2545.000
469.576;  335.550; 3953.000; 3784.000
469.695;  212.350; 2877.000; 3066.000
469.813;  439.500; 4148.000; 4192.000
469.932;  414.250; 4255.000; 4485.000
470.051;  402.125; 4075.000; 4161.000
470.169;  788.600; 4470.000; 4338.000
470.288; 1330.650; 4700.000; 4809.000
470.406;  838.225; 5059.000; 5194.000
470.525;  627.525; 6101.000; 5787.000
470.644;  642.200; 6847.000; 6794.000
470.762;  817.650; 8397.000; 7873.000
470.881;  883.600; 8651.000; 8464.000
470.999; 1013.775; 9685.000; 9151.000
471.118; 1112.175;11174.000;10711.000

