
Integration time [ms]: 200.000
Averaging Nr. [scans]: 10
Smoothing Nr. [pixels]: 0
Data measured with spectrometer [name]: 2101012U2
Wave   ;Sample   ;Dark     ;Reference
[nm]   ;[counts] ;[counts] ;[counts] 

197.733;  148.100;  516.000;  404.000
197.879; -183.700; -610.000; -634.000
198.025;  -84.100; -475.000; -420.000
198.171; -191.200; -602.000; -612.000
198.317;  -29.000; -401.000; -316.000
198.463; -153.100; -655.000; -404.000
198.609;   87.000;  181.000; -137.000
198.755; -187.600; -644.000; -410.000
198.901; -126.400; -505.000; -424.000
199.047; -148.400; -615.000; -488.000
199.193;  -55.500; -230.000; -468.000
199.339;  -78.100; -222.000; -369.000
199.485;   90.500;  330.000;  271.000
199.631;   25.200;  227.000;  310.000
199.777;  -55.600; -466.000; -398.000
199.923; -148.300; -610.000; -424.000
200.069;   -3.400; -141.000;  -58.000
200.215;  105.300;  128.000;  453.000
200.361;   79.500;  243.000;  477.000
200.507; -123.200; -600.000; -373.000
200.653;  -60.400; -371.000; -194.000
200.798;  -84.200; -215.000; -125.000
200.944;  -11.100; -146.000;  -41.000
201.090;   74.000;   61.000;  222.000
201.236;   11.400; -116.000; -158.000
201.382;  264.600;  874.000;  903.000
201.528;   14.500;  -58.000;  -48.000
201.674; -126.700; -386.000; -293.000
201.819; -154.000; -540.000; -439.000
201.965; -180.700; -699.000; -447.000
202.111;  -30.300; -273.000; -226.000
202.257;  -86.700; -250.000; -238.000
202.402;   18.700;   13.000;  -36.000
202.548; -108.800; -169.000; -116.000
202.694;  206.700;  410.000; -183.000
202.840; -182.400; -603.000; -531.000
202.985; -148.700; -681.000; -639.000
203.131; -238.300; -832.000; -666.000
203.277;  -42.800; -199.000; -262.000
203.423; -135.600; -434.000; -520.000
203.568;  -68.800; -462.000; -237.000
203.714; -154.100; -535.000; -542.000
203.860; -157.900; -682.000; -641.000
204.005;    0.400;  112.000;  167.000
204.151;  181.500;  561.000;  556.000
204.296; -106.700; -354.000; -221.000
204.442; -107.600; -600.000; -547.000
204.588; -190.800; -592.000; -579.000
204.733;   63.900;  178.000;  168.000
204.879; -285.400;-1018.000; -822.000
205.025;   40.800;  -99.000;  126.000
205.170;   -8.300;  -17.000;   94.000
205.316;  175.200;  438.000;  661.000
205.461; -184.400; -698.000; -554.000
205.607;  211.800;  609.000;  665.000
205.752; -176.200; -626.000; -551.000
205.898;  -87.600; -501.000; -391.000
206.043; -106.600; -578.000; -506.000
206.189;  -77.900; -243.000; -285.000
206.334;  126.700;  554.000;  606.000
206.480;  186.800;  409.000;  239.000
206.625; -184.000; -529.000; -552.000
206.771;  -71.100; -451.000; -373.000
206.916;  -52.200; -210.000; -537.000
207.062; -114.900; -545.000; -591.000
207.207; -130.900; -546.000; -443.000
207.353;  125.200;  185.000;  460.000
207.498;   25.700;  196.000;   85.000
207.643;  -99.800; -501.000; -370.000
207.789; -275.800;-1069.000; -910.000
207.934; -162.200; -665.000; -713.000
208.080;  -71.700; -154.000;   66.000
208.225;   -1.800;  -22.000;  -57.000
208.370; -180.500; -727.000; -619.000
208.516; -142.200; -741.000; -487.000
208.661;  -68.100; -127.000;  -69.000
208.806;  -42.500; -165.000; -171.000
208.952; -280.100;-1044.000; -731.000
209.097;  141.400;  378.000;  349.000
209.242;  -90.500; -307.000; -382.000
209.387;   87.500;  392.000;  350.000
209.533; -112.800; -321.000; -350.000
209.678;  198.800;  472.000;  543.000
209.823; -129.600; -408.000; -310.000
209.969; -193.400; -860.000; -757.000
210.114; -206.300; -907.000; -719.000
210.259; -216.900; -939.000; -889.000
210.404;  -18.500; -171.000;  103.000
210.549;   45.400;  108.000;    3.000
210.695;  -62.700;   -3.000;  -95.000
210.840;   85.100;   94.000;   67.000
210.985; -149.100; -484.000; -303.000
211.130;  188.700;  268.000;  406.000
211.275;   34.400;  207.000;  199.000
211.420;  -85.600; -300.000; -289.000
211.566; -160.200; -536.000; -489.000
211.711;   80.500;  218.000;  157.000
211.856; -154.400; -545.000; -519.000
212.001;   87.200;  151.000;   44.000
212.146;   -1.600;  153.000;   49.000
212.291;  -37.300; -210.000; -186.000
212.436;  -53.300; -280.000;   -6.000
212.581; -161.400; -685.000; -653.000
212.726; -145.500; -487.000; -538.000
212.871;  -91.500; -552.000; -217.000
213.016; -283.400;-1172.000;-1029.000
213.161;  138.600;  406.000;  291.000
213.306; -196.200; -435.000; -577.000
213.451; -228.900; -778.000; -689.000
213.596; -104.800; -455.000; -347.000
213.741; -117.700; -448.000; -538.000
213.886; -171.100; -498.000; -517.000
214.031;  -10.600; -294.000; -124.000
214.176; -112.800; -408.000; -341.000
214.321;  -20.400; -296.000; -157.000
214.466;  -56.000; -163.000;  -43.000
214.611;   29.500;  -61.000;  -10.000
214.756; -246.000; -948.000; -858.000
214.901;  -20.300; -388.000; -226.000
215.046; -276.700; -797.000; -825.000
215.191;   69.800;  128.000;   35.000
215.336;  -32.600; -157.000;  -19.000
215.480; -131.900; -684.000; -505.000
215.625;  -18.000; -175.000;  -19.000
215.770; -168.000; -757.000; -662.000
215.915;   -9.100;   -5.000;  -97.000
216.060;  -10.200; -113.000;  -21.000
216.205; -237.100; -731.000; -779.000
216.349; -135.700; -470.000; -533.000
216.494; -270.800; -939.000; -867.000
216.639; -241.900; -823.000; -888.000
216.784; -179.300; -577.000; -525.000
216.929;  128.300;  392.000;  281.000
217.073;  -47.700; -244.000;  -31.000
217.218;   37.800;   78.000;  -47.000
217.363; -222.800; -656.000; -618.000
217.507; -172.300; -623.000; -588.000
217.652; -275.500; -845.000; -874.000
217.797; -186.100; -708.000; -659.000
217.942; -216.900; -856.000; -720.000
218.086;  182.100;  608.000;  539.000
218.231;  -53.900; -174.000;  -26.000
218.376;  -54.600; -337.000; -229.000
218.520;  -25.600;  -41.000;   96.000
218.665;  -33.200; -338.000; -204.000
218.810;  -95.300; -275.000; -233.000
218.954;   41.600;  201.000;   35.000
219.099; -266.700; -713.000; -963.000
219.243; -153.400; -589.000; -554.000
219.388;  -73.200; -264.000; -136.000
219.532;  -23.000; -116.000; -116.000
219.677; -205.100; -564.000; -521.000
219.822;   18.000;   33.000;   89.000
219.966;   28.300;   17.000;  -99.000
220.111;  -54.700; -328.000;  -40.000
220.255; -223.300; -797.000; -750.000
220.400;  -39.500; -180.000; -146.000
220.544; -174.000; -516.000; -450.000
220.689;  -99.600; -422.000; -451.000
220.833;  -75.400; -123.000;  -58.000
220.978;  -78.100; -393.000; -563.000
221.122;   52.100;  319.000;  307.000
221.267; -198.800; -906.000; -837.000
221.411; -151.100; -478.000; -394.000
221.555;  -22.100; -104.000;  -23.000
221.700; -106.400; -329.000; -222.000
221.844;   82.100;  255.000;  272.000
221.989; -101.600; -328.000; -311.000
222.133;  -59.200; -289.000; -307.000
222.277;  -21.200;    5.000;   78.000
222.422;   49.100;  227.000;  113.000
222.566; -100.300; -381.000; -214.000
222.711; -111.100; -414.000; -479.000
222.855; -152.600; -643.000; -586.000
222.999; -119.000; -642.000; -717.000
223.144;  -40.400; -195.000; -194.000
223.288;  127.000;  423.000;  251.000
223.432;   27.800;  184.000;  230.000
223.576;   53.800;  152.000;  -21.000
223.721;   71.800;  364.000;  273.000
223.865;  -88.700; -472.000; -475.000
224.009;  418.600; 1673.000; 1631.000
224.153; -146.700; -660.000; -671.000
224.298; -112.000; -531.000; -489.000
224.442;  -17.000;  -74.000;  -33.000
224.586;   14.500; -169.000; -106.000
224.730; -172.400; -858.000; -670.000
224.875; -242.500; -739.000; -688.000
225.019;   14.200;  102.000;  188.000
225.163;  119.800;  208.000;  341.000
225.307;   87.800;   97.000;  -91.000
225.451;  102.800;  360.000;  481.000
225.595;  123.700;  264.000;  176.000
225.739;  -35.400; -170.000;  -94.000
225.884;   50.700;   86.000;    5.000
226.028; -236.800; -760.000; -626.000
226.172;  -53.100; -260.000; -273.000
226.316; -281.600; -941.000; -902.000
226.460; -129.400; -645.000; -493.000
226.604;  -93.100; -406.000; -400.000
226.748; -205.200; -836.000; -733.000
226.892;  -56.100; -227.000; -181.000
227.036;  -78.100; -537.000; -447.000
227.180; -127.300; -551.000; -375.000
227.324; -117.300; -561.000; -580.000
227.468; -230.600; -819.000; -717.000
227.612;    4.000;  242.000;  -28.000
227.756; -204.900; -845.000; -698.000
227.900;  130.800;  342.000;  441.000
228.044; -116.200; -509.000; -290.000
228.188;  159.900;  448.000;  568.000
228.332; -171.500; -546.000; -472.000
228.476;  -33.500; -223.000; -149.000
228.620;  -72.900; -210.000; -150.000
228.764;  171.500;  431.000;  349.000
228.908;  -39.300; -155.000;   30.000
229.052; -136.900; -615.000; -528.000
229.195;  -45.000; -172.000;   13.000
229.339;  -32.100; -235.000; -305.000
229.483;  -66.000;    5.000; -162.000
229.627;   14.600; -156.000;  139.000
229.771;  -96.100; -218.000; -294.000
229.915;   40.400;  230.000;   79.000
230.059; -204.400; -648.000; -663.000
230.202;  -66.400; -370.000; -317.000
230.346;  -41.400; -107.000;  107.000
230.490; -120.200; -489.000; -521.000
230.634; -218.600; -736.000; -553.000
230.777;  188.700;  478.000;  509.000
230.921; -134.900; -450.000; -359.000
231.065;  -83.800; -246.000; -286.000
231.209;   59.700;  261.000;  265.000
231.352;   63.800;   54.000;   40.000
231.496;   14.800;  568.000;  188.000
231.640; -165.100; -693.000; -621.000
231.783;  147.900;  546.000;  525.000
231.927;  -87.800; -294.000; -365.000
232.071; -243.500; -962.000; -736.000
232.214; -221.200; -980.000; -764.000
232.358; -245.000; -683.000; -599.000
232.502;   53.400;  -19.000;    7.000
232.645; -299.000;-1090.000; -927.000
232.789;  -45.400; -257.000; -218.000
232.933;  -98.300; -407.000; -224.000
233.076; -224.400;-1038.000; -897.000
233.220; -229.100; -752.000; -777.000
233.363; -146.300; -669.000; -477.000
233.507;  114.500;  371.000;  129.000
233.650; -175.800; -764.000; -834.000
233.794;  112.700;  438.000;  461.000
233.938; -125.900; -530.000; -362.000
234.081;  -33.200;  -93.000;   31.000
234.225; -128.800; -631.000; -539.000
234.368; -245.500; -773.000; -723.000
234.512;  -82.300; -385.000; -299.000
234.655; -178.900; -582.000; -555.000
234.798; -126.200; -493.000; -466.000
234.942; -273.200; -884.000;-1002.000
235.085; -122.400; -651.000; -443.000
235.229; -174.500; -405.000; -410.000
235.372;  -83.500; -247.000; -191.000
235.516; -128.100; -397.000; -321.000
235.659;   62.900;   92.000;  121.000
235.802;   -6.300;  -38.000;  -22.000
235.946;   87.400;  335.000;  215.000
236.089;   52.000;  126.000;  250.000
236.233;  123.800;  275.000;  298.000
236.376; -101.000; -235.000; -378.000
236.519;  -53.400; -297.000; -319.000
236.663;  -32.200; -215.000; -117.000
236.806; -239.900;-1029.000; -999.000
236.949;  140.500;  543.000;  431.000
237.092;  154.600;  412.000;  391.000
237.236; -178.900; -589.000; -502.000
237.379;  175.100;  352.000;  428.000
237.522; -262.900; -879.000; -768.000
237.666;  -51.900; -271.000;   18.000
237.809; -277.200; -851.000; -823.000
237.952;  112.700;  469.000;  271.000
238.095; -140.200; -447.000; -442.000
238.238;  207.500;  688.000;  700.000
238.382;   -6.200;  166.000;  103.000
238.525; -127.300; -598.000; -511.000
238.668; -306.000;-1060.000; -985.000
238.811; -154.600; -638.000; -643.000
238.954; -113.500; -483.000; -334.000
239.097;  254.900;  617.000;  664.000
239.241;   33.600;  394.000;  326.000
239.384;  -52.100; -254.000; -214.000
239.527; -107.700; -424.000; -224.000
239.670; -270.600; -994.000;-1091.000
239.813; -214.300; -696.000; -658.000
239.956;  206.300;  579.000;  473.000
240.099; -243.800; -778.000; -725.000
240.242;  146.200;  428.000;  432.000
240.385;   95.900;  466.000;  450.000
240.528; -139.800; -706.000; -473.000
240.671;   36.800;  189.000;  134.000
240.814;  -59.400; -441.000; -158.000
240.957; -206.400; -767.000; -578.000
241.100; -155.400; -779.000; -755.000
241.243; -324.200;-1234.000; -893.000
241.386; -134.300; -508.000; -379.000
241.529; -189.600; -735.000; -547.000
241.672; -109.100; -566.000; -495.000
241.815; -234.200; -832.000; -808.000
241.958;  -56.200; -125.000; -182.000
242.101; -152.500; -545.000; -390.000
242.244;  -92.300; -270.000; -325.000
242.387;  -95.100; -304.000; -246.000
242.530;  127.400;  470.000;  134.000
242.673;  -92.100; -381.000; -309.000
242.815; -243.000; -925.000; -899.000
242.958; -140.500; -482.000; -381.000
243.101;   13.800;  132.000;  187.000
243.244; -175.700; -564.000; -521.000
243.387;  -85.500; -313.000; -316.000
243.530; -217.300; -657.000; -674.000
243.672;   27.600;   43.000;  -92.000
243.815;  -94.300; -355.000; -283.000
243.958;   41.900;   98.000;  -26.000
244.101;    5.700;   59.000;  -16.000
244.243;    2.800;  -47.000;  101.000
244.386; -214.300; -761.000; -630.000
244.529;  -39.900; -132.000; -139.000
244.672; -326.100;-1154.000; -951.000
244.814; -189.500; -621.000; -794.000
244.957; -120.200; -380.000; -304.000
245.100; -137.600; -489.000; -489.000
245.242; -121.500; -387.000; -374.000
245.385;   34.300;  -59.000;  -39.000
245.528; -275.800; -871.000; -705.000
245.670;  249.100;  612.000;  634.000
245.813; -174.500; -599.000; -547.000
245.956;  -40.300; -324.000; -275.000
246.098; -154.800; -508.000; -650.000
246.241;   45.100;  194.000;   48.000
246.383;  -42.000; -119.000;  -73.000
246.526; -140.600; -454.000; -525.000
246.669; -228.600; -889.000; -780.000
246.811;   41.100;  172.000;   -1.000
246.954; -127.300; -512.000; -426.000
247.096;  -27.600;  -84.000;   -6.000
247.239; -150.400; -482.000; -445.000
247.381; -136.300; -647.000; -488.000
247.524;  145.500;  645.000;  679.000
247.666;    3.600;   58.000;   11.000
247.809; -247.800; -887.000; -691.000
247.951;    6.000;  -75.000;  138.000
248.094;   71.000;  432.000;  308.000
248.236; -302.500;-1262.000;-1238.000
248.378;  -20.500; -356.000;  -81.000
248.521;  -34.100; -334.000; -337.000
248.663;  -88.300; -236.000; -267.000
248.806;  -56.000; -300.000; -266.000
248.948; -180.500; -886.000; -763.000
249.090;  -63.500; -428.000; -398.000
249.233;  -98.400; -344.000; -381.000
249.375;  -88.800; -474.000; -451.000
249.518;  -47.000;  -83.000; -133.000
249.660;    8.600; -103.000;    3.000
249.802; -360.000;-1303.000;-1189.000
249.945; -146.500; -612.000; -540.000
250.087; -240.400; -834.000; -768.000
250.229;  -93.600; -362.000; -480.000
250.371; -168.400; -494.000; -439.000
250.514;  -86.400; -310.000; -244.000
250.656; -148.800;   69.000;  102.000
250.798; -234.200; -849.000; -800.000
250.940; -140.200; -322.000; -322.000
251.083;  -15.100; -335.000; -111.000
251.225;  123.700;  338.000;  310.000
251.367;  -50.500; -274.000; -373.000
251.509;  -66.400; -265.000; -210.000
251.651; -166.700; -731.000; -671.000
251.794;  108.700;  538.000;  632.000
251.936; -219.900; -821.000; -747.000
252.078; -161.900; -540.000; -461.000
252.220; -120.600; -645.000; -477.000
252.362;  166.500;  344.000;  462.000
252.504; -125.700; -677.000; -584.000
252.646; -257.000; -875.000; -722.000
252.788;    5.000;   14.000; -128.000
252.931;  -49.300; -257.000; -253.000
253.073;  -77.500; -376.000; -317.000
253.215;   -6.500;  141.000;  122.000
253.357;  -19.200;   82.000; -153.000
253.499;  -97.200; -374.000; -234.000
253.641; -171.600; -749.000; -594.000
253.783; -170.300; -609.000; -527.000
253.925; -167.600; -586.000; -591.000
254.067; -205.100; -744.000; -667.000
254.209;  -43.300; -391.000; -259.000
254.351; -277.200; -865.000; -883.000
254.493; -109.100; -441.000; -417.000
254.635; -233.400; -936.000; -818.000
254.777; -170.800; -752.000; -687.000
254.918; -176.100; -512.000; -430.000
255.060; -111.700; -551.000; -395.000
255.202; -126.700; -473.000; -261.000
255.344; -135.300; -658.000; -455.000
255.486; -146.300; -471.000; -406.000
255.628; -187.800; -780.000; -781.000
255.770; -189.700; -676.000; -536.000
255.912; -132.500; -559.000; -468.000
256.053; -160.100; -730.000; -508.000
256.195;  313.900; 1008.000;  903.000
256.337; -180.800; -861.000; -595.000
256.479;  187.100;  532.000;  416.000
256.621;  -71.400; -394.000; -212.000
256.762; -190.100; -789.000; -742.000
256.904;   97.000;  485.000;  487.000
257.046;  -86.000; -381.000; -271.000
257.188;  -88.800; -351.000; -264.000
257.329; -132.800; -525.000; -464.000
257.471; -231.100; -939.000; -807.000
257.613;  -87.800; -584.000; -498.000
257.755; -300.200;-1073.000; -982.000
257.896;  104.200;  286.000;  392.000
258.038; -104.900; -403.000; -352.000
258.180;  -86.300; -354.000; -279.000
258.321; -156.800; -581.000; -457.000
258.463;   46.400;  -71.000;  133.000
258.605; -172.100; -562.000; -570.000
258.746; -214.100; -886.000; -772.000
258.888; -333.500;-1026.000;-1020.000
259.029;   45.200;  121.000;   -8.000
259.171; -181.000; -614.000; -550.000
259.313;    0.400;  -49.000;  -47.000
259.454; -178.200; -536.000; -414.000
259.596; -115.400; -483.000; -390.000
259.737; -151.000; -590.000; -474.000
259.879;   97.300;  217.000;  311.000
260.020;  214.400;  901.000;  636.000
260.162;    5.800; -146.000; -253.000
260.303; -227.800; -768.000; -687.000
260.445; -154.400; -609.000; -613.000
260.586;   70.200;  392.000;  157.000
260.728;  -45.800; -360.000; -248.000
260.869; -109.900; -350.000; -343.000
261.011;  195.100;  706.000;  537.000
261.152; -116.000; -479.000; -319.000
261.293; -139.900; -576.000; -595.000
261.435;  -53.700; -219.000; -184.000
261.576;  -94.700; -455.000; -325.000
261.718;  105.300;  420.000;  470.000
261.859; -246.700; -940.000; -949.000
262.000; -260.400; -951.000;-1016.000
262.142;  -14.700;  -52.000;  -60.000
262.283; -232.800; -808.000; -691.000
262.424; -167.700; -666.000; -625.000
262.566; -319.100;-1161.000; -983.000
262.707; -198.800; -840.000; -830.000
262.848; -262.700; -769.000; -726.000
262.990;  -42.900; -362.000; -345.000
263.131;  193.700;  650.000;  681.000
263.272;   21.000;  -61.000;  -41.000
263.413; -214.200; -589.000; -561.000
263.555; -108.000; -669.000; -143.000
263.696; -185.700; -550.000; -641.000
263.837;  -79.800; -449.000; -551.000
263.978;  -18.400;   -5.000;  -77.000
264.119;  -49.700; -283.000; -264.000
264.261; -239.300; -847.000; -630.000
264.402;   36.200;   33.000;   40.000
264.543; -165.500; -509.000; -524.000
264.684;    7.100;   61.000;  -50.000
264.825; -143.700; -816.000; -538.000
264.966;   48.800;  -84.000;  -67.000
265.107; -244.400; -646.000; -670.000
265.248; -240.200; -825.000; -812.000
265.390;   19.600;  152.000;   -9.000
265.531;  -34.500; -238.000; -107.000
265.672; -155.100; -557.000; -630.000
265.813;  167.000;  563.000;  439.000
265.954; -301.700; -959.000; -940.000
266.095;    1.800; -372.000; -322.000
266.236; -206.800; -686.000; -548.000
266.377;  -82.300; -243.000; -297.000
266.518; -147.200; -619.000; -547.000
266.659;   73.100;  170.000;  268.000
266.800;  -14.800;   83.000;   85.000
266.941; -122.600; -487.000; -478.000
267.082;   65.900;  354.000;   99.000
267.223;  -87.000; -344.000; -273.000
267.364; -225.400; -892.000; -686.000
267.504;   21.200;    3.000;  135.000
267.645;  -12.700;  160.000;   67.000
267.786;  -17.600; -147.000;  -86.000
267.927; -122.800; -473.000; -379.000
268.068;  -10.500; -186.000;  -61.000
268.209; -107.200; -175.000; -413.000
268.350; -104.700; -388.000; -532.000
268.490; -194.100; -648.000; -521.000
268.631;   93.900;  127.000;  225.000
268.772; -215.800; -874.000; -647.000
268.913;  -93.400; -328.000; -476.000
269.054;  -19.700; -117.000;   12.000
269.194;  -65.700; -418.000; -402.000
269.335; -313.500;-1137.000;-1074.000
269.476;   -8.000;   33.000;  -35.000
269.617;  -78.500; -347.000; -392.000
269.757; -159.500; -713.000; -646.000
269.898; -204.200; -856.000; -613.000
270.039;  -72.600; -415.000; -405.000
270.180; -282.700; -952.000; -816.000
270.320;    7.800; -190.000; -250.000
270.461;  -86.700; -277.000; -249.000
270.602;    8.700; -186.000; -156.000
270.742; -253.000; -868.000; -943.000
270.883;  -68.200; -442.000; -390.000
271.023; -103.900; -358.000; -357.000
271.164; -113.800; -607.000; -528.000
271.305; -194.700; -666.000; -654.000
271.445; -157.700; -722.000; -683.000
271.586; -145.700; -462.000; -283.000
271.726;  -84.700; -397.000; -322.000
271.867; -109.800; -594.000; -534.000
272.008;  332.700; -473.000; -285.000
272.148;  259.100;  462.000;  468.000
272.289;   65.300; -113.000; -181.000
272.429;   43.400;   19.000;  185.000
272.570; -151.300; -633.000; -737.000
272.710; -217.100; -825.000; -775.000
272.851;   45.200;  113.000; -130.000
272.991; -349.700;-1173.000;-1077.000
273.131; -124.700; -419.000; -459.000
273.272; -179.100; -683.000; -723.000
273.412;    5.600; -143.000;  -31.000
273.553; -101.400; -488.000; -507.000
273.693;  311.200;  913.000;  858.000
273.834; -182.700; -894.000; -692.000
273.974; -115.300; -664.000; -615.000
274.114; -197.500; -772.000; -560.000
274.255;  179.000;  414.000;  373.000
274.395;   26.600; -180.000; -125.000
274.535;  120.600;  199.000;  350.000
274.676;   57.600;  225.000;   94.000
274.816;   43.200;  110.000;   34.000
274.956; -165.600; -624.000; -690.000
275.097; -131.800;-1014.000; -922.000
275.237; -224.300; -913.000; -803.000
275.377; -178.700; -778.000; -689.000
275.517; -276.600; -878.000; -937.000
275.658;  -82.000; -590.000; -555.000
275.798; -106.100; -606.000; -413.000
275.938;   58.800;  215.000;  323.000
276.078; -190.300; -626.000; -395.000
276.218;   73.600;   99.000;  104.000
276.359; -259.000;-1026.000;-1024.000
276.499; -114.100; -605.000; -446.000
276.639;  -47.800; -305.000; -151.000
276.779;  -50.100; -475.000; -357.000
276.919; -205.400; -783.000; -624.000
277.059;  -20.500; -261.000; -212.000
277.199;  -92.400; -357.000; -259.000
277.340;  124.900;  287.000;  175.000
277.480; -231.200; -840.000; -693.000
277.620;  124.700;  192.000;   16.000
277.760; -430.700;-1533.000;-1294.000
277.900;   69.800;  113.000;   33.000
278.040;   38.300;  137.000;  159.000
278.180;  127.000;  270.000;  170.000
278.320;   20.400;   21.000;   56.000
278.460; -111.300; -443.000; -469.000
278.600; -173.900; -708.000; -598.000
278.740;  142.500;  448.000;  224.000
278.880; -123.300; -768.000; -791.000
279.020;   92.000; -194.000; -144.000
279.160; -172.000; -672.000; -595.000
279.300; -229.300; -926.000; -873.000
279.440; -181.900; -709.000; -622.000
279.579;  -55.800;-1014.000; -929.000
279.719;  -92.900; -410.000; -394.000
279.859;  165.900;   -4.000;   41.000
279.999;   73.000; -208.000;  101.000
280.139;   -9.300; -435.000; -387.000
280.279; -175.200; -708.000; -745.000
280.419;   -6.700; -229.000; -147.000
280.559;  -48.400; -259.000; -180.000
280.698; -138.500; -790.000; -639.000
280.838; -196.100; -778.000; -800.000
280.978; -152.200; -846.000; -790.000
281.118; -240.700; -811.000; -704.000
281.257;   41.500;   24.000;    6.000
281.397; -214.700;-1094.000; -960.000
281.537; -158.000; -599.000; -712.000
281.677;  -46.200; -150.000; -101.000
281.816; -136.300; -700.000; -630.000
281.956;  -74.900; -193.000; -257.000
282.096;  -95.900; -539.000; -396.000
282.235; -184.800; -672.000; -638.000
282.375;   15.000; -243.000;  -98.000
282.515; -190.000; -715.000; -707.000
282.654;  103.800;   29.000;  106.000
282.794;   97.300;  388.000;  244.000
282.934;  -71.600; -530.000; -491.000
283.073; -248.300;-1030.000; -857.000
283.213;  -86.600; -460.000; -467.000
283.353;  -46.000; -408.000; -349.000
283.492;  -29.500; -264.000; -296.000
283.632;  -65.000; -254.000; -168.000
283.771; -151.100; -859.000; -730.000
283.911;  -86.500; -369.000; -260.000
284.050; -202.000; -794.000; -748.000
284.190; -312.900;-1229.000;-1096.000
284.329; -254.600;-1055.000; -964.000
284.469; -113.600; -516.000; -591.000
284.608;  -78.500; -559.000; -598.000
284.748; -180.800; -614.000; -570.000
284.887;   -7.400;  -87.000;  -20.000
285.027; -250.000; -844.000; -892.000
285.166;  -41.100; -192.000; -249.000
285.306;   48.200; -116.000;  -33.000
285.445;  -37.300; -229.000; -343.000
285.584; -177.000; -630.000; -494.000
285.724;  -58.800; -282.000; -322.000
285.863; -203.400; -857.000; -507.000
286.002;  -29.800; -366.000; -276.000
286.142; -199.000; -715.000; -622.000
286.281; -131.500; -525.000; -493.000
286.420; -153.700; -554.000; -417.000
286.560;  236.600;  653.000;  623.000
286.699; -238.500; -958.000; -912.000
286.838; -122.100; -590.000; -591.000
286.978; -167.900; -533.000; -537.000
287.117; -249.200;-1085.000; -950.000
287.256;  -54.700; -228.000; -211.000
287.395;  -49.900; -197.000; -378.000
287.535;  -91.700; -370.000; -298.000
287.674; -108.000; -509.000; -484.000
287.813;  136.900;  661.000;  533.000
287.952; -237.400;-1010.000; -871.000
288.091; -272.400;-1049.000; -915.000
288.231;   72.500;   13.000;   15.000
288.370; -364.700;-1217.000;-1200.000
288.509; -142.100; -728.000; -645.000
288.648; -150.400; -770.000; -548.000
288.787;  -13.600; -243.000;  -87.000
288.926; -132.200; -454.000; -475.000
289.065;  306.800;  859.000;  672.000
289.204;  -69.900; -377.000; -217.000
289.344; -149.300; -791.000; -690.000
289.483;   72.200;  416.000;  304.000
289.622;    6.400; -291.000; -149.000
289.761;   -9.900; -309.000; -166.000
289.900; -180.000; -785.000; -626.000
290.039;   21.200;  -12.000;  -95.000
290.178;    0.700; -274.000; -180.000
290.317; -162.900; -618.000; -479.000
290.456; -121.600; -463.000; -451.000
290.595; -294.200; -961.000; -833.000
290.734; -237.100; -904.000; -891.000
290.873; -108.900; -456.000; -420.000
291.011; -159.500; -833.000; -843.000
291.150; -219.500; -770.000; -682.000
291.289;    3.400; -343.000; -110.000
291.428; -171.200; -599.000; -480.000
291.567;  -61.700; -370.000; -442.000
291.706;  -27.000;  109.000;  154.000
291.845; -120.700; -597.000; -505.000
291.984; -333.000;-1234.000;-1061.000
292.122;  202.000;  602.000;  582.000
292.261;  129.400;  620.000;  463.000
292.400;   33.700; -144.000;  211.000
292.539; -233.300; -959.000; -813.000
292.678;  -17.500; -325.000; -300.000
292.816; -296.900;-1136.000; -965.000
292.955; -152.000; -844.000; -684.000
293.094;  -74.500; -173.000; -337.000
293.233;  -60.200; -556.000; -400.000
293.371;  -47.200; -225.000;  -84.000
293.510; -184.600; -866.000; -780.000
293.649; -267.000; -959.000; -924.000
293.787; -113.000;-1083.000;-1012.000
293.926;   45.000; -113.000;  -32.000
294.065;  -65.100; -379.000; -290.000
294.203;  120.500;  298.000;  406.000
294.342;  106.500;   74.000;  156.000
294.481;11553.600;51180.000; -836.000
294.619;  -33.600; -425.000; -582.000
294.758; -272.900;-1230.000;-1137.000
294.896;  179.500; -125.000;    5.000
295.035; -240.600;-1040.000;-1006.000
295.174; -213.800;-1082.000; -954.000
295.312;  -72.800; -323.000; -203.000
295.451;   12.100; -307.000; -428.000
295.589;  -99.800; -389.000; -518.000
295.728;   84.700; -292.000; -165.000
295.866;   17.100;  -36.000;  -51.000
296.005;  -96.700; -584.000; -341.000
296.143; -139.700; -558.000; -596.000
296.282; -157.900; -957.000; -881.000
296.420; -131.500; -657.000; -557.000
296.559;  -91.700; -892.000; -633.000
296.697;   24.700; -847.000; -665.000
296.835;  127.000;-1141.000;-1002.000
296.974;  117.100;  -23.000;   39.000
297.112;   85.900; -443.000; -504.000
297.251; -130.800; -815.000; -755.000
297.389;  178.700; -576.000; -438.000
297.527;  111.200; -145.000;  -83.000
297.666;  -30.500; -486.000; -438.000
297.804;  -86.300; -404.000; -264.000
297.942;   20.900; -136.000; -161.000
298.081;   50.300; -183.000;   63.000
298.219;  175.100;  -17.000;  -19.000
298.357;   82.000; -144.000;  -71.000
298.495;   77.900; -810.000; -812.000
298.634;  181.500;  245.000;  219.000
298.772;  134.700; -220.000; -338.000
298.910;   -7.100; -309.000; -182.000
299.048;   22.500; -130.000; -153.000
299.187;  -46.300; -350.000; -250.000
299.325;  133.400;   52.000;  122.000
299.463;  106.700; -389.000; -299.000
299.601;  249.600; -327.000; -271.000
299.739; -215.900; -908.000; -883.000
299.877; -120.500; -791.000; -703.000
300.016; -127.100;-1095.000; -935.000
300.154;  325.400;  -19.000; -161.000
300.292;  118.300; -428.000; -348.000
300.430;   87.600; -408.000; -291.000
300.568; -250.200; -940.000; -874.000
300.706;  -54.300; -366.000; -469.000
300.844; -153.500;-1108.000; -979.000
300.982;  274.300;  246.000;  282.000
301.120; -189.500; -965.000; -866.000
301.258;  -97.200; -812.000; -705.000
301.396;   55.000;  104.000;  -41.000
301.534;  169.400; -218.000; -293.000
301.672;   -6.700; -664.000; -521.000
301.810;   62.300; -613.000; -545.000
301.948;  277.700;   53.000;  149.000
302.086; 1098.400; -250.000;  -32.000
302.224; 1722.300; -610.000; -585.000
302.362;  112.900; -558.000; -622.000
302.500;  -50.700; -923.000; -893.000
302.638;  308.100;  128.000;  245.000
302.776;  -19.200; -352.000; -408.000
302.913;  150.200;  447.000;  236.000
303.051;   -8.800;  -86.000;  -23.000
303.189;  161.500;   90.000;  118.000
303.327;  -45.900; -341.000; -256.000
303.465; -120.500; -832.000; -588.000
303.603; -171.700; -805.000; -604.000
303.740;  235.400;  417.000;  241.000
303.878;   67.600; -800.000; -759.000
304.016; -153.300; -915.000; -790.000
304.154; -229.900;-1123.000;-1152.000
304.291;  -55.300; -505.000; -554.000
304.429;   30.800;  102.000;   74.000
304.567; -236.500; -908.000; -893.000
304.705;  -90.800; -408.000; -515.000
304.842;  181.900; -616.000; -540.000
304.980;  142.600;  215.000;   35.000
305.118;  153.100; -367.000; -365.000
305.255; -135.700; -945.000; -927.000
305.393;  153.400;  178.000;  239.000
305.531; -206.200;-1173.000; -956.000
305.668;  -92.800; -663.000; -582.000
305.806;  149.200; -358.000; -439.000
305.943;  222.700; -629.000; -637.000
306.081;  133.000; -378.000; -267.000
306.219; -178.300; -863.000; -748.000
306.356;   35.000;  158.000;   27.000
306.494;  335.500;  981.000;  761.000
306.631;    3.100;  -11.000;  -55.000
306.769;   76.900; -613.000; -485.000
306.906;   -6.800; -284.000; -258.000
307.044;  -43.000; -473.000; -488.000
307.181; -102.000; -410.000; -332.000
307.319;  141.300;  112.000;   87.000
307.456; -318.000;-1191.000;-1153.000
307.594; -177.200; -980.000; -727.000
307.731;   19.200; -371.000; -164.000
307.868;   52.100;  -15.000;   20.000
308.006; -258.800; -961.000; -847.000
308.143;  -78.500; -618.000; -330.000
308.281;  410.100;  -37.000; -254.000
308.418;   63.000; -748.000; -640.000
308.555; -117.200; -400.000; -250.000
308.693;  -83.100; -577.000; -573.000
308.830; -183.300; -712.000; -657.000
308.967;   53.500; -215.000;  -95.000
309.105;  -50.900; -507.000; -396.000
309.242;  156.500; -468.000; -367.000
309.379;  748.400; -577.000; -655.000
309.517;  -48.900; -936.000; -948.000
309.654; -152.500; -910.000; -734.000
309.791;  -90.300; -662.000; -580.000
309.928; -204.200; -977.000; -914.000
310.065;  394.100;  819.000;  697.000
310.203;   16.000; -825.000; -850.000
310.340;   31.900; -465.000; -321.000
310.477; -162.100; -412.000; -516.000
310.614; -103.400; -383.000; -473.000
310.751; -137.400; -427.000; -518.000
310.889;   -6.300;    1.000;   11.000
311.026; -295.300;-1161.000; -939.000
311.163;  -35.700; -386.000; -380.000
311.300; -129.500; -512.000; -479.000
311.437;  -87.200; -658.000; -619.000
311.574; -271.000;-1226.000; -985.000
311.711;  -42.200; -595.000; -433.000
311.848;  -49.600; -380.000; -388.000
311.985;  112.700;  270.000;   93.000
312.122; -235.500; -932.000; -762.000
312.259; -198.600; -941.000; -994.000
312.396; -104.000; -508.000; -551.000
312.533;  -87.600; -812.000; -790.000
312.670; -222.500;-1070.000; -898.000
312.807;  -35.100; -352.000; -367.000
312.944; -118.400; -513.000; -611.000
313.081;    2.600; -150.000; -415.000
313.218; -201.400;-1111.000; -867.000
313.355;   49.300; -531.000; -449.000
313.492;   73.700; -455.000; -292.000
313.629;  323.200;  815.000;  735.000
313.766; -280.600;-1176.000;-1008.000
313.902;   31.400; -186.000;   21.000
314.039;  -54.200; -372.000; -289.000
314.176;  142.300;  286.000;  192.000
314.313; -102.100; -569.000; -473.000
314.450; -111.900; -788.000; -684.000
314.587;  -73.200; -468.000; -480.000
314.723;   76.300;  -78.000;  130.000
314.860;  114.500;  318.000;  332.000
314.997;   93.300;  223.000;  142.000
315.134;  -43.200; -385.000; -368.000
315.270;  -12.600; -480.000; -496.000
315.407; -220.200;-1094.000; -967.000
315.544;  -88.500; -657.000; -538.000
315.681;  -89.400; -681.000; -565.000
315.817;   97.500; -133.000; -176.000
315.954;   39.100; -613.000; -392.000
316.091; -204.900;-1045.000;-1023.000
316.227;    7.600;  -71.000; -179.000
316.364;   74.100;   23.000;    6.000
316.500;  -46.000; -113.000; -300.000
316.637;  -20.000; -181.000; -302.000
316.774; -127.600; -625.000; -358.000
316.910; -131.100; -598.000; -629.000
317.047;  -87.700; -487.000; -351.000
317.183;  -55.700; -435.000; -566.000
317.320;  -29.800; -367.000; -321.000
317.456;  -78.500; -733.000; -805.000
317.593; -135.400; -598.000; -641.000
317.729;   73.800;  168.000;  -67.000
317.866; -346.700;-1434.000;-1285.000
318.002; -116.900; -708.000; -948.000
318.139; -167.800; -883.000; -867.000
318.275; -171.500;-1003.000; -738.000
318.412;  -98.000; -517.000; -336.000
318.548;  -15.900; -751.000; -720.000
318.685; -168.100; -985.000; -888.000
318.821; -161.100; -762.000; -735.000
318.957;    7.100;   34.000;  -23.000
319.094;  127.100;  297.000;  154.000
319.230; -107.600; -756.000; -742.000
319.367;  236.000; -471.000; -520.000
319.503;  153.800; -538.000; -436.000
319.639; -139.400; -877.000; -793.000
319.775; -114.400; -750.000; -685.000
319.912;  -91.500; -424.000; -519.000
320.048; -163.800;-1184.000;-1184.000
320.184;  179.900;   59.000;   70.000
320.321;  -73.800; -497.000; -467.000
320.457;  175.800;  475.000;  662.000
320.593; -117.800; -375.000; -382.000
320.729; -166.800; -732.000; -734.000
320.866; -123.300; -577.000; -635.000
321.002;  -80.900; -759.000; -809.000
321.138;  -18.500; -135.000; -211.000
321.274;  194.000; -148.000; -115.000
321.410;  -46.000; -585.000; -353.000
321.546;  -37.100;-1011.000; -911.000
321.683;  133.300;  400.000;  185.000
321.819;   73.500;  -48.000; -117.000
321.955; -209.900; -743.000; -722.000
322.091;  -66.200; -585.000; -540.000
322.227;   -2.200; -382.000; -202.000
322.363;    3.700; -320.000; -215.000
322.499;  -76.200; -343.000; -331.000
322.635;  363.000;  636.000;  443.000
322.771;   39.300; -139.000;   12.000
322.907;  209.900;  129.000;  327.000
323.043;   32.500; -115.000; -206.000
323.179;  -18.500; -394.000; -363.000
323.315;   47.800; -401.000; -371.000
323.451;  246.800; -328.000; -236.000
323.587;  146.800;  -60.000;  -77.000
323.723;   50.600; -682.000; -601.000
323.859;  -51.600; -258.000;  -76.000
323.995;   20.700; -467.000; -409.000
324.131; -251.000; -967.000; -892.000
324.267;  -38.300; -254.000; -276.000
324.402; -252.000; -960.000; -983.000
324.538;   25.200; -279.000; -104.000
324.674;   68.600;  164.000;   77.000
324.810;  360.500;  226.000;  308.000
324.946;   36.300; -810.000; -658.000
325.082;  -89.500; -568.000; -475.000
325.217;   28.600;  -62.000;   16.000
325.353; -154.200; -764.000; -659.000
325.489; -155.900; -540.000; -506.000
325.625;  -82.800; -579.000; -525.000
325.760;  162.100;  517.000;  376.000
325.896;    7.700; -515.000; -702.000
326.032;  -77.600; -403.000; -352.000
326.168;  -76.600; -462.000; -369.000
326.303;  -86.400; -352.000; -461.000
326.439;    6.700; -336.000; -276.000
326.575;  -18.800; -190.000;  -29.000
326.710;   35.600; -156.000;  -30.000
326.846;    0.900;  146.000;  103.000
326.982; -140.900; -530.000; -548.000
327.117; -113.900; -481.000; -442.000
327.253; -151.100; -745.000; -742.000
327.388; -213.800;-1137.000;-1153.000
327.524;   -4.800; -811.000; -578.000
327.659;  -21.400;  -58.000;  -22.000
327.795;   15.700;   69.000;   45.000
327.931; -175.800; -723.000; -499.000
328.066;   11.300; -417.000; -276.000
328.202;   41.600;   12.000; -129.000
328.337;  272.100;  957.000;  713.000
328.473;   15.300;  -12.000;  -74.000
328.608;   27.600; -256.000; -267.000
328.743; -147.600; -799.000; -664.000
328.879;   93.600;  214.000;  114.000
329.014;  -98.300; -102.000; -122.000
329.150; -134.300; -358.000; -483.000
329.285; -131.000; -465.000; -466.000
329.421;  -39.500; -548.000; -246.000
329.556;  -29.500;  -36.000;   85.000
329.691; -141.000; -633.000; -615.000
329.827; -144.900; -626.000; -480.000
329.962;  -33.900;  131.000; -301.000
330.097; -159.000; -673.000; -585.000
330.233;  -32.800; -410.000; -223.000
330.368; -221.200; -839.000; -628.000
330.503;   34.900;    3.000;   98.000
330.638;   34.800;  -93.000; -125.000
330.774;  -59.900; -609.000; -530.000
330.909;  -24.900; -434.000; -244.000
331.044; -125.700; -714.000; -708.000
331.179; -297.800;-1217.000;-1109.000
331.315;   84.300;   77.000;   20.000
331.450;   64.700;  157.000;  285.000
331.585; -132.000; -805.000; -706.000
331.720; -120.600; -510.000; -460.000
331.855;   35.500;  -35.000; -102.000
331.990;  400.400;   62.000;  138.000
332.126;  264.100; -110.000;   71.000
332.261;  -20.100; -379.000; -265.000
332.396;   56.200; -135.000; -242.000
332.531; -196.900;-1074.000;-1031.000
332.666;   89.000; -519.000; -363.000
332.801; -185.500; -726.000; -807.000
332.936;   11.600; -192.000; -122.000
333.071; -289.700; -870.000; -817.000
333.206;   87.700;  307.000;  379.000
333.341;  122.600;  344.000;  418.000
333.476; -129.700; -627.000; -623.000
333.611;  -60.900; -251.000; -173.000
333.746;  -44.100; -381.000; -464.000
333.881; -210.500; -973.000; -935.000
334.016; -213.900; -936.000; -917.000
334.151; -218.200; -746.000; -702.000
334.286;  105.000;  152.000;  186.000
334.421;  -23.900; -125.000; -178.000
334.556; -104.400; -611.000; -567.000
334.690; -150.400; -631.000; -577.000
334.825;  168.400;  381.000;   83.000
334.960;  -97.300; -285.000; -413.000
335.095;   94.300;  135.000;  -91.000
335.230; -179.500; -722.000; -738.000
335.365; -246.400;-1084.000; -990.000
335.499; -226.900;-1108.000;-1037.000
335.634;  127.300;    9.000;  534.000
335.769; -176.400; -755.000; -720.000
335.904;  -65.900; -603.000; -561.000
336.038;  -92.200; -735.000; -657.000
336.173; -224.400;-1206.000;-1194.000
336.308;   26.300; -116.000; -189.000
336.443;   27.000; -544.000; -634.000
336.577; -140.900; -936.000; -787.000
336.712;  159.700;   -4.000;  -12.000
336.847;  -51.100; -724.000; -607.000
336.981;  193.800; -272.000; -208.000
337.116;  539.800;  615.000;  501.000
337.250;  316.500; -434.000; -421.000
337.385;  370.900; -297.000; -208.000
337.520;  142.000; -632.000; -603.000
337.654;  -40.700; -215.000; -126.000
337.789; -225.300; -989.000; -933.000
337.923;  -17.000; -104.000; -205.000
338.058; -122.900; -673.000; -738.000
338.192;  -36.400; -611.000; -488.000
338.327;   46.300;  -18.000; -155.000
338.461;  -91.500; -299.000; -469.000
338.596; -123.200; -780.000; -638.000
338.730; -153.500; -767.000; -803.000
338.865;  183.200;  -46.000; -140.000
338.999; -113.200; -846.000; -702.000
339.134;  -50.400; -634.000; -536.000
339.268;   32.300; -741.000; -603.000
339.403;  570.000; -740.000; -775.000
339.537;  190.600; -894.000; -820.000
339.671; -185.800; -829.000; -813.000
339.806; -121.600; -556.000; -512.000
339.940;   74.700; -261.000; -235.000
340.074; -167.400; -685.000; -510.000
340.209;    4.400; -351.000; -230.000
340.343; -169.400; -517.000; -573.000
340.477;  379.200;  998.000; 1036.000
340.612; -106.100;-1033.000; -900.000
340.746;  255.200; -199.000; -243.000
340.880; -125.100; -924.000; -785.000
341.014;    9.400;  -45.000; -154.000
341.149; -188.400; -756.000; -718.000
341.283; -173.300; -839.000; -754.000
341.417; -145.100;-1124.000; -938.000
341.551;  296.800; -768.000; -708.000
341.685;  -23.500; -633.000; -611.000
341.820;  -64.100; -562.000; -493.000
341.954;  -64.500; -218.000; -349.000
342.088; -264.900;-1102.000;-1019.000
342.222;  125.200;  565.000;  618.000
342.356;  -66.400; -395.000; -335.000
342.490; -148.900; -880.000; -841.000
342.624;  -49.900; -339.000; -242.000
342.758;  -12.300; -364.000; -312.000
342.892;  -58.700; -710.000; -585.000
343.026;  -32.900;  -58.000; -116.000
343.160;  -57.800; -426.000; -376.000
343.294; -133.000; -474.000; -337.000
343.428;    2.000; -488.000; -448.000
343.562;    6.400; -172.000;  -23.000
343.696;   14.400; -385.000; -314.000
343.830;  -29.800; -362.000; -356.000
343.964;   83.300; -231.000; -168.000
344.098; 1676.700;  199.000;   70.000
344.232; 1464.600; -266.000; -127.000
344.366;  154.400; -567.000; -453.000
344.500;  161.400; -665.000; -744.000
344.634;   76.300; -324.000; -164.000
344.768;    9.400; -531.000; -341.000
344.902;  129.600;  278.000;  256.000
345.035; -109.000; -556.000; -496.000
345.169; -236.000; -933.000; -656.000
345.303;  -14.100; -308.000; -482.000
345.437; -130.300; -826.000; -717.000
345.571;  -94.500; -675.000; -594.000
345.704;  -83.200; -309.000; -532.000
345.838;   19.800; -331.000; -284.000
345.972;  -57.300; -543.000; -495.000
346.106;  297.700; -179.000; -190.000
346.239;  780.200; -312.000; -243.000
346.373;   73.100; -343.000; -302.000
346.507; -266.500; -950.000; -962.000
346.640;  313.200;  -30.000;   13.000
346.774;  -61.500; -650.000; -797.000
346.908;   31.900; -138.000;  -11.000
347.041; -188.400; -646.000; -593.000
347.175;   75.800;  259.000;   27.000
347.309; -133.800; -698.000; -628.000
347.442; -145.700; -883.000; -732.000
347.576;  597.000;  670.000;  668.000
347.709;  431.000; -123.000;  -52.000
347.843; -179.700; -933.000; -825.000
347.976;  152.500;  235.000;  294.000
348.110; -329.700;-1268.000;-1186.000
348.243; -169.700; -679.000; -772.000
348.377;   71.800;  -26.000;   60.000
348.510;  189.300;  403.000;  540.000
348.644;  -44.400;  -37.000; -159.000
348.777;   70.500;  180.000;  191.000
348.911;  -23.300; -142.000; -112.000
349.044;  378.500;  471.000;  448.000
349.178;  274.500;-1069.000;-1006.000
349.311;  229.200;  141.000;  255.000
349.444;  -22.100; -927.000; -813.000
349.578;    3.400; -347.000; -200.000
349.711; -168.900; -959.000; -862.000
349.845;   19.400; -661.000; -591.000
349.978; -260.900;-1224.000;-1137.000
350.111; -109.100; -546.000; -612.000
350.244; -120.000; -596.000; -700.000
350.378;   44.500; -392.000; -393.000
350.511; -120.900; -393.000; -426.000
350.644; -147.600; -808.000; -806.000
350.778;   49.300;  168.000;  104.000
350.911;   55.300;  134.000;  140.000
351.044; -121.600; -685.000; -615.000
351.177;   36.000; -321.000; -281.000
351.310;    3.400;    3.000; -131.000
351.444; -113.200; -888.000; -788.000
351.577;  283.600;  140.000;   90.000
351.710;  223.100;  593.000;  417.000
351.843;  -67.100; -165.000;  -77.000
351.976;   61.500;  149.000;  -79.000
352.109; -168.500; -621.000; -612.000
352.242;   -4.900; -464.000; -419.000
352.376;  -72.300; -580.000; -636.000
352.509;  398.300; -437.000; -356.000
352.642;   69.000; -654.000; -604.000
352.775;  169.500; -141.000;  -98.000
352.908; -187.400; -933.000; -904.000
353.041; -152.200; -814.000; -824.000
353.174;  -59.100; -551.000; -424.000
353.307; -111.000; -753.000; -764.000
353.440;  152.100;  541.000;  453.000
353.573; -178.000; -957.000;-1008.000
353.706;  -78.300; -384.000; -558.000
353.839;  -11.400; -264.000; -220.000
353.971; -141.100; -657.000; -512.000
354.104; -143.100; -896.000; -835.000
354.237;  -89.000; -627.000; -662.000
354.370; -115.200; -846.000; -879.000
354.503; -343.100;-1231.000;-1308.000
354.636;  -18.300; -529.000; -348.000
354.769; -245.800; -937.000; -860.000
354.902;   49.700; -230.000; -139.000
355.034;   30.300; -164.000; -220.000
355.167;   46.800; -262.000; -162.000
355.300; -181.700;-1061.000; -880.000
355.433; 1704.400;  -71.000;  -14.000
355.565; 2491.600; -402.000; -384.000
355.698;  682.400; -356.000; -296.000
355.831;  -19.200; -882.000; -801.000
355.964;  240.000; -285.000; -170.000
356.096; -141.500; -856.000; -843.000
356.229;   63.000; -523.000; -530.000
356.362;  554.200; -373.000; -266.000
356.494; 1039.100; -229.000; -162.000
356.627;  954.200;  269.000;  377.000
356.760; 1191.900;  120.000;   53.000
356.892; 1564.200; -286.000; -601.000
357.025; 1249.200;  403.000;  389.000
357.157; 1131.300; -167.000; -179.000
357.290; 1029.700; -856.000; -713.000
357.423;  286.700; -667.000; -556.000
357.555;  231.900; -217.000; -228.000
357.688;  273.300; -483.000; -364.000
357.820;  797.600; -870.000; -877.000
357.953; 6366.900; -563.000; -589.000
358.085; 1457.800; -632.000; -612.000
358.218; 2241.700;-1131.000; -932.000
358.350;  487.300;  -58.000;  312.000
358.483; -206.100;-1300.000;-1187.000
358.615;    0.500;-1182.000;-1078.000
358.747;  -96.900;-1187.000;-1058.000
358.880;   99.800; -810.000; -744.000
359.012;   19.800; -376.000; -202.000
359.145;   -8.400; -480.000; -511.000
359.277;   68.500; -962.000; -913.000
359.409; 5401.400;  536.000;  231.000
359.542; 1307.500; -738.000; -688.000
359.674;  174.900;   46.000;   13.000
359.806; -123.800; -565.000; -438.000
359.939;  -49.200; -617.000; -516.000
360.071;  -28.900; -583.000; -579.000
360.203;   18.300; -411.000; -364.000
360.335;  115.200;  164.000;  -16.000
360.468;  337.400; -249.000; -307.000
360.600; 4233.900; -547.000; -454.000
360.732; 4534.100; -546.000; -423.000
360.864;  561.500;-1216.000;-1044.000
360.996;  578.700; -516.000; -554.000
361.129;   87.000; -389.000; -598.000
361.261;  109.800;  110.000; -113.000
361.393;  -32.000; -252.000; -214.000
361.525;  117.800;   94.000;  244.000
361.657;  -68.300; -821.000; -703.000
361.789;  114.700; -139.000; -155.000
361.921;  515.400; -642.000; -593.000
362.053;  574.900;  524.000;  541.000
362.185;  127.400;  288.000;   72.000
362.318; -123.400; -709.000; -705.000
362.450;  293.200;  294.000;  444.000
362.582;  332.800; -913.000; -870.000
362.714;  -41.300; -353.000; -332.000
362.846; -127.100; -606.000; -490.000
362.978; -249.500; -941.000; -811.000
363.109;  134.500; -161.000; -260.000
363.241;  813.500; -739.000; -749.000
363.373;  744.700; -649.000; -564.000
363.505; 1108.900; -186.000;  -91.000
363.637;  308.900; -787.000; -601.000
363.769; -220.200;-1067.000;-1080.000
363.901; -119.000; -596.000; -654.000
364.033; -209.000;-1103.000;-1062.000
364.165;   39.500; -283.000; -283.000
364.296;  149.600; -316.000; -177.000
364.428;  120.400;-1344.000;-1220.000
364.560; -130.200; -679.000; -661.000
364.692;  -67.900; -738.000; -835.000
364.824;  526.900; -588.000; -456.000
364.955;  816.800; -402.000; -564.000
365.087; 1393.800;-1097.000; -852.000
365.219;   45.800; -686.000; -816.000
365.351; -112.200; -526.000; -572.000
365.482;  147.600;  300.000;  240.000
365.614;  -94.400; -402.000; -314.000
365.746; -135.100; -729.000; -752.000
365.877; -135.000; -706.000; -672.000
366.009;  467.600;  -35.000;  -62.000
366.141; -166.700;-1249.000;-1134.000
366.272; -175.000; -803.000; -719.000
366.404; -213.700;-1005.000; -874.000
366.535;   26.800; -139.000;  -12.000
366.667; -154.200; -644.000; -649.000
366.799;  149.900;  353.000;  203.000
366.930; -192.000; -862.000; -996.000
367.062;  239.500; -639.000; -613.000
367.193;  251.900; -872.000; -842.000
367.325;  -90.400; -580.000; -684.000
367.456;  168.000; -246.000;   31.000
367.588;  311.100; -371.000; -318.000
367.719;   67.200;  -44.000;  -45.000
367.851;  -12.400; -222.000; -241.000
367.982;  -91.000; -875.000; -732.000
368.113;  239.700; -475.000; -358.000
368.245; -223.100; -960.000; -841.000
368.376;   39.200; -254.000; -302.000
368.508;  -27.300; -188.000; -263.000
368.639; -238.100;-1166.000;-1034.000
368.770;  -15.900; -670.000; -589.000
368.902;  -84.600; -836.000; -926.000
369.033; -159.700; -906.000; -855.000
369.164;  -43.400; -720.000; -653.000
369.296; -198.000; -452.000; -601.000
369.427;   33.500; -209.000; -144.000
369.558;  -48.100; -593.000; -377.000
369.689; -123.000; -721.000; -569.000
369.821; -228.500; -951.000; -845.000
369.952;   24.700;   42.000; -108.000
370.083;  -61.900; -229.000; -108.000
370.214; -140.600; -735.000; -650.000
370.345;   32.200;   65.000;   81.000
370.477; -123.200; -810.000; -790.000
370.608;  447.700; -328.000; -264.000
370.739;  -30.200;-1233.000;-1292.000
370.870;  -49.600;-1102.000; -923.000
371.001;  243.100; -378.000; -467.000
371.132; -125.200; -754.000; -735.000
371.263;   17.000;  -42.000; -148.000
371.394; -236.700; -841.000; -748.000
371.525;  119.400;  345.000;  225.000
371.657; -164.400; -808.000; -670.000
371.788;  185.700;  103.000;  199.000
371.919;  353.700; -384.000; -304.000
372.050; 6614.500;  -91.000; -156.000
372.181; 1901.100; -188.000; -294.000
372.311;  747.400;   42.000; -127.000
372.442;   80.000; -457.000; -451.000
372.573;   45.600; -444.000; -340.000
372.704; -200.500;-1008.000; -980.000
372.835;  209.000; -228.000; -289.000
372.966;  -97.600; -646.000; -554.000
373.097;  -86.500; -575.000; -711.000
373.228;  -65.600; -717.000; -542.000
373.359;  315.700; -824.000; -536.000
373.490; 1794.000; -881.000; -727.000
373.620; 2122.200;-1001.000; -803.000
373.751; 3323.500; -332.000; -396.000
373.882; 1475.200; -663.000; -733.000
374.013;  137.100; -449.000; -262.000
374.143;  -18.600; -581.000; -659.000
374.274; -179.100; -987.000; -908.000
374.405;  368.800; -388.000; -276.000
374.536;  872.500; -526.000; -387.000
374.666; 2076.800; -759.000; -807.000
374.797;  436.800; -817.000; -868.000
374.928; 1690.500; -710.000; -560.000
375.058; 1717.300; -535.000; -500.000
375.189;  184.700;  -59.000;  -93.000
375.320; -185.800; -928.000;-1034.000
375.450;  -11.900; -625.000; -616.000
375.581;  -63.400; -526.000; -436.000
375.712;  -27.600; -574.000; -250.000
375.842;  654.500; -438.000; -415.000
375.973;  453.600; -554.000; -513.000
376.103;  -39.700; -665.000; -648.000
376.234;  -97.100; -531.000; -552.000
376.364;  -26.600; -944.000; -867.000
376.495;  697.400;  925.000;  529.000
376.625;    9.100; -472.000; -485.000
376.756;  122.600; -709.000; -678.000
376.886; -119.400;-1178.000;-1026.000
377.017;   91.100;-1048.000;-1061.000
377.147;  545.400; -786.000; -782.000
377.278;  186.700;  174.000;  228.000
377.408; -216.400; -801.000; -815.000
377.538; -127.900; -707.000; -693.000
377.669;  -97.500; -537.000; -613.000
377.799; -112.600; -645.000; -635.000
377.929;  -72.200; -610.000; -428.000
378.060; -189.100; -781.000; -847.000
378.190;  -54.800; -726.000; -531.000
378.320;  -55.200; -401.000; -406.000
378.451;   21.200; -131.000;  -22.000
378.581;   95.400;  -67.000; -110.000
378.711;  371.100; 1035.000;  866.000
378.841;   45.000; -533.000; -675.000
378.972; -124.400; -871.000; -751.000
379.102;   30.000; -652.000; -579.000
379.232;    0.700; -126.000;  -73.000
379.362; -157.900;-1001.000; -885.000
379.492;   39.100; -373.000; -424.000
379.623;  283.200;    0.000;  111.000
379.753; -154.700;-1107.000; -974.000
379.883;  441.600;   59.000;  156.000
380.013;    5.700;-1081.000;-1017.000
380.143; -170.500;-1097.000;-1056.000
380.273; -140.200; -985.000; -861.000
380.403;   68.300; -344.000; -257.000
380.533;  -33.500; -651.000; -664.000
380.663;  231.200;  173.000;  128.000
380.793; -152.000;-1027.000;-1074.000
380.923;   62.000; -103.000;  -34.000
381.053; -122.700; -613.000; -623.000
381.183;   29.800; -106.000; -248.000
381.313;   93.200; -656.000; -470.000
381.443;  119.200; -692.000; -473.000
381.573;  457.200; -402.000; -409.000
381.703;  577.000;-1249.000;-1095.000
381.833; -211.300;-1454.000;-1336.000
381.963;  289.300; -134.000;  -87.000
382.093; 2567.400; -925.000; -909.000
382.223;  766.900; -713.000; -602.000
382.353;  -15.600; -801.000; -608.000
382.482;  773.700;-1091.000; -964.000
382.612; 1413.500; -872.000; -644.000
382.742;  766.100; -695.000; -622.000
382.872;  539.200; -565.000; -551.000
383.002;  193.800;  347.000; -132.000
383.131;   12.700; -226.000; -160.000
383.261;  -10.600; -706.000; -768.000
383.391;  553.900; -552.000; -377.000
383.521; 5223.800;  451.000;  263.000
383.650; 1112.400; -947.000; -904.000
383.780;   31.300; -783.000; -656.000
383.910;  257.000;  880.000;  802.000
384.039;   90.600; -794.000; -656.000
384.169;  448.100;-1205.000;-1017.000
384.299;   -6.900; -650.000; -662.000
384.428; -120.500; -764.000; -680.000
384.558;    1.400; -308.000; -275.000
384.687;  -34.600; -414.000; -334.000
384.817;  123.900;   75.000;   -2.000
384.947;  116.300; -234.000; -141.000
385.076;  653.200;  982.000;  912.000
385.206;  293.400;  369.000;  480.000
385.335;   53.700; -549.000; -417.000
385.465;  -85.900; -655.000; -663.000
385.594;  337.700;  -53.000;  -44.000
385.724;  835.400; -868.000; -838.000
385.853;  291.500; -296.000; -270.000
385.982; 2694.500; -743.000; -787.000
386.112; 3896.400;-1052.000; -871.000
386.241;  277.800; -307.000; -312.000
386.371;   85.500; -174.000;  -87.000
386.500;   51.300; -825.000; -789.000
386.629;   82.000; -874.000; -817.000
386.759;  202.100;  -43.000;   68.000
386.888;   77.600; -170.000; -250.000
387.017;  -64.300; -648.000; -620.000
387.147;  -52.700; -771.000; -798.000
387.276;   75.600; -410.000; -397.000
387.405;  137.700; -398.000; -342.000
387.535;  -21.000; -452.000; -361.000
387.664;  -50.000; -692.000; -620.000
387.793;  181.000; -198.000; -113.000
387.922; 1078.200;  255.000;  200.000
388.052;  126.000; -576.000; -423.000
388.181;  184.000; -342.000; -472.000
388.310;   86.800; -889.000; -710.000
388.439;   17.500; -749.000; -742.000
388.568;  419.800;  365.000;  244.000
388.697; 2020.200; -756.000; -653.000
388.826;  373.700; -768.000; -666.000
388.956;  170.000; -285.000; -307.000
389.085;  -17.000; -347.000; -287.000
389.214; -162.800; -842.000; -872.000
389.343;  -67.000; -645.000; -413.000
389.472;  751.400;  126.000;  149.000
389.601;  957.300;   91.000;    0.000
389.730;   81.900; -568.000; -687.000
389.859;  202.800;  226.000;   46.000
389.988;  422.400; -423.000; -408.000
390.117;  268.700; -168.000; -146.000
390.246;   53.400; -331.000; -320.000
390.375;  226.200; -673.000; -626.000
390.504;  -72.200; -703.000; -621.000
390.633; -112.200; -672.000; -726.000
390.761;  -48.600; -732.000; -645.000
390.890;   75.900;   -4.000; -130.000
391.019;   12.000; -421.000; -441.000
391.148; -223.300; -826.000; -855.000
391.277;  -79.300; -576.000; -493.000
391.406;  -98.500; -821.000; -805.000
391.534;  116.000;  574.000; -301.000
391.663;  -76.900; -583.000; -645.000
391.792;  -94.200; -673.000; -701.000
391.921;  260.700;   -3.000;   15.000
392.050;  447.100; -287.000; -228.000
392.178;  -43.300;-1206.000;-1061.000
392.307;  321.400; -758.000; -712.000
392.436;  112.400; -427.000; -641.000
392.564;  135.700;  166.000;   -6.000
392.693; -163.900; -860.000; -682.000
392.822;  481.700; -529.000; -534.000
392.950;  179.500; -880.000; -714.000
393.079;  644.600; -188.000; -328.000
393.208;   79.100; -488.000; -511.000
393.336;   40.500; -170.000; -145.000
393.465;  -35.700; -317.000; -199.000
393.593;   76.200;   62.000;   79.000
393.722; -261.800;-1121.000; -916.000
393.850;   18.600; -188.000;  -61.000
393.979; -270.600; -926.000; -805.000
394.107;  -51.000; -517.000; -537.000
394.236;  -25.000; -570.000; -507.000
394.364;  535.500;  383.000;  206.000
394.493;  809.500; -911.000; -767.000
394.621;   50.700; -955.000; -916.000
394.750; 1269.400; -873.000; -923.000
394.878; 5202.000; -247.000; -149.000
395.007; 6616.600; -721.000; -807.000
395.135;  477.700; -790.000; -721.000
395.263; -159.400;-1038.000;-1040.000
395.392;   48.600;  -25.000; -107.000
395.520; -167.600; -818.000; -679.000
395.648; -112.500; -865.000; -915.000
395.777;  -14.900; -366.000; -405.000
395.905;  -12.300; -449.000; -564.000
396.033;   54.300;  217.000;  172.000
396.162; 1363.600; -399.000; -453.000
396.290; 1162.200;  -17.000;   -2.000
396.418;  255.700; -555.000; -514.000
396.546; -151.400; -571.000; -466.000
396.674; -166.500; -850.000; -878.000
396.803;   55.700;  -72.000;  -23.000
396.931;  272.800; -179.000; -199.000
397.059;  131.100;-1026.000; -989.000
397.187; -165.100;-1026.000; -975.000
397.315; -240.400; -884.000; -649.000
397.443; -132.100; -592.000; -443.000
397.572; -125.800; -578.000; -424.000
397.700;   40.300; -607.000; -614.000
397.828;   48.200;  120.000;  -90.000
397.956;  -60.700; -508.000; -478.000
398.084;  -99.100; -767.000; -626.000
398.212;  155.200;  137.000;  124.000
398.340;   57.000;  -56.000;  159.000
398.468;  104.500; -390.000; -169.000
398.596; -237.200; -993.000; -953.000
398.724; -180.500; -762.000; -767.000
398.852; -285.700;-1024.000; -976.000
398.980;  -89.500; -560.000; -560.000
399.108;  -73.600; -982.000; -735.000
399.236;  148.800;   13.000;    8.000
399.363;   62.100;  222.000;  196.000
399.491;  -58.500; -404.000; -398.000
399.619; -217.100; -829.000; -800.000
399.747; -142.800; -859.000; -771.000
399.875;  181.900;  220.000;  234.000
400.003;  -74.400; -359.000; -284.000
400.130; -140.300; -421.000; -341.000
400.258;   31.800;  -83.000;   38.000
400.386;  -67.400; -352.000; -168.000
400.514;   -6.300; -526.000; -587.000
400.641; -109.800; -928.000; -802.000
400.769; -210.900; -979.000; -888.000
400.897; -152.500; -838.000; -793.000
401.025;   55.400; -166.000; -152.000
401.152;   57.200;  220.000;   38.000
401.280; -118.600; -430.000; -429.000
401.408; -197.300; -712.000; -576.000
401.535; -138.100; -735.000; -758.000
401.663; -333.900;-1134.000;-1054.000
401.790;  -90.900; -514.000; -525.000
401.918;  143.200;  436.000;  405.000
402.046;   22.500;  134.000;  122.000
402.173;  -36.900;  -18.000;    7.000
402.301;  -59.100; -519.000; -397.000
402.428;  109.400;  528.000;  383.000
402.556; -240.500;-1188.000; -913.000
402.683;  -27.300;  -20.000;   -1.000
402.811;   45.100;  -37.000; -206.000
402.938;   51.400;   20.000;   27.000
403.066;  387.100; -574.000; -558.000
403.193;  612.300;  299.000;  239.000
403.321;  492.000; -396.000; -574.000
403.448;  606.900;   83.000;   27.000
403.575;  298.100;  -90.000;  -46.000
403.703; -134.300; -732.000; -557.000
403.830;  -64.800; -531.000; -496.000
403.957; -245.200;-1117.000;-1023.000
404.085;  111.500;  -61.000; -172.000
404.212;  239.600;  -50.000;   63.000
404.339;  520.500; -566.000; -306.000
404.467; 9959.000; -612.000; -524.000
404.594; 6381.400; -287.000; -227.000
404.721; 1552.200; -869.000; -764.000
404.848;  232.800; -113.000; -202.000
404.976; -154.300; -856.000; -783.000
405.103;   42.100;  -14.000;  -82.000
405.230;   46.000;  190.000;  226.000
405.357;  111.000;  117.000;   44.000
405.484;  464.500;  -49.000;    5.000
405.612;   74.300; -548.000; -563.000
405.739; -115.000; -488.000; -243.000
405.866;  241.200;  669.000;  385.000
405.993;  -42.100; -398.000; -102.000
406.120; -195.200; -801.000; -887.000
406.247;  -39.100; -323.000; -342.000
406.374;  961.600;  540.000;  629.000
406.501;  230.200; -632.000; -702.000
406.628; -102.300; -621.000; -589.000
406.755; -128.600; -803.000; -620.000
406.882;    4.400; -228.000; -277.000
407.009; -164.500; -719.000; -628.000
407.136;  165.900; -480.000; -401.000
407.263;  325.800; -939.000; -829.000
407.390;  -71.800; -692.000; -614.000
407.517; -265.200;-1139.000;-1187.000
407.644;  -38.200; -332.000; -256.000
407.771;  -95.600; -249.000; -287.000
407.898;  122.900;  168.000;  328.000
408.025;  -48.300; -421.000; -313.000
408.151;   63.100;   82.000;  153.000
408.278;  -76.900; -267.000; -216.000
408.405; -192.700; -931.000; -899.000
408.532; -142.100; -549.000; -542.000
408.659; -195.300; -677.000; -648.000
408.785; -333.900;-1298.000;-1170.000
408.912;  -38.200; -412.000; -296.000
409.039; -184.400; -610.000; -686.000
409.166; -120.500; -591.000; -555.000
409.292; -160.700; -571.000; -534.000
409.419; -167.800; -665.000; -649.000
409.546; -106.500; -431.000; -192.000
409.672; -138.400; -713.000; -545.000
409.799;    1.100;  -36.000;   34.000
409.926;   21.100; -180.000; -179.000
410.052; -316.100;-1127.000;-1091.000
410.179;  -45.500; -368.000; -392.000
410.305; -138.000; -375.000; -493.000
410.432;    4.600; -220.000; -333.000
410.558; -104.100; -305.000; -380.000
410.685; -163.300; -688.000; -431.000
410.812; -137.400; -409.000; -588.000
410.938; -181.900; -964.000; -808.000
411.065; -152.500; -671.000; -645.000
411.191;   51.600; -189.000; -174.000
411.317; -191.900; -823.000; -742.000
411.444;  -62.000; -317.000; -246.000
411.570; -112.100; -339.000; -294.000
411.697; -145.700; -758.000; -752.000
411.823; -289.400; -989.000; -999.000
411.949;   24.400;  -56.000;   17.000
412.076; -169.600; -539.000; -519.000
412.202; -162.400; -758.000; -757.000
412.329; -189.900; -798.000; -752.000
412.455; -164.900; -821.000; -657.000
412.581;   37.200;  -15.000;  172.000
412.707;  -63.200; -540.000; -457.000
412.834;   89.400;  156.000;  219.000
412.960; -137.000; -785.000; -784.000
413.086; -156.400; -743.000; -701.000
413.212;  364.900;  604.000;  578.000
413.339; -109.100; -685.000; -701.000
413.465;   76.900; -364.000; -310.000
413.591; -160.500; -757.000; -474.000
413.717;  -18.400; -358.000; -366.000
413.843; -229.700; -839.000; -861.000
413.969;  -47.000;  -47.000; -292.000
414.096; -161.700; -679.000; -679.000
414.222;  120.500;  -33.000;   85.000
414.348;   17.800; -652.000; -385.000
414.474;  250.200;   38.000;  -52.000
414.600;   13.300; -126.000; -144.000
414.726;   48.100;  -96.000;  -55.000
414.852;  -56.200; -365.000; -342.000
414.978;  139.000;  104.000;  -18.000
415.104;  126.400;   38.000;   80.000
415.230;   87.900; -329.000; -330.000
415.356;   84.700; -409.000; -514.000
415.482;  436.500;   13.000;  -35.000
415.608;  516.200; -247.000; -323.000
415.734; 1845.200;   67.000;   38.000
415.860;36577.900; -875.000; -767.000
415.986;24033.900; -685.000; -607.000
416.111; 1932.800; -798.000; -652.000
416.237;  444.300; -424.000; -571.000
416.363; 2097.900; -765.000; -733.000
416.489; 6983.100; -324.000; -251.000
416.615;  635.700; -707.000; -742.000
416.741;  -12.700; -677.000; -784.000
416.866; -128.200; -673.000; -736.000
416.992; -180.400; -801.000; -818.000
417.118;   34.100;  -41.000;  -80.000
417.244;  -71.300; -798.000; -531.000
417.369; -129.300; -801.000; -612.000
417.495;   92.100; -325.000; -254.000
417.621; -133.300;-1015.000; -803.000
417.746;   64.500; -579.000; -572.000
417.872;  137.600; -254.000; -144.000
417.998;  159.100; -515.000; -530.000
418.123; 1962.200;-1073.000; -845.000
418.249; 9095.900; -512.000; -601.000
418.374; 1087.800; -916.000; -824.000
418.500;  241.700; -383.000; -482.000
418.626;  206.900;   70.000;  -59.000
418.751;  263.500; -549.000; -448.000
418.877;  388.500; -637.000; -643.000
419.002; 3510.600; -688.000; -560.000
419.128;21693.500; -930.000; -721.000
419.253; 4676.700; -967.000; -837.000
419.379;  641.500; -391.000; -338.000
419.504;  750.400;  325.000;  415.000
419.629;  896.200; -393.000; -212.000
419.755; 6566.300; -317.000; -254.000
419.880;34666.900;  -98.000;   67.000
420.006;20099.900; -280.000; -221.000
420.131;49341.200; -662.000; -775.000
420.256; 6535.600; -315.000; -316.000
420.382;  872.300; -665.000; -687.000
420.507;  184.800; -649.000; -778.000
420.632;  303.000; -337.000; -339.000
420.758;  552.600; -251.000; -425.000
420.883;  -93.200; -876.000; -672.000
421.008; -115.700; -775.000; -619.000
421.133; -103.200; -509.000; -467.000
421.259;  -12.500; -325.000; -259.000
421.384; -200.700; -834.000; -693.000
421.509;    5.500;-1052.000; -862.000
421.634; 2374.900; -936.000; -820.000
421.759;  940.100; -359.000; -327.000
421.885;  -76.100; -717.000; -656.000
422.010; -102.400; -673.000; -542.000
422.135; -287.200; -695.000; -727.000
422.260;  139.900;  340.000;  280.000
422.385;  -58.000;   12.000;  -98.000
422.510;  102.400;  151.000;  -26.000
422.635;  125.600;  -87.000;  -43.000
422.760;  245.900; -766.000; -791.000
422.885;  147.800;  -57.000;  -80.000
423.010;   -8.300; -112.000; -169.000
423.135; -120.300; -481.000; -561.000
423.260;   74.000; -150.000; -245.000
423.385;  184.700;  476.000;  222.000
423.510;  135.100;   71.000;  -22.000
423.635;  202.700;  133.000;   45.000
423.760;  212.500;  383.000;  328.000
423.885;  190.300;  336.000;  391.000
424.010;  111.300;  -68.000;  -13.000
424.135;   29.300;    5.000;  -33.000
424.259; -105.900; -654.000; -457.000
424.384;  -62.100; -279.000; -272.000
424.509;   33.400; -260.000; -186.000
424.634; -163.700; -761.000; -623.000
424.759;    1.300; -688.000; -544.000
424.883;   18.200; -506.000; -527.000
425.008;  363.800; -502.000; -410.000
425.133; 3513.700; -679.000; -653.000
425.258; 1461.800; -517.000; -381.000
425.382; 2003.800; -867.000; -774.000
425.507; 4553.500; -487.000; -543.000
425.632;  711.700; -802.000; -663.000
425.756;  819.100; -256.000; -146.000
425.881;11521.500; -831.000; -857.000
426.006;27627.600; -604.000; -355.000
426.130; 3961.500; -696.000; -508.000
426.255;  587.400; -611.000; -491.000
426.379;  315.400; -189.000; -577.000
426.504;  795.200;  660.000;  544.000
426.629; 7531.500; -519.000; -466.000
426.753; 4648.800;   64.000;  -46.000
426.878;  552.100; -252.000; -288.000
427.002;  385.400; -651.000; -668.000
427.127; 3080.100;  -35.000; -158.000
427.251;19786.500;  372.000;  401.000
427.375; 4957.100; -191.000; -173.000
427.500; 4190.200; -616.000; -610.000
427.624; 1290.500; -234.000; -400.000
427.749;  219.500; -216.000; -225.000
427.873;  -39.900; -499.000; -412.000
427.997;   30.800; -222.000; -230.000
428.122;  241.500;  795.000;  703.000
428.246;  236.800;  433.000;  434.000
428.371; -183.000; -869.000; -773.000
428.495; -135.300; -624.000; -646.000
428.619;   10.100; -186.000; -117.000
428.743;  137.100;   65.000;  132.000
428.868;   91.900; -732.000; -643.000
428.992; 2639.900; -219.000; -326.000
429.116; 1012.100; -329.000; -357.000
429.240;  605.700;  419.000;  426.000
429.365;  -28.000; -454.000; -574.000
429.489;    3.800; -638.000; -647.000
429.613;  135.200; -236.000; -177.000
429.737;  157.100; -563.000; -432.000
429.861;  540.400; -247.000; -133.000
429.985;10277.400; -425.000; -305.000
430.109; 9981.800; -770.000; -908.000
430.234; 1172.300;   76.000;  -50.000
430.358;  155.900; -250.000; -160.000
430.482;  -22.400; -672.000; -564.000
430.606;  -55.400; -655.000; -375.000
430.730;  145.300; -437.000; -388.000
430.854;  283.700; -909.000; -835.000
430.978;  -34.300; -795.000; -764.000
431.102;  -80.300; -499.000; -422.000
431.226; -118.200; -874.000; -815.000
431.350;  146.800;  345.000;  422.000
431.474;  -61.100; -661.000; -373.000
431.597; -253.100;-1060.000; -848.000
431.721;  -75.200; -276.000; -267.000
431.845; -235.500; -704.000; -472.000
431.969;  -94.800; -304.000; -349.000
432.093; -125.600; -395.000; -317.000
432.217;   49.900;   32.000;   82.000
432.341;  -99.800; -523.000; -518.000
432.464;   81.700;   96.000;   40.000
432.588;  464.700; -401.000; -329.000
432.712;  247.800;  -52.000;  -52.000
432.836;  140.400;  213.000;  263.000
432.959;   -1.300; -372.000; -311.000
433.083;  203.000;   11.000;    2.000
433.207;  727.000;  285.000;  930.000
433.330; 9214.800; -391.000; -200.000
433.454;10100.600; -654.000; -638.000
433.578; 6082.800;  583.000;  278.000
433.701; 1056.500; -623.000; -675.000
433.825;  298.500; -292.000; -299.000
433.949;  442.300;   28.000;  -72.000
434.072;  172.000; -410.000; -323.000
434.196;   44.200; -309.000; -117.000
434.319; 7841.800;25482.000;25124.000
434.443; 1488.600; -656.000; -603.000
434.566; 4554.300;  281.000;   62.000
434.690;  696.100; -637.000; -383.000
434.813;   98.700; -251.000; -173.000
434.937; -116.000; -569.000; -696.000
435.060;    7.900; -423.000; -332.000
435.184;  691.100; -492.000; -217.000
435.307;  346.500;  159.000;  102.000
435.431;   68.600;  -40.000;   24.000
435.554;  -80.600; -399.000; -240.000
435.677;  -90.600; -350.000; -258.000
435.801;  -55.700;  -25.000;   49.000
435.924;   75.400;    1.000;  -67.000
436.048; -184.400;-1019.000; -732.000
436.171;  -22.200; -240.000;  -66.000
436.294;  -10.300; -248.000; -229.000
436.417;  206.900; -963.000; -849.000
436.541; -155.400; -814.000; -840.000
436.664;  -36.500; -242.000; -316.000
436.787;   35.200;   13.000;  113.000
436.910; -139.500; -792.000; -422.000
437.034;   58.800;  142.000;  143.000
437.157;  199.000;  -11.000;    0.000
437.280;  -48.600; -392.000; -292.000
437.403;  -80.300; -982.000; -869.000
437.526; 1380.400; -903.000; -865.000
437.649; 4492.900; -505.000; -332.000
437.772;  615.500; -692.000; -540.000
437.896;  345.200;  700.000;  544.000
438.019; -155.400; -758.000; -503.000
438.142;  -88.300; -596.000; -506.000
438.265;   25.600; -639.000; -670.000
438.388; 1226.100; -520.000; -410.000
438.511;  211.000; -597.000; -394.000
438.634;   -9.200; -247.000; -125.000
438.757; -227.500; -693.000; -619.000
438.880;   37.300;  -34.000;  -57.000
439.003; -102.200; -417.000; -437.000
439.126;  -57.900; -287.000; -167.000
439.248;  -59.500;  -98.000; -139.000
439.371;  -12.600;    9.000;  -53.000
439.494;  143.400;  510.000;  439.000
439.617;  -12.100;   65.000;  -88.000
439.740; -342.000; -968.000; -816.000
439.863; -197.000; -755.000; -595.000
439.986; -207.600; -476.000; -431.000
440.108;  -21.500; -161.000; -112.000
440.231; -281.500; -950.000; -836.000
440.354;    6.300;  -64.000; -150.000
440.477;  154.100; -566.000; -542.000
440.599;  104.200; -200.000; -225.000
440.722; -158.800; -709.000; -586.000
440.845;  239.000;  751.000;  928.000
440.968; -155.100; -415.000; -311.000
441.090;  -50.900; -199.000;  -33.000
441.213; -299.200;-1021.000; -825.000
441.336;  -46.800; -159.000;   -5.000
441.458;  -82.100; -549.000; -396.000
441.581;  -66.100; -628.000; -629.000
441.703;  -73.900; -152.000;   13.000
441.826; -171.400; -557.000; -400.000
441.948;  -41.300;   56.000;   51.000
442.071;  158.600;  555.000;  424.000
442.193; -183.400; -531.000; -485.000
442.316;  115.400;  152.000;   97.000
442.438;  126.100; -233.000;  -10.000
442.561;  214.400;  272.000;  262.000
442.683; 1149.800; -809.000; -522.000
442.806; 2305.500;   -8.000;   74.000
442.928;   30.600; -859.000; -604.000
443.051;  -66.500; -577.000; -373.000
443.173; -167.700; -341.000; -339.000
443.295; -113.300; -263.000; -371.000
443.418; -112.800; -321.000;  -29.000
443.540;   71.900; -106.000;   -4.000
443.662; -203.200; -563.000; -465.000
443.785;   54.100;  335.000;  199.000
443.907; -190.500; -362.000; -208.000
444.029; -182.900; -767.000; -494.000
444.152; -245.700; -644.000; -554.000
444.274;    7.500;  -18.000;  -24.000
444.396; -177.200; -461.000; -221.000
444.518; -191.700; -691.000; -454.000
444.640; -168.900; -268.000; -111.000
444.763;   57.500;  388.000;  249.000
444.885; -194.300; -432.000; -392.000
445.007;   10.900;   35.000;   86.000
445.129; -203.400; -610.000; -515.000
445.251; -122.200; -372.000; -439.000
445.373; -224.700; -537.000; -386.000
445.495;  102.800;  242.000;  350.000
445.617;  181.300;  853.000;  753.000
445.739;  -73.700; -215.000;  -97.000
445.861;  -36.500; -245.000; -112.000
445.984;  -15.300; -267.000; -101.000
446.105;  458.800; -418.000; -251.000
446.227; 1232.000; -176.000;  -19.000
446.349;   50.200; -358.000; -249.000
446.471;  -96.100; -615.000; -448.000
446.593; -105.700; -316.000;   19.000
446.715;   90.900;  -67.000;   41.000
446.837;  157.500;  697.000;  832.000
446.959; -125.400; -457.000; -478.000
447.081; -213.800; -628.000; -518.000
447.203;  167.400;  862.000;  834.000
447.325; -138.100; -270.000;   42.000
447.446;   64.300;  286.000;  530.000
447.568; -299.900; -921.000; -803.000
447.690; -105.400; -236.000; -245.000
447.812; -239.400; -798.000; -519.000
447.933;   -5.100;  155.000;  127.000
448.055; -108.300; -306.000; -261.000
448.177;  358.400;   31.000;   79.000
448.299;  170.400; -935.000; -727.000
448.420;   93.800;  -25.000;  159.000
448.542;  -56.200;   -3.000;   33.000
448.664;   38.000;  109.000;  322.000
448.785;    3.600;  265.000;   83.000
448.907; -111.700; -614.000; -353.000
449.028;  -16.400; -771.000; -471.000
449.150;  207.700;  492.000;  589.000
449.272; -303.400;-1044.000; -913.000
449.393;  182.900;  612.000;  694.000
449.515; -239.700; -634.000; -581.000
449.636;  -40.500; -264.000; -155.000
449.758;  199.600;  763.000;  622.000
449.879;  -86.100; -498.000; -396.000
450.001; -100.000; -149.000;  -49.000
450.122;   33.300;  -95.000;  162.000
450.244;    0.400;   37.000;  364.000
450.365; -123.300; -495.000; -301.000
450.486;  -23.400;   80.000;  268.000
450.608;  105.200;  393.000;  326.000
450.729;  192.600;  578.000;  645.000
450.850;   53.800; -574.000; -466.000
450.972; 1351.600; -552.000; -389.000
451.093; 8546.100;  190.000;  588.000
451.214; 3162.100; -516.000; -337.000
451.336;  657.800;  773.000;  579.000
451.457;  147.100;  264.000;  393.000
451.578;  -20.500; -118.000;  -74.000
451.699; -199.100; -546.000; -540.000
451.821;  -31.900; -284.000;  -50.000
451.942;   43.000;  278.000;  285.000
452.063;  119.100;  228.000;  419.000
452.184; 1090.700;  -54.000;  -49.000
452.305; 1858.900;  103.000;  170.000
452.427;  194.800; -549.000; -301.000
452.548;   45.600;   23.000;   79.000
452.669;  -21.400; -257.000;  -89.000
452.790;   -1.300;    3.000;  -18.000
452.911;   51.600;  195.000;  259.000
453.032;  -58.300; -289.000;  -60.000
453.153;  -44.000;  -29.000;   81.000
453.274;  222.400;  737.000;  868.000
453.395;   -2.400;  -51.000;  175.000
453.516;  383.000; 1317.000; 1388.000
453.637;  -48.900; -205.000; -150.000
453.758;  -11.500;   15.000;   69.000
453.879; -175.000; -462.000; -250.000
454.000;  267.600; 1086.000;  948.000
454.121; -166.900; -554.000; -326.000
454.242; -151.800; -599.000; -383.000
454.362;  -49.400;  -99.000;  114.000
454.483;  -28.600; -309.000; -229.000
454.604;  172.200;  512.000;  580.000
454.725; -155.800; -627.000; -555.000
454.846; -205.700; -474.000; -406.000
454.967;   41.300;  230.000;  539.000
455.087;  -12.600;  179.000;  153.000
455.208;  135.500;  554.000;  856.000
455.329;  -76.600;  -22.000;   82.000
455.450;  147.300;  473.000;  633.000
455.570; -124.300; -234.000; -211.000
455.691;   13.500;  201.000;  407.000
455.812; -142.000; -270.000;  -92.000
455.932;  -17.400;  107.000;  -97.000
456.053; -120.600;   36.000;   24.000
456.173; -137.600; -433.000; -355.000
456.294; -229.000; -476.000; -303.000
456.415;  -35.100;  -73.000;   70.000
456.535;  -38.100;  297.000;  273.000
456.656;   -9.500;  132.000;  240.000
456.776;  -79.700;    3.000;  298.000
456.897;   56.200;  308.000;  513.000
457.017;  -98.100; -153.000;   -3.000
457.138; -135.900; -402.000; -249.000
457.258;   14.900;  263.000;  224.000
457.379;   55.600;  509.000;  521.000
457.499;  -12.000;  443.000;  432.000
457.620; -173.700; -407.000; -231.000
457.740; -130.300; -132.000;  -11.000
457.860;   -2.600;   87.000;   44.000
457.981;  -47.400;  132.000;  124.000
458.101;  -64.100;  -89.000;   40.000
458.221;   12.100;  336.000;  402.000
458.342;  -52.300;   -4.000;  -37.000
458.462;  102.000;  617.000;  352.000
458.582;    3.300; -302.000; -294.000
458.703;   35.400;  303.000;  154.000
458.823;   15.600;   22.000;  163.000
458.943;  113.500;  341.000;  467.000
459.063;   16.500; 1124.000;  192.000
459.183;  -28.000;  328.000;  313.000
459.304;   89.300;  315.000;  517.000
459.424;  -85.500; -246.000;  -89.000
459.544;  712.300;  388.000;  764.000
459.664; 1495.300;  499.000;  506.000
459.784;  592.800; 1004.000; 1175.000
459.904;  135.000;  867.000;  744.000
460.024;  233.900;  867.000;  684.000
460.144;   77.600;  449.000;  554.000
460.264;   69.600;  515.000;  327.000
460.385; -105.600; -145.000; -119.000
460.505;  176.800;  905.000;  858.000
460.625; -103.000;  -17.000;  -68.000
460.745;   24.600;  396.000;  541.000
460.864;  -57.000;  153.000;  469.000
460.984;   94.700;  499.000;  573.000
461.104;  357.000; 1656.000; 1775.000
461.224;  128.200;  657.000;  650.000
461.344;   16.200;  431.000;  360.000
461.464;   19.400;  258.000;  513.000
461.584;   55.300;  283.000;  466.000
461.704;   -6.300;   58.000;  108.000
461.824;  -33.700;  238.000;  259.000
461.943;    2.200;  191.000;  130.000
462.063; -107.100;    2.000;  324.000
462.183;  140.900;  639.000;  717.000
462.303;  251.700; 1678.000; 1230.000
462.422;  152.900;  781.000;  840.000
462.542;  -23.200;  271.000;  391.000
462.662;  169.800;  353.000;  380.000
462.782;  515.500;  833.000;  572.000
462.901;  901.200;  545.000;  717.000
463.021;  555.000; 1702.000; 1638.000
463.141;   60.400;  337.000;  770.000
463.260;   37.500;  614.000;  474.000
463.380;  114.800;  902.000;  884.000
463.499;   -5.300;  342.000;  332.000
463.619;   49.300;  581.000;  559.000
463.738;  327.100; 1644.000;  903.000
463.858;  146.800;  657.000;  811.000
463.978;   11.800;  542.000;  396.000
464.097;  182.800;  921.000; 1114.000
464.217;  297.400; 1196.000; 1143.000
464.336;  288.100; 1068.000; 1130.000
464.455;   -6.600;  328.000;  659.000
464.575;  174.900;  597.000;  602.000
464.694;  391.100; 1204.000; 1179.000
464.814;  278.200; 1190.000; 1138.000
464.933;  210.200; 1095.000; 1027.000
465.052;  313.400; 1412.000; 1054.000
465.172;  211.400;  922.000;  799.000
465.291;  362.900; 1376.000; 1320.000
465.410;   36.100;  462.000;  735.000
465.530;  265.200; 1355.000; 1310.000
465.649;  208.500; 1209.000; 1273.000
465.768;  383.900; 1673.000; 1508.000
465.888;  187.800;  941.000; 1174.000
466.007;  295.000; 1335.000; 1440.000
466.126;   55.600;  721.000;  641.000
466.245;  162.600; 1176.000; 1187.000
466.364;  108.800;  950.000; 1060.000
466.484;  212.700; 1024.000; 1213.000
466.603;  110.800; 1101.000; 1222.000
466.722;  337.900; 1490.000; 1769.000
466.841;  208.700; 1151.000; 1401.000
466.960;  191.300; 1069.000;  972.000
467.079;  315.700; 1971.000; 1786.000
467.198;  184.500; 1238.000; 1181.000
467.317;  241.900; 1768.000; 1162.000
467.436;  243.000; 1709.000; 1261.000
467.555;  330.200; 1796.000; 1746.000
467.674;  214.300; 1227.000; 1329.000
467.793;  161.700; 1376.000; 1374.000
467.912;  264.100; 1658.000; 1539.000
468.031;  343.800; 2038.000; 1930.000
468.150;  358.000; 1842.000; 1837.000
468.269;  455.700; 2313.000; 2090.000
468.388;  447.600; 2168.000; 2339.000
468.507;  619.500; 2884.000; 2903.000
468.626;  655.900; 2555.000; 2541.000
468.744;  348.600; 2018.000; 2174.000
468.863;  507.800; 2312.000; 2523.000
468.982;  231.700; 1503.000; 1555.000
469.101;  545.500; 2788.000; 2692.000
469.220;  381.900; 2333.000; 2176.000
469.338;  616.700; 2935.000; 3051.000
469.457;  463.900; 2719.000; 2545.000
469.576;  852.300; 3953.000; 3784.000
469.695;  510.100; 2877.000; 3066.000
469.813;  902.800; 4148.000; 4192.000
469.932;  834.500; 4255.000; 4485.000
470.051;  896.500; 4075.000; 4161.000
470.169; 1824.800; 4470.000; 4338.000
470.288; 2767.000; 4700.000; 4809.000
470.406; 1607.800; 5059.000; 5194.000
470.525; 1377.300; 6101.000; 5787.000
470.644; 1406.600; 6847.000; 6794.000
470.762; 1749.700; 8397.000; 7873.000
470.881; 1892.900; 8651.000; 8464.000
470.999; 2172.600; 9685.000; 9151.000
471.118; 2256.200;11174.000;10711.000

