
Integration time [ms]: 200.000
Averaging Nr. [scans]: 10
Smoothing Nr. [pixels]: 0
Data measured with spectrometer [name]: 2101012U2
Wave   ;Sample   ;Dark     ;Reference
[nm]   ;[counts] ;[counts] ;[counts] 

197.733;  141.800;  516.000;  404.000
197.879; -159.300; -610.000; -634.000
198.025; -109.200; -475.000; -420.000
198.171; -153.200; -602.000; -612.000
198.317;  -71.500; -401.000; -316.000
198.463; -138.300; -655.000; -404.000
198.609;   65.200;  181.000; -137.000
198.755; -170.300; -644.000; -410.000
198.901; -157.600; -505.000; -424.000
199.047; -123.300; -615.000; -488.000
199.193;  -80.300; -230.000; -468.000
199.339;  -76.100; -222.000; -369.000
199.485;   93.200;  330.000;  271.000
199.631;   44.200;  227.000;  310.000
199.777; -103.700; -466.000; -398.000
199.923; -141.400; -610.000; -424.000
200.069;  -21.500; -141.000;  -58.000
200.215;  123.400;  128.000;  453.000
200.361;   70.400;  243.000;  477.000
200.507; -112.400; -600.000; -373.000
200.653;  -81.100; -371.000; -194.000
200.798;  -68.600; -215.000; -125.000
200.944;  -19.100; -146.000;  -41.000
201.090;   42.300;   61.000;  222.000
201.236;  -39.400; -116.000; -158.000
201.382;  254.700;  874.000;  903.000
201.528;  -11.300;  -58.000;  -48.000
201.674;  -71.800; -386.000; -293.000
201.819; -158.100; -540.000; -439.000
201.965; -152.700; -699.000; -447.000
202.111;  -38.000; -273.000; -226.000
202.257;  -58.800; -250.000; -238.000
202.402;   -2.700;   13.000;  -36.000
202.548;  -75.600; -169.000; -116.000
202.694;  202.600;  410.000; -183.000
202.840; -162.400; -603.000; -531.000
202.985; -144.500; -681.000; -639.000
203.131; -219.900; -832.000; -666.000
203.277;  -40.600; -199.000; -262.000
203.423;  -97.600; -434.000; -520.000
203.568;  -79.900; -462.000; -237.000
203.714;  -98.800; -535.000; -542.000
203.860; -177.800; -682.000; -641.000
204.005;   61.500;  112.000;  167.000
204.151;  180.200;  561.000;  556.000
204.296; -102.700; -354.000; -221.000
204.442; -151.900; -600.000; -547.000
204.588; -150.300; -592.000; -579.000
204.733;   30.700;  178.000;  168.000
204.879; -267.300;-1018.000; -822.000
205.025;   47.100;  -99.000;  126.000
205.170;    5.700;  -17.000;   94.000
205.316;  142.900;  438.000;  661.000
205.461; -139.400; -698.000; -554.000
205.607;  199.900;  609.000;  665.000
205.752; -151.100; -626.000; -551.000
205.898; -135.900; -501.000; -391.000
206.043; -117.400; -578.000; -506.000
206.189;  -71.400; -243.000; -285.000
206.334;  162.600;  554.000;  606.000
206.480;  187.500;  409.000;  239.000
206.625; -158.000; -529.000; -552.000
206.771; -117.300; -451.000; -373.000
206.916;  -36.700; -210.000; -537.000
207.062; -150.700; -545.000; -591.000
207.207; -119.900; -546.000; -443.000
207.353;  123.300;  185.000;  460.000
207.498;   50.200;  196.000;   85.000
207.643; -114.300; -501.000; -370.000
207.789; -221.600;-1069.000; -910.000
207.934; -184.500; -665.000; -713.000
208.080;  -48.300; -154.000;   66.000
208.225;  -11.100;  -22.000;  -57.000
208.370; -175.900; -727.000; -619.000
208.516; -168.500; -741.000; -487.000
208.661;  -43.000; -127.000;  -69.000
208.806;  -26.300; -165.000; -171.000
208.952; -268.700;-1044.000; -731.000
209.097;  166.400;  378.000;  349.000
209.242; -105.400; -307.000; -382.000
209.387;  102.200;  392.000;  350.000
209.533;  -70.800; -321.000; -350.000
209.678;  148.000;  472.000;  543.000
209.823; -104.100; -408.000; -310.000
209.969; -217.800; -860.000; -757.000
210.114; -181.500; -907.000; -719.000
210.259; -277.000; -939.000; -889.000
210.404;  -12.900; -171.000;  103.000
210.549;   -3.300;  108.000;    3.000
210.695;  -10.200;   -3.000;  -95.000
210.840;   90.300;   94.000;   67.000
210.985; -114.400; -484.000; -303.000
211.130;  123.800;  268.000;  406.000
211.275;   50.500;  207.000;  199.000
211.420; -125.600; -300.000; -289.000
211.566; -130.100; -536.000; -489.000
211.711;   32.900;  218.000;  157.000
211.856; -104.000; -545.000; -519.000
212.001;   12.700;  151.000;   44.000
212.146;   17.900;  153.000;   49.000
212.291;  -51.100; -210.000; -186.000
212.436;  -46.600; -280.000;   -6.000
212.581; -141.600; -685.000; -653.000
212.726; -140.500; -487.000; -538.000
212.871;  -97.900; -552.000; -217.000
213.016; -303.000;-1172.000;-1029.000
213.161;  144.900;  406.000;  291.000
213.306; -144.000; -435.000; -577.000
213.451; -201.600; -778.000; -689.000
213.596;  -91.200; -455.000; -347.000
213.741; -124.300; -448.000; -538.000
213.886; -170.100; -498.000; -517.000
214.031;  -67.900; -294.000; -124.000
214.176;  -99.600; -408.000; -341.000
214.321;  -18.700; -296.000; -157.000
214.466;  -28.100; -163.000;  -43.000
214.611;  -18.500;  -61.000;  -10.000
214.756; -244.800; -948.000; -858.000
214.901;  -47.500; -388.000; -226.000
215.046; -240.900; -797.000; -825.000
215.191;   44.300;  128.000;   35.000
215.336;  -39.300; -157.000;  -19.000
215.480; -123.800; -684.000; -505.000
215.625;  -20.000; -175.000;  -19.000
215.770; -156.800; -757.000; -662.000
215.915;   23.300;   -5.000;  -97.000
216.060;  -40.800; -113.000;  -21.000
216.205; -213.300; -731.000; -779.000
216.349; -156.700; -470.000; -533.000
216.494; -238.600; -939.000; -867.000
216.639; -237.100; -823.000; -888.000
216.784; -183.400; -577.000; -525.000
216.929;  104.200;  392.000;  281.000
217.073;   32.200; -244.000;  -31.000
217.218;   14.800;   78.000;  -47.000
217.363; -179.800; -656.000; -618.000
217.507; -196.300; -623.000; -588.000
217.652; -252.700; -845.000; -874.000
217.797; -192.200; -708.000; -659.000
217.942; -221.000; -856.000; -720.000
218.086;  177.500;  608.000;  539.000
218.231;  -23.900; -174.000;  -26.000
218.376;  -39.000; -337.000; -229.000
218.520;    8.700;  -41.000;   96.000
218.665;  -62.800; -338.000; -204.000
218.810;  -53.400; -275.000; -233.000
218.954;   54.000;  201.000;   35.000
219.099; -232.200; -713.000; -963.000
219.243; -157.100; -589.000; -554.000
219.388;  -39.400; -264.000; -136.000
219.532;  -29.900; -116.000; -116.000
219.677; -156.900; -564.000; -521.000
219.822;    5.900;   33.000;   89.000
219.966;   35.200;   17.000;  -99.000
220.111;  -62.100; -328.000;  -40.000
220.255; -198.000; -797.000; -750.000
220.400;  -56.500; -180.000; -146.000
220.544; -128.100; -516.000; -450.000
220.689;  -84.600; -422.000; -451.000
220.833;   -8.600; -123.000;  -58.000
220.978; -105.300; -393.000; -563.000
221.122;   57.400;  319.000;  307.000
221.267; -257.500; -906.000; -837.000
221.411; -122.400; -478.000; -394.000
221.555;   -7.100; -104.000;  -23.000
221.700;  -80.100; -329.000; -222.000
221.844;   89.200;  255.000;  272.000
221.989;  -61.700; -328.000; -311.000
222.133;  -52.400; -289.000; -307.000
222.277;    7.900;    5.000;   78.000
222.422;   -5.200;  227.000;  113.000
222.566;  -92.100; -381.000; -214.000
222.711; -119.400; -414.000; -479.000
222.855; -150.300; -643.000; -586.000
222.999; -168.000; -642.000; -717.000
223.144;  -71.400; -195.000; -194.000
223.288;  137.900;  423.000;  251.000
223.432;   64.800;  184.000;  230.000
223.576;   57.000;  152.000;  -21.000
223.721;  110.700;  364.000;  273.000
223.865; -131.900; -472.000; -475.000
224.009;  526.000; 1673.000; 1631.000
224.153; -158.100; -660.000; -671.000
224.298; -134.300; -531.000; -489.000
224.442;  -29.000;  -74.000;  -33.000
224.586;  -16.400; -169.000; -106.000
224.730; -217.800; -858.000; -670.000
224.875; -202.900; -739.000; -688.000
225.019;   27.100;  102.000;  188.000
225.163;  172.100;  208.000;  341.000
225.307;   29.200;   97.000;  -91.000
225.451;  103.000;  360.000;  481.000
225.595;   98.000;  264.000;  176.000
225.739;  -30.200; -170.000;  -94.000
225.884;   17.800;   86.000;    5.000
226.028; -176.800; -760.000; -626.000
226.172;  -58.200; -260.000; -273.000
226.316; -237.100; -941.000; -902.000
226.460; -124.100; -645.000; -493.000
226.604;  -83.900; -406.000; -400.000
226.748; -211.100; -836.000; -733.000
226.892;  -15.100; -227.000; -181.000
227.036;  -84.200; -537.000; -447.000
227.180;  -94.300; -551.000; -375.000
227.324; -112.700; -561.000; -580.000
227.468; -200.700; -819.000; -717.000
227.612;   39.300;  242.000;  -28.000
227.756; -209.200; -845.000; -698.000
227.900;  101.600;  342.000;  441.000
228.044; -100.600; -509.000; -290.000
228.188;  149.000;  448.000;  568.000
228.332; -142.000; -546.000; -472.000
228.476;  -29.400; -223.000; -149.000
228.620;  -24.400; -210.000; -150.000
228.764;  130.400;  431.000;  349.000
228.908;  -13.100; -155.000;   30.000
229.052; -139.700; -615.000; -528.000
229.195;  -29.100; -172.000;   13.000
229.339;  -15.100; -235.000; -305.000
229.483;  -31.600;    5.000; -162.000
229.627;   -7.600; -156.000;  139.000
229.771; -105.800; -218.000; -294.000
229.915;   38.500;  230.000;   79.000
230.059; -168.500; -648.000; -663.000
230.202;  -71.600; -370.000; -317.000
230.346;  -15.300; -107.000;  107.000
230.490; -105.500; -489.000; -521.000
230.634; -195.800; -736.000; -553.000
230.777;  158.100;  478.000;  509.000
230.921;  -80.000; -450.000; -359.000
231.065;  -68.400; -246.000; -286.000
231.209;   87.200;  261.000;  265.000
231.352;   51.300;   54.000;   40.000
231.496;   69.900;  568.000;  188.000
231.640; -151.300; -693.000; -621.000
231.783;  143.300;  546.000;  525.000
231.927;  -81.900; -294.000; -365.000
232.071; -247.800; -962.000; -736.000
232.214; -240.400; -980.000; -764.000
232.358; -172.200; -683.000; -599.000
232.502;   40.300;  -19.000;    7.000
232.645; -258.600;-1090.000; -927.000
232.789;  -45.600; -257.000; -218.000
232.933;  -70.600; -407.000; -224.000
233.076; -250.600;-1038.000; -897.000
233.220; -217.200; -752.000; -777.000
233.363; -163.300; -669.000; -477.000
233.507;  129.300;  371.000;  129.000
233.650; -191.900; -764.000; -834.000
233.794;  130.900;  438.000;  461.000
233.938; -116.300; -530.000; -362.000
234.081;  -16.200;  -93.000;   31.000
234.225; -135.300; -631.000; -539.000
234.368; -218.800; -773.000; -723.000
234.512;  -87.600; -385.000; -299.000
234.655; -166.800; -582.000; -555.000
234.798; -108.000; -493.000; -466.000
234.942; -254.900; -884.000;-1002.000
235.085; -148.100; -651.000; -443.000
235.229; -136.200; -405.000; -410.000
235.372;  -76.000; -247.000; -191.000
235.516;  -91.000; -397.000; -321.000
235.659;   51.000;   92.000;  121.000
235.802;    7.100;  -38.000;  -22.000
235.946;   77.700;  335.000;  215.000
236.089;   88.800;  126.000;  250.000
236.233;  133.500;  275.000;  298.000
236.376;  -73.300; -235.000; -378.000
236.519;  -77.200; -297.000; -319.000
236.663;  -47.600; -215.000; -117.000
236.806; -255.800;-1029.000; -999.000
236.949;  155.500;  543.000;  431.000
237.092;  144.100;  412.000;  391.000
237.236; -141.800; -589.000; -502.000
237.379;  155.900;  352.000;  428.000
237.522; -212.200; -879.000; -768.000
237.666;  -44.100; -271.000;   18.000
237.809; -244.200; -851.000; -823.000
237.952;   74.500;  469.000;  271.000
238.095; -129.200; -447.000; -442.000
238.238;  214.400;  688.000;  700.000
238.382;   16.500;  166.000;  103.000
238.525; -120.800; -598.000; -511.000
238.668; -252.000;-1060.000; -985.000
238.811; -178.500; -638.000; -643.000
238.954; -108.600; -483.000; -334.000
239.097;  225.800;  617.000;  664.000
239.241;   73.500;  394.000;  326.000
239.384;  -69.500; -254.000; -214.000
239.527; -122.500; -424.000; -224.000
239.670; -323.100; -994.000;-1091.000
239.813; -203.600; -696.000; -658.000
239.956;  155.200;  579.000;  473.000
240.099; -208.800; -778.000; -725.000
240.242;  126.000;  428.000;  432.000
240.385;  138.300;  466.000;  450.000
240.528; -122.700; -706.000; -473.000
240.671;   59.400;  189.000;  134.000
240.814;  -82.800; -441.000; -158.000
240.957; -140.000; -767.000; -578.000
241.100; -181.400; -779.000; -755.000
241.243; -273.400;-1234.000; -893.000
241.386; -102.300; -508.000; -379.000
241.529; -159.500; -735.000; -547.000
241.672; -111.700; -566.000; -495.000
241.815; -214.100; -832.000; -808.000
241.958;  -51.300; -125.000; -182.000
242.101; -142.900; -545.000; -390.000
242.244;  -65.300; -270.000; -325.000
242.387;  -61.900; -304.000; -246.000
242.530;  139.000;  470.000;  134.000
242.673;  -77.400; -381.000; -309.000
242.815; -238.700; -925.000; -899.000
242.958; -141.200; -482.000; -381.000
243.101;   64.200;  132.000;  187.000
243.244; -146.000; -564.000; -521.000
243.387; -100.900; -313.000; -316.000
243.530; -199.000; -657.000; -674.000
243.672;   24.600;   43.000;  -92.000
243.815;  -69.700; -355.000; -283.000
243.958;    5.200;   98.000;  -26.000
244.101;   54.000;   59.000;  -16.000
244.243;   -7.900;  -47.000;  101.000
244.386; -209.300; -761.000; -630.000
244.529;  -17.400; -132.000; -139.000
244.672; -274.600;-1154.000; -951.000
244.814; -232.800; -621.000; -794.000
244.957;  -47.300; -380.000; -304.000
245.100; -131.500; -489.000; -489.000
245.242;  -74.500; -387.000; -374.000
245.385;   18.500;  -59.000;  -39.000
245.528; -260.700; -871.000; -705.000
245.670;  185.200;  612.000;  634.000
245.813; -149.000; -599.000; -547.000
245.956;  -48.100; -324.000; -275.000
246.098; -125.900; -508.000; -650.000
246.241;   34.300;  194.000;   48.000
246.383;  -30.000; -119.000;  -73.000
246.526; -141.800; -454.000; -525.000
246.669; -228.700; -889.000; -780.000
246.811;   40.100;  172.000;   -1.000
246.954; -139.300; -512.000; -426.000
247.096;  -15.100;  -84.000;   -6.000
247.239; -130.100; -482.000; -445.000
247.381; -135.300; -647.000; -488.000
247.524;  201.600;  645.000;  679.000
247.666;    1.100;   58.000;   11.000
247.809; -231.200; -887.000; -691.000
247.951;  -16.800;  -75.000;  138.000
248.094;   89.600;  432.000;  308.000
248.236; -345.400;-1262.000;-1238.000
248.378;  -11.200; -356.000;  -81.000
248.521;  -23.100; -334.000; -337.000
248.663;  -50.900; -236.000; -267.000
248.806;  -60.200; -300.000; -266.000
248.948; -187.800; -886.000; -763.000
249.090; -110.300; -428.000; -398.000
249.233;  -98.200; -344.000; -381.000
249.375; -164.600; -474.000; -451.000
249.518;  -38.000;  -83.000; -133.000
249.660;    0.600; -103.000;    3.000
249.802; -344.300;-1303.000;-1189.000
249.945; -133.000; -612.000; -540.000
250.087; -187.000; -834.000; -768.000
250.229;  -94.500; -362.000; -480.000
250.371; -116.500; -494.000; -439.000
250.514;  -98.900; -310.000; -244.000
250.656; -136.800;   69.000;  102.000
250.798; -231.900; -849.000; -800.000
250.940;  -78.600; -322.000; -322.000
251.083;  -50.900; -335.000; -111.000
251.225;  143.800;  338.000;  310.000
251.367;  -72.700; -274.000; -373.000
251.509;  -14.500; -265.000; -210.000
251.651; -176.200; -731.000; -671.000
251.794;  164.000;  538.000;  632.000
251.936; -209.700; -821.000; -747.000
252.078; -135.000; -540.000; -461.000
252.220; -145.900; -645.000; -477.000
252.362;  147.700;  344.000;  462.000
252.504; -138.700; -677.000; -584.000
252.646; -190.000; -875.000; -722.000
252.788;   -4.300;   14.000; -128.000
252.931;  -44.000; -257.000; -253.000
253.073;  -80.500; -376.000; -317.000
253.215;   19.100;  141.000;  122.000
253.357;    2.700;   82.000; -153.000
253.499;  -83.200; -374.000; -234.000
253.641; -151.200; -749.000; -594.000
253.783; -150.200; -609.000; -527.000
253.925; -159.700; -586.000; -591.000
254.067; -178.600; -744.000; -667.000
254.209;  -73.400; -391.000; -259.000
254.351; -260.800; -865.000; -883.000
254.493;  -99.600; -441.000; -417.000
254.635; -201.700; -936.000; -818.000
254.777; -189.900; -752.000; -687.000
254.918; -126.000; -512.000; -430.000
255.060; -139.900; -551.000; -395.000
255.202;  -95.500; -473.000; -261.000
255.344; -152.400; -658.000; -455.000
255.486; -126.100; -471.000; -406.000
255.628; -235.400; -780.000; -781.000
255.770; -161.400; -676.000; -536.000
255.912; -101.700; -559.000; -468.000
256.053; -183.800; -730.000; -508.000
256.195;  322.600; 1008.000;  903.000
256.337; -188.700; -861.000; -595.000
256.479;  166.800;  532.000;  416.000
256.621;  -71.600; -394.000; -212.000
256.762; -188.200; -789.000; -742.000
256.904;  105.000;  485.000;  487.000
257.046;  -55.800; -381.000; -271.000
257.188;  -79.900; -351.000; -264.000
257.329; -146.100; -525.000; -464.000
257.471; -229.600; -939.000; -807.000
257.613; -121.300; -584.000; -498.000
257.755; -262.200;-1073.000; -982.000
257.896;  108.800;  286.000;  392.000
258.038; -144.900; -403.000; -352.000
258.180;  -63.500; -354.000; -279.000
258.321; -144.100; -581.000; -457.000
258.463;    1.700;  -71.000;  133.000
258.605; -172.700; -562.000; -570.000
258.746; -188.400; -886.000; -772.000
258.888; -298.100;-1026.000;-1020.000
259.029;   64.700;  121.000;   -8.000
259.171; -163.900; -614.000; -550.000
259.313;    6.300;  -49.000;  -47.000
259.454; -130.700; -536.000; -414.000
259.596; -114.100; -483.000; -390.000
259.737; -131.100; -590.000; -474.000
259.879;   72.000;  217.000;  311.000
260.020;  224.700;  901.000;  636.000
260.162;  -33.500; -146.000; -253.000
260.303; -228.400; -768.000; -687.000
260.445; -147.000; -609.000; -613.000
260.586;   52.700;  392.000;  157.000
260.728;  -67.500; -360.000; -248.000
260.869; -132.400; -350.000; -343.000
261.011;  187.700;  706.000;  537.000
261.152; -107.100; -479.000; -319.000
261.293; -134.600; -576.000; -595.000
261.435;  -60.800; -219.000; -184.000
261.576;  -93.700; -455.000; -325.000
261.718;  138.100;  420.000;  470.000
261.859; -255.200; -940.000; -949.000
262.000; -246.500; -951.000;-1016.000
262.142;  -44.300;  -52.000;  -60.000
262.283; -179.800; -808.000; -691.000
262.424; -142.900; -666.000; -625.000
262.566; -280.500;-1161.000; -983.000
262.707; -222.500; -840.000; -830.000
262.848; -235.300; -769.000; -726.000
262.990;  -85.800; -362.000; -345.000
263.131;  193.500;  650.000;  681.000
263.272;   -1.500;  -61.000;  -41.000
263.413; -164.900; -589.000; -561.000
263.555; -115.200; -669.000; -143.000
263.696; -153.500; -550.000; -641.000
263.837; -116.400; -449.000; -551.000
263.978;    2.300;   -5.000;  -77.000
264.119;  -98.300; -283.000; -264.000
264.261; -208.700; -847.000; -630.000
264.402;  -20.700;   33.000;   40.000
264.543; -129.400; -509.000; -524.000
264.684;  -27.500;   61.000;  -50.000
264.825; -116.600; -816.000; -538.000
264.966;  -10.900;  -84.000;  -67.000
265.107; -201.300; -646.000; -670.000
265.248; -240.300; -825.000; -812.000
265.390;   11.100;  152.000;   -9.000
265.531;  -21.300; -238.000; -107.000
265.672; -164.900; -557.000; -630.000
265.813;  134.000;  563.000;  439.000
265.954; -277.500; -959.000; -940.000
266.095;  -20.000; -372.000; -322.000
266.236; -198.300; -686.000; -548.000
266.377;  -60.300; -243.000; -297.000
266.518; -108.800; -619.000; -547.000
266.659;   72.200;  170.000;  268.000
266.800;   36.700;   83.000;   85.000
266.941; -140.400; -487.000; -478.000
267.082;   71.600;  354.000;   99.000
267.223;  -93.300; -344.000; -273.000
267.364; -215.200; -892.000; -686.000
267.504;  -14.300;    3.000;  135.000
267.645;   32.600;  160.000;   67.000
267.786;  -63.300; -147.000;  -86.000
267.927; -117.400; -473.000; -379.000
268.068;    8.000; -186.000;  -61.000
268.209;  -66.500; -175.000; -413.000
268.350; -136.400; -388.000; -532.000
268.490; -176.100; -648.000; -521.000
268.631;   95.900;  127.000;  225.000
268.772; -199.100; -874.000; -647.000
268.913;  -89.200; -328.000; -476.000
269.054;  -15.500; -117.000;   12.000
269.194;  -77.200; -418.000; -402.000
269.335; -277.000;-1137.000;-1074.000
269.476;  -49.900;   33.000;  -35.000
269.617;  -70.900; -347.000; -392.000
269.757; -173.200; -713.000; -646.000
269.898; -176.100; -856.000; -613.000
270.039; -118.900; -415.000; -405.000
270.180; -247.100; -952.000; -816.000
270.320;  -30.500; -190.000; -250.000
270.461;  -43.900; -277.000; -249.000
270.602;  -24.600; -186.000; -156.000
270.742; -221.800; -868.000; -943.000
270.883; -128.000; -442.000; -390.000
271.023; -108.200; -358.000; -357.000
271.164; -146.100; -607.000; -528.000
271.305; -161.300; -666.000; -654.000
271.445; -183.500; -722.000; -683.000
271.586; -154.000; -462.000; -283.000
271.726;  -48.900; -397.000; -322.000
271.867; -133.800; -594.000; -534.000
272.008;  268.200; -473.000; -285.000
272.148;  208.100;  462.000;  468.000
272.289;    2.600; -113.000; -181.000
272.429;   63.900;   19.000;  185.000
272.570; -170.500; -633.000; -737.000
272.710; -187.000; -825.000; -775.000
272.851;  -67.900;  113.000; -130.000
272.991; -304.700;-1173.000;-1077.000
273.131; -141.100; -419.000; -459.000
273.272; -178.200; -683.000; -723.000
273.412;    3.900; -143.000;  -31.000
273.553;  -98.900; -488.000; -507.000
273.693;  271.200;  913.000;  858.000
273.834; -209.800; -894.000; -692.000
273.974; -127.600; -664.000; -615.000
274.114; -160.700; -772.000; -560.000
274.255;  147.600;  414.000;  373.000
274.395;   14.000; -180.000; -125.000
274.535;   68.400;  199.000;  350.000
274.676;   80.400;  225.000;   94.000
274.816;   23.100;  110.000;   34.000
274.956; -161.000; -624.000; -690.000
275.097; -135.500;-1014.000; -922.000
275.237; -197.500; -913.000; -803.000
275.377; -203.900; -778.000; -689.000
275.517; -290.000; -878.000; -937.000
275.658; -144.300; -590.000; -555.000
275.798; -123.100; -606.000; -413.000
275.938;   87.100;  215.000;  323.000
276.078; -153.300; -626.000; -395.000
276.218;   35.800;   99.000;  104.000
276.359; -228.400;-1026.000;-1024.000
276.499; -135.900; -605.000; -446.000
276.639;  -43.100; -305.000; -151.000
276.779;  -83.500; -475.000; -357.000
276.919; -183.000; -783.000; -624.000
277.059;  -19.000; -261.000; -212.000
277.199;  -79.200; -357.000; -259.000
277.340;  118.700;  287.000;  175.000
277.480; -215.300; -840.000; -693.000
277.620;   80.800;  192.000;   16.000
277.760; -392.700;-1533.000;-1294.000
277.900;   29.000;  113.000;   33.000
278.040;   56.300;  137.000;  159.000
278.180;   77.800;  270.000;  170.000
278.320;    6.700;   21.000;   56.000
278.460; -134.000; -443.000; -469.000
278.600; -143.600; -708.000; -598.000
278.740;  129.300;  448.000;  224.000
278.880; -174.100; -768.000; -791.000
279.020;   28.400; -194.000; -144.000
279.160; -176.900; -672.000; -595.000
279.300; -238.600; -926.000; -873.000
279.440; -195.200; -709.000; -622.000
279.579;  -96.700;-1014.000; -929.000
279.719;  -64.400; -410.000; -394.000
279.859;  107.400;   -4.000;   41.000
279.999;   28.200; -208.000;  101.000
280.139;  -56.600; -435.000; -387.000
280.279; -158.800; -708.000; -745.000
280.419;  -11.000; -229.000; -147.000
280.559;  -49.400; -259.000; -180.000
280.698; -171.100; -790.000; -639.000
280.838; -180.300; -778.000; -800.000
280.978; -194.400; -846.000; -790.000
281.118; -199.000; -811.000; -704.000
281.257;   42.400;   24.000;    6.000
281.397; -257.200;-1094.000; -960.000
281.537; -148.600; -599.000; -712.000
281.677;   -0.500; -150.000; -101.000
281.816; -172.500; -700.000; -630.000
281.956;  -24.400; -193.000; -257.000
282.096; -127.300; -539.000; -396.000
282.235; -181.700; -672.000; -638.000
282.375;  -27.200; -243.000;  -98.000
282.515; -174.900; -715.000; -707.000
282.654;   66.300;   29.000;  106.000
282.794;   95.300;  388.000;  244.000
282.934; -101.300; -530.000; -491.000
283.073; -243.400;-1030.000; -857.000
283.213;  -90.700; -460.000; -467.000
283.353;  -37.500; -408.000; -349.000
283.492;  -65.900; -264.000; -296.000
283.632;  -67.700; -254.000; -168.000
283.771; -202.000; -859.000; -730.000
283.911;  -71.600; -369.000; -260.000
284.050; -210.500; -794.000; -748.000
284.190; -300.800;-1229.000;-1096.000
284.329; -294.600;-1055.000; -964.000
284.469;  -96.700; -516.000; -591.000
284.608; -121.300; -559.000; -598.000
284.748; -105.200; -614.000; -570.000
284.887;   12.600;  -87.000;  -20.000
285.027; -252.100; -844.000; -892.000
285.166;  -50.900; -192.000; -249.000
285.306;   41.900; -116.000;  -33.000
285.445;  -54.500; -229.000; -343.000
285.584; -167.300; -630.000; -494.000
285.724; -106.900; -282.000; -322.000
285.863; -220.400; -857.000; -507.000
286.002;  -74.300; -366.000; -276.000
286.142; -167.200; -715.000; -622.000
286.281; -146.500; -525.000; -493.000
286.420; -131.100; -554.000; -417.000
286.560;  203.600;  653.000;  623.000
286.699; -269.700; -958.000; -912.000
286.838; -148.600; -590.000; -591.000
286.978; -186.000; -533.000; -537.000
287.117; -257.300;-1085.000; -950.000
287.256;  -33.500; -228.000; -211.000
287.395;  -96.900; -197.000; -378.000
287.535;  -64.900; -370.000; -298.000
287.674; -143.200; -509.000; -484.000
287.813;  140.900;  661.000;  533.000
287.952; -250.800;-1010.000; -871.000
288.091; -295.300;-1049.000; -915.000
288.231;    9.000;   13.000;   15.000
288.370; -329.800;-1217.000;-1200.000
288.509; -188.300; -728.000; -645.000
288.648; -148.900; -770.000; -548.000
288.787;  -11.100; -243.000;  -87.000
288.926; -137.600; -454.000; -475.000
289.065;  234.300;  859.000;  672.000
289.204;  -96.000; -377.000; -217.000
289.344; -168.400; -791.000; -690.000
289.483;   62.900;  416.000;  304.000
289.622;  -45.100; -291.000; -149.000
289.761;   -8.500; -309.000; -166.000
289.900; -196.200; -785.000; -626.000
290.039;    5.100;  -12.000;  -95.000
290.178;  -72.700; -274.000; -180.000
290.317; -158.400; -618.000; -479.000
290.456; -117.600; -463.000; -451.000
290.595; -254.300; -961.000; -833.000
290.734; -284.400; -904.000; -891.000
290.873; -111.500; -456.000; -420.000
291.011; -214.600; -833.000; -843.000
291.150; -190.800; -770.000; -682.000
291.289;  -16.800; -343.000; -110.000
291.428; -148.100; -599.000; -480.000
291.567; -114.100; -370.000; -442.000
291.706;   16.800;  109.000;  154.000
291.845; -153.600; -597.000; -505.000
291.984; -321.600;-1234.000;-1061.000
292.122;  150.300;  602.000;  582.000
292.261;  128.000;  620.000;  463.000
292.400;   48.500; -144.000;  211.000
292.539; -230.700; -959.000; -813.000
292.678;  -69.200; -325.000; -300.000
292.816; -288.400;-1136.000; -965.000
292.955; -206.400; -844.000; -684.000
293.094;   -4.300; -173.000; -337.000
293.233;  -94.900; -556.000; -400.000
293.371;  -27.500; -225.000;  -84.000
293.510; -212.800; -866.000; -780.000
293.649; -259.700; -959.000; -924.000
293.787; -184.700;-1083.000;-1012.000
293.926;  -17.000; -113.000;  -32.000
294.065;  -95.000; -379.000; -290.000
294.203;   74.700;  298.000;  406.000
294.342;   62.800;   74.000;  156.000
294.481;12874.000;51180.000; -836.000
294.619;  -39.200; -425.000; -582.000
294.758; -294.700;-1230.000;-1137.000
294.896;  134.200; -125.000;    5.000
295.035; -237.000;-1040.000;-1006.000
295.174; -249.600;-1082.000; -954.000
295.312;  -51.300; -323.000; -203.000
295.451;   11.000; -307.000; -428.000
295.589;  -74.700; -389.000; -518.000
295.728;   75.300; -292.000; -165.000
295.866;   14.400;  -36.000;  -51.000
296.005; -143.200; -584.000; -341.000
296.143; -130.000; -558.000; -596.000
296.282; -227.400; -957.000; -881.000
296.420; -174.800; -657.000; -557.000
296.559; -153.600; -892.000; -633.000
296.697;   -7.100; -847.000; -665.000
296.835;  -21.700;-1141.000;-1002.000
296.974;   95.700;  -23.000;   39.000
297.112;  -43.200; -443.000; -504.000
297.251; -167.500; -815.000; -755.000
297.389;   72.500; -576.000; -438.000
297.527;   45.700; -145.000;  -83.000
297.666;  -87.600; -486.000; -438.000
297.804;  -75.400; -404.000; -264.000
297.942;   -1.100; -136.000; -161.000
298.081;   13.100; -183.000;   63.000
298.219;  118.400;  -17.000;  -19.000
298.357;   65.200; -144.000;  -71.000
298.495;   -4.500; -810.000; -812.000
298.634;  112.200;  245.000;  219.000
298.772;   13.100; -220.000; -338.000
298.910;  -57.300; -309.000; -182.000
299.048;  -13.200; -130.000; -153.000
299.187;  -25.200; -350.000; -250.000
299.325;   55.900;   52.000;  122.000
299.463;   28.700; -389.000; -299.000
299.601;  135.300; -327.000; -271.000
299.739; -204.600; -908.000; -883.000
299.877; -159.600; -791.000; -703.000
300.016; -132.200;-1095.000; -935.000
300.154;  219.400;  -19.000; -161.000
300.292;   36.300; -428.000; -348.000
300.430;   32.700; -408.000; -291.000
300.568; -210.800; -940.000; -874.000
300.706; -109.800; -366.000; -469.000
300.844; -179.800;-1108.000; -979.000
300.982;  216.100;  246.000;  282.000
301.120; -211.600; -965.000; -866.000
301.258; -152.900; -812.000; -705.000
301.396;   77.000;  104.000;  -41.000
301.534;   76.300; -218.000; -293.000
301.672;  -75.900; -664.000; -521.000
301.810;  -32.800; -613.000; -545.000
301.948;  213.700;   53.000;  149.000
302.086;  805.700; -250.000;  -32.000
302.224; 1247.000; -610.000; -585.000
302.362;   43.900; -558.000; -622.000
302.500; -114.800; -923.000; -893.000
302.638;  171.200;  128.000;  245.000
302.776;   -8.600; -352.000; -408.000
302.913;  125.400;  447.000;  236.000
303.051;   10.600;  -86.000;  -23.000
303.189;  106.900;   90.000;  118.000
303.327;  -32.000; -341.000; -256.000
303.465; -153.800; -832.000; -588.000
303.603; -162.300; -805.000; -604.000
303.740;  200.800;  417.000;  241.000
303.878;  -10.400; -800.000; -759.000
304.016; -204.800; -915.000; -790.000
304.154; -249.700;-1123.000;-1152.000
304.291;  -70.400; -505.000; -554.000
304.429;   54.400;  102.000;   74.000
304.567; -281.600; -908.000; -893.000
304.705; -106.700; -408.000; -515.000
304.842;   86.100; -616.000; -540.000
304.980;  110.500;  215.000;   35.000
305.118;   38.700; -367.000; -365.000
305.255; -182.300; -945.000; -927.000
305.393;  126.100;  178.000;  239.000
305.531; -222.000;-1173.000; -956.000
305.668; -146.500; -663.000; -582.000
305.806;  101.800; -358.000; -439.000
305.943;  111.700; -629.000; -637.000
306.081;   84.100; -378.000; -267.000
306.219; -201.800; -863.000; -748.000
306.356;   65.700;  158.000;   27.000
306.494;  250.900;  981.000;  761.000
306.631;   43.900;  -11.000;  -55.000
306.769;  -22.500; -613.000; -485.000
306.906;    0.900; -284.000; -258.000
307.044; -110.000; -473.000; -488.000
307.181; -104.800; -410.000; -332.000
307.319;   60.700;  112.000;   87.000
307.456; -307.500;-1191.000;-1153.000
307.594; -206.800; -980.000; -727.000
307.731;  -15.800; -371.000; -164.000
307.868;   22.400;  -15.000;   20.000
308.006; -242.600; -961.000; -847.000
308.143;  -97.100; -618.000; -330.000
308.281;  307.700;  -37.000; -254.000
308.418;  -27.700; -748.000; -640.000
308.555; -122.200; -400.000; -250.000
308.693; -164.700; -577.000; -573.000
308.830; -198.400; -712.000; -657.000
308.967;   -7.600; -215.000;  -95.000
309.105;  -30.700; -507.000; -396.000
309.242;  101.700; -468.000; -367.000
309.379;  589.700; -577.000; -655.000
309.517; -110.700; -936.000; -948.000
309.654; -201.400; -910.000; -734.000
309.791; -109.300; -662.000; -580.000
309.928; -182.500; -977.000; -914.000
310.065;  367.000;  819.000;  697.000
310.203;  -71.000; -825.000; -850.000
310.340;  -50.500; -465.000; -321.000
310.477; -115.800; -412.000; -516.000
310.614;  -95.500; -383.000; -473.000
310.751;  -94.000; -427.000; -518.000
310.889;    2.200;    1.000;   11.000
311.026; -275.700;-1161.000; -939.000
311.163;  -63.000; -386.000; -380.000
311.300; -102.200; -512.000; -479.000
311.437; -130.400; -658.000; -619.000
311.574; -322.800;-1226.000; -985.000
311.711; -102.300; -595.000; -433.000
311.848;  -45.800; -380.000; -388.000
311.985;   61.900;  270.000;   93.000
312.122; -229.500; -932.000; -762.000
312.259; -207.200; -941.000; -994.000
312.396; -115.400; -508.000; -551.000
312.533; -126.500; -812.000; -790.000
312.670; -235.600;-1070.000; -898.000
312.807;  -25.700; -352.000; -367.000
312.944; -128.500; -513.000; -611.000
313.081;  -55.700; -150.000; -415.000
313.218; -189.800;-1111.000; -867.000
313.355;   34.900; -531.000; -449.000
313.492;    7.100; -455.000; -292.000
313.629;  297.800;  815.000;  735.000
313.766; -293.400;-1176.000;-1008.000
313.902;    0.500; -186.000;   21.000
314.039;  -59.100; -372.000; -289.000
314.176;   84.500;  286.000;  192.000
314.313; -130.500; -569.000; -473.000
314.450; -122.600; -788.000; -684.000
314.587;  -74.700; -468.000; -480.000
314.723;   16.600;  -78.000;  130.000
314.860;   67.100;  318.000;  332.000
314.997;   93.000;  223.000;  142.000
315.134;  -33.700; -385.000; -368.000
315.270;  -48.100; -480.000; -496.000
315.407; -225.200;-1094.000; -967.000
315.544; -127.900; -657.000; -538.000
315.681; -106.100; -681.000; -565.000
315.817;   52.800; -133.000; -176.000
315.954;  -19.100; -613.000; -392.000
316.091; -241.400;-1045.000;-1023.000
316.227;    5.600;  -71.000; -179.000
316.364;   20.500;   23.000;    6.000
316.500;  -50.500; -113.000; -300.000
316.637;  -33.700; -181.000; -302.000
316.774; -129.200; -625.000; -358.000
316.910; -162.500; -598.000; -629.000
317.047; -104.200; -487.000; -351.000
317.183;  -73.200; -435.000; -566.000
317.320;   -8.100; -367.000; -321.000
317.456; -142.800; -733.000; -805.000
317.593; -167.300; -598.000; -641.000
317.729;   28.200;  168.000;  -67.000
317.866; -389.200;-1434.000;-1285.000
318.002; -172.000; -708.000; -948.000
318.139; -193.800; -883.000; -867.000
318.275; -196.100;-1003.000; -738.000
318.412;  -98.100; -517.000; -336.000
318.548;  -94.500; -751.000; -720.000
318.685; -195.300; -985.000; -888.000
318.821; -176.300; -762.000; -735.000
318.957;  -16.900;   34.000;  -23.000
319.094;  120.000;  297.000;  154.000
319.230; -176.700; -756.000; -742.000
319.367;  149.700; -471.000; -520.000
319.503;   89.000; -538.000; -436.000
319.639; -142.200; -877.000; -793.000
319.775; -124.200; -750.000; -685.000
319.912;  -95.100; -424.000; -519.000
320.048; -198.200;-1184.000;-1184.000
320.184;  145.700;   59.000;   70.000
320.321;  -99.300; -497.000; -467.000
320.457;  156.300;  475.000;  662.000
320.593; -109.600; -375.000; -382.000
320.729; -191.200; -732.000; -734.000
320.866; -118.900; -577.000; -635.000
321.002; -141.400; -759.000; -809.000
321.138;  -43.900; -135.000; -211.000
321.274;  130.800; -148.000; -115.000
321.410;  -49.800; -585.000; -353.000
321.546; -108.000;-1011.000; -911.000
321.683;  139.100;  400.000;  185.000
321.819;   26.300;  -48.000; -117.000
321.955; -195.300; -743.000; -722.000
322.091;  -82.600; -585.000; -540.000
322.227;  -35.500; -382.000; -202.000
322.363;  -39.700; -320.000; -215.000
322.499;  -68.100; -343.000; -331.000
322.635;  284.200;  636.000;  443.000
322.771;   73.800; -139.000;   12.000
322.907;  152.000;  129.000;  327.000
323.043;  -43.300; -115.000; -206.000
323.179;  -60.600; -394.000; -363.000
323.315;    9.500; -401.000; -371.000
323.451;   83.800; -328.000; -236.000
323.587;   87.200;  -60.000;  -77.000
323.723;   11.200; -682.000; -601.000
323.859;   -8.500; -258.000;  -76.000
323.995;  -82.500; -467.000; -409.000
324.131; -237.600; -967.000; -892.000
324.267;  -61.600; -254.000; -276.000
324.402; -253.500; -960.000; -983.000
324.538;  -38.200; -279.000; -104.000
324.674;   89.400;  164.000;   77.000
324.810;  256.600;  226.000;  308.000
324.946;   -2.200; -810.000; -658.000
325.082; -139.600; -568.000; -475.000
325.217;   20.900;  -62.000;   16.000
325.353; -180.700; -764.000; -659.000
325.489; -130.000; -540.000; -506.000
325.625; -135.200; -579.000; -525.000
325.760;  150.800;  517.000;  376.000
325.896;  -92.200; -515.000; -702.000
326.032;  -72.800; -403.000; -352.000
326.168;  -92.900; -462.000; -369.000
326.303; -107.400; -352.000; -461.000
326.439;   -4.000; -336.000; -276.000
326.575;   39.100; -190.000;  -29.000
326.710;    8.600; -156.000;  -30.000
326.846;   19.000;  146.000;  103.000
326.982; -166.600; -530.000; -548.000
327.117; -106.100; -481.000; -442.000
327.253; -173.400; -745.000; -742.000
327.388; -334.500;-1137.000;-1153.000
327.524;  -85.900; -811.000; -578.000
327.659;  -25.100;  -58.000;  -22.000
327.795;    9.600;   69.000;   45.000
327.931; -142.700; -723.000; -499.000
328.066;  -23.100; -417.000; -276.000
328.202;  -16.800;   12.000; -129.000
328.337;  233.400;  957.000;  713.000
328.473;   24.100;  -12.000;  -74.000
328.608;  -26.800; -256.000; -267.000
328.743; -156.000; -799.000; -664.000
328.879;   72.700;  214.000;  114.000
329.014;  -66.700; -102.000; -122.000
329.150; -118.800; -358.000; -483.000
329.285; -120.300; -465.000; -466.000
329.421;  -80.900; -548.000; -246.000
329.556;  -27.100;  -36.000;   85.000
329.691; -162.100; -633.000; -615.000
329.827; -165.100; -626.000; -480.000
329.962;  -35.400;  131.000; -301.000
330.097; -124.200; -673.000; -585.000
330.233;  -77.100; -410.000; -223.000
330.368; -238.200; -839.000; -628.000
330.503;  -48.900;    3.000;   98.000
330.638;   46.000;  -93.000; -125.000
330.774; -106.400; -609.000; -530.000
330.909;  -56.300; -434.000; -244.000
331.044; -180.700; -714.000; -708.000
331.179; -304.900;-1217.000;-1109.000
331.315;   65.000;   77.000;   20.000
331.450;   56.500;  157.000;  285.000
331.585; -160.500; -805.000; -706.000
331.720; -154.300; -510.000; -460.000
331.855;    1.100;  -35.000; -102.000
331.990;  448.600;   62.000;  138.000
332.126;  237.700; -110.000;   71.000
332.261;  -37.700; -379.000; -265.000
332.396;  -18.500; -135.000; -242.000
332.531; -180.400;-1074.000;-1031.000
332.666;   39.500; -519.000; -363.000
332.801; -166.500; -726.000; -807.000
332.936;  -15.400; -192.000; -122.000
333.071; -264.000; -870.000; -817.000
333.206;   62.700;  307.000;  379.000
333.341;  106.900;  344.000;  418.000
333.476; -152.600; -627.000; -623.000
333.611;  -15.000; -251.000; -173.000
333.746;  -75.900; -381.000; -464.000
333.881; -222.700; -973.000; -935.000
334.016; -232.800; -936.000; -917.000
334.151; -224.200; -746.000; -702.000
334.286;   80.600;  152.000;  186.000
334.421;  -28.500; -125.000; -178.000
334.556; -151.500; -611.000; -567.000
334.690; -159.400; -631.000; -577.000
334.825;  147.100;  381.000;   83.000
334.960; -105.000; -285.000; -413.000
335.095;   52.700;  135.000;  -91.000
335.230; -174.500; -722.000; -738.000
335.365; -275.400;-1084.000; -990.000
335.499; -256.600;-1108.000;-1037.000
335.634;   47.300;    9.000;  534.000
335.769; -195.900; -755.000; -720.000
335.904; -102.300; -603.000; -561.000
336.038; -122.200; -735.000; -657.000
336.173; -263.900;-1206.000;-1194.000
336.308;  -17.600; -116.000; -189.000
336.443;   -4.500; -544.000; -634.000
336.577; -174.400; -936.000; -787.000
336.712;  113.500;   -4.000;  -12.000
336.847; -113.400; -724.000; -607.000
336.981;   57.300; -272.000; -208.000
337.116;  414.400;  615.000;  501.000
337.250;  171.400; -434.000; -421.000
337.385;  446.400; -297.000; -208.000
337.520;  127.200; -632.000; -603.000
337.654;  -58.900; -215.000; -126.000
337.789; -248.700; -989.000; -933.000
337.923;  -16.200; -104.000; -205.000
338.058; -186.000; -673.000; -738.000
338.192;  -56.300; -611.000; -488.000
338.327;   27.500;  -18.000; -155.000
338.461; -109.800; -299.000; -469.000
338.596; -165.700; -780.000; -638.000
338.730; -212.800; -767.000; -803.000
338.865;  161.600;  -46.000; -140.000
338.999; -108.800; -846.000; -702.000
339.134; -102.300; -634.000; -536.000
339.268;   -5.200; -741.000; -603.000
339.403;  493.200; -740.000; -775.000
339.537;  174.000; -894.000; -820.000
339.671; -204.000; -829.000; -813.000
339.806;  -88.000; -556.000; -512.000
339.940;   74.400; -261.000; -235.000
340.074; -185.800; -685.000; -510.000
340.209;  -56.500; -351.000; -230.000
340.343; -136.600; -517.000; -573.000
340.477;  334.500;  998.000; 1036.000
340.612;  -84.000;-1033.000; -900.000
340.746;  239.800; -199.000; -243.000
340.880; -130.300; -924.000; -785.000
341.014;   22.600;  -45.000; -154.000
341.149; -212.500; -756.000; -718.000
341.283; -204.000; -839.000; -754.000
341.417; -226.100;-1124.000; -938.000
341.551;  130.700; -768.000; -708.000
341.685;  -87.000; -633.000; -611.000
341.820;  -83.100; -562.000; -493.000
341.954;  -79.000; -218.000; -349.000
342.088; -253.200;-1102.000;-1019.000
342.222;  114.300;  565.000;  618.000
342.356;  -99.300; -395.000; -335.000
342.490; -211.000; -880.000; -841.000
342.624;  -96.300; -339.000; -242.000
342.758;  -25.100; -364.000; -312.000
342.892; -124.500; -710.000; -585.000
343.026;  -35.100;  -58.000; -116.000
343.160;  -93.200; -426.000; -376.000
343.294; -137.900; -474.000; -337.000
343.428;  -73.200; -488.000; -448.000
343.562;   -6.800; -172.000;  -23.000
343.696;  -50.700; -385.000; -314.000
343.830;  -23.500; -362.000; -356.000
343.964;    9.500; -231.000; -168.000
344.098; 1194.600;  199.000;   70.000
344.232;  985.200; -266.000; -127.000
344.366;   95.400; -567.000; -453.000
344.500;   44.100; -665.000; -744.000
344.634;   48.700; -324.000; -164.000
344.768;  -53.500; -531.000; -341.000
344.902;   86.600;  278.000;  256.000
345.035; -107.700; -556.000; -496.000
345.169; -229.300; -933.000; -656.000
345.303;  -46.600; -308.000; -482.000
345.437; -157.900; -826.000; -717.000
345.571; -117.300; -675.000; -594.000
345.704;  -71.500; -309.000; -532.000
345.838;  -48.000; -331.000; -284.000
345.972;  -65.500; -543.000; -495.000
346.106;  302.800; -179.000; -190.000
346.239;  632.500; -312.000; -243.000
346.373;  -11.200; -343.000; -302.000
346.507; -258.900; -950.000; -962.000
346.640;  178.100;  -30.000;   13.000
346.774;  -91.800; -650.000; -797.000
346.908;   -0.200; -138.000;  -11.000
347.041; -147.200; -646.000; -593.000
347.175;   30.200;  259.000;   27.000
347.309; -144.200; -698.000; -628.000
347.442; -187.800; -883.000; -732.000
347.576;  442.400;  670.000;  668.000
347.709;  264.400; -123.000;  -52.000
347.843; -168.800; -933.000; -825.000
347.976;  107.500;  235.000;  294.000
348.110; -347.500;-1268.000;-1186.000
348.243; -178.100; -679.000; -772.000
348.377;   39.500;  -26.000;   60.000
348.510;  132.300;  403.000;  540.000
348.644;  -36.400;  -37.000; -159.000
348.777;   62.400;  180.000;  191.000
348.911;  -75.900; -142.000; -112.000
349.044;  274.600;  471.000;  448.000
349.178;  156.600;-1069.000;-1006.000
349.311;  217.000;  141.000;  255.000
349.444;  -18.800; -927.000; -813.000
349.578;   -4.900; -347.000; -200.000
349.711; -174.100; -959.000; -862.000
349.845;  -33.800; -661.000; -591.000
349.978; -279.800;-1224.000;-1137.000
350.111; -157.900; -546.000; -612.000
350.244; -162.700; -596.000; -700.000
350.378;  -24.300; -392.000; -393.000
350.511;  -79.700; -393.000; -426.000
350.644; -210.700; -808.000; -806.000
350.778;   61.900;  168.000;  104.000
350.911;   49.000;  134.000;  140.000
351.044; -185.000; -685.000; -615.000
351.177;  -32.600; -321.000; -281.000
351.310;  -14.500;    3.000; -131.000
351.444; -150.500; -888.000; -788.000
351.577;  187.400;  140.000;   90.000
351.710;  209.200;  593.000;  417.000
351.843;  -30.700; -165.000;  -77.000
351.976;   32.900;  149.000;  -79.000
352.109; -168.900; -621.000; -612.000
352.242;  -52.400; -464.000; -419.000
352.376; -147.500; -580.000; -636.000
352.509;  212.400; -437.000; -356.000
352.642; -105.600; -654.000; -604.000
352.775;  101.100; -141.000;  -98.000
352.908; -199.400; -933.000; -904.000
353.041; -187.300; -814.000; -824.000
353.174; -102.800; -551.000; -424.000
353.307; -174.600; -753.000; -764.000
353.440;  165.300;  541.000;  453.000
353.573; -227.300; -957.000;-1008.000
353.706; -107.700; -384.000; -558.000
353.839;  -26.400; -264.000; -220.000
353.971; -188.200; -657.000; -512.000
354.104; -169.800; -896.000; -835.000
354.237; -110.800; -627.000; -662.000
354.370; -161.800; -846.000; -879.000
354.503; -337.100;-1231.000;-1308.000
354.636;  -68.200; -529.000; -348.000
354.769; -216.500; -937.000; -860.000
354.902;  -18.200; -230.000; -139.000
355.034;   -9.000; -164.000; -220.000
355.167;  -22.600; -262.000; -162.000
355.300; -179.500;-1061.000; -880.000
355.433; 1548.400;  -71.000;  -14.000
355.565; 2353.100; -402.000; -384.000
355.698;  575.700; -356.000; -296.000
355.831;  -17.300; -882.000; -801.000
355.964;  128.600; -285.000; -170.000
356.096; -178.400; -856.000; -843.000
356.229;   -1.500; -523.000; -530.000
356.362;  524.900; -373.000; -266.000
356.494;  931.400; -229.000; -162.000
356.627;  694.800;  269.000;  377.000
356.760; 1021.000;  120.000;   53.000
356.892; 1466.200; -286.000; -601.000
357.025;  946.400;  403.000;  389.000
357.157;  781.700; -167.000; -179.000
357.290; 1091.500; -856.000; -713.000
357.423;  288.800; -667.000; -556.000
357.555;  132.500; -217.000; -228.000
357.688;  138.000; -483.000; -364.000
357.820;  500.400; -870.000; -877.000
357.953; 4942.700; -563.000; -589.000
358.085;  971.200; -632.000; -612.000
358.218; 1329.400;-1131.000; -932.000
358.350;  270.900;  -58.000;  312.000
358.483; -264.000;-1300.000;-1187.000
358.615; -123.500;-1182.000;-1078.000
358.747; -178.400;-1187.000;-1058.000
358.880;  -42.400; -810.000; -744.000
359.012;  -18.800; -376.000; -202.000
359.145;  -36.500; -480.000; -511.000
359.277;   10.800; -962.000; -913.000
359.409; 4168.100;  536.000;  231.000
359.542; 1002.600; -738.000; -688.000
359.674;  119.600;   46.000;   13.000
359.806; -102.700; -565.000; -438.000
359.939; -116.500; -617.000; -516.000
360.071;   -9.600; -583.000; -579.000
360.203;  -16.000; -411.000; -364.000
360.335;  105.300;  164.000;  -16.000
360.468;  267.700; -249.000; -307.000
360.600; 3328.600; -547.000; -454.000
360.732; 4452.100; -546.000; -423.000
360.864;  503.900;-1216.000;-1044.000
360.996;  353.100; -516.000; -554.000
361.129;   28.500; -389.000; -598.000
361.261;   51.900;  110.000; -113.000
361.393;  -29.500; -252.000; -214.000
361.525;   94.400;   94.000;  244.000
361.657;  -91.200; -821.000; -703.000
361.789;   10.500; -139.000; -155.000
361.921;  253.800; -642.000; -593.000
362.053;  373.200;  524.000;  541.000
362.185;   76.700;  288.000;   72.000
362.318; -157.400; -709.000; -705.000
362.450;  177.000;  294.000;  444.000
362.582;   33.900; -913.000; -870.000
362.714;  -51.300; -353.000; -332.000
362.846; -152.200; -606.000; -490.000
362.978; -235.100; -941.000; -811.000
363.109;   37.800; -161.000; -260.000
363.241;  521.900; -739.000; -749.000
363.373;  622.400; -649.000; -564.000
363.505; 1089.300; -186.000;  -91.000
363.637;  229.900; -787.000; -601.000
363.769; -259.100;-1067.000;-1080.000
363.901; -119.800; -596.000; -654.000
364.033; -231.100;-1103.000;-1062.000
364.165;  -11.900; -283.000; -283.000
364.296;  120.900; -316.000; -177.000
364.428;   87.600;-1344.000;-1220.000
364.560; -110.000; -679.000; -661.000
364.692; -109.700; -738.000; -835.000
364.824;  307.100; -588.000; -456.000
364.955;  633.300; -402.000; -564.000
365.087; 1500.100;-1097.000; -852.000
365.219;   35.100; -686.000; -816.000
365.351; -125.300; -526.000; -572.000
365.482;   93.500;  300.000;  240.000
365.614;  -58.400; -402.000; -314.000
365.746; -161.700; -729.000; -752.000
365.877; -140.300; -706.000; -672.000
366.009;  463.000;  -35.000;  -62.000
366.141; -199.600;-1249.000;-1134.000
366.272; -202.200; -803.000; -719.000
366.404; -207.800;-1005.000; -874.000
366.535;   13.900; -139.000;  -12.000
366.667; -162.800; -644.000; -649.000
366.799;  115.000;  353.000;  203.000
366.930; -239.900; -862.000; -996.000
367.062;  156.300; -639.000; -613.000
367.193;  234.000; -872.000; -842.000
367.325;  -88.400; -580.000; -684.000
367.456;   36.400; -246.000;   31.000
367.588;  260.100; -371.000; -318.000
367.719;   60.400;  -44.000;  -45.000
367.851;  -24.600; -222.000; -241.000
367.982; -135.700; -875.000; -732.000
368.113;  137.100; -475.000; -358.000
368.245; -229.100; -960.000; -841.000
368.376;  -41.100; -254.000; -302.000
368.508;  -54.200; -188.000; -263.000
368.639; -264.900;-1166.000;-1034.000
368.770;  -77.900; -670.000; -589.000
368.902; -110.100; -836.000; -926.000
369.033; -216.000; -906.000; -855.000
369.164;  -90.600; -720.000; -653.000
369.296; -178.700; -452.000; -601.000
369.427;  -15.400; -209.000; -144.000
369.558;  -67.100; -593.000; -377.000
369.689; -161.300; -721.000; -569.000
369.821; -209.500; -951.000; -845.000
369.952;   -7.200;   42.000; -108.000
370.083;  -32.900; -229.000; -108.000
370.214; -163.800; -735.000; -650.000
370.345;   18.400;   65.000;   81.000
370.477; -146.000; -810.000; -790.000
370.608;  276.100; -328.000; -264.000
370.739; -166.700;-1233.000;-1292.000
370.870; -151.100;-1102.000; -923.000
371.001;   83.000; -378.000; -467.000
371.132; -155.400; -754.000; -735.000
371.263;    7.500;  -42.000; -148.000
371.394; -218.800; -841.000; -748.000
371.525;   94.700;  345.000;  225.000
371.657; -163.900; -808.000; -670.000
371.788;  156.800;  103.000;  199.000
371.919;  201.400; -384.000; -304.000
372.050; 4833.600;  -91.000; -156.000
372.181; 1417.300; -188.000; -294.000
372.311;  479.500;   42.000; -127.000
372.442;   20.800; -457.000; -451.000
372.573;  -47.100; -444.000; -340.000
372.704; -267.200;-1008.000; -980.000
372.835;  125.200; -228.000; -289.000
372.966;  -67.300; -646.000; -554.000
373.097;  -98.000; -575.000; -711.000
373.228;  -67.100; -717.000; -542.000
373.359;  110.200; -824.000; -536.000
373.490; 1155.600; -881.000; -727.000
373.620; 1396.400;-1001.000; -803.000
373.751; 2381.600; -332.000; -396.000
373.882;  953.400; -663.000; -733.000
374.013;  121.000; -449.000; -262.000
374.143;  -59.500; -581.000; -659.000
374.274; -200.900; -987.000; -908.000
374.405;  225.400; -388.000; -276.000
374.536;  556.500; -526.000; -387.000
374.666; 1389.500; -759.000; -807.000
374.797;  269.600; -817.000; -868.000
374.928; 1068.200; -710.000; -560.000
375.058; 1057.000; -535.000; -500.000
375.189;  128.000;  -59.000;  -93.000
375.320; -188.900; -928.000;-1034.000
375.450;  -92.300; -625.000; -616.000
375.581;  -89.000; -526.000; -436.000
375.712;  -56.900; -574.000; -250.000
375.842;  333.900; -438.000; -415.000
375.973;  221.900; -554.000; -513.000
376.103;  -87.000; -665.000; -648.000
376.234; -163.200; -531.000; -552.000
376.364; -120.900; -944.000; -867.000
376.495;  518.600;  925.000;  529.000
376.625;  -45.700; -472.000; -485.000
376.756;   34.100; -709.000; -678.000
376.886; -201.100;-1178.000;-1026.000
377.017;   31.800;-1048.000;-1061.000
377.147;  549.200; -786.000; -782.000
377.278;  130.100;  174.000;  228.000
377.408; -208.900; -801.000; -815.000
377.538; -194.900; -707.000; -693.000
377.669; -159.700; -537.000; -613.000
377.799; -168.600; -645.000; -635.000
377.929;  -90.800; -610.000; -428.000
378.060; -235.100; -781.000; -847.000
378.190;  -98.600; -726.000; -531.000
378.320;  -87.400; -401.000; -406.000
378.451;   -6.300; -131.000;  -22.000
378.581;    4.900;  -67.000; -110.000
378.711;  312.300; 1035.000;  866.000
378.841;  -26.000; -533.000; -675.000
378.972; -153.400; -871.000; -751.000
379.102;  -44.400; -652.000; -579.000
379.232;  -27.100; -126.000;  -73.000
379.362; -214.900;-1001.000; -885.000
379.492;  -24.400; -373.000; -424.000
379.623;  142.300;    0.000;  111.000
379.753; -186.200;-1107.000; -974.000
379.883;  293.600;   59.000;  156.000
380.013;  -71.800;-1081.000;-1017.000
380.143; -221.900;-1097.000;-1056.000
380.273; -193.200; -985.000; -861.000
380.403;  -12.600; -344.000; -257.000
380.533; -109.700; -651.000; -664.000
380.663;  138.000;  173.000;  128.000
380.793; -229.600;-1027.000;-1074.000
380.923;  -21.300; -103.000;  -34.000
381.053; -137.900; -613.000; -623.000
381.183;  -41.900; -106.000; -248.000
381.313;   36.700; -656.000; -470.000
381.443;   37.400; -692.000; -473.000
381.573;  217.000; -402.000; -409.000
381.703;  220.600;-1249.000;-1095.000
381.833; -273.200;-1454.000;-1336.000
381.963;  187.000; -134.000;  -87.000
382.093; 1855.400; -925.000; -909.000
382.223;  501.600; -713.000; -602.000
382.353;  -63.300; -801.000; -608.000
382.482;  422.500;-1091.000; -964.000
382.612;  989.200; -872.000; -644.000
382.742;  463.300; -695.000; -622.000
382.872;  316.200; -565.000; -551.000
383.002;   96.200;  347.000; -132.000
383.131;  -20.500; -226.000; -160.000
383.261; -103.300; -706.000; -768.000
383.391;  447.900; -552.000; -377.000
383.521; 5175.300;  451.000;  263.000
383.650; 1131.100; -947.000; -904.000
383.780;  -19.100; -783.000; -656.000
383.910;  264.000;  880.000;  802.000
384.039;  -30.000; -794.000; -656.000
384.169;  168.500;-1205.000;-1017.000
384.299;  -79.600; -650.000; -662.000
384.428; -161.000; -764.000; -680.000
384.558;  -74.600; -308.000; -275.000
384.687;  -61.500; -414.000; -334.000
384.817;   47.900;   75.000;   -2.000
384.947;   13.500; -234.000; -141.000
385.076;  474.300;  982.000;  912.000
385.206;  201.000;  369.000;  480.000
385.335;  -53.400; -549.000; -417.000
385.465; -161.500; -655.000; -663.000
385.594;  213.100;  -53.000;  -44.000
385.724;  482.000; -868.000; -838.000
385.853;  110.100; -296.000; -270.000
385.982; 1771.700; -743.000; -787.000
386.112; 2705.800;-1052.000; -871.000
386.241;  170.400; -307.000; -312.000
386.371;   55.700; -174.000;  -87.000
386.500;  -41.700; -825.000; -789.000
386.629;    7.100; -874.000; -817.000
386.759;  112.400;  -43.000;   68.000
386.888;   -1.000; -170.000; -250.000
387.017; -133.900; -648.000; -620.000
387.147; -157.900; -771.000; -798.000
387.276;  -18.100; -410.000; -397.000
387.405;   -1.800; -398.000; -342.000
387.535;  -81.600; -452.000; -361.000
387.664; -132.200; -692.000; -620.000
387.793;   68.800; -198.000; -113.000
387.922;  750.100;  255.000;  200.000
388.052;  -37.200; -576.000; -423.000
388.181;  -24.000; -342.000; -472.000
388.310;  -64.300; -889.000; -710.000
388.439; -114.600; -749.000; -742.000
388.568;  282.700;  365.000;  244.000
388.697; 1342.700; -756.000; -653.000
388.826;  235.100; -768.000; -666.000
388.956;   69.900; -285.000; -307.000
389.085;  -59.200; -347.000; -287.000
389.214; -190.700; -842.000; -872.000
389.343; -123.000; -645.000; -413.000
389.472;  689.000;  126.000;  149.000
389.601;  822.800;   91.000;    0.000
389.730;    5.800; -568.000; -687.000
389.859;  169.500;  226.000;   46.000
389.988;  244.000; -423.000; -408.000
390.117;  195.800; -168.000; -146.000
390.246;   -9.200; -331.000; -320.000
390.375;  117.000; -673.000; -626.000
390.504;  -89.200; -703.000; -621.000
390.633; -172.300; -672.000; -726.000
390.761; -139.400; -732.000; -645.000
390.890;   82.900;   -4.000; -130.000
391.019;  -65.900; -421.000; -441.000
391.148; -218.700; -826.000; -855.000
391.277; -138.500; -576.000; -493.000
391.406; -147.400; -821.000; -805.000
391.534;   28.300;  574.000; -301.000
391.663;  -94.400; -583.000; -645.000
391.792; -156.100; -673.000; -701.000
391.921;  156.600;   -3.000;   15.000
392.050;  264.100; -287.000; -228.000
392.178; -118.000;-1206.000;-1061.000
392.307;  135.700; -758.000; -712.000
392.436;   46.800; -427.000; -641.000
392.564;   60.100;  166.000;   -6.000
392.693; -150.200; -860.000; -682.000
392.822;  231.300; -529.000; -534.000
392.950;   33.100; -880.000; -714.000
393.079;  421.800; -188.000; -328.000
393.208;  -12.500; -488.000; -511.000
393.336;   38.100; -170.000; -145.000
393.465;  -36.600; -317.000; -199.000
393.593;   46.500;   62.000;   79.000
393.722; -256.600;-1121.000; -916.000
393.850;  -11.900; -188.000;  -61.000
393.979; -263.000; -926.000; -805.000
394.107; -100.900; -517.000; -537.000
394.236;  -11.600; -570.000; -507.000
394.364;  487.900;  383.000;  206.000
394.493;  629.400; -911.000; -767.000
394.621;  -37.000; -955.000; -916.000
394.750; 1101.200; -873.000; -923.000
394.878; 4662.000; -247.000; -149.000
395.007; 5994.400; -721.000; -807.000
395.135;  380.000; -790.000; -721.000
395.263; -172.200;-1038.000;-1040.000
395.392;   44.400;  -25.000; -107.000
395.520; -146.600; -818.000; -679.000
395.648; -189.200; -865.000; -915.000
395.777;  -37.500; -366.000; -405.000
395.905;  -48.900; -449.000; -564.000
396.033;   73.300;  217.000;  172.000
396.162; 1120.100; -399.000; -453.000
396.290;  902.100;  -17.000;   -2.000
396.418;  110.500; -555.000; -514.000
396.546; -154.200; -571.000; -466.000
396.674; -200.400; -850.000; -878.000
396.803;   53.000;  -72.000;  -23.000
396.931;  138.000; -179.000; -199.000
397.059;  -56.000;-1026.000; -989.000
397.187; -189.800;-1026.000; -975.000
397.315; -224.200; -884.000; -649.000
397.443; -175.300; -592.000; -443.000
397.572; -141.600; -578.000; -424.000
397.700;  -77.500; -607.000; -614.000
397.828;   29.500;  120.000;  -90.000
397.956;  -38.700; -508.000; -478.000
398.084; -109.300; -767.000; -626.000
398.212;   90.900;  137.000;  124.000
398.340;   22.300;  -56.000;  159.000
398.468;   29.500; -390.000; -169.000
398.596; -242.200; -993.000; -953.000
398.724; -196.200; -762.000; -767.000
398.852; -302.200;-1024.000; -976.000
398.980;  -95.100; -560.000; -560.000
399.108; -131.700; -982.000; -735.000
399.236;   57.300;   13.000;    8.000
399.363;   84.400;  222.000;  196.000
399.491; -117.200; -404.000; -398.000
399.619; -216.200; -829.000; -800.000
399.747; -228.500; -859.000; -771.000
399.875;  171.900;  220.000;  234.000
400.003; -100.500; -359.000; -284.000
400.130; -124.900; -421.000; -341.000
400.258;  -11.000;  -83.000;   38.000
400.386;  -95.300; -352.000; -168.000
400.514;  -62.800; -526.000; -587.000
400.641; -183.500; -928.000; -802.000
400.769; -261.200; -979.000; -888.000
400.897; -189.700; -838.000; -793.000
401.025;  -14.900; -166.000; -152.000
401.152;   49.700;  220.000;   38.000
401.280; -127.500; -430.000; -429.000
401.408; -173.800; -712.000; -576.000
401.535; -176.400; -735.000; -758.000
401.663; -324.000;-1134.000;-1054.000
401.790; -137.800; -514.000; -525.000
401.918;  125.400;  436.000;  405.000
402.046;   37.600;  134.000;  122.000
402.173;  -13.400;  -18.000;    7.000
402.301; -105.400; -519.000; -397.000
402.428;  117.200;  528.000;  383.000
402.556; -252.600;-1188.000; -913.000
402.683;  -18.000;  -20.000;   -1.000
402.811;   -8.800;  -37.000; -206.000
402.938;   14.500;   20.000;   27.000
403.066;  202.400; -574.000; -558.000
403.193;  474.300;  299.000;  239.000
403.321;  332.200; -396.000; -574.000
403.448;  448.400;   83.000;   27.000
403.575;  192.800;  -90.000;  -46.000
403.703; -184.600; -732.000; -557.000
403.830;  -96.100; -531.000; -496.000
403.957; -222.000;-1117.000;-1023.000
404.085;   25.300;  -61.000; -172.000
404.212;  196.000;  -50.000;   63.000
404.339;  455.600; -566.000; -306.000
404.467; 9307.600; -612.000; -524.000
404.594; 5432.900; -287.000; -227.000
404.721; 1160.300; -869.000; -764.000
404.848;  123.300; -113.000; -202.000
404.976; -175.500; -856.000; -783.000
405.103;   14.100;  -14.000;  -82.000
405.230;   52.300;  190.000;  226.000
405.357;   52.500;  117.000;   44.000
405.484;  460.700;  -49.000;    5.000
405.612;   41.900; -548.000; -563.000
405.739;  -91.400; -488.000; -243.000
405.866;  244.700;  669.000;  385.000
405.993;  -67.400; -398.000; -102.000
406.120; -218.200; -801.000; -887.000
406.247;  -95.700; -323.000; -342.000
406.374;  657.800;  540.000;  629.000
406.501;   60.900; -632.000; -702.000
406.628; -166.000; -621.000; -589.000
406.755; -156.500; -803.000; -620.000
406.882;  -57.400; -228.000; -277.000
407.009; -152.600; -719.000; -628.000
407.136;   50.500; -480.000; -401.000
407.263;   79.400; -939.000; -829.000
407.390; -164.400; -692.000; -614.000
407.517; -305.800;-1139.000;-1187.000
407.644; -103.400; -332.000; -256.000
407.771;  -84.700; -249.000; -287.000
407.898;   86.100;  168.000;  328.000
408.025;  -96.500; -421.000; -313.000
408.151;   42.300;   82.000;  153.000
408.278;  -57.100; -267.000; -216.000
408.405; -190.500; -931.000; -899.000
408.532; -110.200; -549.000; -542.000
408.659; -216.500; -677.000; -648.000
408.785; -337.200;-1298.000;-1170.000
408.912;  -66.300; -412.000; -296.000
409.039; -162.300; -610.000; -686.000
409.166; -178.500; -591.000; -555.000
409.292; -194.600; -571.000; -534.000
409.419; -213.800; -665.000; -649.000
409.546; -123.200; -431.000; -192.000
409.672; -164.600; -713.000; -545.000
409.799;   18.700;  -36.000;   34.000
409.926;  -58.300; -180.000; -179.000
410.052; -307.100;-1127.000;-1091.000
410.179;  -78.500; -368.000; -392.000
410.305; -106.200; -375.000; -493.000
410.432;  -51.500; -220.000; -333.000
410.558; -141.400; -305.000; -380.000
410.685; -200.000; -688.000; -431.000
410.812; -139.600; -409.000; -588.000
410.938; -239.900; -964.000; -808.000
411.065; -144.300; -671.000; -645.000
411.191;  -14.100; -189.000; -174.000
411.317; -200.400; -823.000; -742.000
411.444;  -84.700; -317.000; -246.000
411.570; -101.800; -339.000; -294.000
411.697; -201.600; -758.000; -752.000
411.823; -296.700; -989.000; -999.000
411.949;  -19.800;  -56.000;   17.000
412.076; -168.200; -539.000; -519.000
412.202; -217.800; -758.000; -757.000
412.329; -215.600; -798.000; -752.000
412.455; -209.100; -821.000; -657.000
412.581;   10.000;  -15.000;  172.000
412.707; -124.800; -540.000; -457.000
412.834;   91.000;  156.000;  219.000
412.960; -130.100; -785.000; -784.000
413.086; -161.800; -743.000; -701.000
413.212;  261.300;  604.000;  578.000
413.339; -131.600; -685.000; -701.000
413.465;  -36.900; -364.000; -310.000
413.591; -161.400; -757.000; -474.000
413.717;  -74.800; -358.000; -366.000
413.843; -239.400; -839.000; -861.000
413.969;  -66.400;  -47.000; -292.000
414.096; -197.400; -679.000; -679.000
414.222;   28.700;  -33.000;   85.000
414.348;  -36.800; -652.000; -385.000
414.474;  153.700;   38.000;  -52.000
414.600;   32.100; -126.000; -144.000
414.726;   25.100;  -96.000;  -55.000
414.852;  -77.500; -365.000; -342.000
414.978;  108.600;  104.000;  -18.000
415.104;  136.700;   38.000;   80.000
415.230;   26.200; -329.000; -330.000
415.356;   39.300; -409.000; -514.000
415.482;  300.100;   13.000;  -35.000
415.608;  475.600; -247.000; -323.000
415.734; 1605.600;   67.000;   38.000
415.860;32093.300; -875.000; -767.000
415.986;21191.000; -685.000; -607.000
416.111; 1734.000; -798.000; -652.000
416.237;  358.600; -424.000; -571.000
416.363; 1937.800; -765.000; -733.000
416.489; 6530.100; -324.000; -251.000
416.615;  603.400; -707.000; -742.000
416.741;  -64.100; -677.000; -784.000
416.866; -142.300; -673.000; -736.000
416.992; -241.000; -801.000; -818.000
417.118;   -9.300;  -41.000;  -80.000
417.244; -153.800; -798.000; -531.000
417.369; -149.100; -801.000; -612.000
417.495;   -3.000; -325.000; -254.000
417.621; -147.500;-1015.000; -803.000
417.746;   15.800; -579.000; -572.000
417.872;  131.100; -254.000; -144.000
417.998;   87.000; -515.000; -530.000
418.123; 1803.000;-1073.000; -845.000
418.249; 8397.700; -512.000; -601.000
418.374; 1008.900; -916.000; -824.000
418.500;  101.800; -383.000; -482.000
418.626;  211.500;   70.000;  -59.000
418.751;  180.900; -549.000; -448.000
418.877;  267.500; -637.000; -643.000
419.002; 3130.600; -688.000; -560.000
419.128;19867.900; -930.000; -721.000
419.253; 4327.400; -967.000; -837.000
419.379;  571.900; -391.000; -338.000
419.504;  628.800;  325.000;  415.000
419.629;  849.500; -393.000; -212.000
419.755; 6156.100; -317.000; -254.000
419.880;33476.100;  -98.000;   67.000
420.006;18278.000; -280.000; -221.000
420.131;44924.400; -662.000; -775.000
420.256; 5880.600; -315.000; -316.000
420.382;  765.200; -665.000; -687.000
420.507;   29.600; -649.000; -778.000
420.632;  194.200; -337.000; -339.000
420.758;  298.800; -251.000; -425.000
420.883; -143.700; -876.000; -672.000
421.008; -175.900; -775.000; -619.000
421.133; -120.000; -509.000; -467.000
421.259;  -50.300; -325.000; -259.000
421.384; -188.300; -834.000; -693.000
421.509;  -95.900;-1052.000; -862.000
421.634; 1464.400; -936.000; -820.000
421.759;  533.400; -359.000; -327.000
421.885; -131.300; -717.000; -656.000
422.010; -120.400; -673.000; -542.000
422.135; -247.000; -695.000; -727.000
422.260;  126.200;  340.000;  280.000
422.385;   -8.400;   12.000;  -98.000
422.510;   12.300;  151.000;  -26.000
422.635;  101.800;  -87.000;  -43.000
422.760;  124.200; -766.000; -791.000
422.885;  119.200;  -57.000;  -80.000
423.010;   -7.800; -112.000; -169.000
423.135; -149.500; -481.000; -561.000
423.260;   14.500; -150.000; -245.000
423.385;  168.900;  476.000;  222.000
423.510;   79.100;   71.000;  -22.000
423.635;  123.000;  133.000;   45.000
423.760;  143.000;  383.000;  328.000
423.885;  145.300;  336.000;  391.000
424.010;   42.500;  -68.000;  -13.000
424.135;   -0.700;    5.000;  -33.000
424.259; -135.200; -654.000; -457.000
424.384;  -82.800; -279.000; -272.000
424.509;  -24.400; -260.000; -186.000
424.634; -186.300; -761.000; -623.000
424.759;  -58.300; -688.000; -544.000
424.883;   -5.100; -506.000; -527.000
425.008;  266.600; -502.000; -410.000
425.133; 3180.500; -679.000; -653.000
425.258; 1341.200; -517.000; -381.000
425.382; 1473.300; -867.000; -774.000
425.507; 3324.700; -487.000; -543.000
425.632;  538.600; -802.000; -663.000
425.756;  740.900; -256.000; -146.000
425.881;11369.400; -831.000; -857.000
426.006;27662.800; -604.000; -355.000
426.130; 3914.200; -696.000; -508.000
426.255;  497.300; -611.000; -491.000
426.379;  279.400; -189.000; -577.000
426.504;  711.800;  660.000;  544.000
426.629; 6576.900; -519.000; -466.000
426.753; 4011.400;   64.000;  -46.000
426.878;  467.200; -252.000; -288.000
427.002;  184.200; -651.000; -668.000
427.127; 2745.400;  -35.000; -158.000
427.251;18508.000;  372.000;  401.000
427.375; 4631.000; -191.000; -173.000
427.500; 3097.400; -616.000; -610.000
427.624;  935.400; -234.000; -400.000
427.749;  139.600; -216.000; -225.000
427.873;  -66.700; -499.000; -412.000
427.997;  -45.000; -222.000; -230.000
428.122;  211.800;  795.000;  703.000
428.246;  206.300;  433.000;  434.000
428.371; -211.900; -869.000; -773.000
428.495; -182.100; -624.000; -646.000
428.619;   -9.400; -186.000; -117.000
428.743;   69.100;   65.000;  132.000
428.868;   11.600; -732.000; -643.000
428.992; 1867.600; -219.000; -326.000
429.116;  715.700; -329.000; -357.000
429.240;  400.700;  419.000;  426.000
429.365;  -57.700; -454.000; -574.000
429.489;  -55.900; -638.000; -647.000
429.613;   87.300; -236.000; -177.000
429.737;   48.600; -563.000; -432.000
429.861;  457.500; -247.000; -133.000
429.985; 9188.500; -425.000; -305.000
430.109; 9143.700; -770.000; -908.000
430.234; 1024.900;   76.000;  -50.000
430.358;   99.900; -250.000; -160.000
430.482; -114.700; -672.000; -564.000
430.606;  -96.600; -655.000; -375.000
430.730;   46.900; -437.000; -388.000
430.854;  119.900; -909.000; -835.000
430.978; -142.500; -795.000; -764.000
431.102;  -94.000; -499.000; -422.000
431.226; -192.000; -874.000; -815.000
431.350;   89.200;  345.000;  422.000
431.474; -120.700; -661.000; -373.000
431.597; -267.000;-1060.000; -848.000
431.721;  -91.500; -276.000; -267.000
431.845; -219.300; -704.000; -472.000
431.969;  -88.400; -304.000; -349.000
432.093; -112.200; -395.000; -317.000
432.217;  -17.700;   32.000;   82.000
432.341; -117.500; -523.000; -518.000
432.464;   33.800;   96.000;   40.000
432.588;  257.900; -401.000; -329.000
432.712;   95.900;  -52.000;  -52.000
432.836;  173.200;  213.000;  263.000
432.959;   -1.300; -372.000; -311.000
433.083;  183.900;   11.000;    2.000
433.207;  688.900;  285.000;  930.000
433.330; 8390.400; -391.000; -200.000
433.454; 9389.900; -654.000; -638.000
433.578; 5610.300;  583.000;  278.000
433.701;  922.600; -623.000; -675.000
433.825;  190.800; -292.000; -299.000
433.949;  207.400;   28.000;  -72.000
434.072;   40.000; -410.000; -323.000
434.196;    8.200; -309.000; -117.000
434.319; 7753.900;25482.000;25124.000
434.443; 1200.000; -656.000; -603.000
434.566; 4195.100;  281.000;   62.000
434.690;  575.500; -637.000; -383.000
434.813;  124.200; -251.000; -173.000
434.937; -117.700; -569.000; -696.000
435.060;  -57.200; -423.000; -332.000
435.184;  381.500; -492.000; -217.000
435.307;  190.700;  159.000;  102.000
435.431;   41.100;  -40.000;   24.000
435.554;  -99.300; -399.000; -240.000
435.677; -120.100; -350.000; -258.000
435.801;    1.900;  -25.000;   49.000
435.924;   14.600;    1.000;  -67.000
436.048; -227.400;-1019.000; -732.000
436.171;  -71.500; -240.000;  -66.000
436.294;    2.300; -248.000; -229.000
436.417;  132.300; -963.000; -849.000
436.541; -157.200; -814.000; -840.000
436.664;  -51.200; -242.000; -316.000
436.787;   22.700;   13.000;  113.000
436.910; -204.900; -792.000; -422.000
437.034;   57.200;  142.000;  143.000
437.157;  110.500;  -11.000;    0.000
437.280;  -64.800; -392.000; -292.000
437.403; -172.900; -982.000; -869.000
437.526;  780.900; -903.000; -865.000
437.649; 2739.500; -505.000; -332.000
437.772;  309.200; -692.000; -540.000
437.896;  269.200;  700.000;  544.000
438.019; -173.300; -758.000; -503.000
438.142; -138.200; -596.000; -506.000
438.265;  -49.500; -639.000; -670.000
438.388;  683.500; -520.000; -410.000
438.511;   73.700; -597.000; -394.000
438.634;  -98.600; -247.000; -125.000
438.757; -220.400; -693.000; -619.000
438.880;  -25.900;  -34.000;  -57.000
439.003; -126.200; -417.000; -437.000
439.126;  -63.600; -287.000; -167.000
439.248;  -57.200;  -98.000; -139.000
439.371;  -19.400;    9.000;  -53.000
439.494;  151.300;  510.000;  439.000
439.617;  -42.800;   65.000;  -88.000
439.740; -308.900; -968.000; -816.000
439.863; -219.700; -755.000; -595.000
439.986; -174.800; -476.000; -431.000
440.108;  -52.200; -161.000; -112.000
440.231; -260.700; -950.000; -836.000
440.354;  -46.800;  -64.000; -150.000
440.477;   39.200; -566.000; -542.000
440.599;   -8.800; -200.000; -225.000
440.722; -172.500; -709.000; -586.000
440.845;  170.300;  751.000;  928.000
440.968; -184.800; -415.000; -311.000
441.090;  -64.500; -199.000;  -33.000
441.213; -291.400;-1021.000; -825.000
441.336;  -70.000; -159.000;   -5.000
441.458; -123.800; -549.000; -396.000
441.581; -163.500; -628.000; -629.000
441.703;  -72.700; -152.000;   13.000
441.826; -180.700; -557.000; -400.000
441.948;    0.200;   56.000;   51.000
442.071;  131.300;  555.000;  424.000
442.193; -155.800; -531.000; -485.000
442.316;   79.100;  152.000;   97.000
442.438;   82.800; -233.000;  -10.000
442.561;  151.700;  272.000;  262.000
442.683;  631.300; -809.000; -522.000
442.806; 1393.800;   -8.000;   74.000
442.928;  -60.900; -859.000; -604.000
443.051; -115.100; -577.000; -373.000
443.173; -116.700; -341.000; -339.000
443.295; -129.400; -263.000; -371.000
443.418;  -83.800; -321.000;  -29.000
443.540;    4.600; -106.000;   -4.000
443.662; -189.300; -563.000; -465.000
443.785;   14.300;  335.000;  199.000
443.907; -151.200; -362.000; -208.000
444.029; -222.100; -767.000; -494.000
444.152; -229.600; -644.000; -554.000
444.274;  -14.000;  -18.000;  -24.000
444.396; -165.200; -461.000; -221.000
444.518; -228.600; -691.000; -454.000
444.640; -153.000; -268.000; -111.000
444.763;   26.900;  388.000;  249.000
444.885; -200.800; -432.000; -392.000
445.007;  -15.200;   35.000;   86.000
445.129; -139.400; -610.000; -515.000
445.251; -173.000; -372.000; -439.000
445.373; -199.700; -537.000; -386.000
445.495;   53.300;  242.000;  350.000
445.617;  144.300;  853.000;  753.000
445.739;  -96.500; -215.000;  -97.000
445.861;  -26.800; -245.000; -112.000
445.984;  -18.000; -267.000; -101.000
446.105;  257.000; -418.000; -251.000
446.227;  756.800; -176.000;  -19.000
446.349;  -16.600; -358.000; -249.000
446.471; -192.200; -615.000; -448.000
446.593;  -96.300; -316.000;   19.000
446.715;    5.700;  -67.000;   41.000
446.837;  204.400;  697.000;  832.000
446.959; -138.900; -457.000; -478.000
447.081; -237.800; -628.000; -518.000
447.203;  139.500;  862.000;  834.000
447.325; -115.100; -270.000;   42.000
447.446;   58.000;  286.000;  530.000
447.568; -271.100; -921.000; -803.000
447.690; -142.700; -236.000; -245.000
447.812; -238.200; -798.000; -519.000
447.933;    7.100;  155.000;  127.000
448.055;  -73.400; -306.000; -261.000
448.177;  240.400;   31.000;   79.000
448.299;    8.600; -935.000; -727.000
448.420;   79.300;  -25.000;  159.000
448.542;  -43.000;   -3.000;   33.000
448.664;   24.600;  109.000;  322.000
448.785;    6.600;  265.000;   83.000
448.907; -121.300; -614.000; -353.000
449.028;  -97.300; -771.000; -471.000
449.150;  189.500;  492.000;  589.000
449.272; -290.400;-1044.000; -913.000
449.393;  115.400;  612.000;  694.000
449.515; -230.900; -634.000; -581.000
449.636;  -67.700; -264.000; -155.000
449.758;  210.200;  763.000;  622.000
449.879; -118.200; -498.000; -396.000
450.001;  -97.300; -149.000;  -49.000
450.122;  -18.900;  -95.000;  162.000
450.244;   35.300;   37.000;  364.000
450.365; -141.700; -495.000; -301.000
450.486;  -10.700;   80.000;  268.000
450.608;  101.700;  393.000;  326.000
450.729;  190.200;  578.000;  645.000
450.850;   24.700; -574.000; -466.000
450.972; 1364.400; -552.000; -389.000
451.093; 8128.800;  190.000;  588.000
451.214; 3044.700; -516.000; -337.000
451.336;  627.100;  773.000;  579.000
451.457;  171.400;  264.000;  393.000
451.578;  -26.000; -118.000;  -74.000
451.699; -199.600; -546.000; -540.000
451.821;  -90.000; -284.000;  -50.000
451.942;   51.200;  278.000;  285.000
452.063;  124.000;  228.000;  419.000
452.184; 1011.700;  -54.000;  -49.000
452.305; 1706.800;  103.000;  170.000
452.427;  175.500; -549.000; -301.000
452.548;   -3.000;   23.000;   79.000
452.669;  -68.700; -257.000;  -89.000
452.790;  -46.200;    3.000;  -18.000
452.911;   39.000;  195.000;  259.000
453.032; -114.700; -289.000;  -60.000
453.153;  -27.700;  -29.000;   81.000
453.274;  149.900;  737.000;  868.000
453.395;  -17.600;  -51.000;  175.000
453.516;  317.300; 1317.000; 1388.000
453.637;  -96.000; -205.000; -150.000
453.758;  -35.100;   15.000;   69.000
453.879; -127.300; -462.000; -250.000
454.000;  204.600; 1086.000;  948.000
454.121; -183.900; -554.000; -326.000
454.242; -192.400; -599.000; -383.000
454.362;  -43.000;  -99.000;  114.000
454.483;  -40.100; -309.000; -229.000
454.604;  165.500;  512.000;  580.000
454.725; -231.100; -627.000; -555.000
454.846; -201.000; -474.000; -406.000
454.967;   14.900;  230.000;  539.000
455.087;  -30.200;  179.000;  153.000
455.208;  102.200;  554.000;  856.000
455.329;  -74.600;  -22.000;   82.000
455.450;  145.600;  473.000;  633.000
455.570; -102.300; -234.000; -211.000
455.691;  -25.500;  201.000;  407.000
455.812; -136.000; -270.000;  -92.000
455.932;  -49.600;  107.000;  -97.000
456.053; -134.400;   36.000;   24.000
456.173; -171.300; -433.000; -355.000
456.294; -198.000; -476.000; -303.000
456.415;  -69.200;  -73.000;   70.000
456.535;   18.100;  297.000;  273.000
456.656;  -22.500;  132.000;  240.000
456.776;  -66.300;    3.000;  298.000
456.897;   60.400;  308.000;  513.000
457.017; -101.900; -153.000;   -3.000
457.138; -166.700; -402.000; -249.000
457.258;    7.800;  263.000;  224.000
457.379;   43.400;  509.000;  521.000
457.499;  -14.800;  443.000;  432.000
457.620; -171.500; -407.000; -231.000
457.740; -103.800; -132.000;  -11.000
457.860;  -32.900;   87.000;   44.000
457.981;  -34.800;  132.000;  124.000
458.101; -114.300;  -89.000;   40.000
458.221;   35.600;  336.000;  402.000
458.342;  -48.400;   -4.000;  -37.000
458.462;  123.500;  617.000;  352.000
458.582;  -28.000; -302.000; -294.000
458.703;   77.800;  303.000;  154.000
458.823;   -6.600;   22.000;  163.000
458.943;   98.500;  341.000;  467.000
459.063;    6.300; 1124.000;  192.000
459.183;   21.700;  328.000;  313.000
459.304;   96.800;  315.000;  517.000
459.424;  -92.000; -246.000;  -89.000
459.544;  649.200;  388.000;  764.000
459.664; 1420.100;  499.000;  506.000
459.784;  530.500; 1004.000; 1175.000
459.904;  160.100;  867.000;  744.000
460.024;  186.400;  867.000;  684.000
460.144;   78.600;  449.000;  554.000
460.264;   44.800;  515.000;  327.000
460.385; -113.100; -145.000; -119.000
460.505;  139.000;  905.000;  858.000
460.625; -104.600;  -17.000;  -68.000
460.745;   34.400;  396.000;  541.000
460.864;  -22.600;  153.000;  469.000
460.984;   55.900;  499.000;  573.000
461.104;  331.300; 1656.000; 1775.000
461.224;  114.100;  657.000;  650.000
461.344;   42.100;  431.000;  360.000
461.464;   18.200;  258.000;  513.000
461.584;   31.600;  283.000;  466.000
461.704;  -36.000;   58.000;  108.000
461.824;  -32.000;  238.000;  259.000
461.943;  -46.200;  191.000;  130.000
462.063;  -78.200;    2.000;  324.000
462.183;  116.200;  639.000;  717.000
462.303;  317.200; 1678.000; 1230.000
462.422;  134.000;  781.000;  840.000
462.542;  -26.400;  271.000;  391.000
462.662;  129.800;  353.000;  380.000
462.782;  494.200;  833.000;  572.000
462.901;  842.800;  545.000;  717.000
463.021;  581.200; 1702.000; 1638.000
463.141;   53.700;  337.000;  770.000
463.260;   62.100;  614.000;  474.000
463.380;  102.600;  902.000;  884.000
463.499;  -33.700;  342.000;  332.000
463.619;   -7.600;  581.000;  559.000
463.738;  314.400; 1644.000;  903.000
463.858;  112.600;  657.000;  811.000
463.978;    8.900;  542.000;  396.000
464.097;  156.200;  921.000; 1114.000
464.217;  309.600; 1196.000; 1143.000
464.336;  287.200; 1068.000; 1130.000
464.455;  -14.500;  328.000;  659.000
464.575;  132.500;  597.000;  602.000
464.694;  392.900; 1204.000; 1179.000
464.814;  306.100; 1190.000; 1138.000
464.933;  227.900; 1095.000; 1027.000
465.052;  252.700; 1412.000; 1054.000
465.172;  228.900;  922.000;  799.000
465.291;  284.300; 1376.000; 1320.000
465.410;   98.700;  462.000;  735.000
465.530;  251.700; 1355.000; 1310.000
465.649;  198.700; 1209.000; 1273.000
465.768;  330.000; 1673.000; 1508.000
465.888;  158.200;  941.000; 1174.000
466.007;  280.300; 1335.000; 1440.000
466.126;   56.700;  721.000;  641.000
466.245;  159.200; 1176.000; 1187.000
466.364;   74.100;  950.000; 1060.000
466.484;  172.600; 1024.000; 1213.000
466.603;  171.200; 1101.000; 1222.000
466.722;  318.500; 1490.000; 1769.000
466.841;  227.900; 1151.000; 1401.000
466.960;  130.400; 1069.000;  972.000
467.079;  320.600; 1971.000; 1786.000
467.198;  196.000; 1238.000; 1181.000
467.317;  244.800; 1768.000; 1162.000
467.436;  198.700; 1709.000; 1261.000
467.555;  314.500; 1796.000; 1746.000
467.674;  245.300; 1227.000; 1329.000
467.793;  194.100; 1376.000; 1374.000
467.912;  241.900; 1658.000; 1539.000
468.031;  381.900; 2038.000; 1930.000
468.150;  350.900; 1842.000; 1837.000
468.269;  473.700; 2313.000; 2090.000
468.388;  465.600; 2168.000; 2339.000
468.507;  579.600; 2884.000; 2903.000
468.626;  615.100; 2555.000; 2541.000
468.744;  361.600; 2018.000; 2174.000
468.863;  484.500; 2312.000; 2523.000
468.982;  255.500; 1503.000; 1555.000
469.101;  544.400; 2788.000; 2692.000
469.220;  375.100; 2333.000; 2176.000
469.338;  572.700; 2935.000; 3051.000
469.457;  470.200; 2719.000; 2545.000
469.576;  736.700; 3953.000; 3784.000
469.695;  566.200; 2877.000; 3066.000
469.813;  950.600; 4148.000; 4192.000
469.932;  912.100; 4255.000; 4485.000
470.051;  896.800; 4075.000; 4161.000
470.169; 1701.400; 4470.000; 4338.000
470.288; 2611.800; 4700.000; 4809.000
470.406; 1563.300; 5059.000; 5194.000
470.525; 1303.300; 6101.000; 5787.000
470.644; 1334.500; 6847.000; 6794.000
470.762; 1673.500; 8397.000; 7873.000
470.881; 1923.900; 8651.000; 8464.000
470.999; 2099.000; 9685.000; 9151.000
471.118; 2336.000;11174.000;10711.000

