
Integration time [ms]: 200.000
Averaging Nr. [scans]: 10
Smoothing Nr. [pixels]: 0
Data measured with spectrometer [name]: 2101012U2
Wave   ;Sample   ;Dark     ;Reference
[nm]   ;[counts] ;[counts] ;[counts] 

197.733;  122.900;  516.000;  404.000
197.879; -167.800; -610.000; -634.000
198.025; -135.200; -475.000; -420.000
198.171; -180.600; -602.000; -612.000
198.317;  -81.500; -401.000; -316.000
198.463; -127.200; -655.000; -404.000
198.609;   40.600;  181.000; -137.000
198.755; -168.100; -644.000; -410.000
198.901; -137.500; -505.000; -424.000
199.047; -136.300; -615.000; -488.000
199.193;  -49.800; -230.000; -468.000
199.339;  -74.200; -222.000; -369.000
199.485;   77.500;  330.000;  271.000
199.631;   37.300;  227.000;  310.000
199.777;  -97.900; -466.000; -398.000
199.923; -119.500; -610.000; -424.000
200.069;   -5.900; -141.000;  -58.000
200.215;  126.000;  128.000;  453.000
200.361;   97.300;  243.000;  477.000
200.507; -149.100; -600.000; -373.000
200.653;  -35.700; -371.000; -194.000
200.798;  -64.200; -215.000; -125.000
200.944;  -57.100; -146.000;  -41.000
201.090;   91.000;   61.000;  222.000
201.236;  -24.900; -116.000; -158.000
201.382;  259.500;  874.000;  903.000
201.528;   -0.300;  -58.000;  -48.000
201.674;  -44.600; -386.000; -293.000
201.819; -137.600; -540.000; -439.000
201.965; -193.000; -699.000; -447.000
202.111;  -62.100; -273.000; -226.000
202.257;  -64.700; -250.000; -238.000
202.402;   13.700;   13.000;  -36.000
202.548;  -79.900; -169.000; -116.000
202.694;  138.600;  410.000; -183.000
202.840; -139.900; -603.000; -531.000
202.985; -194.300; -681.000; -639.000
203.131; -197.200; -832.000; -666.000
203.277;  -59.200; -199.000; -262.000
203.423; -121.300; -434.000; -520.000
203.568;  -87.600; -462.000; -237.000
203.714; -143.800; -535.000; -542.000
203.860; -177.100; -682.000; -641.000
204.005;   26.900;  112.000;  167.000
204.151;  168.000;  561.000;  556.000
204.296;  -87.100; -354.000; -221.000
204.442; -151.100; -600.000; -547.000
204.588; -184.200; -592.000; -579.000
204.733;   36.500;  178.000;  168.000
204.879; -273.300;-1018.000; -822.000
205.025;    6.100;  -99.000;  126.000
205.170;   24.100;  -17.000;   94.000
205.316;  175.900;  438.000;  661.000
205.461; -174.500; -698.000; -554.000
205.607;  198.300;  609.000;  665.000
205.752; -163.800; -626.000; -551.000
205.898; -146.300; -501.000; -391.000
206.043; -111.400; -578.000; -506.000
206.189;  -82.800; -243.000; -285.000
206.334;  152.000;  554.000;  606.000
206.480;  197.900;  409.000;  239.000
206.625; -167.000; -529.000; -552.000
206.771;  -63.200; -451.000; -373.000
206.916;  -56.200; -210.000; -537.000
207.062; -144.600; -545.000; -591.000
207.207; -134.100; -546.000; -443.000
207.353;  106.400;  185.000;  460.000
207.498;   36.400;  196.000;   85.000
207.643;  -95.200; -501.000; -370.000
207.789; -267.600;-1069.000; -910.000
207.934; -227.200; -665.000; -713.000
208.080;  -41.800; -154.000;   66.000
208.225;    4.300;  -22.000;  -57.000
208.370; -158.000; -727.000; -619.000
208.516; -156.600; -741.000; -487.000
208.661;  -36.800; -127.000;  -69.000
208.806;  -34.200; -165.000; -171.000
208.952; -269.700;-1044.000; -731.000
209.097;  138.800;  378.000;  349.000
209.242; -103.500; -307.000; -382.000
209.387;  123.200;  392.000;  350.000
209.533;  -75.100; -321.000; -350.000
209.678;  168.500;  472.000;  543.000
209.823; -116.400; -408.000; -310.000
209.969; -202.200; -860.000; -757.000
210.114; -230.300; -907.000; -719.000
210.259; -247.200; -939.000; -889.000
210.404;  -23.300; -171.000;  103.000
210.549;   19.400;  108.000;    3.000
210.695;  -32.600;   -3.000;  -95.000
210.840;   50.700;   94.000;   67.000
210.985; -148.400; -484.000; -303.000
211.130;  123.200;  268.000;  406.000
211.275;   58.600;  207.000;  199.000
211.420; -119.900; -300.000; -289.000
211.566; -139.600; -536.000; -489.000
211.711;   81.000;  218.000;  157.000
211.856; -125.900; -545.000; -519.000
212.001;   33.800;  151.000;   44.000
212.146;    9.900;  153.000;   49.000
212.291;  -36.000; -210.000; -186.000
212.436;  -44.300; -280.000;   -6.000
212.581; -205.900; -685.000; -653.000
212.726; -148.700; -487.000; -538.000
212.871; -113.000; -552.000; -217.000
213.016; -303.400;-1172.000;-1029.000
213.161;  138.300;  406.000;  291.000
213.306; -161.600; -435.000; -577.000
213.451; -191.400; -778.000; -689.000
213.596;  -81.500; -455.000; -347.000
213.741; -127.500; -448.000; -538.000
213.886; -150.600; -498.000; -517.000
214.031;  -49.000; -294.000; -124.000
214.176; -112.600; -408.000; -341.000
214.321;  -57.400; -296.000; -157.000
214.466;  -53.300; -163.000;  -43.000
214.611;   -3.500;  -61.000;  -10.000
214.756; -217.000; -948.000; -858.000
214.901;  -31.400; -388.000; -226.000
215.046; -218.600; -797.000; -825.000
215.191;   39.200;  128.000;   35.000
215.336;   -0.700; -157.000;  -19.000
215.480; -126.700; -684.000; -505.000
215.625;    3.700; -175.000;  -19.000
215.770; -167.000; -757.000; -662.000
215.915;   13.700;   -5.000;  -97.000
216.060;    5.700; -113.000;  -21.000
216.205; -239.300; -731.000; -779.000
216.349; -155.000; -470.000; -533.000
216.494; -292.800; -939.000; -867.000
216.639; -239.400; -823.000; -888.000
216.784; -160.800; -577.000; -525.000
216.929;  117.100;  392.000;  281.000
217.073;  -19.400; -244.000;  -31.000
217.218;   21.900;   78.000;  -47.000
217.363; -147.300; -656.000; -618.000
217.507; -195.400; -623.000; -588.000
217.652; -251.100; -845.000; -874.000
217.797; -177.700; -708.000; -659.000
217.942; -218.600; -856.000; -720.000
218.086;  161.900;  608.000;  539.000
218.231;  -11.900; -174.000;  -26.000
218.376;  -89.000; -337.000; -229.000
218.520;   10.700;  -41.000;   96.000
218.665;  -54.300; -338.000; -204.000
218.810;  -70.300; -275.000; -233.000
218.954;   50.700;  201.000;   35.000
219.099; -236.000; -713.000; -963.000
219.243; -152.800; -589.000; -554.000
219.388;  -41.700; -264.000; -136.000
219.532;  -37.700; -116.000; -116.000
219.677; -126.100; -564.000; -521.000
219.822;   19.700;   33.000;   89.000
219.966;   11.600;   17.000;  -99.000
220.111;  -70.500; -328.000;  -40.000
220.255; -223.800; -797.000; -750.000
220.400;  -47.700; -180.000; -146.000
220.544; -128.800; -516.000; -450.000
220.689; -106.600; -422.000; -451.000
220.833;  -70.000; -123.000;  -58.000
220.978;  -81.400; -393.000; -563.000
221.122;   54.000;  319.000;  307.000
221.267; -254.800; -906.000; -837.000
221.411; -150.600; -478.000; -394.000
221.555;  -14.000; -104.000;  -23.000
221.700;  -83.600; -329.000; -222.000
221.844;   76.800;  255.000;  272.000
221.989; -118.300; -328.000; -311.000
222.133;  -57.000; -289.000; -307.000
222.277;  -14.900;    5.000;   78.000
222.422;   41.100;  227.000;  113.000
222.566;  -56.400; -381.000; -214.000
222.711; -118.300; -414.000; -479.000
222.855; -141.300; -643.000; -586.000
222.999; -163.600; -642.000; -717.000
223.144;  -53.300; -195.000; -194.000
223.288;  137.400;  423.000;  251.000
223.432;   17.100;  184.000;  230.000
223.576;   34.500;  152.000;  -21.000
223.721;   81.700;  364.000;  273.000
223.865; -106.400; -472.000; -475.000
224.009;  551.500; 1673.000; 1631.000
224.153; -158.200; -660.000; -671.000
224.298; -162.600; -531.000; -489.000
224.442;  -28.200;  -74.000;  -33.000
224.586;   -8.400; -169.000; -106.000
224.730; -235.800; -858.000; -670.000
224.875; -239.800; -739.000; -688.000
225.019;   21.800;  102.000;  188.000
225.163;  148.700;  208.000;  341.000
225.307;   22.200;   97.000;  -91.000
225.451;  109.900;  360.000;  481.000
225.595;   65.000;  264.000;  176.000
225.739;  -54.000; -170.000;  -94.000
225.884;   24.000;   86.000;    5.000
226.028; -183.200; -760.000; -626.000
226.172;  -87.800; -260.000; -273.000
226.316; -273.800; -941.000; -902.000
226.460; -127.900; -645.000; -493.000
226.604;  -90.500; -406.000; -400.000
226.748; -206.400; -836.000; -733.000
226.892;  -70.100; -227.000; -181.000
227.036;  -94.100; -537.000; -447.000
227.180; -123.400; -551.000; -375.000
227.324; -127.700; -561.000; -580.000
227.468; -227.000; -819.000; -717.000
227.612;   22.300;  242.000;  -28.000
227.756; -184.200; -845.000; -698.000
227.900;  129.000;  342.000;  441.000
228.044; -101.200; -509.000; -290.000
228.188;  128.200;  448.000;  568.000
228.332; -148.500; -546.000; -472.000
228.476;  -46.200; -223.000; -149.000
228.620;  -42.300; -210.000; -150.000
228.764;  177.300;  431.000;  349.000
228.908;  -11.000; -155.000;   30.000
229.052; -107.100; -615.000; -528.000
229.195;  -13.400; -172.000;   13.000
229.339;  -26.400; -235.000; -305.000
229.483;  -35.800;    5.000; -162.000
229.627;   -7.700; -156.000;  139.000
229.771; -105.900; -218.000; -294.000
229.915;   26.000;  230.000;   79.000
230.059; -177.400; -648.000; -663.000
230.202;  -83.600; -370.000; -317.000
230.346;  -16.000; -107.000;  107.000
230.490; -136.800; -489.000; -521.000
230.634; -210.900; -736.000; -553.000
230.777;  142.900;  478.000;  509.000
230.921; -118.500; -450.000; -359.000
231.065;  -60.600; -246.000; -286.000
231.209;   98.900;  261.000;  265.000
231.352;   46.600;   54.000;   40.000
231.496;   43.900;  568.000;  188.000
231.640; -182.000; -693.000; -621.000
231.783;  159.300;  546.000;  525.000
231.927;  -65.600; -294.000; -365.000
232.071; -253.800; -962.000; -736.000
232.214; -213.600; -980.000; -764.000
232.358; -191.100; -683.000; -599.000
232.502;   18.600;  -19.000;    7.000
232.645; -282.500;-1090.000; -927.000
232.789;  -20.500; -257.000; -218.000
232.933;  -60.500; -407.000; -224.000
233.076; -266.400;-1038.000; -897.000
233.220; -195.100; -752.000; -777.000
233.363; -159.300; -669.000; -477.000
233.507;  128.600;  371.000;  129.000
233.650; -185.800; -764.000; -834.000
233.794;  124.700;  438.000;  461.000
233.938; -119.500; -530.000; -362.000
234.081;  -10.500;  -93.000;   31.000
234.225; -123.300; -631.000; -539.000
234.368; -224.200; -773.000; -723.000
234.512;  -61.500; -385.000; -299.000
234.655; -184.100; -582.000; -555.000
234.798; -124.700; -493.000; -466.000
234.942; -251.300; -884.000;-1002.000
235.085; -132.100; -651.000; -443.000
235.229; -102.200; -405.000; -410.000
235.372; -100.100; -247.000; -191.000
235.516; -126.500; -397.000; -321.000
235.659;   45.200;   92.000;  121.000
235.802;  -12.500;  -38.000;  -22.000
235.946;   66.800;  335.000;  215.000
236.089;   75.300;  126.000;  250.000
236.233;   98.700;  275.000;  298.000
236.376;  -70.000; -235.000; -378.000
236.519;  -84.400; -297.000; -319.000
236.663;  -35.400; -215.000; -117.000
236.806; -259.300;-1029.000; -999.000
236.949;  145.200;  543.000;  431.000
237.092;  114.900;  412.000;  391.000
237.236; -166.500; -589.000; -502.000
237.379;  159.400;  352.000;  428.000
237.522; -219.100; -879.000; -768.000
237.666;  -32.400; -271.000;   18.000
237.809; -248.200; -851.000; -823.000
237.952;   84.900;  469.000;  271.000
238.095; -143.800; -447.000; -442.000
238.238;  187.000;  688.000;  700.000
238.382;   36.100;  166.000;  103.000
238.525; -120.200; -598.000; -511.000
238.668; -276.400;-1060.000; -985.000
238.811; -158.000; -638.000; -643.000
238.954;  -97.800; -483.000; -334.000
239.097;  226.700;  617.000;  664.000
239.241;   80.300;  394.000;  326.000
239.384;  -51.200; -254.000; -214.000
239.527; -126.400; -424.000; -224.000
239.670; -313.500; -994.000;-1091.000
239.813; -219.300; -696.000; -658.000
239.956;  195.300;  579.000;  473.000
240.099; -241.000; -778.000; -725.000
240.242;  172.100;  428.000;  432.000
240.385;   94.600;  466.000;  450.000
240.528; -123.200; -706.000; -473.000
240.671;   59.000;  189.000;  134.000
240.814;  -78.500; -441.000; -158.000
240.957; -192.400; -767.000; -578.000
241.100; -205.200; -779.000; -755.000
241.243; -304.200;-1234.000; -893.000
241.386; -128.400; -508.000; -379.000
241.529; -180.800; -735.000; -547.000
241.672; -121.600; -566.000; -495.000
241.815; -222.200; -832.000; -808.000
241.958;  -62.100; -125.000; -182.000
242.101; -168.000; -545.000; -390.000
242.244;  -71.500; -270.000; -325.000
242.387;  -56.300; -304.000; -246.000
242.530;  116.200;  470.000;  134.000
242.673;  -68.500; -381.000; -309.000
242.815; -223.800; -925.000; -899.000
242.958; -146.700; -482.000; -381.000
243.101;   26.300;  132.000;  187.000
243.244; -151.700; -564.000; -521.000
243.387;  -72.600; -313.000; -316.000
243.530; -186.500; -657.000; -674.000
243.672;   19.800;   43.000;  -92.000
243.815; -113.900; -355.000; -283.000
243.958;   -6.300;   98.000;  -26.000
244.101;   38.200;   59.000;  -16.000
244.243;  -12.400;  -47.000;  101.000
244.386; -222.900; -761.000; -630.000
244.529;  -38.400; -132.000; -139.000
244.672; -310.800;-1154.000; -951.000
244.814; -237.000; -621.000; -794.000
244.957; -104.000; -380.000; -304.000
245.100; -139.300; -489.000; -489.000
245.242; -107.200; -387.000; -374.000
245.385;   -8.100;  -59.000;  -39.000
245.528; -217.800; -871.000; -705.000
245.670;  193.600;  612.000;  634.000
245.813; -176.200; -599.000; -547.000
245.956;  -38.700; -324.000; -275.000
246.098; -176.300; -508.000; -650.000
246.241;   32.600;  194.000;   48.000
246.383;  -11.900; -119.000;  -73.000
246.526; -138.300; -454.000; -525.000
246.669; -225.600; -889.000; -780.000
246.811;   39.900;  172.000;   -1.000
246.954; -115.700; -512.000; -426.000
247.096;  -17.800;  -84.000;   -6.000
247.239; -124.600; -482.000; -445.000
247.381; -131.500; -647.000; -488.000
247.524;  176.800;  645.000;  679.000
247.666;   -5.600;   58.000;   11.000
247.809; -240.200; -887.000; -691.000
247.951;   -9.900;  -75.000;  138.000
248.094;   67.600;  432.000;  308.000
248.236; -307.900;-1262.000;-1238.000
248.378;   52.800; -356.000;  -81.000
248.521;  -64.300; -334.000; -337.000
248.663;  -42.700; -236.000; -267.000
248.806;  -36.000; -300.000; -266.000
248.948; -167.300; -886.000; -763.000
249.090; -121.700; -428.000; -398.000
249.233;  -89.300; -344.000; -381.000
249.375; -121.400; -474.000; -451.000
249.518;  -36.800;  -83.000; -133.000
249.660;   11.600; -103.000;    3.000
249.802; -369.200;-1303.000;-1189.000
249.945; -133.800; -612.000; -540.000
250.087; -235.600; -834.000; -768.000
250.229;  -81.400; -362.000; -480.000
250.371; -159.100; -494.000; -439.000
250.514; -118.400; -310.000; -244.000
250.656;    0.800;   69.000;  102.000
250.798; -238.600; -849.000; -800.000
250.940; -128.100; -322.000; -322.000
251.083;  -33.100; -335.000; -111.000
251.225;  161.000;  338.000;  310.000
251.367;  -42.900; -274.000; -373.000
251.509;  -86.500; -265.000; -210.000
251.651; -199.300; -731.000; -671.000
251.794;  103.000;  538.000;  632.000
251.936; -200.400; -821.000; -747.000
252.078; -135.600; -540.000; -461.000
252.220; -149.400; -645.000; -477.000
252.362;  172.300;  344.000;  462.000
252.504; -137.500; -677.000; -584.000
252.646; -213.300; -875.000; -722.000
252.788;   28.100;   14.000; -128.000
252.931;  -63.600; -257.000; -253.000
253.073;  -64.200; -376.000; -317.000
253.215;   15.200;  141.000;  122.000
253.357;  -23.400;   82.000; -153.000
253.499;  -89.500; -374.000; -234.000
253.641; -177.400; -749.000; -594.000
253.783; -192.000; -609.000; -527.000
253.925; -156.500; -586.000; -591.000
254.067; -223.900; -744.000; -667.000
254.209;  -56.300; -391.000; -259.000
254.351; -278.600; -865.000; -883.000
254.493; -111.800; -441.000; -417.000
254.635; -224.200; -936.000; -818.000
254.777; -163.100; -752.000; -687.000
254.918; -151.500; -512.000; -430.000
255.060; -115.700; -551.000; -395.000
255.202;  -99.500; -473.000; -261.000
255.344; -153.400; -658.000; -455.000
255.486; -138.700; -471.000; -406.000
255.628; -203.500; -780.000; -781.000
255.770; -166.500; -676.000; -536.000
255.912; -142.800; -559.000; -468.000
256.053; -182.500; -730.000; -508.000
256.195;  310.500; 1008.000;  903.000
256.337; -207.700; -861.000; -595.000
256.479;  127.000;  532.000;  416.000
256.621;  -65.100; -394.000; -212.000
256.762; -195.200; -789.000; -742.000
256.904;  132.800;  485.000;  487.000
257.046; -105.800; -381.000; -271.000
257.188;  -95.900; -351.000; -264.000
257.329; -142.900; -525.000; -464.000
257.471; -221.500; -939.000; -807.000
257.613; -119.700; -584.000; -498.000
257.755; -281.700;-1073.000; -982.000
257.896;   82.100;  286.000;  392.000
258.038; -106.700; -403.000; -352.000
258.180;  -63.100; -354.000; -279.000
258.321; -164.200; -581.000; -457.000
258.463;    7.700;  -71.000;  133.000
258.605; -168.200; -562.000; -570.000
258.746; -229.000; -886.000; -772.000
258.888; -318.700;-1026.000;-1020.000
259.029;   72.700;  121.000;   -8.000
259.171; -177.000; -614.000; -550.000
259.313;   -3.600;  -49.000;  -47.000
259.454; -112.700; -536.000; -414.000
259.596;  -69.300; -483.000; -390.000
259.737; -133.000; -590.000; -474.000
259.879;   63.700;  217.000;  311.000
260.020;  212.200;  901.000;  636.000
260.162;  -13.100; -146.000; -253.000
260.303; -208.300; -768.000; -687.000
260.445; -183.900; -609.000; -613.000
260.586;   52.900;  392.000;  157.000
260.728;  -68.400; -360.000; -248.000
260.869; -115.600; -350.000; -343.000
261.011;  220.000;  706.000;  537.000
261.152;  -86.800; -479.000; -319.000
261.293; -149.000; -576.000; -595.000
261.435;  -38.300; -219.000; -184.000
261.576; -111.400; -455.000; -325.000
261.718;  121.500;  420.000;  470.000
261.859; -253.200; -940.000; -949.000
262.000; -238.400; -951.000;-1016.000
262.142;  -48.500;  -52.000;  -60.000
262.283; -237.400; -808.000; -691.000
262.424; -199.300; -666.000; -625.000
262.566; -283.600;-1161.000; -983.000
262.707; -240.900; -840.000; -830.000
262.848; -245.800; -769.000; -726.000
262.990;  -65.400; -362.000; -345.000
263.131;  221.100;  650.000;  681.000
263.272;   -0.700;  -61.000;  -41.000
263.413; -182.600; -589.000; -561.000
263.555; -134.100; -669.000; -143.000
263.696; -141.800; -550.000; -641.000
263.837; -121.100; -449.000; -551.000
263.978;   14.900;   -5.000;  -77.000
264.119;  -55.900; -283.000; -264.000
264.261; -211.600; -847.000; -630.000
264.402;    3.000;   33.000;   40.000
264.543; -114.300; -509.000; -524.000
264.684;   14.200;   61.000;  -50.000
264.825; -134.100; -816.000; -538.000
264.966;    6.300;  -84.000;  -67.000
265.107; -220.200; -646.000; -670.000
265.248; -216.200; -825.000; -812.000
265.390;   22.200;  152.000;   -9.000
265.531;  -50.500; -238.000; -107.000
265.672; -175.700; -557.000; -630.000
265.813;  145.900;  563.000;  439.000
265.954; -290.700; -959.000; -940.000
266.095;  -24.800; -372.000; -322.000
266.236; -191.200; -686.000; -548.000
266.377;  -61.100; -243.000; -297.000
266.518; -110.200; -619.000; -547.000
266.659;   89.800;  170.000;  268.000
266.800;   23.500;   83.000;   85.000
266.941; -153.500; -487.000; -478.000
267.082;   56.000;  354.000;   99.000
267.223;  -97.500; -344.000; -273.000
267.364; -222.900; -892.000; -686.000
267.504;   -9.100;    3.000;  135.000
267.645;   41.000;  160.000;   67.000
267.786;  -86.000; -147.000;  -86.000
267.927; -135.900; -473.000; -379.000
268.068;   -3.800; -186.000;  -61.000
268.209;  -87.400; -175.000; -413.000
268.350; -118.700; -388.000; -532.000
268.490; -175.700; -648.000; -521.000
268.631;   87.900;  127.000;  225.000
268.772; -197.300; -874.000; -647.000
268.913;  -87.700; -328.000; -476.000
269.054;  -22.800; -117.000;   12.000
269.194;  -60.100; -418.000; -402.000
269.335; -317.100;-1137.000;-1074.000
269.476;  -39.600;   33.000;  -35.000
269.617;  -80.200; -347.000; -392.000
269.757; -176.200; -713.000; -646.000
269.898; -176.200; -856.000; -613.000
270.039; -125.700; -415.000; -405.000
270.180; -261.000; -952.000; -816.000
270.320;  -14.600; -190.000; -250.000
270.461;  -55.800; -277.000; -249.000
270.602;  -15.500; -186.000; -156.000
270.742; -252.300; -868.000; -943.000
270.883;  -91.700; -442.000; -390.000
271.023; -103.200; -358.000; -357.000
271.164; -159.600; -607.000; -528.000
271.305; -189.800; -666.000; -654.000
271.445; -179.000; -722.000; -683.000
271.586; -127.700; -462.000; -283.000
271.726;  -63.300; -397.000; -322.000
271.867; -111.600; -594.000; -534.000
272.008;  285.800; -473.000; -285.000
272.148;  264.300;  462.000;  468.000
272.289;   33.400; -113.000; -181.000
272.429;   37.400;   19.000;  185.000
272.570; -188.400; -633.000; -737.000
272.710; -202.900; -825.000; -775.000
272.851;  -31.700;  113.000; -130.000
272.991; -335.800;-1173.000;-1077.000
273.131; -107.900; -419.000; -459.000
273.272; -185.400; -683.000; -723.000
273.412;   22.400; -143.000;  -31.000
273.553;  -93.300; -488.000; -507.000
273.693;  270.300;  913.000;  858.000
273.834; -167.100; -894.000; -692.000
273.974; -157.700; -664.000; -615.000
274.114; -186.900; -772.000; -560.000
274.255;  151.700;  414.000;  373.000
274.395;   -7.300; -180.000; -125.000
274.535;   86.600;  199.000;  350.000
274.676;   49.500;  225.000;   94.000
274.816;    4.300;  110.000;   34.000
274.956; -184.400; -624.000; -690.000
275.097; -201.500;-1014.000; -922.000
275.237; -227.800; -913.000; -803.000
275.377; -215.000; -778.000; -689.000
275.517; -302.400; -878.000; -937.000
275.658; -125.900; -590.000; -555.000
275.798; -130.500; -606.000; -413.000
275.938;   70.300;  215.000;  323.000
276.078; -151.400; -626.000; -395.000
276.218;   32.800;   99.000;  104.000
276.359; -239.500;-1026.000;-1024.000
276.499; -136.000; -605.000; -446.000
276.639;  -50.000; -305.000; -151.000
276.779;  -94.100; -475.000; -357.000
276.919; -220.900; -783.000; -624.000
277.059;   -9.600; -261.000; -212.000
277.199;  -69.000; -357.000; -259.000
277.340;  106.400;  287.000;  175.000
277.480; -203.600; -840.000; -693.000
277.620;   59.700;  192.000;   16.000
277.760; -394.400;-1533.000;-1294.000
277.900;   53.600;  113.000;   33.000
278.040;   42.400;  137.000;  159.000
278.180;  106.400;  270.000;  170.000
278.320;   24.500;   21.000;   56.000
278.460; -122.800; -443.000; -469.000
278.600; -152.100; -708.000; -598.000
278.740;  166.500;  448.000;  224.000
278.880; -178.100; -768.000; -791.000
279.020;   33.300; -194.000; -144.000
279.160; -141.700; -672.000; -595.000
279.300; -219.700; -926.000; -873.000
279.440; -197.800; -709.000; -622.000
279.579; -110.400;-1014.000; -929.000
279.719;  -88.800; -410.000; -394.000
279.859;  139.600;   -4.000;   41.000
279.999;   92.900; -208.000;  101.000
280.139;  -52.200; -435.000; -387.000
280.279; -160.500; -708.000; -745.000
280.419;  -45.100; -229.000; -147.000
280.559;  -42.200; -259.000; -180.000
280.698; -149.700; -790.000; -639.000
280.838; -183.200; -778.000; -800.000
280.978; -209.400; -846.000; -790.000
281.118; -186.900; -811.000; -704.000
281.257;   -0.400;   24.000;    6.000
281.397; -229.100;-1094.000; -960.000
281.537; -176.200; -599.000; -712.000
281.677;  -16.300; -150.000; -101.000
281.816; -164.800; -700.000; -630.000
281.956;  -49.700; -193.000; -257.000
282.096; -109.000; -539.000; -396.000
282.235; -222.800; -672.000; -638.000
282.375;  -11.600; -243.000;  -98.000
282.515; -184.500; -715.000; -707.000
282.654;    0.700;   29.000;  106.000
282.794;  101.500;  388.000;  244.000
282.934; -109.400; -530.000; -491.000
283.073; -242.900;-1030.000; -857.000
283.213;  -74.600; -460.000; -467.000
283.353;  -84.500; -408.000; -349.000
283.492;  -54.000; -264.000; -296.000
283.632;  -61.800; -254.000; -168.000
283.771; -192.800; -859.000; -730.000
283.911;  -88.700; -369.000; -260.000
284.050; -198.400; -794.000; -748.000
284.190; -307.400;-1229.000;-1096.000
284.329; -287.800;-1055.000; -964.000
284.469; -136.500; -516.000; -591.000
284.608; -104.500; -559.000; -598.000
284.748; -153.500; -614.000; -570.000
284.887;  -12.300;  -87.000;  -20.000
285.027; -250.900; -844.000; -892.000
285.166;  -39.700; -192.000; -249.000
285.306;   30.800; -116.000;  -33.000
285.445;  -66.100; -229.000; -343.000
285.584; -189.500; -630.000; -494.000
285.724; -108.300; -282.000; -322.000
285.863; -209.700; -857.000; -507.000
286.002;  -83.500; -366.000; -276.000
286.142; -212.000; -715.000; -622.000
286.281; -118.500; -525.000; -493.000
286.420; -150.500; -554.000; -417.000
286.560;  231.900;  653.000;  623.000
286.699; -259.000; -958.000; -912.000
286.838; -160.100; -590.000; -591.000
286.978; -154.300; -533.000; -537.000
287.117; -263.800;-1085.000; -950.000
287.256;  -51.400; -228.000; -211.000
287.395;  -80.900; -197.000; -378.000
287.535;  -81.300; -370.000; -298.000
287.674; -145.900; -509.000; -484.000
287.813;  152.100;  661.000;  533.000
287.952; -260.400;-1010.000; -871.000
288.091; -298.000;-1049.000; -915.000
288.231;   52.600;   13.000;   15.000
288.370; -341.300;-1217.000;-1200.000
288.509; -172.400; -728.000; -645.000
288.648; -183.800; -770.000; -548.000
288.787;  -62.100; -243.000;  -87.000
288.926; -126.000; -454.000; -475.000
289.065;  269.400;  859.000;  672.000
289.204;  -85.500; -377.000; -217.000
289.344; -158.600; -791.000; -690.000
289.483;   85.800;  416.000;  304.000
289.622;  -39.100; -291.000; -149.000
289.761;   15.100; -309.000; -166.000
289.900; -188.800; -785.000; -626.000
290.039;   -2.800;  -12.000;  -95.000
290.178;  -69.000; -274.000; -180.000
290.317; -154.700; -618.000; -479.000
290.456; -111.400; -463.000; -451.000
290.595; -287.900; -961.000; -833.000
290.734; -279.700; -904.000; -891.000
290.873;  -90.400; -456.000; -420.000
291.011; -209.300; -833.000; -843.000
291.150; -191.300; -770.000; -682.000
291.289;  -12.100; -343.000; -110.000
291.428; -179.700; -599.000; -480.000
291.567;  -68.600; -370.000; -442.000
291.706;    7.200;  109.000;  154.000
291.845; -171.600; -597.000; -505.000
291.984; -310.000;-1234.000;-1061.000
292.122;  161.000;  602.000;  582.000
292.261;  123.600;  620.000;  463.000
292.400;   28.800; -144.000;  211.000
292.539; -233.200; -959.000; -813.000
292.678;  -73.200; -325.000; -300.000
292.816; -277.900;-1136.000; -965.000
292.955; -174.600; -844.000; -684.000
293.094;  -22.100; -173.000; -337.000
293.233;  -99.900; -556.000; -400.000
293.371;  -25.500; -225.000;  -84.000
293.510; -212.800; -866.000; -780.000
293.649; -249.500; -959.000; -924.000
293.787; -147.200;-1083.000;-1012.000
293.926;   34.000; -113.000;  -32.000
294.065;  -66.600; -379.000; -290.000
294.203;   98.200;  298.000;  406.000
294.342;   59.100;   74.000;  156.000
294.481;13612.800;51180.000; -836.000
294.619;  -28.100; -425.000; -582.000
294.758; -275.100;-1230.000;-1137.000
294.896;  101.700; -125.000;    5.000
295.035; -246.200;-1040.000;-1006.000
295.174; -232.600;-1082.000; -954.000
295.312;  -43.400; -323.000; -203.000
295.451;  -31.600; -307.000; -428.000
295.589; -109.000; -389.000; -518.000
295.728;   65.400; -292.000; -165.000
295.866;   12.500;  -36.000;  -51.000
296.005; -146.200; -584.000; -341.000
296.143; -116.100; -558.000; -596.000
296.282; -208.800; -957.000; -881.000
296.420; -123.100; -657.000; -557.000
296.559; -174.500; -892.000; -633.000
296.697;   -2.800; -847.000; -665.000
296.835;   36.700;-1141.000;-1002.000
296.974;   90.600;  -23.000;   39.000
297.112;    4.100; -443.000; -504.000
297.251; -129.000; -815.000; -755.000
297.389;  138.700; -576.000; -438.000
297.527;  106.200; -145.000;  -83.000
297.666;  -67.700; -486.000; -438.000
297.804; -127.400; -404.000; -264.000
297.942;   10.500; -136.000; -161.000
298.081;   19.500; -183.000;   63.000
298.219;  115.100;  -17.000;  -19.000
298.357;   86.500; -144.000;  -71.000
298.495;    8.800; -810.000; -812.000
298.634;  164.800;  245.000;  219.000
298.772;   52.800; -220.000; -338.000
298.910;  -37.900; -309.000; -182.000
299.048;   -8.200; -130.000; -153.000
299.187;  -41.900; -350.000; -250.000
299.325;   61.900;   52.000;  122.000
299.463;   62.100; -389.000; -299.000
299.601;  178.800; -327.000; -271.000
299.739; -195.800; -908.000; -883.000
299.877; -134.400; -791.000; -703.000
300.016; -130.300;-1095.000; -935.000
300.154;  289.300;  -19.000; -161.000
300.292;   77.900; -428.000; -348.000
300.430;   22.700; -408.000; -291.000
300.568; -197.100; -940.000; -874.000
300.706; -105.700; -366.000; -469.000
300.844; -160.300;-1108.000; -979.000
300.982;  233.100;  246.000;  282.000
301.120; -213.200; -965.000; -866.000
301.258; -124.700; -812.000; -705.000
301.396;   94.600;  104.000;  -41.000
301.534;  102.500; -218.000; -293.000
301.672;    5.100; -664.000; -521.000
301.810;  -18.100; -613.000; -545.000
301.948;  264.700;   53.000;  149.000
302.086;  936.600; -250.000;  -32.000
302.224; 1486.300; -610.000; -585.000
302.362;   28.200; -558.000; -622.000
302.500;  -82.500; -923.000; -893.000
302.638;  227.300;  128.000;  245.000
302.776;   22.500; -352.000; -408.000
302.913;  123.500;  447.000;  236.000
303.051;    6.900;  -86.000;  -23.000
303.189;  103.500;   90.000;  118.000
303.327;  -15.300; -341.000; -256.000
303.465; -148.600; -832.000; -588.000
303.603; -159.200; -805.000; -604.000
303.740;  214.600;  417.000;  241.000
303.878;   14.200; -800.000; -759.000
304.016; -180.000; -915.000; -790.000
304.154; -258.700;-1123.000;-1152.000
304.291;  -70.000; -505.000; -554.000
304.429;   38.900;  102.000;   74.000
304.567; -249.900; -908.000; -893.000
304.705;  -74.800; -408.000; -515.000
304.842;  136.300; -616.000; -540.000
304.980;  132.600;  215.000;   35.000
305.118;   50.900; -367.000; -365.000
305.255; -153.800; -945.000; -927.000
305.393;  114.100;  178.000;  239.000
305.531; -188.900;-1173.000; -956.000
305.668; -166.000; -663.000; -582.000
305.806;  138.300; -358.000; -439.000
305.943;  147.000; -629.000; -637.000
306.081;   91.400; -378.000; -267.000
306.219; -180.800; -863.000; -748.000
306.356;   27.400;  158.000;   27.000
306.494;  288.700;  981.000;  761.000
306.631;   52.100;  -11.000;  -55.000
306.769;   22.500; -613.000; -485.000
306.906;   20.600; -284.000; -258.000
307.044;  -92.000; -473.000; -488.000
307.181;  -69.500; -410.000; -332.000
307.319;  110.200;  112.000;   87.000
307.456; -345.100;-1191.000;-1153.000
307.594; -201.400; -980.000; -727.000
307.731;   14.800; -371.000; -164.000
307.868;    9.000;  -15.000;   20.000
308.006; -263.700; -961.000; -847.000
308.143; -120.700; -618.000; -330.000
308.281;  363.700;  -37.000; -254.000
308.418;   -5.900; -748.000; -640.000
308.555; -106.400; -400.000; -250.000
308.693; -113.400; -577.000; -573.000
308.830; -183.600; -712.000; -657.000
308.967;   -2.500; -215.000;  -95.000
309.105;  -41.000; -507.000; -396.000
309.242;   98.500; -468.000; -367.000
309.379;  650.000; -577.000; -655.000
309.517;  -84.300; -936.000; -948.000
309.654; -173.700; -910.000; -734.000
309.791; -112.900; -662.000; -580.000
309.928; -214.300; -977.000; -914.000
310.065;  366.500;  819.000;  697.000
310.203;  -50.200; -825.000; -850.000
310.340;  -21.800; -465.000; -321.000
310.477; -117.100; -412.000; -516.000
310.614;  -85.500; -383.000; -473.000
310.751; -116.400; -427.000; -518.000
310.889;  -55.300;    1.000;   11.000
311.026; -278.900;-1161.000; -939.000
311.163;  -65.300; -386.000; -380.000
311.300; -124.100; -512.000; -479.000
311.437; -151.400; -658.000; -619.000
311.574; -310.900;-1226.000; -985.000
311.711; -106.300; -595.000; -433.000
311.848;  -87.300; -380.000; -388.000
311.985;   46.300;  270.000;   93.000
312.122; -197.200; -932.000; -762.000
312.259; -232.700; -941.000; -994.000
312.396; -103.500; -508.000; -551.000
312.533; -141.100; -812.000; -790.000
312.670; -247.800;-1070.000; -898.000
312.807;  -42.700; -352.000; -367.000
312.944; -146.200; -513.000; -611.000
313.081;  -49.800; -150.000; -415.000
313.218; -218.300;-1111.000; -867.000
313.355;   20.100; -531.000; -449.000
313.492;    6.200; -455.000; -292.000
313.629;  291.300;  815.000;  735.000
313.766; -296.600;-1176.000;-1008.000
313.902;   -8.600; -186.000;   21.000
314.039;  -51.400; -372.000; -289.000
314.176;   82.500;  286.000;  192.000
314.313; -130.800; -569.000; -473.000
314.450; -168.700; -788.000; -684.000
314.587;  -80.800; -468.000; -480.000
314.723;   67.800;  -78.000;  130.000
314.860;  145.500;  318.000;  332.000
314.997;   82.000;  223.000;  142.000
315.134;  -52.300; -385.000; -368.000
315.270;  -44.000; -480.000; -496.000
315.407; -249.600;-1094.000; -967.000
315.544;  -62.900; -657.000; -538.000
315.681; -139.500; -681.000; -565.000
315.817;   61.800; -133.000; -176.000
315.954;    2.700; -613.000; -392.000
316.091; -253.800;-1045.000;-1023.000
316.227;   12.000;  -71.000; -179.000
316.364;   -7.900;   23.000;    6.000
316.500;  -48.000; -113.000; -300.000
316.637;  -69.200; -181.000; -302.000
316.774; -129.500; -625.000; -358.000
316.910; -158.000; -598.000; -629.000
317.047; -109.100; -487.000; -351.000
317.183;  -91.100; -435.000; -566.000
317.320;  -34.600; -367.000; -321.000
317.456; -123.500; -733.000; -805.000
317.593; -173.700; -598.000; -641.000
317.729;   31.600;  168.000;  -67.000
317.866; -398.200;-1434.000;-1285.000
318.002; -164.000; -708.000; -948.000
318.139; -177.300; -883.000; -867.000
318.275; -195.500;-1003.000; -738.000
318.412;  -94.400; -517.000; -336.000
318.548;  -84.200; -751.000; -720.000
318.685; -165.900; -985.000; -888.000
318.821; -182.000; -762.000; -735.000
318.957;  -36.800;   34.000;  -23.000
319.094;  122.300;  297.000;  154.000
319.230; -134.400; -756.000; -742.000
319.367;  186.600; -471.000; -520.000
319.503;   92.800; -538.000; -436.000
319.639; -183.000; -877.000; -793.000
319.775; -102.000; -750.000; -685.000
319.912; -107.000; -424.000; -519.000
320.048; -207.300;-1184.000;-1184.000
320.184;  189.600;   59.000;   70.000
320.321; -104.600; -497.000; -467.000
320.457;  164.200;  475.000;  662.000
320.593;  -85.600; -375.000; -382.000
320.729; -204.200; -732.000; -734.000
320.866; -117.500; -577.000; -635.000
321.002; -139.900; -759.000; -809.000
321.138;  -12.700; -135.000; -211.000
321.274;  126.100; -148.000; -115.000
321.410;  -51.600; -585.000; -353.000
321.546;  -82.900;-1011.000; -911.000
321.683;  142.800;  400.000;  185.000
321.819;   66.000;  -48.000; -117.000
321.955; -217.000; -743.000; -722.000
322.091;  -93.800; -585.000; -540.000
322.227;  -21.800; -382.000; -202.000
322.363;  -17.800; -320.000; -215.000
322.499;  -36.100; -343.000; -331.000
322.635;  342.600;  636.000;  443.000
322.771;   45.800; -139.000;   12.000
322.907;  193.200;  129.000;  327.000
323.043;  -25.700; -115.000; -206.000
323.179;  -92.000; -394.000; -363.000
323.315;   39.600; -401.000; -371.000
323.451;  149.100; -328.000; -236.000
323.587;  123.600;  -60.000;  -77.000
323.723;    2.200; -682.000; -601.000
323.859;  -10.300; -258.000;  -76.000
323.995;  -46.100; -467.000; -409.000
324.131; -223.700; -967.000; -892.000
324.267;  -20.200; -254.000; -276.000
324.402; -235.900; -960.000; -983.000
324.538;  -25.600; -279.000; -104.000
324.674;   76.900;  164.000;   77.000
324.810;  242.400;  226.000;  308.000
324.946;   -4.500; -810.000; -658.000
325.082; -108.200; -568.000; -475.000
325.217;    7.200;  -62.000;   16.000
325.353; -218.200; -764.000; -659.000
325.489; -155.100; -540.000; -506.000
325.625; -156.400; -579.000; -525.000
325.760;  176.800;  517.000;  376.000
325.896;  -15.500; -515.000; -702.000
326.032;  -79.700; -403.000; -352.000
326.168;  -90.200; -462.000; -369.000
326.303;  -76.000; -352.000; -461.000
326.439;  -21.400; -336.000; -276.000
326.575;   -3.000; -190.000;  -29.000
326.710;   10.800; -156.000;  -30.000
326.846;   -0.600;  146.000;  103.000
326.982; -163.500; -530.000; -548.000
327.117; -107.500; -481.000; -442.000
327.253; -151.300; -745.000; -742.000
327.388; -310.000;-1137.000;-1153.000
327.524;  -88.300; -811.000; -578.000
327.659;    5.300;  -58.000;  -22.000
327.795;   -4.700;   69.000;   45.000
327.931; -138.900; -723.000; -499.000
328.066;  -45.300; -417.000; -276.000
328.202;    4.200;   12.000; -129.000
328.337;  236.300;  957.000;  713.000
328.473;   -0.500;  -12.000;  -74.000
328.608;   -0.200; -256.000; -267.000
328.743; -151.600; -799.000; -664.000
328.879;   46.600;  214.000;  114.000
329.014; -112.700; -102.000; -122.000
329.150; -188.800; -358.000; -483.000
329.285; -142.700; -465.000; -466.000
329.421;  -80.300; -548.000; -246.000
329.556;   -2.200;  -36.000;   85.000
329.691; -163.000; -633.000; -615.000
329.827; -152.800; -626.000; -480.000
329.962;  -48.500;  131.000; -301.000
330.097; -114.300; -673.000; -585.000
330.233;  -55.300; -410.000; -223.000
330.368; -243.700; -839.000; -628.000
330.503;   35.200;    3.000;   98.000
330.638;   43.000;  -93.000; -125.000
330.774; -103.100; -609.000; -530.000
330.909;  -63.000; -434.000; -244.000
331.044; -188.600; -714.000; -708.000
331.179; -351.900;-1217.000;-1109.000
331.315;   45.200;   77.000;   20.000
331.450;    0.600;  157.000;  285.000
331.585; -206.600; -805.000; -706.000
331.720; -146.700; -510.000; -460.000
331.855;   33.100;  -35.000; -102.000
331.990;  520.500;   62.000;  138.000
332.126;  280.000; -110.000;   71.000
332.261;    6.500; -379.000; -265.000
332.396;    4.400; -135.000; -242.000
332.531; -171.200;-1074.000;-1031.000
332.666;   80.300; -519.000; -363.000
332.801; -147.500; -726.000; -807.000
332.936;  -33.700; -192.000; -122.000
333.071; -312.300; -870.000; -817.000
333.206;   60.300;  307.000;  379.000
333.341;   89.200;  344.000;  418.000
333.476; -142.100; -627.000; -623.000
333.611;  -49.900; -251.000; -173.000
333.746;  -87.200; -381.000; -464.000
333.881; -238.000; -973.000; -935.000
334.016; -233.600; -936.000; -917.000
334.151; -218.000; -746.000; -702.000
334.286;   89.200;  152.000;  186.000
334.421;    0.800; -125.000; -178.000
334.556; -124.700; -611.000; -567.000
334.690; -126.500; -631.000; -577.000
334.825;  124.900;  381.000;   83.000
334.960;  -94.500; -285.000; -413.000
335.095;   13.900;  135.000;  -91.000
335.230; -200.600; -722.000; -738.000
335.365; -269.500;-1084.000; -990.000
335.499; -261.800;-1108.000;-1037.000
335.634;   50.800;    9.000;  534.000
335.769; -187.900; -755.000; -720.000
335.904; -109.100; -603.000; -561.000
336.038; -122.200; -735.000; -657.000
336.173; -242.800;-1206.000;-1194.000
336.308;   70.100; -116.000; -189.000
336.443;   57.600; -544.000; -634.000
336.577; -162.000; -936.000; -787.000
336.712;  122.000;   -4.000;  -12.000
336.847;  -56.900; -724.000; -607.000
336.981;  104.700; -272.000; -208.000
337.116;  539.800;  615.000;  501.000
337.250;  227.400; -434.000; -421.000
337.385;  483.000; -297.000; -208.000
337.520;  201.500; -632.000; -603.000
337.654;  -15.300; -215.000; -126.000
337.789; -250.700; -989.000; -933.000
337.923;  -47.600; -104.000; -205.000
338.058; -150.200; -673.000; -738.000
338.192;  -59.500; -611.000; -488.000
338.327;   28.400;  -18.000; -155.000
338.461; -102.900; -299.000; -469.000
338.596; -145.600; -780.000; -638.000
338.730; -171.400; -767.000; -803.000
338.865;  191.100;  -46.000; -140.000
338.999;  -65.800; -846.000; -702.000
339.134;  -31.900; -634.000; -536.000
339.268;   35.600; -741.000; -603.000
339.403;  670.600; -740.000; -775.000
339.537;  250.200; -894.000; -820.000
339.671; -160.100; -829.000; -813.000
339.806;  -93.500; -556.000; -512.000
339.940;   44.900; -261.000; -235.000
340.074; -176.000; -685.000; -510.000
340.209;  -54.300; -351.000; -230.000
340.343; -158.500; -517.000; -573.000
340.477;  356.900;  998.000; 1036.000
340.612;  -88.300;-1033.000; -900.000
340.746;  265.100; -199.000; -243.000
340.880; -155.500; -924.000; -785.000
341.014;  -35.700;  -45.000; -154.000
341.149; -195.000; -756.000; -718.000
341.283; -211.200; -839.000; -754.000
341.417; -194.100;-1124.000; -938.000
341.551;  158.100; -768.000; -708.000
341.685;  -90.200; -633.000; -611.000
341.820;  -51.200; -562.000; -493.000
341.954;  -65.600; -218.000; -349.000
342.088; -327.100;-1102.000;-1019.000
342.222;  132.100;  565.000;  618.000
342.356;  -87.800; -395.000; -335.000
342.490; -169.900; -880.000; -841.000
342.624;  -60.300; -339.000; -242.000
342.758;   15.500; -364.000; -312.000
342.892; -168.900; -710.000; -585.000
343.026;  -41.500;  -58.000; -116.000
343.160; -106.400; -426.000; -376.000
343.294; -155.200; -474.000; -337.000
343.428;  -60.500; -488.000; -448.000
343.562;    6.000; -172.000;  -23.000
343.696;  -54.000; -385.000; -314.000
343.830;  -30.600; -362.000; -356.000
343.964;   46.200; -231.000; -168.000
344.098; 1408.300;  199.000;   70.000
344.232; 1207.100; -266.000; -127.000
344.366;  140.800; -567.000; -453.000
344.500;   90.900; -665.000; -744.000
344.634;   85.400; -324.000; -164.000
344.768;  -63.500; -531.000; -341.000
344.902;   93.100;  278.000;  256.000
345.035; -122.900; -556.000; -496.000
345.169; -253.100; -933.000; -656.000
345.303;  -58.800; -308.000; -482.000
345.437; -152.400; -826.000; -717.000
345.571; -126.600; -675.000; -594.000
345.704;  -91.100; -309.000; -532.000
345.838;   12.600; -331.000; -284.000
345.972;  -69.000; -543.000; -495.000
346.106;  346.500; -179.000; -190.000
346.239;  777.900; -312.000; -243.000
346.373;   -3.600; -343.000; -302.000
346.507; -258.800; -950.000; -962.000
346.640;  235.800;  -30.000;   13.000
346.774; -111.300; -650.000; -797.000
346.908;  -29.800; -138.000;  -11.000
347.041; -181.700; -646.000; -593.000
347.175;   74.900;  259.000;   27.000
347.309; -136.200; -698.000; -628.000
347.442; -208.000; -883.000; -732.000
347.576;  503.700;  670.000;  668.000
347.709;  318.900; -123.000;  -52.000
347.843; -185.600; -933.000; -825.000
347.976;   92.500;  235.000;  294.000
348.110; -330.800;-1268.000;-1186.000
348.243; -193.100; -679.000; -772.000
348.377;   70.700;  -26.000;   60.000
348.510;  132.500;  403.000;  540.000
348.644;  -19.300;  -37.000; -159.000
348.777;   51.200;  180.000;  191.000
348.911;  -43.200; -142.000; -112.000
349.044;  340.600;  471.000;  448.000
349.178;  193.500;-1069.000;-1006.000
349.311;  242.600;  141.000;  255.000
349.444;  -15.700; -927.000; -813.000
349.578;  -48.500; -347.000; -200.000
349.711; -186.300; -959.000; -862.000
349.845;  -44.600; -661.000; -591.000
349.978; -277.900;-1224.000;-1137.000
350.111; -125.200; -546.000; -612.000
350.244; -159.600; -596.000; -700.000
350.378;    2.300; -392.000; -393.000
350.511; -106.000; -393.000; -426.000
350.644; -192.300; -808.000; -806.000
350.778;   58.400;  168.000;  104.000
350.911;   41.000;  134.000;  140.000
351.044; -161.300; -685.000; -615.000
351.177;  -65.500; -321.000; -281.000
351.310;  -23.400;    3.000; -131.000
351.444; -189.500; -888.000; -788.000
351.577;  196.600;  140.000;   90.000
351.710;  245.300;  593.000;  417.000
351.843;  -38.500; -165.000;  -77.000
351.976;   22.100;  149.000;  -79.000
352.109; -157.300; -621.000; -612.000
352.242;  -57.800; -464.000; -419.000
352.376;  -99.300; -580.000; -636.000
352.509;  275.200; -437.000; -356.000
352.642;  -27.900; -654.000; -604.000
352.775;   83.700; -141.000;  -98.000
352.908; -220.600; -933.000; -904.000
353.041; -184.700; -814.000; -824.000
353.174; -133.800; -551.000; -424.000
353.307; -187.800; -753.000; -764.000
353.440;  187.600;  541.000;  453.000
353.573; -200.300; -957.000;-1008.000
353.706;  -81.500; -384.000; -558.000
353.839;  -30.400; -264.000; -220.000
353.971; -154.600; -657.000; -512.000
354.104; -160.900; -896.000; -835.000
354.237;  -80.800; -627.000; -662.000
354.370; -166.600; -846.000; -879.000
354.503; -335.700;-1231.000;-1308.000
354.636;  -14.100; -529.000; -348.000
354.769; -266.400; -937.000; -860.000
354.902;   -0.700; -230.000; -139.000
355.034;  -34.400; -164.000; -220.000
355.167;  -12.500; -262.000; -162.000
355.300; -164.600;-1061.000; -880.000
355.433; 1871.900;  -71.000;  -14.000
355.565; 2872.500; -402.000; -384.000
355.698;  750.800; -356.000; -296.000
355.831;  -15.600; -882.000; -801.000
355.964;  145.800; -285.000; -170.000
356.096; -182.900; -856.000; -843.000
356.229;  -24.200; -523.000; -530.000
356.362;  647.100; -373.000; -266.000
356.494; 1166.500; -229.000; -162.000
356.627;  875.500;  269.000;  377.000
356.760; 1247.400;  120.000;   53.000
356.892; 1840.500; -286.000; -601.000
357.025; 1119.600;  403.000;  389.000
357.157;  993.800; -167.000; -179.000
357.290; 1318.400; -856.000; -713.000
357.423;  390.600; -667.000; -556.000
357.555;  219.500; -217.000; -228.000
357.688;  196.800; -483.000; -364.000
357.820;  672.400; -870.000; -877.000
357.953; 5785.700; -563.000; -589.000
358.085; 1153.500; -632.000; -612.000
358.218; 1607.300;-1131.000; -932.000
358.350;  340.100;  -58.000;  312.000
358.483; -269.400;-1300.000;-1187.000
358.615;  -96.200;-1182.000;-1078.000
358.747; -173.700;-1187.000;-1058.000
358.880;  -16.500; -810.000; -744.000
359.012;  -29.900; -376.000; -202.000
359.145;  -60.200; -480.000; -511.000
359.277;   62.100; -962.000; -913.000
359.409; 4900.200;  536.000;  231.000
359.542; 1143.100; -738.000; -688.000
359.674;  165.100;   46.000;   13.000
359.806; -103.200; -565.000; -438.000
359.939;  -91.700; -617.000; -516.000
360.071;   27.200; -583.000; -579.000
360.203;  -19.500; -411.000; -364.000
360.335;  121.000;  164.000;  -16.000
360.468;  301.700; -249.000; -307.000
360.600; 3944.800; -547.000; -454.000
360.732; 5416.000; -546.000; -423.000
360.864;  669.400;-1216.000;-1044.000
360.996;  432.700; -516.000; -554.000
361.129;   69.500; -389.000; -598.000
361.261;   85.200;  110.000; -113.000
361.393;  -11.300; -252.000; -214.000
361.525;  105.100;   94.000;  244.000
361.657;  -65.800; -821.000; -703.000
361.789;   56.700; -139.000; -155.000
361.921;  338.500; -642.000; -593.000
362.053;  468.100;  524.000;  541.000
362.185;  126.800;  288.000;   72.000
362.318; -139.500; -709.000; -705.000
362.450;  239.900;  294.000;  444.000
362.582;   90.200; -913.000; -870.000
362.714;  -68.200; -353.000; -332.000
362.846; -139.000; -606.000; -490.000
362.978; -242.700; -941.000; -811.000
363.109;   71.500; -161.000; -260.000
363.241;  678.100; -739.000; -749.000
363.373;  804.700; -649.000; -564.000
363.505; 1310.700; -186.000;  -91.000
363.637;  300.400; -787.000; -601.000
363.769; -218.700;-1067.000;-1080.000
363.901; -140.900; -596.000; -654.000
364.033; -194.500;-1103.000;-1062.000
364.165;   22.000; -283.000; -283.000
364.296;  176.200; -316.000; -177.000
364.428;  112.000;-1344.000;-1220.000
364.560; -121.600; -679.000; -661.000
364.692; -121.400; -738.000; -835.000
364.824;  415.000; -588.000; -456.000
364.955;  833.900; -402.000; -564.000
365.087; 1795.700;-1097.000; -852.000
365.219;   59.600; -686.000; -816.000
365.351;  -76.800; -526.000; -572.000
365.482;  147.400;  300.000;  240.000
365.614;  -29.700; -402.000; -314.000
365.746; -158.500; -729.000; -752.000
365.877; -164.300; -706.000; -672.000
366.009;  594.300;  -35.000;  -62.000
366.141; -162.900;-1249.000;-1134.000
366.272; -194.000; -803.000; -719.000
366.404; -207.600;-1005.000; -874.000
366.535;   11.700; -139.000;  -12.000
366.667; -156.400; -644.000; -649.000
366.799;  146.000;  353.000;  203.000
366.930; -223.500; -862.000; -996.000
367.062;  264.500; -639.000; -613.000
367.193;  325.100; -872.000; -842.000
367.325;  -82.700; -580.000; -684.000
367.456;   77.600; -246.000;   31.000
367.588;  365.000; -371.000; -318.000
367.719;   73.600;  -44.000;  -45.000
367.851;   10.700; -222.000; -241.000
367.982; -126.300; -875.000; -732.000
368.113;  131.400; -475.000; -358.000
368.245; -194.100; -960.000; -841.000
368.376;   -0.300; -254.000; -302.000
368.508;  -19.100; -188.000; -263.000
368.639; -267.700;-1166.000;-1034.000
368.770;  -33.100; -670.000; -589.000
368.902; -106.400; -836.000; -926.000
369.033; -163.200; -906.000; -855.000
369.164;  -63.500; -720.000; -653.000
369.296; -184.900; -452.000; -601.000
369.427;   23.400; -209.000; -144.000
369.558;  -71.600; -593.000; -377.000
369.689; -132.200; -721.000; -569.000
369.821; -237.600; -951.000; -845.000
369.952;   13.900;   42.000; -108.000
370.083;  -34.700; -229.000; -108.000
370.214; -154.600; -735.000; -650.000
370.345;   32.700;   65.000;   81.000
370.477; -147.300; -810.000; -790.000
370.608;  362.700; -328.000; -264.000
370.739; -119.100;-1233.000;-1292.000
370.870;  -71.500;-1102.000; -923.000
371.001;  163.600; -378.000; -467.000
371.132; -152.000; -754.000; -735.000
371.263;    4.200;  -42.000; -148.000
371.394; -243.500; -841.000; -748.000
371.525;   99.600;  345.000;  225.000
371.657; -167.000; -808.000; -670.000
371.788;  162.900;  103.000;  199.000
371.919;  327.700; -384.000; -304.000
372.050; 5658.800;  -91.000; -156.000
372.181; 1600.500; -188.000; -294.000
372.311;  575.000;   42.000; -127.000
372.442;   53.900; -457.000; -451.000
372.573;  -14.300; -444.000; -340.000
372.704; -222.600;-1008.000; -980.000
372.835;  152.100; -228.000; -289.000
372.966; -122.500; -646.000; -554.000
373.097; -129.800; -575.000; -711.000
373.228;  -70.800; -717.000; -542.000
373.359;  166.600; -824.000; -536.000
373.490; 1427.700; -881.000; -727.000
373.620; 1642.200;-1001.000; -803.000
373.751; 2763.600; -332.000; -396.000
373.882; 1128.500; -663.000; -733.000
374.013;  107.700; -449.000; -262.000
374.143;  -71.900; -581.000; -659.000
374.274; -185.300; -987.000; -908.000
374.405;  301.000; -388.000; -276.000
374.536;  658.000; -526.000; -387.000
374.666; 1657.200; -759.000; -807.000
374.797;  301.900; -817.000; -868.000
374.928; 1287.200; -710.000; -560.000
375.058; 1332.000; -535.000; -500.000
375.189;  118.300;  -59.000;  -93.000
375.320; -191.300; -928.000;-1034.000
375.450;  -53.800; -625.000; -616.000
375.581;  -81.400; -526.000; -436.000
375.712;  -37.000; -574.000; -250.000
375.842;  437.200; -438.000; -415.000
375.973;  304.000; -554.000; -513.000
376.103;  -74.900; -665.000; -648.000
376.234; -142.300; -531.000; -552.000
376.364;  -67.900; -944.000; -867.000
376.495;  613.600;  925.000;  529.000
376.625;  -25.000; -472.000; -485.000
376.756;   85.200; -709.000; -678.000
376.886; -183.700;-1178.000;-1026.000
377.017;  118.300;-1048.000;-1061.000
377.147;  710.600; -786.000; -782.000
377.278;  158.300;  174.000;  228.000
377.408; -216.500; -801.000; -815.000
377.538; -158.700; -707.000; -693.000
377.669; -122.900; -537.000; -613.000
377.799; -157.000; -645.000; -635.000
377.929; -143.400; -610.000; -428.000
378.060; -233.600; -781.000; -847.000
378.190;  -83.300; -726.000; -531.000
378.320;  -97.600; -401.000; -406.000
378.451;   10.300; -131.000;  -22.000
378.581;   14.500;  -67.000; -110.000
378.711;  388.000; 1035.000;  866.000
378.841;  -34.400; -533.000; -675.000
378.972; -143.700; -871.000; -751.000
379.102;  -22.300; -652.000; -579.000
379.232;    0.100; -126.000;  -73.000
379.362; -228.700;-1001.000; -885.000
379.492;   15.300; -373.000; -424.000
379.623;  177.300;    0.000;  111.000
379.753; -209.300;-1107.000; -974.000
379.883;  347.500;   59.000;  156.000
380.013;  -12.400;-1081.000;-1017.000
380.143; -221.200;-1097.000;-1056.000
380.273; -197.200; -985.000; -861.000
380.403;   11.900; -344.000; -257.000
380.533;  -73.000; -651.000; -664.000
380.663;  178.300;  173.000;  128.000
380.793; -201.100;-1027.000;-1074.000
380.923;    0.500; -103.000;  -34.000
381.053; -147.700; -613.000; -623.000
381.183;  -11.400; -106.000; -248.000
381.313;   54.900; -656.000; -470.000
381.443;   24.200; -692.000; -473.000
381.573;  338.000; -402.000; -409.000
381.703;  362.100;-1249.000;-1095.000
381.833; -275.800;-1454.000;-1336.000
381.963;  230.500; -134.000;  -87.000
382.093; 2256.500; -925.000; -909.000
382.223;  623.400; -713.000; -602.000
382.353;  -38.400; -801.000; -608.000
382.482;  489.000;-1091.000; -964.000
382.612; 1172.200; -872.000; -644.000
382.742;  631.600; -695.000; -622.000
382.872;  425.300; -565.000; -551.000
383.002;  159.500;  347.000; -132.000
383.131;    1.900; -226.000; -160.000
383.261; -107.500; -706.000; -768.000
383.391;  511.800; -552.000; -377.000
383.521; 6311.300;  451.000;  263.000
383.650; 1427.400; -947.000; -904.000
383.780;  -12.300; -783.000; -656.000
383.910;  281.400;  880.000;  802.000
384.039;  -21.900; -794.000; -656.000
384.169;  274.400;-1205.000;-1017.000
384.299;  -32.300; -650.000; -662.000
384.428; -162.000; -764.000; -680.000
384.558;  -75.200; -308.000; -275.000
384.687;  -67.000; -414.000; -334.000
384.817;   58.500;   75.000;   -2.000
384.947;   55.800; -234.000; -141.000
385.076;  590.000;  982.000;  912.000
385.206;  234.500;  369.000;  480.000
385.335;  -60.500; -549.000; -417.000
385.465; -168.600; -655.000; -663.000
385.594;  254.200;  -53.000;  -44.000
385.724;  617.700; -868.000; -838.000
385.853;  171.300; -296.000; -270.000
385.982; 2184.500; -743.000; -787.000
386.112; 3174.000;-1052.000; -871.000
386.241;  231.900; -307.000; -312.000
386.371;   53.200; -174.000;  -87.000
386.500;  -11.300; -825.000; -789.000
386.629;   -7.100; -874.000; -817.000
386.759;  186.500;  -43.000;   68.000
386.888;   27.300; -170.000; -250.000
387.017; -115.300; -648.000; -620.000
387.147; -164.100; -771.000; -798.000
387.276;   16.300; -410.000; -397.000
387.405;   34.600; -398.000; -342.000
387.535;  -49.900; -452.000; -361.000
387.664;  -85.300; -692.000; -620.000
387.793;  117.400; -198.000; -113.000
387.922;  834.600;  255.000;  200.000
388.052;  -28.000; -576.000; -423.000
388.181;  -24.900; -342.000; -472.000
388.310;  -50.200; -889.000; -710.000
388.439;  -99.300; -749.000; -742.000
388.568;  373.600;  365.000;  244.000
388.697; 1599.700; -756.000; -653.000
388.826;  279.700; -768.000; -666.000
388.956;   70.500; -285.000; -307.000
389.085;  -30.200; -347.000; -287.000
389.214; -204.500; -842.000; -872.000
389.343; -132.500; -645.000; -413.000
389.472;  841.400;  126.000;  149.000
389.601;  944.900;   91.000;    0.000
389.730;  -13.600; -568.000; -687.000
389.859;  164.400;  226.000;   46.000
389.988;  320.200; -423.000; -408.000
390.117;  241.800; -168.000; -146.000
390.246;   -8.500; -331.000; -320.000
390.375;  153.000; -673.000; -626.000
390.504;  -95.200; -703.000; -621.000
390.633; -179.200; -672.000; -726.000
390.761; -136.700; -732.000; -645.000
390.890;   95.100;   -4.000; -130.000
391.019;  -65.900; -421.000; -441.000
391.148; -210.200; -826.000; -855.000
391.277;  -99.100; -576.000; -493.000
391.406; -141.300; -821.000; -805.000
391.534;  135.900;  574.000; -301.000
391.663; -100.200; -583.000; -645.000
391.792; -153.500; -673.000; -701.000
391.921;  180.700;   -3.000;   15.000
392.050;  269.200; -287.000; -228.000
392.178; -122.000;-1206.000;-1061.000
392.307;  203.200; -758.000; -712.000
392.436;   76.200; -427.000; -641.000
392.564;   82.500;  166.000;   -6.000
392.693; -141.400; -860.000; -682.000
392.822;  288.500; -529.000; -534.000
392.950;   95.000; -880.000; -714.000
393.079;  536.500; -188.000; -328.000
393.208;   24.200; -488.000; -511.000
393.336;   29.600; -170.000; -145.000
393.465;  -48.500; -317.000; -199.000
393.593;   54.500;   62.000;   79.000
393.722; -269.500;-1121.000; -916.000
393.850;  -21.500; -188.000;  -61.000
393.979; -284.300; -926.000; -805.000
394.107; -100.000; -517.000; -537.000
394.236;  -20.400; -570.000; -507.000
394.364;  491.300;  383.000;  206.000
394.493;  728.300; -911.000; -767.000
394.621;   -1.200; -955.000; -916.000
394.750; 1526.400; -873.000; -923.000
394.878; 5894.800; -247.000; -149.000
395.007; 7613.700; -721.000; -807.000
395.135;  544.300; -790.000; -721.000
395.263; -179.200;-1038.000;-1040.000
395.392;   14.500;  -25.000; -107.000
395.520; -228.800; -818.000; -679.000
395.648; -166.900; -865.000; -915.000
395.777;  -32.100; -366.000; -405.000
395.905;  -53.500; -449.000; -564.000
396.033;   92.100;  217.000;  172.000
396.162; 1251.400; -399.000; -453.000
396.290; 1065.400;  -17.000;   -2.000
396.418;  186.900; -555.000; -514.000
396.546; -162.100; -571.000; -466.000
396.674; -193.000; -850.000; -878.000
396.803;   29.600;  -72.000;  -23.000
396.931;  162.700; -179.000; -199.000
397.059;   13.100;-1026.000; -989.000
397.187; -219.200;-1026.000; -975.000
397.315; -215.900; -884.000; -649.000
397.443; -160.400; -592.000; -443.000
397.572; -155.100; -578.000; -424.000
397.700;    6.900; -607.000; -614.000
397.828;   43.900;  120.000;  -90.000
397.956;  -65.900; -508.000; -478.000
398.084;  -61.000; -767.000; -626.000
398.212;   83.600;  137.000;  124.000
398.340;   43.900;  -56.000;  159.000
398.468;   64.500; -390.000; -169.000
398.596; -233.600; -993.000; -953.000
398.724; -186.700; -762.000; -767.000
398.852; -309.000;-1024.000; -976.000
398.980;  -97.100; -560.000; -560.000
399.108;  -96.300; -982.000; -735.000
399.236;   90.400;   13.000;    8.000
399.363;   80.700;  222.000;  196.000
399.491;  -81.800; -404.000; -398.000
399.619; -213.700; -829.000; -800.000
399.747; -175.800; -859.000; -771.000
399.875;  223.700;  220.000;  234.000
400.003;  -60.600; -359.000; -284.000
400.130; -139.200; -421.000; -341.000
400.258;   15.500;  -83.000;   38.000
400.386;  -76.100; -352.000; -168.000
400.514;  -58.400; -526.000; -587.000
400.641; -157.900; -928.000; -802.000
400.769; -238.800; -979.000; -888.000
400.897; -177.500; -838.000; -793.000
401.025;    4.900; -166.000; -152.000
401.152;   65.000;  220.000;   38.000
401.280; -115.900; -430.000; -429.000
401.408; -185.400; -712.000; -576.000
401.535; -173.400; -735.000; -758.000
401.663; -327.700;-1134.000;-1054.000
401.790; -123.100; -514.000; -525.000
401.918;  142.800;  436.000;  405.000
402.046;   22.800;  134.000;  122.000
402.173;   -9.200;  -18.000;    7.000
402.301;  -82.500; -519.000; -397.000
402.428;  128.300;  528.000;  383.000
402.556; -259.300;-1188.000; -913.000
402.683;   -9.500;  -20.000;   -1.000
402.811;    1.500;  -37.000; -206.000
402.938;   52.000;   20.000;   27.000
403.066;  278.400; -574.000; -558.000
403.193;  520.700;  299.000;  239.000
403.321;  437.600; -396.000; -574.000
403.448;  522.000;   83.000;   27.000
403.575;  262.500;  -90.000;  -46.000
403.703; -172.500; -732.000; -557.000
403.830; -102.400; -531.000; -496.000
403.957; -260.800;-1117.000;-1023.000
404.085;   90.200;  -61.000; -172.000
404.212;  250.900;  -50.000;   63.000
404.339;  575.400; -566.000; -306.000
404.467;11618.200; -612.000; -524.000
404.594; 6926.500; -287.000; -227.000
404.721; 1464.600; -869.000; -764.000
404.848;  185.100; -113.000; -202.000
404.976; -158.700; -856.000; -783.000
405.103;   43.300;  -14.000;  -82.000
405.230;   64.100;  190.000;  226.000
405.357;  100.500;  117.000;   44.000
405.484;  602.600;  -49.000;    5.000
405.612;   75.200; -548.000; -563.000
405.739;  -82.700; -488.000; -243.000
405.866;  200.700;  669.000;  385.000
405.993;  -22.800; -398.000; -102.000
406.120; -239.000; -801.000; -887.000
406.247;  -74.400; -323.000; -342.000
406.374;  781.000;  540.000;  629.000
406.501;  109.900; -632.000; -702.000
406.628; -144.600; -621.000; -589.000
406.755; -175.500; -803.000; -620.000
406.882;  -49.500; -228.000; -277.000
407.009; -186.300; -719.000; -628.000
407.136;  111.200; -480.000; -401.000
407.263;  136.200; -939.000; -829.000
407.390; -117.400; -692.000; -614.000
407.517; -301.800;-1139.000;-1187.000
407.644;  -40.700; -332.000; -256.000
407.771; -266.400; -249.000; -287.000
407.898;   44.300;  168.000;  328.000
408.025;  -88.800; -421.000; -313.000
408.151;   39.200;   82.000;  153.000
408.278;  -72.900; -267.000; -216.000
408.405; -195.500; -931.000; -899.000
408.532;  -92.200; -549.000; -542.000
408.659; -164.700; -677.000; -648.000
408.785; -372.400;-1298.000;-1170.000
408.912;  -21.700; -412.000; -296.000
409.039; -162.900; -610.000; -686.000
409.166; -171.800; -591.000; -555.000
409.292; -183.300; -571.000; -534.000
409.419; -205.800; -665.000; -649.000
409.546; -112.500; -431.000; -192.000
409.672; -159.600; -713.000; -545.000
409.799;   17.300;  -36.000;   34.000
409.926;  -39.900; -180.000; -179.000
410.052; -321.900;-1127.000;-1091.000
410.179;  -97.100; -368.000; -392.000
410.305; -111.000; -375.000; -493.000
410.432;  -50.900; -220.000; -333.000
410.558; -122.800; -305.000; -380.000
410.685; -157.900; -688.000; -431.000
410.812; -133.300; -409.000; -588.000
410.938; -241.400; -964.000; -808.000
411.065; -149.400; -671.000; -645.000
411.191;   30.900; -189.000; -174.000
411.317; -195.600; -823.000; -742.000
411.444;  -69.600; -317.000; -246.000
411.570; -121.100; -339.000; -294.000
411.697; -179.100; -758.000; -752.000
411.823; -274.200; -989.000; -999.000
411.949;  -33.800;  -56.000;   17.000
412.076; -196.800; -539.000; -519.000
412.202; -192.700; -758.000; -757.000
412.329; -227.500; -798.000; -752.000
412.455; -192.500; -821.000; -657.000
412.581;   21.100;  -15.000;  172.000
412.707; -109.800; -540.000; -457.000
412.834;   92.100;  156.000;  219.000
412.960; -175.400; -785.000; -784.000
413.086; -175.100; -743.000; -701.000
413.212;  298.600;  604.000;  578.000
413.339; -112.300; -685.000; -701.000
413.465;   -6.700; -364.000; -310.000
413.591; -158.400; -757.000; -474.000
413.717;  -71.200; -358.000; -366.000
413.843; -208.100; -839.000; -861.000
413.969;  -74.000;  -47.000; -292.000
414.096; -148.800; -679.000; -679.000
414.222;   34.600;  -33.000;   85.000
414.348;  -34.000; -652.000; -385.000
414.474;  168.500;   38.000;  -52.000
414.600;   40.800; -126.000; -144.000
414.726;   17.500;  -96.000;  -55.000
414.852;  -84.700; -365.000; -342.000
414.978;  144.300;  104.000;  -18.000
415.104;  126.100;   38.000;   80.000
415.230;   86.100; -329.000; -330.000
415.356;  129.200; -409.000; -514.000
415.482;  434.100;   13.000;  -35.000
415.608;  585.600; -247.000; -323.000
415.734; 1940.900;   67.000;   38.000
415.860;40541.500; -875.000; -767.000
415.986;26389.300; -685.000; -607.000
416.111; 2257.900; -798.000; -652.000
416.237;  529.800; -424.000; -571.000
416.363; 2455.400; -765.000; -733.000
416.489; 8207.700; -324.000; -251.000
416.615;  792.600; -707.000; -742.000
416.741;  -14.800; -677.000; -784.000
416.866; -142.400; -673.000; -736.000
416.992; -227.100; -801.000; -818.000
417.118;  -10.600;  -41.000;  -80.000
417.244;  -89.500; -798.000; -531.000
417.369; -142.800; -801.000; -612.000
417.495;   40.700; -325.000; -254.000
417.621; -141.400;-1015.000; -803.000
417.746;   12.900; -579.000; -572.000
417.872;  177.400; -254.000; -144.000
417.998;  158.400; -515.000; -530.000
418.123; 2392.500;-1073.000; -845.000
418.249;10636.600; -512.000; -601.000
418.374; 1329.700; -916.000; -824.000
418.500;  232.700; -383.000; -482.000
418.626;  271.200;   70.000;  -59.000
418.751;  212.500; -549.000; -448.000
418.877;  408.000; -637.000; -643.000
419.002; 3998.900; -688.000; -560.000
419.128;24992.100; -930.000; -721.000
419.253; 5527.200; -967.000; -837.000
419.379;  792.000; -391.000; -338.000
419.504;  792.800;  325.000;  415.000
419.629; 1122.300; -393.000; -212.000
419.755; 7819.100; -317.000; -254.000
419.880;41346.800;  -98.000;   67.000
420.006;23189.700; -280.000; -221.000
420.131;55605.500; -662.000; -775.000
420.256; 7156.700; -315.000; -316.000
420.382; 1021.300; -665.000; -687.000
420.507;  153.300; -649.000; -778.000
420.632;  235.100; -337.000; -339.000
420.758;  335.800; -251.000; -425.000
420.883; -169.600; -876.000; -672.000
421.008; -172.200; -775.000; -619.000
421.133; -119.700; -509.000; -467.000
421.259;  -48.200; -325.000; -259.000
421.384; -196.600; -834.000; -693.000
421.509; -102.400;-1052.000; -862.000
421.634; 1640.500; -936.000; -820.000
421.759;  588.300; -359.000; -327.000
421.885;  -98.000; -717.000; -656.000
422.010; -116.600; -673.000; -542.000
422.135; -239.700; -695.000; -727.000
422.260;  104.100;  340.000;  280.000
422.385;  -22.700;   12.000;  -98.000
422.510;   52.700;  151.000;  -26.000
422.635;  102.400;  -87.000;  -43.000
422.760;  168.200; -766.000; -791.000
422.885;  122.400;  -57.000;  -80.000
423.010;  -35.500; -112.000; -169.000
423.135; -127.400; -481.000; -561.000
423.260;   62.000; -150.000; -245.000
423.385;  169.200;  476.000;  222.000
423.510;  102.100;   71.000;  -22.000
423.635;  186.700;  133.000;   45.000
423.760;  166.700;  383.000;  328.000
423.885;  162.300;  336.000;  391.000
424.010;   43.600;  -68.000;  -13.000
424.135;   36.600;    5.000;  -33.000
424.259; -122.700; -654.000; -457.000
424.384;  -62.100; -279.000; -272.000
424.509;  -22.300; -260.000; -186.000
424.634; -180.200; -761.000; -623.000
424.759;   -7.100; -688.000; -544.000
424.883;   24.000; -506.000; -527.000
425.008;  377.700; -502.000; -410.000
425.133; 4074.500; -679.000; -653.000
425.258; 1648.400; -517.000; -381.000
425.382; 1715.100; -867.000; -774.000
425.507; 3930.500; -487.000; -543.000
425.632;  688.300; -802.000; -663.000
425.756;  938.900; -256.000; -146.000
425.881;14430.800; -831.000; -857.000
426.006;34614.600; -604.000; -355.000
426.130; 4823.500; -696.000; -508.000
426.255;  676.100; -611.000; -491.000
426.379;  346.700; -189.000; -577.000
426.504;  825.100;  660.000;  544.000
426.629; 8349.800; -519.000; -466.000
426.753; 5038.700;   64.000;  -46.000
426.878;  613.900; -252.000; -288.000
427.002;  301.800; -651.000; -668.000
427.127; 3454.300;  -35.000; -158.000
427.251;22713.300;  372.000;  401.000
427.375; 5705.100; -191.000; -173.000
427.500; 3727.600; -616.000; -610.000
427.624; 1140.700; -234.000; -400.000
427.749;  190.300; -216.000; -225.000
427.873;  -52.600; -499.000; -412.000
427.997;  -46.600; -222.000; -230.000
428.122;  257.000;  795.000;  703.000
428.246;  202.200;  433.000;  434.000
428.371; -244.900; -869.000; -773.000
428.495; -136.600; -624.000; -646.000
428.619;   -4.900; -186.000; -117.000
428.743;   95.700;   65.000;  132.000
428.868;   26.000; -732.000; -643.000
428.992; 2258.100; -219.000; -326.000
429.116;  780.300; -329.000; -357.000
429.240;  485.800;  419.000;  426.000
429.365;  -12.100; -454.000; -574.000
429.489;  -85.600; -638.000; -647.000
429.613;   84.800; -236.000; -177.000
429.737;  101.800; -563.000; -432.000
429.861;  591.200; -247.000; -133.000
429.985;11587.200; -425.000; -305.000
430.109;11324.300; -770.000; -908.000
430.234; 1256.100;   76.000;  -50.000
430.358;  157.400; -250.000; -160.000
430.482;  -93.600; -672.000; -564.000
430.606;  -49.400; -655.000; -375.000
430.730;   34.900; -437.000; -388.000
430.854;  179.100; -909.000; -835.000
430.978; -113.200; -795.000; -764.000
431.102; -116.100; -499.000; -422.000
431.226; -187.800; -874.000; -815.000
431.350;  141.500;  345.000;  422.000
431.474;  -75.400; -661.000; -373.000
431.597; -246.200;-1060.000; -848.000
431.721; -120.800; -276.000; -267.000
431.845; -210.600; -704.000; -472.000
431.969;  -90.600; -304.000; -349.000
432.093; -107.800; -395.000; -317.000
432.217;   41.500;   32.000;   82.000
432.341; -117.400; -523.000; -518.000
432.464;   74.100;   96.000;   40.000
432.588;  320.400; -401.000; -329.000
432.712;  181.200;  -52.000;  -52.000
432.836;  101.300;  213.000;  263.000
432.959;   32.500; -372.000; -311.000
433.083;  251.800;   11.000;    2.000
433.207;  855.100;  285.000;  930.000
433.330;10662.500; -391.000; -200.000
433.454;11866.100; -654.000; -638.000
433.578; 7043.500;  583.000;  278.000
433.701; 1165.800; -623.000; -675.000
433.825;  260.600; -292.000; -299.000
433.949;  324.700;   28.000;  -72.000
434.072;   89.500; -410.000; -323.000
434.196;    6.700; -309.000; -117.000
434.319; 7951.200;25482.000;25124.000
434.443; 1511.100; -656.000; -603.000
434.566; 5276.400;  281.000;   62.000
434.690;  805.200; -637.000; -383.000
434.813;  134.200; -251.000; -173.000
434.937;  -97.500; -569.000; -696.000
435.060;  -49.600; -423.000; -332.000
435.184;  450.300; -492.000; -217.000
435.307;  228.900;  159.000;  102.000
435.431;   11.800;  -40.000;   24.000
435.554;  -99.600; -399.000; -240.000
435.677; -130.100; -350.000; -258.000
435.801;  -33.800;  -25.000;   49.000
435.924;    4.800;    1.000;  -67.000
436.048; -215.600;-1019.000; -732.000
436.171;  -69.900; -240.000;  -66.000
436.294;    7.400; -248.000; -229.000
436.417;  204.700; -963.000; -849.000
436.541; -126.100; -814.000; -840.000
436.664;  -52.000; -242.000; -316.000
436.787;    9.900;   13.000;  113.000
436.910; -174.900; -792.000; -422.000
437.034;   66.900;  142.000;  143.000
437.157;  116.600;  -11.000;    0.000
437.280;  -72.300; -392.000; -292.000
437.403; -147.800; -982.000; -869.000
437.526;  913.300; -903.000; -865.000
437.649; 3065.500; -505.000; -332.000
437.772;  299.000; -692.000; -540.000
437.896;  212.300;  700.000;  544.000
438.019; -139.000; -758.000; -503.000
438.142; -136.000; -596.000; -506.000
438.265;  -30.300; -639.000; -670.000
438.388;  844.200; -520.000; -410.000
438.511;   92.200; -597.000; -394.000
438.634; -100.400; -247.000; -125.000
438.757; -227.100; -693.000; -619.000
438.880;   14.300;  -34.000;  -57.000
439.003;  -97.200; -417.000; -437.000
439.126;  -90.900; -287.000; -167.000
439.248;  -51.200;  -98.000; -139.000
439.371;  -23.000;    9.000;  -53.000
439.494;  130.600;  510.000;  439.000
439.617;  -43.000;   65.000;  -88.000
439.740; -296.100; -968.000; -816.000
439.863; -233.500; -755.000; -595.000
439.986; -186.800; -476.000; -431.000
440.108;  -44.300; -161.000; -112.000
440.231; -303.700; -950.000; -836.000
440.354;   -4.600;  -64.000; -150.000
440.477;   58.600; -566.000; -542.000
440.599;   10.600; -200.000; -225.000
440.722; -203.100; -709.000; -586.000
440.845;  187.400;  751.000;  928.000
440.968; -163.000; -415.000; -311.000
441.090;  -98.400; -199.000;  -33.000
441.213; -275.600;-1021.000; -825.000
441.336;  -30.700; -159.000;   -5.000
441.458; -123.100; -549.000; -396.000
441.581; -170.900; -628.000; -629.000
441.703;  -94.000; -152.000;   13.000
441.826; -192.600; -557.000; -400.000
441.948;  -47.700;   56.000;   51.000
442.071;  129.000;  555.000;  424.000
442.193; -192.900; -531.000; -485.000
442.316;   86.600;  152.000;   97.000
442.438;  108.700; -233.000;  -10.000
442.561;  176.900;  272.000;  262.000
442.683;  809.800; -809.000; -522.000
442.806; 1588.600;   -8.000;   74.000
442.928;  -89.600; -859.000; -604.000
443.051;  -95.200; -577.000; -373.000
443.173; -134.900; -341.000; -339.000
443.295; -110.300; -263.000; -371.000
443.418;  -92.700; -321.000;  -29.000
443.540;   23.000; -106.000;   -4.000
443.662; -217.000; -563.000; -465.000
443.785;   35.700;  335.000;  199.000
443.907; -140.200; -362.000; -208.000
444.029; -230.300; -767.000; -494.000
444.152; -237.500; -644.000; -554.000
444.274;   12.100;  -18.000;  -24.000
444.396; -164.700; -461.000; -221.000
444.518; -211.700; -691.000; -454.000
444.640; -165.600; -268.000; -111.000
444.763;   57.000;  388.000;  249.000
444.885; -177.500; -432.000; -392.000
445.007;   -2.300;   35.000;   86.000
445.129; -152.900; -610.000; -515.000
445.251; -163.600; -372.000; -439.000
445.373; -237.400; -537.000; -386.000
445.495;   70.900;  242.000;  350.000
445.617;  179.100;  853.000;  753.000
445.739; -105.000; -215.000;  -97.000
445.861;  -34.500; -245.000; -112.000
445.984;  -13.900; -267.000; -101.000
446.105;  335.500; -418.000; -251.000
446.227;  877.700; -176.000;  -19.000
446.349;  -27.500; -358.000; -249.000
446.471; -187.000; -615.000; -448.000
446.593;  -74.400; -316.000;   19.000
446.715;   39.100;  -67.000;   41.000
446.837;  200.200;  697.000;  832.000
446.959; -152.100; -457.000; -478.000
447.081; -188.000; -628.000; -518.000
447.203;  166.600;  862.000;  834.000
447.325; -129.500; -270.000;   42.000
447.446;   31.300;  286.000;  530.000
447.568; -259.000; -921.000; -803.000
447.690;  -97.500; -236.000; -245.000
447.812; -231.900; -798.000; -519.000
447.933;   26.300;  155.000;  127.000
448.055;  -63.300; -306.000; -261.000
448.177;  274.400;   31.000;   79.000
448.299;   80.300; -935.000; -727.000
448.420;   76.000;  -25.000;  159.000
448.542;  -53.000;   -3.000;   33.000
448.664;   11.400;  109.000;  322.000
448.785;    6.900;  265.000;   83.000
448.907; -138.400; -614.000; -353.000
449.028;  -29.600; -771.000; -471.000
449.150;  161.700;  492.000;  589.000
449.272; -277.700;-1044.000; -913.000
449.393;  124.400;  612.000;  694.000
449.515; -248.000; -634.000; -581.000
449.636;  -65.300; -264.000; -155.000
449.758;  169.700;  763.000;  622.000
449.879; -119.600; -498.000; -396.000
450.001; -104.200; -149.000;  -49.000
450.122;   -9.300;  -95.000;  162.000
450.244;   -9.800;   37.000;  364.000
450.365; -121.400; -495.000; -301.000
450.486;    3.800;   80.000;  268.000
450.608;  118.900;  393.000;  326.000
450.729;  203.600;  578.000;  645.000
450.850;   60.300; -574.000; -466.000
450.972; 1685.400; -552.000; -389.000
451.093;10180.700;  190.000;  588.000
451.214; 3807.000; -516.000; -337.000
451.336;  786.300;  773.000;  579.000
451.457;  186.700;  264.000;  393.000
451.578;   -4.800; -118.000;  -74.000
451.699; -190.600; -546.000; -540.000
451.821;  -65.800; -284.000;  -50.000
451.942;   42.500;  278.000;  285.000
452.063;  111.200;  228.000;  419.000
452.184; 1274.300;  -54.000;  -49.000
452.305; 2157.400;  103.000;  170.000
452.427;  253.100; -549.000; -301.000
452.548;   24.000;   23.000;   79.000
452.669;  -62.100; -257.000;  -89.000
452.790;  -59.400;    3.000;  -18.000
452.911;   64.200;  195.000;  259.000
453.032;  -78.600; -289.000;  -60.000
453.153;  -63.500;  -29.000;   81.000
453.274;  171.300;  737.000;  868.000
453.395;  -29.600;  -51.000;  175.000
453.516;  332.900; 1317.000; 1388.000
453.637;  -72.100; -205.000; -150.000
453.758;  -64.700;   15.000;   69.000
453.879; -153.500; -462.000; -250.000
454.000;  260.900; 1086.000;  948.000
454.121; -181.600; -554.000; -326.000
454.242; -190.800; -599.000; -383.000
454.362;  -63.300;  -99.000;  114.000
454.483;   25.700; -309.000; -229.000
454.604;  160.100;  512.000;  580.000
454.725; -212.200; -627.000; -555.000
454.846; -164.100; -474.000; -406.000
454.967;    9.300;  230.000;  539.000
455.087;  -19.700;  179.000;  153.000
455.208;  115.700;  554.000;  856.000
455.329;  -46.700;  -22.000;   82.000
455.450;  128.300;  473.000;  633.000
455.570; -128.600; -234.000; -211.000
455.691;  -33.500;  201.000;  407.000
455.812; -131.100; -270.000;  -92.000
455.932;  -76.300;  107.000;  -97.000
456.053;  -85.000;   36.000;   24.000
456.173; -175.000; -433.000; -355.000
456.294; -200.600; -476.000; -303.000
456.415;  -71.700;  -73.000;   70.000
456.535;  -13.200;  297.000;  273.000
456.656;   -6.800;  132.000;  240.000
456.776;  -86.500;    3.000;  298.000
456.897;   50.900;  308.000;  513.000
457.017;  -74.600; -153.000;   -3.000
457.138; -159.100; -402.000; -249.000
457.258;   10.700;  263.000;  224.000
457.379;   27.100;  509.000;  521.000
457.499;   21.400;  443.000;  432.000
457.620; -182.600; -407.000; -231.000
457.740; -116.700; -132.000;  -11.000
457.860;  -34.800;   87.000;   44.000
457.981;  -13.200;  132.000;  124.000
458.101;  -91.600;  -89.000;   40.000
458.221;   47.500;  336.000;  402.000
458.342;  -72.200;   -4.000;  -37.000
458.462;  126.600;  617.000;  352.000
458.582;  -11.500; -302.000; -294.000
458.703;   86.100;  303.000;  154.000
458.823;   -8.900;   22.000;  163.000
458.943;  145.300;  341.000;  467.000
459.063;    8.900; 1124.000;  192.000
459.183;   19.000;  328.000;  313.000
459.304;   94.600;  315.000;  517.000
459.424;  -66.600; -246.000;  -89.000
459.544;  797.900;  388.000;  764.000
459.664; 1760.200;  499.000;  506.000
459.784;  604.200; 1004.000; 1175.000
459.904;  187.600;  867.000;  744.000
460.024;  229.300;  867.000;  684.000
460.144;   84.700;  449.000;  554.000
460.264;   35.300;  515.000;  327.000
460.385; -123.000; -145.000; -119.000
460.505;  112.600;  905.000;  858.000
460.625;  -92.200;  -17.000;  -68.000
460.745;   10.700;  396.000;  541.000
460.864;  -48.700;  153.000;  469.000
460.984;   92.400;  499.000;  573.000
461.104;  365.600; 1656.000; 1775.000
461.224;   84.400;  657.000;  650.000
461.344;   27.300;  431.000;  360.000
461.464;  -11.500;  258.000;  513.000
461.584;   21.200;  283.000;  466.000
461.704;  -60.600;   58.000;  108.000
461.824;  -40.900;  238.000;  259.000
461.943;  -18.700;  191.000;  130.000
462.063;  -96.100;    2.000;  324.000
462.183;  117.300;  639.000;  717.000
462.303;  290.200; 1678.000; 1230.000
462.422;  129.200;  781.000;  840.000
462.542;  -33.100;  271.000;  391.000
462.662;  159.100;  353.000;  380.000
462.782;  559.900;  833.000;  572.000
462.901; 1038.100;  545.000;  717.000
463.021;  594.300; 1702.000; 1638.000
463.141;   54.500;  337.000;  770.000
463.260;   28.300;  614.000;  474.000
463.380;   91.300;  902.000;  884.000
463.499;    3.100;  342.000;  332.000
463.619;  -29.200;  581.000;  559.000
463.738;  315.100; 1644.000;  903.000
463.858;   69.700;  657.000;  811.000
463.978;  -24.500;  542.000;  396.000
464.097;  188.100;  921.000; 1114.000
464.217;  292.400; 1196.000; 1143.000
464.336;  282.900; 1068.000; 1130.000
464.455;  -17.800;  328.000;  659.000
464.575;  101.700;  597.000;  602.000
464.694;  355.500; 1204.000; 1179.000
464.814;  306.000; 1190.000; 1138.000
464.933;  216.500; 1095.000; 1027.000
465.052;  261.700; 1412.000; 1054.000
465.172;  186.000;  922.000;  799.000
465.291;  314.700; 1376.000; 1320.000
465.410;   98.500;  462.000;  735.000
465.530;  255.000; 1355.000; 1310.000
465.649;  192.200; 1209.000; 1273.000
465.768;  367.800; 1673.000; 1508.000
465.888;  146.600;  941.000; 1174.000
466.007;  298.000; 1335.000; 1440.000
466.126;   55.000;  721.000;  641.000
466.245;  145.500; 1176.000; 1187.000
466.364;  112.600;  950.000; 1060.000
466.484;  173.600; 1024.000; 1213.000
466.603;  139.500; 1101.000; 1222.000
466.722;  324.400; 1490.000; 1769.000
466.841;  238.900; 1151.000; 1401.000
466.960;  129.800; 1069.000;  972.000
467.079;  382.100; 1971.000; 1786.000
467.198;  201.100; 1238.000; 1181.000
467.317;  314.600; 1768.000; 1162.000
467.436;  239.200; 1709.000; 1261.000
467.555;  371.000; 1796.000; 1746.000
467.674;  226.000; 1227.000; 1329.000
467.793;  154.200; 1376.000; 1374.000
467.912;  237.000; 1658.000; 1539.000
468.031;  372.000; 2038.000; 1930.000
468.150;  368.200; 1842.000; 1837.000
468.269;  476.700; 2313.000; 2090.000
468.388;  442.900; 2168.000; 2339.000
468.507;  642.200; 2884.000; 2903.000
468.626;  646.000; 2555.000; 2541.000
468.744;  376.800; 2018.000; 2174.000
468.863;  454.700; 2312.000; 2523.000
468.982;  249.400; 1503.000; 1555.000
469.101;  536.400; 2788.000; 2692.000
469.220;  372.800; 2333.000; 2176.000
469.338;  560.800; 2935.000; 3051.000
469.457;  477.500; 2719.000; 2545.000
469.576;  759.500; 3953.000; 3784.000
469.695;  552.500; 2877.000; 3066.000
469.813;  941.600; 4148.000; 4192.000
469.932;  896.400; 4255.000; 4485.000
470.051;  928.900; 4075.000; 4161.000
470.169; 1885.100; 4470.000; 4338.000
470.288; 3073.800; 4700.000; 4809.000
470.406; 1725.400; 5059.000; 5194.000
470.525; 1347.000; 6101.000; 5787.000
470.644; 1398.600; 6847.000; 6794.000
470.762; 1755.200; 8397.000; 7873.000
470.881; 1982.900; 8651.000; 8464.000
470.999; 2161.100; 9685.000; 9151.000
471.118; 2267.200;11174.000;10711.000

