
Integration time [ms]: 200.000
Averaging Nr. [scans]: 10
Smoothing Nr. [pixels]: 0
Data measured with spectrometer [name]: 2101012U2
Wave   ;Sample   ;Dark     ;Reference
[nm]   ;[counts] ;[counts] ;[counts] 

197.733;  145.700;  516.000;  404.000
197.879; -173.400; -610.000; -634.000
198.025;  -92.600; -475.000; -420.000
198.171; -148.500; -602.000; -612.000
198.317;  -59.200; -401.000; -316.000
198.463; -144.900; -655.000; -404.000
198.609;   87.400;  181.000; -137.000
198.755; -170.200; -644.000; -410.000
198.901; -128.000; -505.000; -424.000
199.047; -160.400; -615.000; -488.000
199.193;  -92.100; -230.000; -468.000
199.339;  -59.600; -222.000; -369.000
199.485;   99.300;  330.000;  271.000
199.631;   33.500;  227.000;  310.000
199.777; -105.800; -466.000; -398.000
199.923; -133.000; -610.000; -424.000
200.069;  -25.700; -141.000;  -58.000
200.215;  116.700;  128.000;  453.000
200.361;  101.000;  243.000;  477.000
200.507; -157.800; -600.000; -373.000
200.653;  -44.400; -371.000; -194.000
200.798;  -71.900; -215.000; -125.000
200.944;   -1.700; -146.000;  -41.000
201.090;   70.900;   61.000;  222.000
201.236;    9.500; -116.000; -158.000
201.382;  285.900;  874.000;  903.000
201.528;   14.400;  -58.000;  -48.000
201.674; -114.800; -386.000; -293.000
201.819; -117.700; -540.000; -439.000
201.965; -154.700; -699.000; -447.000
202.111;  -66.500; -273.000; -226.000
202.257;  -75.900; -250.000; -238.000
202.402;   57.100;   13.000;  -36.000
202.548;  -36.900; -169.000; -116.000
202.694;  198.700;  410.000; -183.000
202.840; -167.300; -603.000; -531.000
202.985; -127.200; -681.000; -639.000
203.131; -212.800; -832.000; -666.000
203.277;  -78.000; -199.000; -262.000
203.423;  -96.800; -434.000; -520.000
203.568;  -53.600; -462.000; -237.000
203.714; -112.800; -535.000; -542.000
203.860; -125.900; -682.000; -641.000
204.005;   46.200;  112.000;  167.000
204.151;  176.100;  561.000;  556.000
204.296;  -74.600; -354.000; -221.000
204.442; -153.400; -600.000; -547.000
204.588; -117.500; -592.000; -579.000
204.733;   65.500;  178.000;  168.000
204.879; -264.200;-1018.000; -822.000
205.025;   23.000;  -99.000;  126.000
205.170;   -4.000;  -17.000;   94.000
205.316;  190.700;  438.000;  661.000
205.461; -153.900; -698.000; -554.000
205.607;  198.000;  609.000;  665.000
205.752; -174.700; -626.000; -551.000
205.898;  -96.600; -501.000; -391.000
206.043; -132.700; -578.000; -506.000
206.189;  -63.500; -243.000; -285.000
206.334;  187.600;  554.000;  606.000
206.480;  165.700;  409.000;  239.000
206.625; -169.500; -529.000; -552.000
206.771;  -55.400; -451.000; -373.000
206.916;  -58.300; -210.000; -537.000
207.062; -136.700; -545.000; -591.000
207.207; -104.500; -546.000; -443.000
207.353;  123.700;  185.000;  460.000
207.498;   42.800;  196.000;   85.000
207.643; -111.800; -501.000; -370.000
207.789; -266.500;-1069.000; -910.000
207.934; -207.700; -665.000; -713.000
208.080;  -51.300; -154.000;   66.000
208.225;    8.500;  -22.000;  -57.000
208.370; -182.400; -727.000; -619.000
208.516; -156.300; -741.000; -487.000
208.661;  -64.400; -127.000;  -69.000
208.806;  -58.600; -165.000; -171.000
208.952; -279.300;-1044.000; -731.000
209.097;  193.900;  378.000;  349.000
209.242;  -78.200; -307.000; -382.000
209.387;   90.000;  392.000;  350.000
209.533; -135.900; -321.000; -350.000
209.678;  199.600;  472.000;  543.000
209.823; -102.300; -408.000; -310.000
209.969; -216.600; -860.000; -757.000
210.114; -213.900; -907.000; -719.000
210.259; -237.600; -939.000; -889.000
210.404;   21.200; -171.000;  103.000
210.549;   29.200;  108.000;    3.000
210.695;  -35.400;   -3.000;  -95.000
210.840;   83.700;   94.000;   67.000
210.985; -140.300; -484.000; -303.000
211.130;  159.700;  268.000;  406.000
211.275;   11.600;  207.000;  199.000
211.420;  -81.600; -300.000; -289.000
211.566;  -98.200; -536.000; -489.000
211.711;   53.200;  218.000;  157.000
211.856; -145.800; -545.000; -519.000
212.001;   42.400;  151.000;   44.000
212.146;   50.100;  153.000;   49.000
212.291;  -67.300; -210.000; -186.000
212.436;  -53.900; -280.000;   -6.000
212.581; -163.300; -685.000; -653.000
212.726; -148.700; -487.000; -538.000
212.871;  -89.000; -552.000; -217.000
213.016; -312.600;-1172.000;-1029.000
213.161;  138.700;  406.000;  291.000
213.306; -163.000; -435.000; -577.000
213.451; -178.700; -778.000; -689.000
213.596;  -88.700; -455.000; -347.000
213.741; -101.500; -448.000; -538.000
213.886; -129.500; -498.000; -517.000
214.031;  -45.300; -294.000; -124.000
214.176;  -75.800; -408.000; -341.000
214.321;   10.300; -296.000; -157.000
214.466;  -46.400; -163.000;  -43.000
214.611;   22.500;  -61.000;  -10.000
214.756; -272.600; -948.000; -858.000
214.901;  -65.800; -388.000; -226.000
215.046; -242.300; -797.000; -825.000
215.191;   33.200;  128.000;   35.000
215.336;   -5.400; -157.000;  -19.000
215.480; -126.500; -684.000; -505.000
215.625;  -10.400; -175.000;  -19.000
215.770; -192.800; -757.000; -662.000
215.915;   16.500;   -5.000;  -97.000
216.060;   -4.500; -113.000;  -21.000
216.205; -220.400; -731.000; -779.000
216.349; -126.800; -470.000; -533.000
216.494; -280.500; -939.000; -867.000
216.639; -193.500; -823.000; -888.000
216.784; -159.100; -577.000; -525.000
216.929;   95.900;  392.000;  281.000
217.073;  -30.900; -244.000;  -31.000
217.218;   58.400;   78.000;  -47.000
217.363; -168.800; -656.000; -618.000
217.507; -152.000; -623.000; -588.000
217.652; -258.200; -845.000; -874.000
217.797; -173.100; -708.000; -659.000
217.942; -228.600; -856.000; -720.000
218.086;  150.600;  608.000;  539.000
218.231;  -63.500; -174.000;  -26.000
218.376;  -38.400; -337.000; -229.000
218.520;    8.500;  -41.000;   96.000
218.665;  -70.800; -338.000; -204.000
218.810;  -63.300; -275.000; -233.000
218.954;   49.000;  201.000;   35.000
219.099; -233.700; -713.000; -963.000
219.243; -127.500; -589.000; -554.000
219.388;  -52.500; -264.000; -136.000
219.532;   -9.100; -116.000; -116.000
219.677; -164.700; -564.000; -521.000
219.822;   49.100;   33.000;   89.000
219.966;   20.400;   17.000;  -99.000
220.111;  -25.800; -328.000;  -40.000
220.255; -189.500; -797.000; -750.000
220.400;  -37.300; -180.000; -146.000
220.544; -119.400; -516.000; -450.000
220.689;  -97.500; -422.000; -451.000
220.833;  -10.300; -123.000;  -58.000
220.978;  -94.500; -393.000; -563.000
221.122;   45.100;  319.000;  307.000
221.267; -226.800; -906.000; -837.000
221.411; -130.300; -478.000; -394.000
221.555;    7.600; -104.000;  -23.000
221.700;  -64.600; -329.000; -222.000
221.844;   80.700;  255.000;  272.000
221.989;  -94.600; -328.000; -311.000
222.133;  -58.100; -289.000; -307.000
222.277;    1.000;    5.000;   78.000
222.422;   73.600;  227.000;  113.000
222.566;  -41.800; -381.000; -214.000
222.711; -102.200; -414.000; -479.000
222.855; -149.100; -643.000; -586.000
222.999; -161.000; -642.000; -717.000
223.144;  -19.800; -195.000; -194.000
223.288;  156.100;  423.000;  251.000
223.432;   14.300;  184.000;  230.000
223.576;   61.100;  152.000;  -21.000
223.721;   97.500;  364.000;  273.000
223.865; -114.600; -472.000; -475.000
224.009;  503.900; 1673.000; 1631.000
224.153; -169.900; -660.000; -671.000
224.298; -151.300; -531.000; -489.000
224.442;  -16.700;  -74.000;  -33.000
224.586;  -35.100; -169.000; -106.000
224.730; -189.300; -858.000; -670.000
224.875; -204.500; -739.000; -688.000
225.019;   50.600;  102.000;  188.000
225.163;  142.500;  208.000;  341.000
225.307;   51.900;   97.000;  -91.000
225.451;   84.800;  360.000;  481.000
225.595;   94.000;  264.000;  176.000
225.739;  -37.600; -170.000;  -94.000
225.884;   43.600;   86.000;    5.000
226.028; -194.400; -760.000; -626.000
226.172;  -76.000; -260.000; -273.000
226.316; -227.700; -941.000; -902.000
226.460; -108.600; -645.000; -493.000
226.604; -105.200; -406.000; -400.000
226.748; -200.700; -836.000; -733.000
226.892;  -95.900; -227.000; -181.000
227.036;  -69.900; -537.000; -447.000
227.180;  -74.300; -551.000; -375.000
227.324; -154.200; -561.000; -580.000
227.468; -221.800; -819.000; -717.000
227.612;   46.800;  242.000;  -28.000
227.756; -202.900; -845.000; -698.000
227.900;  135.800;  342.000;  441.000
228.044;  -95.100; -509.000; -290.000
228.188;  138.300;  448.000;  568.000
228.332; -157.100; -546.000; -472.000
228.476;  -77.000; -223.000; -149.000
228.620;  -67.900; -210.000; -150.000
228.764;  177.100;  431.000;  349.000
228.908;  -16.400; -155.000;   30.000
229.052;  -98.800; -615.000; -528.000
229.195;  -24.900; -172.000;   13.000
229.339;  -38.800; -235.000; -305.000
229.483;  -49.400;    5.000; -162.000
229.627;   24.400; -156.000;  139.000
229.771; -102.700; -218.000; -294.000
229.915;   73.000;  230.000;   79.000
230.059; -178.000; -648.000; -663.000
230.202;  -36.700; -370.000; -317.000
230.346;  -31.500; -107.000;  107.000
230.490;  -96.300; -489.000; -521.000
230.634; -182.600; -736.000; -553.000
230.777;  193.500;  478.000;  509.000
230.921; -134.400; -450.000; -359.000
231.065;  -44.600; -246.000; -286.000
231.209;   53.800;  261.000;  265.000
231.352;   73.400;   54.000;   40.000
231.496;   39.200;  568.000;  188.000
231.640; -170.900; -693.000; -621.000
231.783;  125.900;  546.000;  525.000
231.927;  -87.000; -294.000; -365.000
232.071; -250.900; -962.000; -736.000
232.214; -210.900; -980.000; -764.000
232.358; -194.500; -683.000; -599.000
232.502;   47.800;  -19.000;    7.000
232.645; -275.500;-1090.000; -927.000
232.789;  -16.900; -257.000; -218.000
232.933;  -53.400; -407.000; -224.000
233.076; -239.000;-1038.000; -897.000
233.220; -208.100; -752.000; -777.000
233.363; -147.400; -669.000; -477.000
233.507;  121.000;  371.000;  129.000
233.650; -166.500; -764.000; -834.000
233.794;  106.200;  438.000;  461.000
233.938; -102.400; -530.000; -362.000
234.081;  -49.200;  -93.000;   31.000
234.225; -129.000; -631.000; -539.000
234.368; -234.000; -773.000; -723.000
234.512;  -65.400; -385.000; -299.000
234.655; -130.100; -582.000; -555.000
234.798; -118.100; -493.000; -466.000
234.942; -228.600; -884.000;-1002.000
235.085; -141.000; -651.000; -443.000
235.229; -113.300; -405.000; -410.000
235.372;  -83.800; -247.000; -191.000
235.516; -106.400; -397.000; -321.000
235.659;   59.700;   92.000;  121.000
235.802;  -47.100;  -38.000;  -22.000
235.946;   96.200;  335.000;  215.000
236.089;   81.900;  126.000;  250.000
236.233;  141.700;  275.000;  298.000
236.376;  -77.100; -235.000; -378.000
236.519;  -76.800; -297.000; -319.000
236.663;  -39.500; -215.000; -117.000
236.806; -255.400;-1029.000; -999.000
236.949;  141.500;  543.000;  431.000
237.092;  108.600;  412.000;  391.000
237.236; -152.200; -589.000; -502.000
237.379;  155.600;  352.000;  428.000
237.522; -252.700; -879.000; -768.000
237.666;   -8.400; -271.000;   18.000
237.809; -242.400; -851.000; -823.000
237.952;   59.300;  469.000;  271.000
238.095; -126.700; -447.000; -442.000
238.238;  170.300;  688.000;  700.000
238.382;   47.100;  166.000;  103.000
238.525; -114.400; -598.000; -511.000
238.668; -284.500;-1060.000; -985.000
238.811; -181.800; -638.000; -643.000
238.954; -109.200; -483.000; -334.000
239.097;  207.200;  617.000;  664.000
239.241;   60.300;  394.000;  326.000
239.384;  -46.000; -254.000; -214.000
239.527; -130.400; -424.000; -224.000
239.670; -268.700; -994.000;-1091.000
239.813; -230.300; -696.000; -658.000
239.956;  188.300;  579.000;  473.000
240.099; -188.800; -778.000; -725.000
240.242;  125.900;  428.000;  432.000
240.385;   85.700;  466.000;  450.000
240.528; -117.500; -706.000; -473.000
240.671;   31.600;  189.000;  134.000
240.814;  -67.800; -441.000; -158.000
240.957; -205.900; -767.000; -578.000
241.100; -168.400; -779.000; -755.000
241.243; -277.000;-1234.000; -893.000
241.386; -113.700; -508.000; -379.000
241.529; -164.300; -735.000; -547.000
241.672; -102.700; -566.000; -495.000
241.815; -220.500; -832.000; -808.000
241.958;   28.300; -125.000; -182.000
242.101; -150.100; -545.000; -390.000
242.244;  -69.300; -270.000; -325.000
242.387;  -53.000; -304.000; -246.000
242.530;  128.000;  470.000;  134.000
242.673;  -87.500; -381.000; -309.000
242.815; -197.200; -925.000; -899.000
242.958; -116.200; -482.000; -381.000
243.101;   40.500;  132.000;  187.000
243.244; -164.000; -564.000; -521.000
243.387;  -51.200; -313.000; -316.000
243.530; -164.700; -657.000; -674.000
243.672;   28.100;   43.000;  -92.000
243.815; -109.600; -355.000; -283.000
243.958;   12.500;   98.000;  -26.000
244.101;   26.900;   59.000;  -16.000
244.243;   -7.800;  -47.000;  101.000
244.386; -222.100; -761.000; -630.000
244.529;  -22.800; -132.000; -139.000
244.672; -295.400;-1154.000; -951.000
244.814; -187.500; -621.000; -794.000
244.957; -108.500; -380.000; -304.000
245.100; -133.600; -489.000; -489.000
245.242; -101.900; -387.000; -374.000
245.385;    3.400;  -59.000;  -39.000
245.528; -209.800; -871.000; -705.000
245.670;  214.900;  612.000;  634.000
245.813; -145.700; -599.000; -547.000
245.956;   10.400; -324.000; -275.000
246.098; -111.900; -508.000; -650.000
246.241;   46.400;  194.000;   48.000
246.383;  -20.500; -119.000;  -73.000
246.526; -133.200; -454.000; -525.000
246.669; -226.100; -889.000; -780.000
246.811;   49.700;  172.000;   -1.000
246.954; -123.900; -512.000; -426.000
247.096;   -6.000;  -84.000;   -6.000
247.239; -119.100; -482.000; -445.000
247.381; -123.000; -647.000; -488.000
247.524;  180.700;  645.000;  679.000
247.666;  -10.700;   58.000;   11.000
247.809; -219.300; -887.000; -691.000
247.951;    3.600;  -75.000;  138.000
248.094;   58.800;  432.000;  308.000
248.236; -307.200;-1262.000;-1238.000
248.378;  -38.500; -356.000;  -81.000
248.521;  -22.900; -334.000; -337.000
248.663;  -43.300; -236.000; -267.000
248.806;  -10.200; -300.000; -266.000
248.948; -204.800; -886.000; -763.000
249.090; -104.400; -428.000; -398.000
249.233; -108.300; -344.000; -381.000
249.375; -114.100; -474.000; -451.000
249.518;  -20.400;  -83.000; -133.000
249.660;   12.100; -103.000;    3.000
249.802; -384.800;-1303.000;-1189.000
249.945; -134.200; -612.000; -540.000
250.087; -228.800; -834.000; -768.000
250.229; -140.700; -362.000; -480.000
250.371; -120.700; -494.000; -439.000
250.514;  -86.300; -310.000; -244.000
250.656;   29.400;   69.000;  102.000
250.798; -231.400; -849.000; -800.000
250.940; -104.800; -322.000; -322.000
251.083;  -46.300; -335.000; -111.000
251.225;  113.800;  338.000;  310.000
251.367;  -23.700; -274.000; -373.000
251.509;  -67.400; -265.000; -210.000
251.651; -162.100; -731.000; -671.000
251.794;  135.000;  538.000;  632.000
251.936; -176.300; -821.000; -747.000
252.078; -157.200; -540.000; -461.000
252.220; -137.500; -645.000; -477.000
252.362;  172.600;  344.000;  462.000
252.504; -116.700; -677.000; -584.000
252.646; -217.300; -875.000; -722.000
252.788;   13.400;   14.000; -128.000
252.931;  -62.000; -257.000; -253.000
253.073;  -83.600; -376.000; -317.000
253.215;    1.200;  141.000;  122.000
253.357;   -1.700;   82.000; -153.000
253.499;  -79.400; -374.000; -234.000
253.641; -179.300; -749.000; -594.000
253.783; -207.600; -609.000; -527.000
253.925; -160.500; -586.000; -591.000
254.067; -191.600; -744.000; -667.000
254.209;  -64.900; -391.000; -259.000
254.351; -247.700; -865.000; -883.000
254.493;  -87.700; -441.000; -417.000
254.635; -199.000; -936.000; -818.000
254.777; -159.900; -752.000; -687.000
254.918; -153.800; -512.000; -430.000
255.060;  -95.900; -551.000; -395.000
255.202;  -97.800; -473.000; -261.000
255.344; -102.900; -658.000; -455.000
255.486; -140.000; -471.000; -406.000
255.628; -198.700; -780.000; -781.000
255.770; -168.100; -676.000; -536.000
255.912; -108.600; -559.000; -468.000
256.053; -177.600; -730.000; -508.000
256.195;  332.700; 1008.000;  903.000
256.337; -225.500; -861.000; -595.000
256.479;  161.100;  532.000;  416.000
256.621;  -75.500; -394.000; -212.000
256.762; -170.100; -789.000; -742.000
256.904;  116.000;  485.000;  487.000
257.046;  -72.500; -381.000; -271.000
257.188;  -69.200; -351.000; -264.000
257.329; -123.500; -525.000; -464.000
257.471; -235.100; -939.000; -807.000
257.613; -117.300; -584.000; -498.000
257.755; -297.200;-1073.000; -982.000
257.896;   87.800;  286.000;  392.000
258.038; -120.400; -403.000; -352.000
258.180;  -80.700; -354.000; -279.000
258.321; -156.400; -581.000; -457.000
258.463;    7.900;  -71.000;  133.000
258.605; -168.200; -562.000; -570.000
258.746; -208.900; -886.000; -772.000
258.888; -291.700;-1026.000;-1020.000
259.029;   77.000;  121.000;   -8.000
259.171; -150.800; -614.000; -550.000
259.313;   18.400;  -49.000;  -47.000
259.454; -102.200; -536.000; -414.000
259.596;  -83.300; -483.000; -390.000
259.737; -132.100; -590.000; -474.000
259.879;  103.600;  217.000;  311.000
260.020;  187.000;  901.000;  636.000
260.162;  -34.200; -146.000; -253.000
260.303; -230.200; -768.000; -687.000
260.445; -145.900; -609.000; -613.000
260.586;   81.900;  392.000;  157.000
260.728;  -68.500; -360.000; -248.000
260.869; -142.600; -350.000; -343.000
261.011;  173.700;  706.000;  537.000
261.152; -114.600; -479.000; -319.000
261.293; -149.900; -576.000; -595.000
261.435;  -31.100; -219.000; -184.000
261.576;  -79.500; -455.000; -325.000
261.718;  117.400;  420.000;  470.000
261.859; -240.100; -940.000; -949.000
262.000; -256.500; -951.000;-1016.000
262.142;  -41.600;  -52.000;  -60.000
262.283; -234.200; -808.000; -691.000
262.424; -145.700; -666.000; -625.000
262.566; -304.100;-1161.000; -983.000
262.707; -216.500; -840.000; -830.000
262.848; -240.800; -769.000; -726.000
262.990;  -86.400; -362.000; -345.000
263.131;  159.800;  650.000;  681.000
263.272;  -14.900;  -61.000;  -41.000
263.413; -173.500; -589.000; -561.000
263.555; -119.900; -669.000; -143.000
263.696; -144.200; -550.000; -641.000
263.837; -121.900; -449.000; -551.000
263.978;   15.000;   -5.000;  -77.000
264.119;  -86.200; -283.000; -264.000
264.261; -222.200; -847.000; -630.000
264.402;   14.100;   33.000;   40.000
264.543; -122.500; -509.000; -524.000
264.684;  -11.700;   61.000;  -50.000
264.825; -119.600; -816.000; -538.000
264.966;   32.400;  -84.000;  -67.000
265.107; -217.700; -646.000; -670.000
265.248; -208.400; -825.000; -812.000
265.390;  -12.400;  152.000;   -9.000
265.531;   14.600; -238.000; -107.000
265.672; -161.600; -557.000; -630.000
265.813;  165.100;  563.000;  439.000
265.954; -290.800; -959.000; -940.000
266.095;    7.100; -372.000; -322.000
266.236; -172.000; -686.000; -548.000
266.377;  -56.700; -243.000; -297.000
266.518; -107.800; -619.000; -547.000
266.659;   61.700;  170.000;  268.000
266.800;   27.000;   83.000;   85.000
266.941; -112.400; -487.000; -478.000
267.082;   58.600;  354.000;   99.000
267.223;  -89.200; -344.000; -273.000
267.364; -223.400; -892.000; -686.000
267.504;   28.900;    3.000;  135.000
267.645;   20.600;  160.000;   67.000
267.786;  -15.500; -147.000;  -86.000
267.927; -115.000; -473.000; -379.000
268.068;   -5.900; -186.000;  -61.000
268.209; -118.900; -175.000; -413.000
268.350; -104.000; -388.000; -532.000
268.490; -142.100; -648.000; -521.000
268.631;   86.700;  127.000;  225.000
268.772; -198.500; -874.000; -647.000
268.913;  -75.900; -328.000; -476.000
269.054;   20.500; -117.000;   12.000
269.194;  -48.500; -418.000; -402.000
269.335; -306.000;-1137.000;-1074.000
269.476;  -16.700;   33.000;  -35.000
269.617;  -70.200; -347.000; -392.000
269.757; -161.500; -713.000; -646.000
269.898; -192.000; -856.000; -613.000
270.039;  -88.800; -415.000; -405.000
270.180; -272.600; -952.000; -816.000
270.320;   -9.200; -190.000; -250.000
270.461;  -72.700; -277.000; -249.000
270.602;   -8.900; -186.000; -156.000
270.742; -273.100; -868.000; -943.000
270.883;  -89.300; -442.000; -390.000
271.023;  -99.800; -358.000; -357.000
271.164; -114.100; -607.000; -528.000
271.305; -191.900; -666.000; -654.000
271.445; -166.600; -722.000; -683.000
271.586; -131.700; -462.000; -283.000
271.726;  -51.800; -397.000; -322.000
271.867; -128.400; -594.000; -534.000
272.008;  204.800; -473.000; -285.000
272.148;  219.900;  462.000;  468.000
272.289;   32.800; -113.000; -181.000
272.429;   33.200;   19.000;  185.000
272.570; -179.400; -633.000; -737.000
272.710; -219.200; -825.000; -775.000
272.851;  -35.300;  113.000; -130.000
272.991; -305.000;-1173.000;-1077.000
273.131; -100.600; -419.000; -459.000
273.272; -200.600; -683.000; -723.000
273.412;   27.800; -143.000;  -31.000
273.553; -122.000; -488.000; -507.000
273.693;  309.100;  913.000;  858.000
273.834; -215.400; -894.000; -692.000
273.974; -166.400; -664.000; -615.000
274.114; -200.000; -772.000; -560.000
274.255;  150.000;  414.000;  373.000
274.395;   -5.500; -180.000; -125.000
274.535;   80.000;  199.000;  350.000
274.676;   31.700;  225.000;   94.000
274.816;   19.700;  110.000;   34.000
274.956; -152.900; -624.000; -690.000
275.097; -165.100;-1014.000; -922.000
275.237; -231.400; -913.000; -803.000
275.377; -181.800; -778.000; -689.000
275.517; -287.500; -878.000; -937.000
275.658; -132.700; -590.000; -555.000
275.798; -143.500; -606.000; -413.000
275.938;   93.300;  215.000;  323.000
276.078; -185.700; -626.000; -395.000
276.218;   55.400;   99.000;  104.000
276.359; -260.200;-1026.000;-1024.000
276.499; -133.000; -605.000; -446.000
276.639;  -33.500; -305.000; -151.000
276.779;  -96.700; -475.000; -357.000
276.919; -216.500; -783.000; -624.000
277.059;  -37.400; -261.000; -212.000
277.199;  -82.200; -357.000; -259.000
277.340;  115.400;  287.000;  175.000
277.480; -225.400; -840.000; -693.000
277.620;   93.000;  192.000;   16.000
277.760; -404.600;-1533.000;-1294.000
277.900;   78.000;  113.000;   33.000
278.040;   73.600;  137.000;  159.000
278.180;   95.800;  270.000;  170.000
278.320;  -11.600;   21.000;   56.000
278.460; -135.700; -443.000; -469.000
278.600; -169.500; -708.000; -598.000
278.740;  120.700;  448.000;  224.000
278.880; -172.400; -768.000; -791.000
279.020;   35.000; -194.000; -144.000
279.160; -151.700; -672.000; -595.000
279.300; -214.100; -926.000; -873.000
279.440; -189.000; -709.000; -622.000
279.579; -146.700;-1014.000; -929.000
279.719;  -94.800; -410.000; -394.000
279.859;  158.500;   -4.000;   41.000
279.999;   48.400; -208.000;  101.000
280.139;  -52.700; -435.000; -387.000
280.279; -175.600; -708.000; -745.000
280.419;    2.100; -229.000; -147.000
280.559;  -72.100; -259.000; -180.000
280.698; -159.800; -790.000; -639.000
280.838; -195.700; -778.000; -800.000
280.978; -194.000; -846.000; -790.000
281.118; -212.100; -811.000; -704.000
281.257;   40.200;   24.000;    6.000
281.397; -264.900;-1094.000; -960.000
281.537; -161.100; -599.000; -712.000
281.677;   -6.000; -150.000; -101.000
281.816; -143.700; -700.000; -630.000
281.956;  -73.600; -193.000; -257.000
282.096;  -91.900; -539.000; -396.000
282.235; -202.500; -672.000; -638.000
282.375;  -30.300; -243.000;  -98.000
282.515; -201.500; -715.000; -707.000
282.654;   79.400;   29.000;  106.000
282.794;   47.800;  388.000;  244.000
282.934;  -91.700; -530.000; -491.000
283.073; -264.200;-1030.000; -857.000
283.213; -101.100; -460.000; -467.000
283.353;  -66.600; -408.000; -349.000
283.492;  -16.900; -264.000; -296.000
283.632;  -66.900; -254.000; -168.000
283.771; -171.600; -859.000; -730.000
283.911;  -95.700; -369.000; -260.000
284.050; -178.500; -794.000; -748.000
284.190; -294.400;-1229.000;-1096.000
284.329; -275.500;-1055.000; -964.000
284.469; -167.600; -516.000; -591.000
284.608;  -84.400; -559.000; -598.000
284.748; -144.900; -614.000; -570.000
284.887;   28.400;  -87.000;  -20.000
285.027; -229.600; -844.000; -892.000
285.166;  -40.500; -192.000; -249.000
285.306;   -7.100; -116.000;  -33.000
285.445;  -34.500; -229.000; -343.000
285.584; -170.100; -630.000; -494.000
285.724;  -60.900; -282.000; -322.000
285.863; -218.800; -857.000; -507.000
286.002;  -92.200; -366.000; -276.000
286.142; -201.700; -715.000; -622.000
286.281; -123.900; -525.000; -493.000
286.420; -145.200; -554.000; -417.000
286.560;  249.300;  653.000;  623.000
286.699; -239.500; -958.000; -912.000
286.838; -132.600; -590.000; -591.000
286.978; -194.300; -533.000; -537.000
287.117; -236.200;-1085.000; -950.000
287.256;  -73.300; -228.000; -211.000
287.395;  -89.400; -197.000; -378.000
287.535; -121.800; -370.000; -298.000
287.674; -153.200; -509.000; -484.000
287.813;  112.300;  661.000;  533.000
287.952; -238.200;-1010.000; -871.000
288.091; -294.500;-1049.000; -915.000
288.231;   59.800;   13.000;   15.000
288.370; -331.000;-1217.000;-1200.000
288.509; -161.500; -728.000; -645.000
288.648; -169.300; -770.000; -548.000
288.787;  -24.400; -243.000;  -87.000
288.926; -113.600; -454.000; -475.000
289.065;  266.900;  859.000;  672.000
289.204;  -87.500; -377.000; -217.000
289.344; -172.900; -791.000; -690.000
289.483;   68.300;  416.000;  304.000
289.622;  -30.800; -291.000; -149.000
289.761;   -2.300; -309.000; -166.000
289.900; -164.200; -785.000; -626.000
290.039;  -21.900;  -12.000;  -95.000
290.178;  -60.500; -274.000; -180.000
290.317; -156.200; -618.000; -479.000
290.456; -109.900; -463.000; -451.000
290.595; -269.500; -961.000; -833.000
290.734; -268.700; -904.000; -891.000
290.873; -151.400; -456.000; -420.000
291.011; -200.600; -833.000; -843.000
291.150; -226.400; -770.000; -682.000
291.289;  -19.900; -343.000; -110.000
291.428; -153.500; -599.000; -480.000
291.567;  -88.200; -370.000; -442.000
291.706;   22.600;  109.000;  154.000
291.845; -181.000; -597.000; -505.000
291.984; -338.800;-1234.000;-1061.000
292.122;  186.400;  602.000;  582.000
292.261;  132.200;  620.000;  463.000
292.400;   24.700; -144.000;  211.000
292.539; -260.100; -959.000; -813.000
292.678;  -74.900; -325.000; -300.000
292.816; -289.500;-1136.000; -965.000
292.955; -188.900; -844.000; -684.000
293.094;  -29.600; -173.000; -337.000
293.233;  -75.000; -556.000; -400.000
293.371;  -64.300; -225.000;  -84.000
293.510; -188.600; -866.000; -780.000
293.649; -278.100; -959.000; -924.000
293.787; -174.700;-1083.000;-1012.000
293.926;   -6.400; -113.000;  -32.000
294.065;  -57.100; -379.000; -290.000
294.203;  117.800;  298.000;  406.000
294.342;   39.100;   74.000;  156.000
294.481;12361.800;51180.000; -836.000
294.619;  -20.600; -425.000; -582.000
294.758; -293.000;-1230.000;-1137.000
294.896;  108.500; -125.000;    5.000
295.035; -274.300;-1040.000;-1006.000
295.174; -237.400;-1082.000; -954.000
295.312;  -76.700; -323.000; -203.000
295.451;  -22.300; -307.000; -428.000
295.589;  -94.000; -389.000; -518.000
295.728;   68.300; -292.000; -165.000
295.866;   22.300;  -36.000;  -51.000
296.005;  -81.400; -584.000; -341.000
296.143; -138.800; -558.000; -596.000
296.282; -198.300; -957.000; -881.000
296.420; -147.500; -657.000; -557.000
296.559; -159.000; -892.000; -633.000
296.697;  -82.800; -847.000; -665.000
296.835;  -45.800;-1141.000;-1002.000
296.974;   95.500;  -23.000;   39.000
297.112;  -28.200; -443.000; -504.000
297.251; -156.800; -815.000; -755.000
297.389;   43.100; -576.000; -438.000
297.527;   65.600; -145.000;  -83.000
297.666; -118.000; -486.000; -438.000
297.804;  -92.400; -404.000; -264.000
297.942;   24.100; -136.000; -161.000
298.081;   -0.400; -183.000;   63.000
298.219;  131.200;  -17.000;  -19.000
298.357;   27.900; -144.000;  -71.000
298.495;  -44.000; -810.000; -812.000
298.634;   79.100;  245.000;  219.000
298.772;   63.600; -220.000; -338.000
298.910;  -97.100; -309.000; -182.000
299.048;    7.600; -130.000; -153.000
299.187;  -66.600; -350.000; -250.000
299.325;   38.800;   52.000;  122.000
299.463;   27.400; -389.000; -299.000
299.601;  104.200; -327.000; -271.000
299.739; -236.600; -908.000; -883.000
299.877; -124.300; -791.000; -703.000
300.016; -170.800;-1095.000; -935.000
300.154;  173.600;  -19.000; -161.000
300.292;   24.100; -428.000; -348.000
300.430;   22.200; -408.000; -291.000
300.568; -205.700; -940.000; -874.000
300.706;  -78.800; -366.000; -469.000
300.844; -215.600;-1108.000; -979.000
300.982;  245.700;  246.000;  282.000
301.120; -235.900; -965.000; -866.000
301.258; -124.200; -812.000; -705.000
301.396;   26.900;  104.000;  -41.000
301.534;   73.000; -218.000; -293.000
301.672;  -82.400; -664.000; -521.000
301.810;  -36.300; -613.000; -545.000
301.948;  213.600;   53.000;  149.000
302.086;  673.700; -250.000;  -32.000
302.224; 1038.900; -610.000; -585.000
302.362;   -3.300; -558.000; -622.000
302.500; -108.900; -923.000; -893.000
302.638;  163.200;  128.000;  245.000
302.776;  -21.700; -352.000; -408.000
302.913;  121.700;  447.000;  236.000
303.051;   -9.300;  -86.000;  -23.000
303.189;   92.800;   90.000;  118.000
303.327;  -50.100; -341.000; -256.000
303.465; -154.200; -832.000; -588.000
303.603; -182.000; -805.000; -604.000
303.740;  164.900;  417.000;  241.000
303.878;  -73.900; -800.000; -759.000
304.016; -187.200; -915.000; -790.000
304.154; -268.400;-1123.000;-1152.000
304.291;  -77.600; -505.000; -554.000
304.429;   19.100;  102.000;   74.000
304.567; -228.700; -908.000; -893.000
304.705; -105.100; -408.000; -515.000
304.842;   56.800; -616.000; -540.000
304.980;  107.700;  215.000;   35.000
305.118;   55.700; -367.000; -365.000
305.255; -220.900; -945.000; -927.000
305.393;  108.500;  178.000;  239.000
305.531; -244.700;-1173.000; -956.000
305.668; -141.500; -663.000; -582.000
305.806;   88.500; -358.000; -439.000
305.943;   80.600; -629.000; -637.000
306.081;   60.800; -378.000; -267.000
306.219; -175.700; -863.000; -748.000
306.356;   42.700;  158.000;   27.000
306.494;  277.100;  981.000;  761.000
306.631;   22.900;  -11.000;  -55.000
306.769;    5.000; -613.000; -485.000
306.906;   11.400; -284.000; -258.000
307.044;  -85.000; -473.000; -488.000
307.181;  -91.800; -410.000; -332.000
307.319;   57.100;  112.000;   87.000
307.456; -327.800;-1191.000;-1153.000
307.594; -165.700; -980.000; -727.000
307.731;  -18.200; -371.000; -164.000
307.868;   40.300;  -15.000;   20.000
308.006; -241.900; -961.000; -847.000
308.143;  -88.800; -618.000; -330.000
308.281;  298.600;  -37.000; -254.000
308.418;  -22.600; -748.000; -640.000
308.555; -120.300; -400.000; -250.000
308.693; -125.600; -577.000; -573.000
308.830; -195.500; -712.000; -657.000
308.967;   12.100; -215.000;  -95.000
309.105;  -81.200; -507.000; -396.000
309.242;   47.600; -468.000; -367.000
309.379;  550.400; -577.000; -655.000
309.517; -105.300; -936.000; -948.000
309.654; -201.900; -910.000; -734.000
309.791; -115.700; -662.000; -580.000
309.928; -210.200; -977.000; -914.000
310.065;  342.500;  819.000;  697.000
310.203;  -94.700; -825.000; -850.000
310.340;  -13.900; -465.000; -321.000
310.477; -125.500; -412.000; -516.000
310.614;  -70.100; -383.000; -473.000
310.751; -138.600; -427.000; -518.000
310.889;   19.300;    1.000;   11.000
311.026; -267.300;-1161.000; -939.000
311.163;  -64.800; -386.000; -380.000
311.300; -120.800; -512.000; -479.000
311.437; -124.500; -658.000; -619.000
311.574; -295.000;-1226.000; -985.000
311.711;  -95.000; -595.000; -433.000
311.848;  -59.000; -380.000; -388.000
311.985;   49.600;  270.000;   93.000
312.122; -223.500; -932.000; -762.000
312.259; -199.700; -941.000; -994.000
312.396; -138.600; -508.000; -551.000
312.533; -134.300; -812.000; -790.000
312.670; -255.400;-1070.000; -898.000
312.807;  -44.900; -352.000; -367.000
312.944; -140.200; -513.000; -611.000
313.081;  -37.600; -150.000; -415.000
313.218; -217.100;-1111.000; -867.000
313.355;   12.700; -531.000; -449.000
313.492;   19.900; -455.000; -292.000
313.629;  280.200;  815.000;  735.000
313.766; -308.400;-1176.000;-1008.000
313.902;    7.000; -186.000;   21.000
314.039;  -56.100; -372.000; -289.000
314.176;   84.000;  286.000;  192.000
314.313; -122.600; -569.000; -473.000
314.450; -133.000; -788.000; -684.000
314.587; -110.700; -468.000; -480.000
314.723;   24.600;  -78.000;  130.000
314.860;  118.400;  318.000;  332.000
314.997;   86.800;  223.000;  142.000
315.134;  -70.800; -385.000; -368.000
315.270;  -48.100; -480.000; -496.000
315.407; -252.700;-1094.000; -967.000
315.544; -110.600; -657.000; -538.000
315.681; -148.000; -681.000; -565.000
315.817;   14.900; -133.000; -176.000
315.954;  -63.000; -613.000; -392.000
316.091; -231.600;-1045.000;-1023.000
316.227;    5.700;  -71.000; -179.000
316.364;   36.100;   23.000;    6.000
316.500;  -21.800; -113.000; -300.000
316.637;  -73.700; -181.000; -302.000
316.774; -144.000; -625.000; -358.000
316.910; -152.900; -598.000; -629.000
317.047; -126.000; -487.000; -351.000
317.183;  -85.000; -435.000; -566.000
317.320;  -37.100; -367.000; -321.000
317.456; -160.100; -733.000; -805.000
317.593; -156.800; -598.000; -641.000
317.729;   13.000;  168.000;  -67.000
317.866; -397.300;-1434.000;-1285.000
318.002; -168.300; -708.000; -948.000
318.139; -195.500; -883.000; -867.000
318.275; -186.500;-1003.000; -738.000
318.412; -102.400; -517.000; -336.000
318.548;  -83.000; -751.000; -720.000
318.685; -197.400; -985.000; -888.000
318.821; -148.600; -762.000; -735.000
318.957;  -12.300;   34.000;  -23.000
319.094;  103.400;  297.000;  154.000
319.230; -154.500; -756.000; -742.000
319.367;  177.900; -471.000; -520.000
319.503;   67.700; -538.000; -436.000
319.639; -166.200; -877.000; -793.000
319.775; -164.200; -750.000; -685.000
319.912;  -90.900; -424.000; -519.000
320.048; -213.000;-1184.000;-1184.000
320.184;  142.000;   59.000;   70.000
320.321; -109.500; -497.000; -467.000
320.457;  170.100;  475.000;  662.000
320.593; -135.100; -375.000; -382.000
320.729; -163.300; -732.000; -734.000
320.866; -154.500; -577.000; -635.000
321.002; -167.900; -759.000; -809.000
321.138;  -14.000; -135.000; -211.000
321.274;  105.200; -148.000; -115.000
321.410;  -78.200; -585.000; -353.000
321.546; -137.700;-1011.000; -911.000
321.683;  123.800;  400.000;  185.000
321.819;   43.800;  -48.000; -117.000
321.955; -198.000; -743.000; -722.000
322.091;  -91.800; -585.000; -540.000
322.227;  -57.600; -382.000; -202.000
322.363;  -53.800; -320.000; -215.000
322.499;  -59.000; -343.000; -331.000
322.635;  260.100;  636.000;  443.000
322.771;   31.800; -139.000;   12.000
322.907;  167.400;  129.000;  327.000
323.043;  -13.500; -115.000; -206.000
323.179;  -44.600; -394.000; -363.000
323.315;  -43.300; -401.000; -371.000
323.451;   97.900; -328.000; -236.000
323.587;   85.400;  -60.000;  -77.000
323.723;   -6.200; -682.000; -601.000
323.859;  -25.500; -258.000;  -76.000
323.995;  -57.800; -467.000; -409.000
324.131; -210.600; -967.000; -892.000
324.267;  -37.300; -254.000; -276.000
324.402; -250.600; -960.000; -983.000
324.538;  -23.500; -279.000; -104.000
324.674;   42.300;  164.000;   77.000
324.810;  243.600;  226.000;  308.000
324.946;   33.200; -810.000; -658.000
325.082;  -98.000; -568.000; -475.000
325.217;   20.300;  -62.000;   16.000
325.353; -155.400; -764.000; -659.000
325.489; -152.300; -540.000; -506.000
325.625; -121.100; -579.000; -525.000
325.760;  165.100;  517.000;  376.000
325.896;  -50.200; -515.000; -702.000
326.032;  -61.500; -403.000; -352.000
326.168;  -95.800; -462.000; -369.000
326.303;  -74.400; -352.000; -461.000
326.439;    1.200; -336.000; -276.000
326.575;    3.300; -190.000;  -29.000
326.710;  -11.300; -156.000;  -30.000
326.846;   25.700;  146.000;  103.000
326.982; -144.600; -530.000; -548.000
327.117; -130.700; -481.000; -442.000
327.253; -146.400; -745.000; -742.000
327.388; -308.900;-1137.000;-1153.000
327.524; -111.100; -811.000; -578.000
327.659;  -18.300;  -58.000;  -22.000
327.795;   22.600;   69.000;   45.000
327.931; -138.000; -723.000; -499.000
328.066;  -10.900; -417.000; -276.000
328.202;   13.000;   12.000; -129.000
328.337;  267.000;  957.000;  713.000
328.473;   21.400;  -12.000;  -74.000
328.608;  -17.000; -256.000; -267.000
328.743; -164.400; -799.000; -664.000
328.879;   81.700;  214.000;  114.000
329.014; -114.100; -102.000; -122.000
329.150; -116.700; -358.000; -483.000
329.285; -162.900; -465.000; -466.000
329.421;  -70.100; -548.000; -246.000
329.556;  -27.600;  -36.000;   85.000
329.691; -141.300; -633.000; -615.000
329.827; -149.400; -626.000; -480.000
329.962;  -77.700;  131.000; -301.000
330.097; -167.500; -673.000; -585.000
330.233;  -72.300; -410.000; -223.000
330.368; -215.600; -839.000; -628.000
330.503;   21.000;    3.000;   98.000
330.638;   25.600;  -93.000; -125.000
330.774; -129.100; -609.000; -530.000
330.909; -104.800; -434.000; -244.000
331.044; -165.600; -714.000; -708.000
331.179; -314.500;-1217.000;-1109.000
331.315;   48.200;   77.000;   20.000
331.450;   48.000;  157.000;  285.000
331.585; -162.400; -805.000; -706.000
331.720; -133.700; -510.000; -460.000
331.855;   20.700;  -35.000; -102.000
331.990;  250.000;   62.000;  138.000
332.126;  189.500; -110.000;   71.000
332.261;  -70.100; -379.000; -265.000
332.396;   21.200; -135.000; -242.000
332.531; -237.600;-1074.000;-1031.000
332.666;   14.600; -519.000; -363.000
332.801; -190.600; -726.000; -807.000
332.936;  -21.900; -192.000; -122.000
333.071; -293.700; -870.000; -817.000
333.206;   81.900;  307.000;  379.000
333.341;   99.000;  344.000;  418.000
333.476; -162.500; -627.000; -623.000
333.611;  -40.400; -251.000; -173.000
333.746;  -67.900; -381.000; -464.000
333.881; -235.300; -973.000; -935.000
334.016; -221.600; -936.000; -917.000
334.151; -206.500; -746.000; -702.000
334.286;   25.200;  152.000;  186.000
334.421;  -14.900; -125.000; -178.000
334.556; -123.700; -611.000; -567.000
334.690; -156.800; -631.000; -577.000
334.825;  160.700;  381.000;   83.000
334.960; -124.300; -285.000; -413.000
335.095;   39.800;  135.000;  -91.000
335.230; -188.500; -722.000; -738.000
335.365; -229.400;-1084.000; -990.000
335.499; -274.800;-1108.000;-1037.000
335.634;   71.700;    9.000;  534.000
335.769; -210.100; -755.000; -720.000
335.904; -121.500; -603.000; -561.000
336.038; -137.800; -735.000; -657.000
336.173; -241.300;-1206.000;-1194.000
336.308;  -34.400; -116.000; -189.000
336.443;   -7.800; -544.000; -634.000
336.577; -195.800; -936.000; -787.000
336.712;   84.300;   -4.000;  -12.000
336.847; -145.500; -724.000; -607.000
336.981;   28.800; -272.000; -208.000
337.116;  380.500;  615.000;  501.000
337.250;  125.500; -434.000; -421.000
337.385;  279.400; -297.000; -208.000
337.520;   12.800; -632.000; -603.000
337.654;  -79.100; -215.000; -126.000
337.789; -227.200; -989.000; -933.000
337.923;  -43.100; -104.000; -205.000
338.058; -148.800; -673.000; -738.000
338.192; -113.900; -611.000; -488.000
338.327;    7.500;  -18.000; -155.000
338.461; -140.100; -299.000; -469.000
338.596; -175.200; -780.000; -638.000
338.730; -202.400; -767.000; -803.000
338.865;  133.700;  -46.000; -140.000
338.999; -136.200; -846.000; -702.000
339.134;  -63.800; -634.000; -536.000
339.268;  -69.600; -741.000; -603.000
339.403;  297.000; -740.000; -775.000
339.537;    9.400; -894.000; -820.000
339.671; -210.100; -829.000; -813.000
339.806; -102.200; -556.000; -512.000
339.940;   34.800; -261.000; -235.000
340.074; -192.100; -685.000; -510.000
340.209;  -60.400; -351.000; -230.000
340.343; -149.900; -517.000; -573.000
340.477;  331.300;  998.000; 1036.000
340.612; -151.500;-1033.000; -900.000
340.746;  152.000; -199.000; -243.000
340.880; -165.800; -924.000; -785.000
341.014;   38.100;  -45.000; -154.000
341.149; -205.800; -756.000; -718.000
341.283; -199.800; -839.000; -754.000
341.417; -204.000;-1124.000; -938.000
341.551;   81.500; -768.000; -708.000
341.685;  -96.200; -633.000; -611.000
341.820; -107.200; -562.000; -493.000
341.954;  -79.300; -218.000; -349.000
342.088; -274.400;-1102.000;-1019.000
342.222;   95.600;  565.000;  618.000
342.356;  -92.200; -395.000; -335.000
342.490; -193.500; -880.000; -841.000
342.624;  -75.500; -339.000; -242.000
342.758;  -29.900; -364.000; -312.000
342.892; -146.200; -710.000; -585.000
343.026;  -30.900;  -58.000; -116.000
343.160;  -78.200; -426.000; -376.000
343.294; -118.000; -474.000; -337.000
343.428;  -74.600; -488.000; -448.000
343.562;  -21.600; -172.000;  -23.000
343.696;  -31.100; -385.000; -314.000
343.830; -100.600; -362.000; -356.000
343.964;   34.600; -231.000; -168.000
344.098; 1118.500;  199.000;   70.000
344.232;  991.800; -266.000; -127.000
344.366;   87.400; -567.000; -453.000
344.500;    5.300; -665.000; -744.000
344.634;   35.900; -324.000; -164.000
344.768;  -50.000; -531.000; -341.000
344.902;   42.300;  278.000;  256.000
345.035;  -98.800; -556.000; -496.000
345.169; -251.500; -933.000; -656.000
345.303;  -40.500; -308.000; -482.000
345.437; -175.200; -826.000; -717.000
345.571; -131.500; -675.000; -594.000
345.704; -127.400; -309.000; -532.000
345.838;   10.300; -331.000; -284.000
345.972;  -49.900; -543.000; -495.000
346.106;  170.100; -179.000; -190.000
346.239;  444.100; -312.000; -243.000
346.373;  -13.900; -343.000; -302.000
346.507; -236.100; -950.000; -962.000
346.640;  187.900;  -30.000;   13.000
346.774;  -94.700; -650.000; -797.000
346.908;   28.600; -138.000;  -11.000
347.041; -189.300; -646.000; -593.000
347.175;   62.400;  259.000;   27.000
347.309; -145.300; -698.000; -628.000
347.442; -195.200; -883.000; -732.000
347.576;  434.600;  670.000;  668.000
347.709;  265.200; -123.000;  -52.000
347.843; -195.500; -933.000; -825.000
347.976;  107.700;  235.000;  294.000
348.110; -319.800;-1268.000;-1186.000
348.243; -157.000; -679.000; -772.000
348.377;   38.300;  -26.000;   60.000
348.510;  137.400;  403.000;  540.000
348.644;  -61.800;  -37.000; -159.000
348.777;   41.900;  180.000;  191.000
348.911;  -45.500; -142.000; -112.000
349.044;  271.100;  471.000;  448.000
349.178;  104.700;-1069.000;-1006.000
349.311;  196.000;  141.000;  255.000
349.444;  -84.300; -927.000; -813.000
349.578;  -27.200; -347.000; -200.000
349.711; -214.100; -959.000; -862.000
349.845;  -41.300; -661.000; -591.000
349.978; -291.700;-1224.000;-1137.000
350.111; -158.900; -546.000; -612.000
350.244; -142.200; -596.000; -700.000
350.378;    8.100; -392.000; -393.000
350.511;  -94.700; -393.000; -426.000
350.644; -199.100; -808.000; -806.000
350.778;   38.200;  168.000;  104.000
350.911;   29.500;  134.000;  140.000
351.044; -155.100; -685.000; -615.000
351.177;  -26.300; -321.000; -281.000
351.310;  -20.900;    3.000; -131.000
351.444; -184.000; -888.000; -788.000
351.577;  145.500;  140.000;   90.000
351.710;  222.000;  593.000;  417.000
351.843;  -57.200; -165.000;  -77.000
351.976;   27.500;  149.000;  -79.000
352.109; -179.300; -621.000; -612.000
352.242;  -39.900; -464.000; -419.000
352.376; -155.900; -580.000; -636.000
352.509;  158.100; -437.000; -356.000
352.642;  -85.400; -654.000; -604.000
352.775;   77.400; -141.000;  -98.000
352.908; -214.200; -933.000; -904.000
353.041; -211.600; -814.000; -824.000
353.174; -123.200; -551.000; -424.000
353.307; -172.000; -753.000; -764.000
353.440;  153.100;  541.000;  453.000
353.573; -197.700; -957.000;-1008.000
353.706;  -40.200; -384.000; -558.000
353.839;  -32.000; -264.000; -220.000
353.971; -173.900; -657.000; -512.000
354.104; -174.900; -896.000; -835.000
354.237;  -97.300; -627.000; -662.000
354.370; -159.100; -846.000; -879.000
354.503; -341.100;-1231.000;-1308.000
354.636;  -75.500; -529.000; -348.000
354.769; -265.900; -937.000; -860.000
354.902;  -31.400; -230.000; -139.000
355.034;  -40.000; -164.000; -220.000
355.167;  -43.900; -262.000; -162.000
355.300; -215.700;-1061.000; -880.000
355.433;  991.600;  -71.000;  -14.000
355.565; 1434.000; -402.000; -384.000
355.698;  422.700; -356.000; -296.000
355.831; -101.600; -882.000; -801.000
355.964;   87.400; -285.000; -170.000
356.096; -191.500; -856.000; -843.000
356.229;  -47.400; -523.000; -530.000
356.362;  291.000; -373.000; -266.000
356.494;  601.300; -229.000; -162.000
356.627;  580.300;  269.000;  377.000
356.760;  703.300;  120.000;   53.000
356.892;  861.500; -286.000; -601.000
357.025;  774.100;  403.000;  389.000
357.157;  650.000; -167.000; -179.000
357.290;  655.800; -856.000; -713.000
357.423;  155.700; -667.000; -556.000
357.555;   99.400; -217.000; -228.000
357.688;   73.500; -483.000; -364.000
357.820;  459.500; -870.000; -877.000
357.953; 4353.200; -563.000; -589.000
358.085;  793.600; -632.000; -612.000
358.218; 1133.600;-1131.000; -932.000
358.350;  242.000;  -58.000;  312.000
358.483; -285.400;-1300.000;-1187.000
358.615; -108.600;-1182.000;-1078.000
358.747; -211.900;-1187.000;-1058.000
358.880;  -24.600; -810.000; -744.000
359.012;  -50.100; -376.000; -202.000
359.145;  -71.800; -480.000; -511.000
359.277;  -61.500; -962.000; -913.000
359.409; 3652.800;  536.000;  231.000
359.542;  883.600; -738.000; -688.000
359.674;  102.700;   46.000;   13.000
359.806; -122.300; -565.000; -438.000
359.939;  -93.000; -617.000; -516.000
360.071;  -71.200; -583.000; -579.000
360.203;   -5.700; -411.000; -364.000
360.335;   86.100;  164.000;  -16.000
360.468;  194.400; -249.000; -307.000
360.600; 2763.400; -547.000; -454.000
360.732; 2845.400; -546.000; -423.000
360.864;  270.900;-1216.000;-1044.000
360.996;  258.100; -516.000; -554.000
361.129;   16.600; -389.000; -598.000
361.261;   59.200;  110.000; -113.000
361.393;  -59.700; -252.000; -214.000
361.525;   84.800;   94.000;  244.000
361.657;  -93.000; -821.000; -703.000
361.789;   54.400; -139.000; -155.000
361.921;  163.200; -642.000; -593.000
362.053;  378.900;  524.000;  541.000
362.185;   74.000;  288.000;   72.000
362.318; -150.300; -709.000; -705.000
362.450;  191.500;  294.000;  444.000
362.582;   58.800; -913.000; -870.000
362.714;  -61.200; -353.000; -332.000
362.846; -120.200; -606.000; -490.000
362.978; -256.800; -941.000; -811.000
363.109;   11.400; -161.000; -260.000
363.241;  378.200; -739.000; -749.000
363.373;  380.800; -649.000; -564.000
363.505;  687.000; -186.000;  -91.000
363.637;  130.900; -787.000; -601.000
363.769; -260.200;-1067.000;-1080.000
363.901; -107.300; -596.000; -654.000
364.033; -245.900;-1103.000;-1062.000
364.165;    0.100; -283.000; -283.000
364.296;   41.100; -316.000; -177.000
364.428;  -55.200;-1344.000;-1220.000
364.560; -138.100; -679.000; -661.000
364.692; -125.300; -738.000; -835.000
364.824;  213.300; -588.000; -456.000
364.955;  377.500; -402.000; -564.000
365.087;  816.900;-1097.000; -852.000
365.219;  -49.100; -686.000; -816.000
365.351; -116.700; -526.000; -572.000
365.482;  122.200;  300.000;  240.000
365.614;  -75.200; -402.000; -314.000
365.746; -163.300; -729.000; -752.000
365.877; -171.100; -706.000; -672.000
366.009;  325.400;  -35.000;  -62.000
366.141; -242.700;-1249.000;-1134.000
366.272; -203.200; -803.000; -719.000
366.404; -224.100;-1005.000; -874.000
366.535;   -7.500; -139.000;  -12.000
366.667; -184.500; -644.000; -649.000
366.799;  127.900;  353.000;  203.000
366.930; -235.100; -862.000; -996.000
367.062;   77.500; -639.000; -613.000
367.193;   18.300; -872.000; -842.000
367.325; -109.900; -580.000; -684.000
367.456;   42.100; -246.000;   31.000
367.588;  149.200; -371.000; -318.000
367.719;   35.600;  -44.000;  -45.000
367.851;   10.800; -222.000; -241.000
367.982; -154.100; -875.000; -732.000
368.113;  129.200; -475.000; -358.000
368.245; -222.300; -960.000; -841.000
368.376;   -0.900; -254.000; -302.000
368.508;  -24.200; -188.000; -263.000
368.639; -260.800;-1166.000;-1034.000
368.770;  -86.800; -670.000; -589.000
368.902; -149.800; -836.000; -926.000
369.033; -208.300; -906.000; -855.000
369.164; -110.300; -720.000; -653.000
369.296; -176.400; -452.000; -601.000
369.427;   31.400; -209.000; -144.000
369.558;  -65.400; -593.000; -377.000
369.689; -136.000; -721.000; -569.000
369.821; -250.500; -951.000; -845.000
369.952;   18.200;   42.000; -108.000
370.083;  -67.100; -229.000; -108.000
370.214; -171.600; -735.000; -650.000
370.345;   35.300;   65.000;   81.000
370.477; -146.500; -810.000; -790.000
370.608;  304.200; -328.000; -264.000
370.739; -193.100;-1233.000;-1292.000
370.870; -131.200;-1102.000; -923.000
371.001;   84.200; -378.000; -467.000
371.132; -166.600; -754.000; -735.000
371.263;    5.800;  -42.000; -148.000
371.394; -218.900; -841.000; -748.000
371.525;  108.500;  345.000;  225.000
371.657; -200.600; -808.000; -670.000
371.788;  139.400;  103.000;  199.000
371.919;  158.600; -384.000; -304.000
372.050; 4621.500;  -91.000; -156.000
372.181; 1319.100; -188.000; -294.000
372.311;  498.500;   42.000; -127.000
372.442;   -8.200; -457.000; -451.000
372.573;   -6.400; -444.000; -340.000
372.704; -270.800;-1008.000; -980.000
372.835;   98.000; -228.000; -289.000
372.966; -129.800; -646.000; -554.000
373.097; -105.500; -575.000; -711.000
373.228;  -78.400; -717.000; -542.000
373.359;  103.000; -824.000; -536.000
373.490;  977.900; -881.000; -727.000
373.620; 1226.400;-1001.000; -803.000
373.751; 2209.200; -332.000; -396.000
373.882;  905.400; -663.000; -733.000
374.013;   53.800; -449.000; -262.000
374.143;  -73.600; -581.000; -659.000
374.274; -212.600; -987.000; -908.000
374.405;  223.900; -388.000; -276.000
374.536;  502.500; -526.000; -387.000
374.666; 1294.900; -759.000; -807.000
374.797;  212.200; -817.000; -868.000
374.928;  969.900; -710.000; -560.000
375.058;  921.000; -535.000; -500.000
375.189;   81.700;  -59.000;  -93.000
375.320; -197.000; -928.000;-1034.000
375.450;  -58.500; -625.000; -616.000
375.581;  -94.000; -526.000; -436.000
375.712;  -27.600; -574.000; -250.000
375.842;  272.300; -438.000; -415.000
375.973;  190.500; -554.000; -513.000
376.103;  -94.900; -665.000; -648.000
376.234; -119.400; -531.000; -552.000
376.364; -142.100; -944.000; -867.000
376.495;  504.000;  925.000;  529.000
376.625;  -54.500; -472.000; -485.000
376.756;   42.500; -709.000; -678.000
376.886; -242.500;-1178.000;-1026.000
377.017;  -55.800;-1048.000;-1061.000
377.147;  272.300; -786.000; -782.000
377.278;  138.900;  174.000;  228.000
377.408; -229.200; -801.000; -815.000
377.538; -167.100; -707.000; -693.000
377.669; -149.000; -537.000; -613.000
377.799; -156.400; -645.000; -635.000
377.929; -127.800; -610.000; -428.000
378.060; -230.100; -781.000; -847.000
378.190; -129.200; -726.000; -531.000
378.320;  -83.100; -401.000; -406.000
378.451;   14.400; -131.000;  -22.000
378.581;   27.800;  -67.000; -110.000
378.711;  309.500; 1035.000;  866.000
378.841;  -50.500; -533.000; -675.000
378.972; -181.000; -871.000; -751.000
379.102;  -17.100; -652.000; -579.000
379.232;  -52.700; -126.000;  -73.000
379.362; -218.100;-1001.000; -885.000
379.492;  -68.600; -373.000; -424.000
379.623;  167.800;    0.000;  111.000
379.753; -237.800;-1107.000; -974.000
379.883;  324.900;   59.000;  156.000
380.013; -112.500;-1081.000;-1017.000
380.143; -222.000;-1097.000;-1056.000
380.273; -197.100; -985.000; -861.000
380.403;   -5.400; -344.000; -257.000
380.533; -141.800; -651.000; -664.000
380.663;  135.000;  173.000;  128.000
380.793; -236.000;-1027.000;-1074.000
380.923;   -1.100; -103.000;  -34.000
381.053; -178.300; -613.000; -623.000
381.183;  -52.100; -106.000; -248.000
381.313;   11.800; -656.000; -470.000
381.443;    9.200; -692.000; -473.000
381.573;  180.700; -402.000; -409.000
381.703;  185.500;-1249.000;-1095.000
381.833; -312.900;-1454.000;-1336.000
381.963;  204.200; -134.000;  -87.000
382.093; 1537.300; -925.000; -909.000
382.223;  416.700; -713.000; -602.000
382.353; -104.800; -801.000; -608.000
382.482;  374.100;-1091.000; -964.000
382.612;  808.600; -872.000; -644.000
382.742;  449.900; -695.000; -622.000
382.872;  249.200; -565.000; -551.000
383.002;  109.000;  347.000; -132.000
383.131;  -36.300; -226.000; -160.000
383.261;  -95.500; -706.000; -768.000
383.391;  273.100; -552.000; -377.000
383.521; 3315.300;  451.000;  263.000
383.650;  564.500; -947.000; -904.000
383.780;  -74.500; -783.000; -656.000
383.910;  252.000;  880.000;  802.000
384.039;  -32.100; -794.000; -656.000
384.169;  115.200;-1205.000;-1017.000
384.299;  -82.900; -650.000; -662.000
384.428; -207.500; -764.000; -680.000
384.558;  -40.500; -308.000; -275.000
384.687;  -94.400; -414.000; -334.000
384.817;   70.700;   75.000;   -2.000
384.947;   10.700; -234.000; -141.000
385.076;  471.800;  982.000;  912.000
385.206;  182.100;  369.000;  480.000
385.335;  -40.600; -549.000; -417.000
385.465; -136.200; -655.000; -663.000
385.594;  199.500;  -53.000;  -44.000
385.724;  439.000; -868.000; -838.000
385.853;  100.800; -296.000; -270.000
385.982; 1659.700; -743.000; -787.000
386.112; 2536.500;-1052.000; -871.000
386.241;  150.400; -307.000; -312.000
386.371;   70.200; -174.000;  -87.000
386.500;  -53.300; -825.000; -789.000
386.629;  -45.800; -874.000; -817.000
386.759;   73.200;  -43.000;   68.000
386.888;   13.400; -170.000; -250.000
387.017; -115.800; -648.000; -620.000
387.147; -179.100; -771.000; -798.000
387.276;  -53.900; -410.000; -397.000
387.405;    5.500; -398.000; -342.000
387.535;  -88.200; -452.000; -361.000
387.664; -111.800; -692.000; -620.000
387.793;   64.500; -198.000; -113.000
387.922;  668.800;  255.000;  200.000
388.052;  -28.700; -576.000; -423.000
388.181;    3.300; -342.000; -472.000
388.310;  -89.900; -889.000; -710.000
388.439; -136.600; -749.000; -742.000
388.568;  283.500;  365.000;  244.000
388.697; 1271.800; -756.000; -653.000
388.826;  198.500; -768.000; -666.000
388.956;   82.100; -285.000; -307.000
389.085;  -58.700; -347.000; -287.000
389.214; -190.500; -842.000; -872.000
389.343; -109.100; -645.000; -413.000
389.472;  557.000;  126.000;  149.000
389.601;  580.900;   91.000;    0.000
389.730;  -50.300; -568.000; -687.000
389.859;  119.100;  226.000;   46.000
389.988;  237.900; -423.000; -408.000
390.117;  165.600; -168.000; -146.000
390.246;    0.700; -331.000; -320.000
390.375;  108.400; -673.000; -626.000
390.504; -100.900; -703.000; -621.000
390.633; -198.500; -672.000; -726.000
390.761; -113.200; -732.000; -645.000
390.890;   39.000;   -4.000; -130.000
391.019;  -58.800; -421.000; -441.000
391.148; -209.000; -826.000; -855.000
391.277;  -86.900; -576.000; -493.000
391.406; -164.700; -821.000; -805.000
391.534;  115.300;  574.000; -301.000
391.663; -124.000; -583.000; -645.000
391.792; -159.200; -673.000; -701.000
391.921;  165.400;   -3.000;   15.000
392.050;  212.400; -287.000; -228.000
392.178; -175.700;-1206.000;-1061.000
392.307;  118.100; -758.000; -712.000
392.436;   -3.500; -427.000; -641.000
392.564;   50.800;  166.000;   -6.000
392.693; -203.800; -860.000; -682.000
392.822;  206.600; -529.000; -534.000
392.950;   52.600; -880.000; -714.000
393.079;  411.200; -188.000; -328.000
393.208;  -36.600; -488.000; -511.000
393.336;   -0.700; -170.000; -145.000
393.465;  -35.300; -317.000; -199.000
393.593;   33.000;   62.000;   79.000
393.722; -283.600;-1121.000; -916.000
393.850;  -41.300; -188.000;  -61.000
393.979; -277.300; -926.000; -805.000
394.107;  -98.500; -517.000; -537.000
394.236;  -80.600; -570.000; -507.000
394.364;  414.700;  383.000;  206.000
394.493;  568.400; -911.000; -767.000
394.621;  -66.700; -955.000; -916.000
394.750;  606.800; -873.000; -923.000
394.878; 2808.200; -247.000; -149.000
395.007; 3650.200; -721.000; -807.000
395.135;  214.300; -790.000; -721.000
395.263; -176.400;-1038.000;-1040.000
395.392;   47.300;  -25.000; -107.000
395.520; -160.400; -818.000; -679.000
395.648; -172.100; -865.000; -915.000
395.777;  -54.100; -366.000; -405.000
395.905; -112.000; -449.000; -564.000
396.033;   79.300;  217.000;  172.000
396.162; 1008.100; -399.000; -453.000
396.290;  865.600;  -17.000;   -2.000
396.418;   99.800; -555.000; -514.000
396.546; -156.600; -571.000; -466.000
396.674; -186.600; -850.000; -878.000
396.803;   34.000;  -72.000;  -23.000
396.931;  106.900; -179.000; -199.000
397.059;  -50.800;-1026.000; -989.000
397.187; -210.000;-1026.000; -975.000
397.315; -252.200; -884.000; -649.000
397.443; -141.900; -592.000; -443.000
397.572; -162.000; -578.000; -424.000
397.700;  -72.800; -607.000; -614.000
397.828;   68.000;  120.000;  -90.000
397.956;  -91.300; -508.000; -478.000
398.084; -147.900; -767.000; -626.000
398.212;   90.900;  137.000;  124.000
398.340;   59.600;  -56.000;  159.000
398.468;   33.700; -390.000; -169.000
398.596; -239.700; -993.000; -953.000
398.724; -191.600; -762.000; -767.000
398.852; -293.300;-1024.000; -976.000
398.980;  -98.800; -560.000; -560.000
399.108; -121.100; -982.000; -735.000
399.236;  103.500;   13.000;    8.000
399.363;   64.200;  222.000;  196.000
399.491;  -77.400; -404.000; -398.000
399.619; -231.700; -829.000; -800.000
399.747; -210.900; -859.000; -771.000
399.875;  183.900;  220.000;  234.000
400.003;  -55.800; -359.000; -284.000
400.130; -128.800; -421.000; -341.000
400.258;   18.700;  -83.000;   38.000
400.386;  -46.900; -352.000; -168.000
400.514;  -97.800; -526.000; -587.000
400.641; -193.000; -928.000; -802.000
400.769; -206.900; -979.000; -888.000
400.897; -177.200; -838.000; -793.000
401.025;   26.500; -166.000; -152.000
401.152;   60.600;  220.000;   38.000
401.280;  -81.600; -430.000; -429.000
401.408; -208.500; -712.000; -576.000
401.535; -166.800; -735.000; -758.000
401.663; -354.500;-1134.000;-1054.000
401.790; -115.100; -514.000; -525.000
401.918;  101.600;  436.000;  405.000
402.046;   38.600;  134.000;  122.000
402.173;  -19.300;  -18.000;    7.000
402.301;  -93.900; -519.000; -397.000
402.428;   93.100;  528.000;  383.000
402.556; -259.500;-1188.000; -913.000
402.683;   13.400;  -20.000;   -1.000
402.811;   33.300;  -37.000; -206.000
402.938;   36.600;   20.000;   27.000
403.066;  233.000; -574.000; -558.000
403.193;  403.200;  299.000;  239.000
403.321;  288.400; -396.000; -574.000
403.448;  408.200;   83.000;   27.000
403.575;  220.400;  -90.000;  -46.000
403.703; -166.500; -732.000; -557.000
403.830; -104.500; -531.000; -496.000
403.957; -296.800;-1117.000;-1023.000
404.085;   43.400;  -61.000; -172.000
404.212;  145.900;  -50.000;   63.000
404.339;  241.400; -566.000; -306.000
404.467; 5615.400; -612.000; -524.000
404.594; 3631.400; -287.000; -227.000
404.721;  770.100; -869.000; -764.000
404.848;   94.300; -113.000; -202.000
404.976; -192.900; -856.000; -783.000
405.103;   29.300;  -14.000;  -82.000
405.230;   21.000;  190.000;  226.000
405.357;   49.800;  117.000;   44.000
405.484;  240.600;  -49.000;    5.000
405.612;   -6.800; -548.000; -563.000
405.739; -122.800; -488.000; -243.000
405.866;  207.400;  669.000;  385.000
405.993;  -68.800; -398.000; -102.000
406.120; -236.400; -801.000; -887.000
406.247; -101.500; -323.000; -342.000
406.374;  593.600;  540.000;  629.000
406.501;   35.600; -632.000; -702.000
406.628; -128.500; -621.000; -589.000
406.755; -162.700; -803.000; -620.000
406.882;  -62.300; -228.000; -277.000
407.009; -164.700; -719.000; -628.000
407.136;   52.200; -480.000; -401.000
407.263;   44.300; -939.000; -829.000
407.390; -159.700; -692.000; -614.000
407.517; -295.200;-1139.000;-1187.000
407.644;  -62.100; -332.000; -256.000
407.771;  -90.800; -249.000; -287.000
407.898;   65.600;  168.000;  328.000
408.025; -102.200; -421.000; -313.000
408.151;  -14.700;   82.000;  153.000
408.278; -102.600; -267.000; -216.000
408.405; -208.800; -931.000; -899.000
408.532; -121.300; -549.000; -542.000
408.659; -205.200; -677.000; -648.000
408.785; -378.500;-1298.000;-1170.000
408.912;  -85.600; -412.000; -296.000
409.039; -156.000; -610.000; -686.000
409.166; -142.800; -591.000; -555.000
409.292; -157.100; -571.000; -534.000
409.419; -195.400; -665.000; -649.000
409.546; -100.800; -431.000; -192.000
409.672; -162.100; -713.000; -545.000
409.799;   -3.700;  -36.000;   34.000
409.926;  -25.300; -180.000; -179.000
410.052; -289.900;-1127.000;-1091.000
410.179;  -86.600; -368.000; -392.000
410.305; -143.300; -375.000; -493.000
410.432;  -40.800; -220.000; -333.000
410.558; -110.400; -305.000; -380.000
410.685; -163.400; -688.000; -431.000
410.812; -176.200; -409.000; -588.000
410.938; -215.100; -964.000; -808.000
411.065; -160.700; -671.000; -645.000
411.191;   -1.400; -189.000; -174.000
411.317; -214.500; -823.000; -742.000
411.444;  -85.000; -317.000; -246.000
411.570;  -99.400; -339.000; -294.000
411.697; -180.500; -758.000; -752.000
411.823; -290.500; -989.000; -999.000
411.949;  -13.500;  -56.000;   17.000
412.076; -181.000; -539.000; -519.000
412.202; -190.200; -758.000; -757.000
412.329; -232.500; -798.000; -752.000
412.455; -177.800; -821.000; -657.000
412.581;  -15.800;  -15.000;  172.000
412.707;  -92.100; -540.000; -457.000
412.834;   46.700;  156.000;  219.000
412.960; -149.700; -785.000; -784.000
413.086; -199.100; -743.000; -701.000
413.212;  250.900;  604.000;  578.000
413.339; -159.300; -685.000; -701.000
413.465;  -24.900; -364.000; -310.000
413.591; -156.500; -757.000; -474.000
413.717;  -93.300; -358.000; -366.000
413.843; -269.000; -839.000; -861.000
413.969; -119.400;  -47.000; -292.000
414.096; -188.500; -679.000; -679.000
414.222;    3.700;  -33.000;   85.000
414.348;  -68.700; -652.000; -385.000
414.474;  141.400;   38.000;  -52.000
414.600;   -7.800; -126.000; -144.000
414.726;   29.900;  -96.000;  -55.000
414.852;  -72.600; -365.000; -342.000
414.978;   58.500;  104.000;  -18.000
415.104;   59.500;   38.000;   80.000
415.230;   25.000; -329.000; -330.000
415.356;    2.500; -409.000; -514.000
415.482;  214.000;   13.000;  -35.000
415.608;  264.600; -247.000; -323.000
415.734; 1025.500;   67.000;   38.000
415.860;20917.500; -875.000; -767.000
415.986;13691.000; -685.000; -607.000
416.111; 1030.500; -798.000; -652.000
416.237;  180.000; -424.000; -571.000
416.363; 1189.500; -765.000; -733.000
416.489; 4071.000; -324.000; -251.000
416.615;  287.800; -707.000; -742.000
416.741; -107.300; -677.000; -784.000
416.866; -215.100; -673.000; -736.000
416.992; -225.500; -801.000; -818.000
417.118;  -49.000;  -41.000;  -80.000
417.244; -122.300; -798.000; -531.000
417.369; -184.000; -801.000; -612.000
417.495;  -40.200; -325.000; -254.000
417.621; -200.900;-1015.000; -803.000
417.746;  -33.300; -579.000; -572.000
417.872;   53.500; -254.000; -144.000
417.998;   23.800; -515.000; -530.000
418.123; 1042.100;-1073.000; -845.000
418.249; 5163.300; -512.000; -601.000
418.374;  511.900; -916.000; -824.000
418.500;   91.000; -383.000; -482.000
418.626;  168.600;   70.000;  -59.000
418.751;   79.600; -549.000; -448.000
418.877;  125.900; -637.000; -643.000
419.002; 1931.300; -688.000; -560.000
419.128;12317.600; -930.000; -721.000
419.253; 2612.900; -967.000; -837.000
419.379;  283.500; -391.000; -338.000
419.504;  440.800;  325.000;  415.000
419.629;  506.200; -393.000; -212.000
419.755; 3706.100; -317.000; -254.000
419.880;20316.200;  -98.000;   67.000
420.006;11528.800; -280.000; -221.000
420.131;28890.600; -662.000; -775.000
420.256; 3899.600; -315.000; -316.000
420.382;  457.300; -665.000; -687.000
420.507;   -8.300; -649.000; -778.000
420.632;  132.200; -337.000; -339.000
420.758;  344.100; -251.000; -425.000
420.883; -162.100; -876.000; -672.000
421.008; -174.600; -775.000; -619.000
421.133; -117.000; -509.000; -467.000
421.259;  -58.300; -325.000; -259.000
421.384; -217.800; -834.000; -693.000
421.509; -119.900;-1052.000; -862.000
421.634; 1413.000; -936.000; -820.000
421.759;  590.100; -359.000; -327.000
421.885;  -99.900; -717.000; -656.000
422.010; -124.600; -673.000; -542.000
422.135; -239.700; -695.000; -727.000
422.260;  148.400;  340.000;  280.000
422.385;  -23.000;   12.000;  -98.000
422.510;   98.800;  151.000;  -26.000
422.635;   44.100;  -87.000;  -43.000
422.760;   72.800; -766.000; -791.000
422.885;  101.000;  -57.000;  -80.000
423.010;  -15.800; -112.000; -169.000
423.135; -116.400; -481.000; -561.000
423.260;   20.500; -150.000; -245.000
423.385;  138.300;  476.000;  222.000
423.510;   49.400;   71.000;  -22.000
423.635;  108.500;  133.000;   45.000
423.760;  160.200;  383.000;  328.000
423.885;  127.000;  336.000;  391.000
424.010;   41.800;  -68.000;  -13.000
424.135;   -4.700;    5.000;  -33.000
424.259; -118.900; -654.000; -457.000
424.384; -116.400; -279.000; -272.000
424.509;  -20.700; -260.000; -186.000
424.634; -167.700; -761.000; -623.000
424.759;  -81.400; -688.000; -544.000
424.883;  -29.700; -506.000; -527.000
425.008;  153.100; -502.000; -410.000
425.133; 1928.700; -679.000; -653.000
425.258;  791.900; -517.000; -381.000
425.382; 1229.200; -867.000; -774.000
425.507; 2991.000; -487.000; -543.000
425.632;  374.300; -802.000; -663.000
425.756;  446.100; -256.000; -146.000
425.881; 6699.900; -831.000; -857.000
426.006;16425.900; -604.000; -355.000
426.130; 2389.400; -696.000; -508.000
426.255;  267.400; -611.000; -491.000
426.379;  153.700; -189.000; -577.000
426.504;  506.700;  660.000;  544.000
426.629; 4065.900; -519.000; -466.000
426.753; 2584.100;   64.000;  -46.000
426.878;  280.400; -252.000; -288.000
427.002;   96.300; -651.000; -668.000
427.127; 1788.900;  -35.000; -158.000
427.251;11709.600;  372.000;  401.000
427.375; 2976.300; -191.000; -173.000
427.500; 2600.000; -616.000; -610.000
427.624;  822.900; -234.000; -400.000
427.749;  111.200; -216.000; -225.000
427.873;  -65.400; -499.000; -412.000
427.997;  -35.600; -222.000; -230.000
428.122;  164.600;  795.000;  703.000
428.246;  180.100;  433.000;  434.000
428.371; -226.100; -869.000; -773.000
428.495; -163.500; -624.000; -646.000
428.619;  -33.400; -186.000; -117.000
428.743;   78.400;   65.000;  132.000
428.868;  -19.800; -732.000; -643.000
428.992; 1785.700; -219.000; -326.000
429.116;  623.300; -329.000; -357.000
429.240;  428.700;  419.000;  426.000
429.365;  -53.600; -454.000; -574.000
429.489;  -59.400; -638.000; -647.000
429.613;   17.400; -236.000; -177.000
429.737;   25.400; -563.000; -432.000
429.861;  294.900; -247.000; -133.000
429.985; 5697.000; -425.000; -305.000
430.109; 5636.700; -770.000; -908.000
430.234;  680.900;   76.000;  -50.000
430.358;   41.000; -250.000; -160.000
430.482; -127.300; -672.000; -564.000
430.606; -105.100; -655.000; -375.000
430.730;   27.700; -437.000; -388.000
430.854;   28.300; -909.000; -835.000
430.978; -129.900; -795.000; -764.000
431.102; -105.000; -499.000; -422.000
431.226; -214.500; -874.000; -815.000
431.350;  126.400;  345.000;  422.000
431.474; -101.900; -661.000; -373.000
431.597; -258.000;-1060.000; -848.000
431.721;  -69.900; -276.000; -267.000
431.845; -234.400; -704.000; -472.000
431.969; -124.100; -304.000; -349.000
432.093; -126.200; -395.000; -317.000
432.217;   39.300;   32.000;   82.000
432.341; -138.600; -523.000; -518.000
432.464;   53.600;   96.000;   40.000
432.588;  171.800; -401.000; -329.000
432.712;  102.400;  -52.000;  -52.000
432.836;   88.200;  213.000;  263.000
432.959;  -31.400; -372.000; -311.000
433.083;  113.300;   11.000;    2.000
433.207;  470.400;  285.000;  930.000
433.330; 5203.700; -391.000; -200.000
433.454; 5705.500; -654.000; -638.000
433.578; 3552.500;  583.000;  278.000
433.701;  516.400; -623.000; -675.000
433.825;  127.800; -292.000; -299.000
433.949;  215.600;   28.000;  -72.000
434.072;   29.400; -410.000; -323.000
434.196;   -9.100; -309.000; -117.000
434.319; 7650.000;25482.000;25124.000
434.443;  765.500; -656.000; -603.000
434.566; 2657.600;  281.000;   62.000
434.690;  313.700; -637.000; -383.000
434.813;    8.400; -251.000; -173.000
434.937; -153.900; -569.000; -696.000
435.060;  -95.000; -423.000; -332.000
435.184;  343.000; -492.000; -217.000
435.307;  189.200;  159.000;  102.000
435.431;   36.800;  -40.000;   24.000
435.554; -122.700; -399.000; -240.000
435.677;  -91.000; -350.000; -258.000
435.801;  -36.200;  -25.000;   49.000
435.924;   36.000;    1.000;  -67.000
436.048; -194.800;-1019.000; -732.000
436.171;  -76.600; -240.000;  -66.000
436.294;  -45.800; -248.000; -229.000
436.417;   15.500; -963.000; -849.000
436.541; -154.000; -814.000; -840.000
436.664;  -29.500; -242.000; -316.000
436.787;    8.100;   13.000;  113.000
436.910; -186.100; -792.000; -422.000
437.034;   56.500;  142.000;  143.000
437.157;  118.100;  -11.000;    0.000
437.280;  -84.200; -392.000; -292.000
437.403; -153.500; -982.000; -869.000
437.526;  774.200; -903.000; -865.000
437.649; 2857.700; -505.000; -332.000
437.772;  319.400; -692.000; -540.000
437.896;  255.000;  700.000;  544.000
438.019; -192.600; -758.000; -503.000
438.142; -129.000; -596.000; -506.000
438.265;  -73.200; -639.000; -670.000
438.388;  576.600; -520.000; -410.000
438.511;   42.900; -597.000; -394.000
438.634;  -45.900; -247.000; -125.000
438.757; -201.700; -693.000; -619.000
438.880;   19.400;  -34.000;  -57.000
439.003; -108.900; -417.000; -437.000
439.126;  -93.300; -287.000; -167.000
439.248;  -63.300;  -98.000; -139.000
439.371;  -12.500;    9.000;  -53.000
439.494;  112.500;  510.000;  439.000
439.617;  -59.500;   65.000;  -88.000
439.740; -293.500; -968.000; -816.000
439.863; -229.800; -755.000; -595.000
439.986; -188.200; -476.000; -431.000
440.108;  -91.400; -161.000; -112.000
440.231; -298.800; -950.000; -836.000
440.354;   -4.900;  -64.000; -150.000
440.477;  -41.000; -566.000; -542.000
440.599;   -4.600; -200.000; -225.000
440.722; -190.600; -709.000; -586.000
440.845;  207.200;  751.000;  928.000
440.968; -187.900; -415.000; -311.000
441.090;  -76.400; -199.000;  -33.000
441.213; -290.600;-1021.000; -825.000
441.336;  -61.100; -159.000;   -5.000
441.458;  -89.200; -549.000; -396.000
441.581; -176.100; -628.000; -629.000
441.703;  -85.300; -152.000;   13.000
441.826; -158.200; -557.000; -400.000
441.948;  -25.800;   56.000;   51.000
442.071;  117.800;  555.000;  424.000
442.193; -154.900; -531.000; -485.000
442.316;   61.000;  152.000;   97.000
442.438;   22.300; -233.000;  -10.000
442.561;  173.700;  272.000;  262.000
442.683;  625.000; -809.000; -522.000
442.806; 1469.300;   -8.000;   74.000
442.928;  -65.700; -859.000; -604.000
443.051; -110.700; -577.000; -373.000
443.173; -131.100; -341.000; -339.000
443.295; -106.600; -263.000; -371.000
443.418;  -79.600; -321.000;  -29.000
443.540;   24.200; -106.000;   -4.000
443.662; -191.000; -563.000; -465.000
443.785;   51.400;  335.000;  199.000
443.907; -164.700; -362.000; -208.000
444.029; -202.000; -767.000; -494.000
444.152; -253.500; -644.000; -554.000
444.274;  -15.300;  -18.000;  -24.000
444.396; -160.300; -461.000; -221.000
444.518; -234.600; -691.000; -454.000
444.640; -164.000; -268.000; -111.000
444.763;   63.900;  388.000;  249.000
444.885; -181.000; -432.000; -392.000
445.007;    1.400;   35.000;   86.000
445.129; -184.200; -610.000; -515.000
445.251; -156.200; -372.000; -439.000
445.373; -220.700; -537.000; -386.000
445.495;   77.400;  242.000;  350.000
445.617;  205.100;  853.000;  753.000
445.739;  -71.700; -215.000;  -97.000
445.861;  -58.900; -245.000; -112.000
445.984;  -34.900; -267.000; -101.000
446.105;  253.600; -418.000; -251.000
446.227;  789.700; -176.000;  -19.000
446.349;   -9.700; -358.000; -249.000
446.471; -145.800; -615.000; -448.000
446.593;  -92.000; -316.000;   19.000
446.715;   22.600;  -67.000;   41.000
446.837;  214.000;  697.000;  832.000
446.959; -173.600; -457.000; -478.000
447.081; -210.200; -628.000; -518.000
447.203;  204.500;  862.000;  834.000
447.325; -120.400; -270.000;   42.000
447.446;   91.200;  286.000;  530.000
447.568; -292.300; -921.000; -803.000
447.690;  -95.200; -236.000; -245.000
447.812; -222.000; -798.000; -519.000
447.933;    0.000;  155.000;  127.000
448.055; -105.600; -306.000; -261.000
448.177;  250.800;   31.000;   79.000
448.299;   20.000; -935.000; -727.000
448.420;   79.200;  -25.000;  159.000
448.542;  -52.200;   -3.000;   33.000
448.664;   17.600;  109.000;  322.000
448.785;  -14.800;  265.000;   83.000
448.907; -106.000; -614.000; -353.000
449.028;  -92.500; -771.000; -471.000
449.150;  168.600;  492.000;  589.000
449.272; -303.200;-1044.000; -913.000
449.393;  125.900;  612.000;  694.000
449.515; -234.900; -634.000; -581.000
449.636;  -65.000; -264.000; -155.000
449.758;  203.900;  763.000;  622.000
449.879; -120.100; -498.000; -396.000
450.001; -133.500; -149.000;  -49.000
450.122;   -8.400;  -95.000;  162.000
450.244;   42.700;   37.000;  364.000
450.365; -135.200; -495.000; -301.000
450.486;  -22.900;   80.000;  268.000
450.608;   85.700;  393.000;  326.000
450.729;  135.700;  578.000;  645.000
450.850;  -80.800; -574.000; -466.000
450.972;  693.700; -552.000; -389.000
451.093; 5023.600;  190.000;  588.000
451.214; 1838.100; -516.000; -337.000
451.336;  504.400;  773.000;  579.000
451.457;  102.700;  264.000;  393.000
451.578;  -26.800; -118.000;  -74.000
451.699; -203.000; -546.000; -540.000
451.821;  -75.800; -284.000;  -50.000
451.942;   32.100;  278.000;  285.000
452.063;   99.400;  228.000;  419.000
452.184;  580.200;  -54.000;  -49.000
452.305; 1074.200;  103.000;  170.000
452.427;   40.100; -549.000; -301.000
452.548;  -43.400;   23.000;   79.000
452.669;  -73.000; -257.000;  -89.000
452.790;  -49.300;    3.000;  -18.000
452.911;   43.500;  195.000;  259.000
453.032;  -51.300; -289.000;  -60.000
453.153;  -19.600;  -29.000;   81.000
453.274;  205.600;  737.000;  868.000
453.395;  -74.400;  -51.000;  175.000
453.516;  334.900; 1317.000; 1388.000
453.637;  -92.700; -205.000; -150.000
453.758;  -45.100;   15.000;   69.000
453.879; -159.600; -462.000; -250.000
454.000;  248.900; 1086.000;  948.000
454.121; -182.800; -554.000; -326.000
454.242; -176.500; -599.000; -383.000
454.362;  -41.500;  -99.000;  114.000
454.483;  -58.500; -309.000; -229.000
454.604;   93.200;  512.000;  580.000
454.725; -216.000; -627.000; -555.000
454.846; -203.900; -474.000; -406.000
454.967;   27.700;  230.000;  539.000
455.087;  -14.000;  179.000;  153.000
455.208;   95.200;  554.000;  856.000
455.329;  -85.500;  -22.000;   82.000
455.450;  133.200;  473.000;  633.000
455.570; -118.000; -234.000; -211.000
455.691;  -15.700;  201.000;  407.000
455.812; -135.200; -270.000;  -92.000
455.932;  -59.900;  107.000;  -97.000
456.053; -101.400;   36.000;   24.000
456.173; -171.300; -433.000; -355.000
456.294; -219.800; -476.000; -303.000
456.415;  -91.100;  -73.000;   70.000
456.535;  -12.400;  297.000;  273.000
456.656;   -3.200;  132.000;  240.000
456.776;  -64.800;    3.000;  298.000
456.897;   78.700;  308.000;  513.000
457.017;  -75.700; -153.000;   -3.000
457.138; -164.900; -402.000; -249.000
457.258;   15.600;  263.000;  224.000
457.379;   65.100;  509.000;  521.000
457.499;    3.500;  443.000;  432.000
457.620; -170.100; -407.000; -231.000
457.740; -149.700; -132.000;  -11.000
457.860;  -54.700;   87.000;   44.000
457.981;  -46.300;  132.000;  124.000
458.101;  -66.200;  -89.000;   40.000
458.221;   36.500;  336.000;  402.000
458.342;  -64.200;   -4.000;  -37.000
458.462;   75.500;  617.000;  352.000
458.582;  -62.900; -302.000; -294.000
458.703;   16.800;  303.000;  154.000
458.823;   -8.500;   22.000;  163.000
458.943;   68.000;  341.000;  467.000
459.063;  -11.700; 1124.000;  192.000
459.183;  -18.800;  328.000;  313.000
459.304;   87.400;  315.000;  517.000
459.424;  -65.600; -246.000;  -89.000
459.544;  457.900;  388.000;  764.000
459.664;  906.800;  499.000;  506.000
459.784;  404.100; 1004.000; 1175.000
459.904;  153.600;  867.000;  744.000
460.024;  201.000;  867.000;  684.000
460.144;   38.300;  449.000;  554.000
460.264;   60.700;  515.000;  327.000
460.385; -140.700; -145.000; -119.000
460.505;  173.800;  905.000;  858.000
460.625;  -87.500;  -17.000;  -68.000
460.745;   30.100;  396.000;  541.000
460.864;  -26.300;  153.000;  469.000
460.984;  117.300;  499.000;  573.000
461.104;  344.200; 1656.000; 1775.000
461.224;  119.200;  657.000;  650.000
461.344;   42.100;  431.000;  360.000
461.464;   14.000;  258.000;  513.000
461.584;   56.600;  283.000;  466.000
461.704;  -38.100;   58.000;  108.000
461.824;  -31.200;  238.000;  259.000
461.943;  -23.000;  191.000;  130.000
462.063;  -82.000;    2.000;  324.000
462.183;  144.500;  639.000;  717.000
462.303;  286.700; 1678.000; 1230.000
462.422;  128.300;  781.000;  840.000
462.542;    4.400;  271.000;  391.000
462.662;   96.000;  353.000;  380.000
462.782;  340.300;  833.000;  572.000
462.901;  562.700;  545.000;  717.000
463.021;  463.400; 1702.000; 1638.000
463.141;   46.900;  337.000;  770.000
463.260;   31.300;  614.000;  474.000
463.380;  102.000;  902.000;  884.000
463.499;  -13.000;  342.000;  332.000
463.619;   26.200;  581.000;  559.000
463.738;  289.800; 1644.000;  903.000
463.858;  135.900;  657.000;  811.000
463.978;  -14.100;  542.000;  396.000
464.097;  197.200;  921.000; 1114.000
464.217;  258.500; 1196.000; 1143.000
464.336;  256.200; 1068.000; 1130.000
464.455;   -1.700;  328.000;  659.000
464.575;  119.200;  597.000;  602.000
464.694;  318.000; 1204.000; 1179.000
464.814;  232.300; 1190.000; 1138.000
464.933;  184.000; 1095.000; 1027.000
465.052;  290.100; 1412.000; 1054.000
465.172;  211.800;  922.000;  799.000
465.291;  312.700; 1376.000; 1320.000
465.410;   91.900;  462.000;  735.000
465.530;  255.700; 1355.000; 1310.000
465.649;  183.300; 1209.000; 1273.000
465.768;  366.400; 1673.000; 1508.000
465.888;  144.700;  941.000; 1174.000
466.007;  256.800; 1335.000; 1440.000
466.126;   80.200;  721.000;  641.000
466.245;  154.900; 1176.000; 1187.000
466.364;  110.300;  950.000; 1060.000
466.484;  172.300; 1024.000; 1213.000
466.603;  127.600; 1101.000; 1222.000
466.722;  310.800; 1490.000; 1769.000
466.841;  225.500; 1151.000; 1401.000
466.960;  147.900; 1069.000;  972.000
467.079;  342.200; 1971.000; 1786.000
467.198;  221.900; 1238.000; 1181.000
467.317;  270.300; 1768.000; 1162.000
467.436;  212.600; 1709.000; 1261.000
467.555;  350.500; 1796.000; 1746.000
467.674;  243.100; 1227.000; 1329.000
467.793;  162.600; 1376.000; 1374.000
467.912;  235.300; 1658.000; 1539.000
468.031;  340.900; 2038.000; 1930.000
468.150;  386.300; 1842.000; 1837.000
468.269;  450.300; 2313.000; 2090.000
468.388;  467.900; 2168.000; 2339.000
468.507;  595.900; 2884.000; 2903.000
468.626;  669.100; 2555.000; 2541.000
468.744;  394.100; 2018.000; 2174.000
468.863;  497.600; 2312.000; 2523.000
468.982;  263.200; 1503.000; 1555.000
469.101;  556.700; 2788.000; 2692.000
469.220;  373.600; 2333.000; 2176.000
469.338;  582.300; 2935.000; 3051.000
469.457;  494.500; 2719.000; 2545.000
469.576;  846.100; 3953.000; 3784.000
469.695;  566.500; 2877.000; 3066.000
469.813;  947.600; 4148.000; 4192.000
469.932;  847.700; 4255.000; 4485.000
470.051;  912.800; 4075.000; 4161.000
470.169; 1333.900; 4470.000; 4338.000
470.288; 2017.600; 4700.000; 4809.000
470.406; 1380.300; 5059.000; 5194.000
470.525; 1272.600; 6101.000; 5787.000
470.644; 1339.700; 6847.000; 6794.000
470.762; 1677.100; 8397.000; 7873.000
470.881; 1886.700; 8651.000; 8464.000
470.999; 2135.800; 9685.000; 9151.000
471.118; 2221.100;11174.000;10711.000

