
Integration time [ms]: 100.000
Averaging Nr. [scans]: 40
Smoothing Nr. [pixels]: 0
Data measured with spectrometer [name]: 2101012U2
Wave   ;Sample   ;Dark     ;Reference
[nm]   ;[counts] ;[counts] ;[counts] 

197.733;   52.225;  516.000;  404.000
197.879;  -83.075; -610.000; -634.000
198.025;  -56.725; -475.000; -420.000
198.171;  -80.075; -602.000; -612.000
198.317;  -27.125; -401.000; -316.000
198.463;  -54.300; -655.000; -404.000
198.609;   13.675;  181.000; -137.000
198.755;  -82.925; -644.000; -410.000
198.901;  -71.175; -505.000; -424.000
199.047;  -64.400; -615.000; -488.000
199.193;  -35.600; -230.000; -468.000
199.339;  -46.250; -222.000; -369.000
199.485;   35.325;  330.000;  271.000
199.631;   26.400;  227.000;  310.000
199.777;  -48.650; -466.000; -398.000
199.923;  -64.075; -610.000; -424.000
200.069;    0.075; -141.000;  -58.000
200.215;   60.550;  128.000;  453.000
200.361;   47.600;  243.000;  477.000
200.507;  -55.850; -600.000; -373.000
200.653;  -38.000; -371.000; -194.000
200.798;  -30.100; -215.000; -125.000
200.944;   -6.750; -146.000;  -41.000
201.090;   28.225;   61.000;  222.000
201.236;    1.575; -116.000; -158.000
201.382;  115.325;  874.000;  903.000
201.528;    3.500;  -58.000;  -48.000
201.674;  -43.050; -386.000; -293.000
201.819;  -60.600; -540.000; -439.000
201.965;  -77.125; -699.000; -447.000
202.111;  -40.525; -273.000; -226.000
202.257;  -27.850; -250.000; -238.000
202.402;   10.725;   13.000;  -36.000
202.548;  -29.500; -169.000; -116.000
202.694;   63.025;  410.000; -183.000
202.840;  -72.025; -603.000; -531.000
202.985;  -73.900; -681.000; -639.000
203.131; -107.575; -832.000; -666.000
203.277;  -25.525; -199.000; -262.000
203.423;  -63.325; -434.000; -520.000
203.568;  -35.125; -462.000; -237.000
203.714;  -63.200; -535.000; -542.000
203.860;  -91.650; -682.000; -641.000
204.005;   14.175;  112.000;  167.000
204.151;   71.100;  561.000;  556.000
204.296;  -55.100; -354.000; -221.000
204.442;  -65.925; -600.000; -547.000
204.588;  -70.950; -592.000; -579.000
204.733;   23.675;  178.000;  168.000
204.879; -129.900;-1018.000; -822.000
205.025;    8.375;  -99.000;  126.000
205.170;   -2.550;  -17.000;   94.000
205.316;   85.475;  438.000;  661.000
205.461;  -88.375; -698.000; -554.000
205.607;   78.950;  609.000;  665.000
205.752;  -81.950; -626.000; -551.000
205.898;  -50.175; -501.000; -391.000
206.043;  -67.075; -578.000; -506.000
206.189;  -44.200; -243.000; -285.000
206.334;   75.275;  554.000;  606.000
206.480;   75.000;  409.000;  239.000
206.625;  -77.000; -529.000; -552.000
206.771;  -53.650; -451.000; -373.000
206.916;  -35.700; -210.000; -537.000
207.062;  -63.675; -545.000; -591.000
207.207;  -53.975; -546.000; -443.000
207.353;   37.600;  185.000;  460.000
207.498;   31.625;  196.000;   85.000
207.643;  -58.400; -501.000; -370.000
207.789; -122.275;-1069.000; -910.000
207.934;  -77.375; -665.000; -713.000
208.080;  -32.500; -154.000;   66.000
208.225;  -16.125;  -22.000;  -57.000
208.370;  -89.650; -727.000; -619.000
208.516;  -80.025; -741.000; -487.000
208.661;  -25.975; -127.000;  -69.000
208.806;  -23.850; -165.000; -171.000
208.952; -110.850;-1044.000; -731.000
209.097;   71.550;  378.000;  349.000
209.242;  -43.750; -307.000; -382.000
209.387;   50.150;  392.000;  350.000
209.533;  -50.925; -321.000; -350.000
209.678;   53.475;  472.000;  543.000
209.823;  -47.175; -408.000; -310.000
209.969; -102.925; -860.000; -757.000
210.114; -110.025; -907.000; -719.000
210.259; -114.875; -939.000; -889.000
210.404;   -1.350; -171.000;  103.000
210.549;    1.800;  108.000;    3.000
210.695;  -21.675;   -3.000;  -95.000
210.840;   16.975;   94.000;   67.000
210.985;  -52.600; -484.000; -303.000
211.130;   66.850;  268.000;  406.000
211.275;    0.575;  207.000;  199.000
211.420;  -49.050; -300.000; -289.000
211.566;  -73.850; -536.000; -489.000
211.711;   34.975;  218.000;  157.000
211.856;  -61.175; -545.000; -519.000
212.001;    1.300;  151.000;   44.000
212.146;   13.800;  153.000;   49.000
212.291;  -28.225; -210.000; -186.000
212.436;  -25.075; -280.000;   -6.000
212.581;  -86.200; -685.000; -653.000
212.726;  -74.900; -487.000; -538.000
212.871;  -52.825; -552.000; -217.000
213.016; -139.400;-1172.000;-1029.000
213.161;   59.550;  406.000;  291.000
213.306;  -68.425; -435.000; -577.000
213.451;  -98.200; -778.000; -689.000
213.596;  -54.150; -455.000; -347.000
213.741;  -57.975; -448.000; -538.000
213.886;  -78.225; -498.000; -517.000
214.031;  -26.875; -294.000; -124.000
214.176;  -53.825; -408.000; -341.000
214.321;  -23.325; -296.000; -157.000
214.466;  -26.775; -163.000;  -43.000
214.611;  -11.350;  -61.000;  -10.000
214.756; -111.925; -948.000; -858.000
214.901;  -28.000; -388.000; -226.000
215.046; -127.300; -797.000; -825.000
215.191;   17.550;  128.000;   35.000
215.336;  -25.350; -157.000;  -19.000
215.480;  -76.100; -684.000; -505.000
215.625;  -19.200; -175.000;  -19.000
215.770;  -78.200; -757.000; -662.000
215.915;   -9.000;   -5.000;  -97.000
216.060;   -8.850; -113.000;  -21.000
216.205;  -98.875; -731.000; -779.000
216.349;  -67.900; -470.000; -533.000
216.494; -132.325; -939.000; -867.000
216.639; -115.550; -823.000; -888.000
216.784;  -81.375; -577.000; -525.000
216.929;   33.650;  392.000;  281.000
217.073;  -16.950; -244.000;  -31.000
217.218;    5.875;   78.000;  -47.000
217.363;  -89.975; -656.000; -618.000
217.507;  -86.650; -623.000; -588.000
217.652; -119.625; -845.000; -874.000
217.797;  -85.675; -708.000; -659.000
217.942; -102.175; -856.000; -720.000
218.086;   56.025;  608.000;  539.000
218.231;  -21.525; -174.000;  -26.000
218.376;  -37.325; -337.000; -229.000
218.520;    4.725;  -41.000;   96.000
218.665;  -33.550; -338.000; -204.000
218.810;  -45.175; -275.000; -233.000
218.954;   14.850;  201.000;   35.000
219.099; -105.175; -713.000; -963.000
219.243;  -84.200; -589.000; -554.000
219.388;  -32.600; -264.000; -136.000
219.532;  -21.750; -116.000; -116.000
219.677;  -76.600; -564.000; -521.000
219.822;  -10.325;   33.000;   89.000
219.966;    0.300;   17.000;  -99.000
220.111;  -29.625; -328.000;  -40.000
220.255;  -97.175; -797.000; -750.000
220.400;  -22.650; -180.000; -146.000
220.544;  -54.900; -516.000; -450.000
220.689;  -52.350; -422.000; -451.000
220.833;  -25.075; -123.000;  -58.000
220.978;  -42.400; -393.000; -563.000
221.122;   13.450;  319.000;  307.000
221.267; -123.850; -906.000; -837.000
221.411;  -74.025; -478.000; -394.000
221.555;  -12.250; -104.000;  -23.000
221.700;  -51.125; -329.000; -222.000
221.844;   27.075;  255.000;  272.000
221.989;  -49.025; -328.000; -311.000
222.133;  -35.525; -289.000; -307.000
222.277;  -11.450;    5.000;   78.000
222.422;   14.775;  227.000;  113.000
222.566;  -43.925; -381.000; -214.000
222.711;  -58.425; -414.000; -479.000
222.855;  -80.825; -643.000; -586.000
222.999;  -80.975; -642.000; -717.000
223.144;  -23.725; -195.000; -194.000
223.288;   48.325;  423.000;  251.000
223.432;   28.425;  184.000;  230.000
223.576;   25.750;  152.000;  -21.000
223.721;   41.450;  364.000;  273.000
223.865;  -69.825; -472.000; -475.000
224.009;  238.300; 1673.000; 1631.000
224.153;  -76.800; -660.000; -671.000
224.298;  -68.325; -531.000; -489.000
224.442;  -11.275;  -74.000;  -33.000
224.586;   -7.950; -169.000; -106.000
224.730;  -99.000; -858.000; -670.000
224.875; -111.750; -739.000; -688.000
225.019;   -0.050;  102.000;  188.000
225.163;   50.950;  208.000;  341.000
225.307;   18.400;   97.000;  -91.000
225.451;   49.000;  360.000;  481.000
225.595;   26.500;  264.000;  176.000
225.739;  -13.125; -170.000;  -94.000
225.884;   -4.375;   86.000;    5.000
226.028; -104.575; -760.000; -626.000
226.172;  -42.300; -260.000; -273.000
226.316; -118.325; -941.000; -902.000
226.460;  -66.900; -645.000; -493.000
226.604;  -41.775; -406.000; -400.000
226.748;  -96.125; -836.000; -733.000
226.892;  -33.400; -227.000; -181.000
227.036;  -44.900; -537.000; -447.000
227.180;  -60.475; -551.000; -375.000
227.324;  -65.100; -561.000; -580.000
227.468;  -99.025; -819.000; -717.000
227.612;    3.425;  242.000;  -28.000
227.756;  -95.075; -845.000; -698.000
227.900;   34.375;  342.000;  441.000
228.044;  -58.250; -509.000; -290.000
228.188;   54.550;  448.000;  568.000
228.332;  -84.225; -546.000; -472.000
228.476;  -31.300; -223.000; -149.000
228.620;  -21.025; -210.000; -150.000
228.764;   53.450;  431.000;  349.000
228.908;  -26.000; -155.000;   30.000
229.052;  -62.075; -615.000; -528.000
229.195;  -22.400; -172.000;   13.000
229.339;  -24.475; -235.000; -305.000
229.483;  -35.875;    5.000; -162.000
229.627;   -1.225; -156.000;  139.000
229.771;  -49.400; -218.000; -294.000
229.915;    3.600;  230.000;   79.000
230.059; -101.375; -648.000; -663.000
230.202;  -40.925; -370.000; -317.000
230.346;   -8.325; -107.000;  107.000
230.490;  -66.900; -489.000; -521.000
230.634; -103.850; -736.000; -553.000
230.777;   65.000;  478.000;  509.000
230.921;  -53.650; -450.000; -359.000
231.065;  -41.350; -246.000; -286.000
231.209;   27.400;  261.000;  265.000
231.352;    9.625;   54.000;   40.000
231.496;   15.825;  568.000;  188.000
231.640;  -86.950; -693.000; -621.000
231.783;   46.450;  546.000;  525.000
231.927;  -46.275; -294.000; -365.000
232.071; -112.925; -962.000; -736.000
232.214; -109.950; -980.000; -764.000
232.358;  -89.025; -683.000; -599.000
232.502;    2.325;  -19.000;    7.000
232.645; -130.475;-1090.000; -927.000
232.789;  -23.625; -257.000; -218.000
232.933;  -43.550; -407.000; -224.000
233.076; -130.375;-1038.000; -897.000
233.220; -111.425; -752.000; -777.000
233.363;  -65.525; -669.000; -477.000
233.507;   43.700;  371.000;  129.000
233.650;  -87.675; -764.000; -834.000
233.794;   42.750;  438.000;  461.000
233.938;  -65.675; -530.000; -362.000
234.081;  -23.175;  -93.000;   31.000
234.225;  -69.500; -631.000; -539.000
234.368; -111.025; -773.000; -723.000
234.512;  -40.825; -385.000; -299.000
234.655;  -82.300; -582.000; -555.000
234.798;  -74.600; -493.000; -466.000
234.942; -143.700; -884.000;-1002.000
235.085;  -72.300; -651.000; -443.000
235.229;  -66.300; -405.000; -410.000
235.372;  -53.050; -247.000; -191.000
235.516;  -70.075; -397.000; -321.000
235.659;   16.000;   92.000;  121.000
235.802;  -13.150;  -38.000;  -22.000
235.946;   29.400;  335.000;  215.000
236.089;   29.000;  126.000;  250.000
236.233;   37.250;  275.000;  298.000
236.376;  -55.025; -235.000; -378.000
236.519;  -50.375; -297.000; -319.000
236.663;   -9.600; -215.000; -117.000
236.806; -122.200;-1029.000; -999.000
236.949;   43.950;  543.000;  431.000
237.092;   65.325;  412.000;  391.000
237.236;  -74.825; -589.000; -502.000
237.379;   54.350;  352.000;  428.000
237.522; -118.325; -879.000; -768.000
237.666;  -17.500; -271.000;   18.000
237.809; -125.925; -851.000; -823.000
237.952;   30.825;  469.000;  271.000
238.095;  -59.750; -447.000; -442.000
238.238;   82.000;  688.000;  700.000
238.382;   -8.325;  166.000;  103.000
238.525;  -80.200; -598.000; -511.000
238.668; -143.200;-1060.000; -985.000
238.811;  -80.350; -638.000; -643.000
238.954;  -55.275; -483.000; -334.000
239.097;   93.525;  617.000;  664.000
239.241;   16.125;  394.000;  326.000
239.384;  -44.200; -254.000; -214.000
239.527;  -66.200; -424.000; -224.000
239.670; -145.975; -994.000;-1091.000
239.813; -112.875; -696.000; -658.000
239.956;   75.775;  579.000;  473.000
240.099; -119.700; -778.000; -725.000
240.242;   46.175;  428.000;  432.000
240.385;   49.700;  466.000;  450.000
240.528;  -86.000; -706.000; -473.000
240.671;   12.575;  189.000;  134.000
240.814;  -43.675; -441.000; -158.000
240.957;  -97.450; -767.000; -578.000
241.100;  -91.450; -779.000; -755.000
241.243; -141.175;-1234.000; -893.000
241.386;  -76.825; -508.000; -379.000
241.529;  -93.225; -735.000; -547.000
241.672;  -70.800; -566.000; -495.000
241.815; -117.225; -832.000; -808.000
241.958;  -31.225; -125.000; -182.000
242.101;  -77.400; -545.000; -390.000
242.244;  -47.475; -270.000; -325.000
242.387;  -44.300; -304.000; -246.000
242.530;   45.425;  470.000;  134.000
242.673;  -46.050; -381.000; -309.000
242.815; -113.750; -925.000; -899.000
242.958;  -74.150; -482.000; -381.000
243.101;   14.475;  132.000;  187.000
243.244;  -82.850; -564.000; -521.000
243.387;  -48.300; -313.000; -316.000
243.530;  -97.300; -657.000; -674.000
243.672;   -9.600;   43.000;  -92.000
243.815;  -55.375; -355.000; -283.000
243.958;    9.625;   98.000;  -26.000
244.101;    1.725;   59.000;  -16.000
244.243;  -11.925;  -47.000;  101.000
244.386; -124.125; -761.000; -630.000
244.529;  -36.575; -132.000; -139.000
244.672; -144.150;-1154.000; -951.000
244.814;  -94.875; -621.000; -794.000
244.957;  -52.025; -380.000; -304.000
245.100;  -74.250; -489.000; -489.000
245.242;  -64.825; -387.000; -374.000
245.385;   -9.300;  -59.000;  -39.000
245.528; -121.100; -871.000; -705.000
245.670;   67.725;  612.000;  634.000
245.813;  -87.400; -599.000; -547.000
245.956;  -26.600; -324.000; -275.000
246.098;  -77.200; -508.000; -650.000
246.241;   -3.775;  194.000;   48.000
246.383;  -21.175; -119.000;  -73.000
246.526;  -73.200; -454.000; -525.000
246.669; -118.600; -889.000; -780.000
246.811;   21.150;  172.000;   -1.000
246.954;  -61.350; -512.000; -426.000
247.096;  -26.175;  -84.000;   -6.000
247.239;  -68.350; -482.000; -445.000
247.381;  -72.200; -647.000; -488.000
247.524;   80.425;  645.000;  679.000
247.666;   -4.250;   58.000;   11.000
247.809; -113.650; -887.000; -691.000
247.951;  -12.300;  -75.000;  138.000
248.094;   28.575;  432.000;  308.000
248.236; -162.800;-1262.000;-1238.000
248.378;    8.175; -356.000;  -81.000
248.521;  -20.175; -334.000; -337.000
248.663;  -36.475; -236.000; -267.000
248.806;  -22.950; -300.000; -266.000
248.948;  -95.225; -886.000; -763.000
249.090;  -42.300; -428.000; -398.000
249.233;  -51.050; -344.000; -381.000
249.375;  -68.525; -474.000; -451.000
249.518;  -39.050;  -83.000; -133.000
249.660;  -15.450; -103.000;    3.000
249.802; -160.700;-1303.000;-1189.000
249.945;  -80.225; -612.000; -540.000
250.087; -104.275; -834.000; -768.000
250.229;  -45.125; -362.000; -480.000
250.371;  -77.375; -494.000; -439.000
250.514;  -55.600; -310.000; -244.000
250.656;  -77.775;   69.000;  102.000
250.798; -114.050; -849.000; -800.000
250.940;  -57.675; -322.000; -322.000
251.083;  -29.675; -335.000; -111.000
251.225;   51.300;  338.000;  310.000
251.367;  -43.750; -274.000; -373.000
251.509;  -39.950; -265.000; -210.000
251.651;  -93.850; -731.000; -671.000
251.794;   51.900;  538.000;  632.000
251.936; -103.575; -821.000; -747.000
252.078;  -76.625; -540.000; -461.000
252.220;  -72.025; -645.000; -477.000
252.362;   85.325;  344.000;  462.000
252.504;  -82.750; -677.000; -584.000
252.646; -112.775; -875.000; -722.000
252.788;   -4.650;   14.000; -128.000
252.931;  -60.450; -257.000; -253.000
253.073;  -41.975; -376.000; -317.000
253.215;  -15.550;  141.000;  122.000
253.357;  -14.625;   82.000; -153.000
253.499;  -59.475; -374.000; -234.000
253.641;  -91.425; -749.000; -594.000
253.783;  -96.425; -609.000; -527.000
253.925; -102.475; -586.000; -591.000
254.067; -105.250; -744.000; -667.000
254.209;  -29.050; -391.000; -259.000
254.351; -139.425; -865.000; -883.000
254.493;  -63.825; -441.000; -417.000
254.635; -120.700; -936.000; -818.000
254.777;  -91.200; -752.000; -687.000
254.918;  -60.825; -512.000; -430.000
255.060;  -55.575; -551.000; -395.000
255.202;  -50.550; -473.000; -261.000
255.344;  -79.625; -658.000; -455.000
255.486;  -79.175; -471.000; -406.000
255.628; -110.675; -780.000; -781.000
255.770;  -83.575; -676.000; -536.000
255.912;  -74.925; -559.000; -468.000
256.053;  -90.575; -730.000; -508.000
256.195;  145.950; 1008.000;  903.000
256.337; -101.725; -861.000; -595.000
256.479;   44.575;  532.000;  416.000
256.621;  -38.075; -394.000; -212.000
256.762;  -99.275; -789.000; -742.000
256.904;   41.225;  485.000;  487.000
257.046;  -44.100; -381.000; -271.000
257.188;  -42.200; -351.000; -264.000
257.329;  -81.675; -525.000; -464.000
257.471; -114.675; -939.000; -807.000
257.613;  -63.125; -584.000; -498.000
257.755; -148.575;-1073.000; -982.000
257.896;   27.725;  286.000;  392.000
258.038;  -70.325; -403.000; -352.000
258.180;  -49.875; -354.000; -279.000
258.321;  -93.525; -581.000; -457.000
258.463;   -7.750;  -71.000;  133.000
258.605;  -85.825; -562.000; -570.000
258.746; -120.175; -886.000; -772.000
258.888; -141.625;-1026.000;-1020.000
259.029;   24.900;  121.000;   -8.000
259.171;  -93.775; -614.000; -550.000
259.313;  -12.025;  -49.000;  -47.000
259.454;  -75.675; -536.000; -414.000
259.596;  -56.800; -483.000; -390.000
259.737;  -82.100; -590.000; -474.000
259.879;   25.900;  217.000;  311.000
260.020;   79.025;  901.000;  636.000
260.162;  -32.125; -146.000; -253.000
260.303; -110.350; -768.000; -687.000
260.445;  -82.900; -609.000; -613.000
260.586;   15.050;  392.000;  157.000
260.728;  -36.275; -360.000; -248.000
260.869;  -75.275; -350.000; -343.000
261.011;   79.800;  706.000;  537.000
261.152;  -65.975; -479.000; -319.000
261.293;  -80.700; -576.000; -595.000
261.435;  -38.675; -219.000; -184.000
261.576;  -58.225; -455.000; -325.000
261.718;   47.775;  420.000;  470.000
261.859; -129.350; -940.000; -949.000
262.000; -123.400; -951.000;-1016.000
262.142;  -33.125;  -52.000;  -60.000
262.283; -117.625; -808.000; -691.000
262.424;  -92.250; -666.000; -625.000
262.566; -157.850;-1161.000; -983.000
262.707; -108.825; -840.000; -830.000
262.848; -114.100; -769.000; -726.000
262.990;  -58.425; -362.000; -345.000
263.131;   75.000;  650.000;  681.000
263.272;  -26.825;  -61.000;  -41.000
263.413;  -86.775; -589.000; -561.000
263.555;  -75.125; -669.000; -143.000
263.696;  -91.100; -550.000; -641.000
263.837;  -68.875; -449.000; -551.000
263.978;   10.050;   -5.000;  -77.000
264.119;  -49.400; -283.000; -264.000
264.261; -117.625; -847.000; -630.000
264.402;   -9.675;   33.000;   40.000
264.543;  -77.750; -509.000; -524.000
264.684;  -17.850;   61.000;  -50.000
264.825;  -80.300; -816.000; -538.000
264.966;  -13.475;  -84.000;  -67.000
265.107; -102.600; -646.000; -670.000
265.248; -123.250; -825.000; -812.000
265.390;  -19.100;  152.000;   -9.000
265.531;  -18.150; -238.000; -107.000
265.672;  -83.100; -557.000; -630.000
265.813;   60.400;  563.000;  439.000
265.954; -139.675; -959.000; -940.000
266.095;  -23.725; -372.000; -322.000
266.236; -103.800; -686.000; -548.000
266.377;  -45.375; -243.000; -297.000
266.518;  -71.475; -619.000; -547.000
266.659;   23.625;  170.000;  268.000
266.800;    6.900;   83.000;   85.000
266.941;  -82.900; -487.000; -478.000
267.082;   13.500;  354.000;   99.000
267.223;  -63.500; -344.000; -273.000
267.364; -104.325; -892.000; -686.000
267.504;  -18.025;    3.000;  135.000
267.645;    0.525;  160.000;   67.000
267.786;  -40.875; -147.000;  -86.000
267.927;  -63.100; -473.000; -379.000
268.068;  -30.925; -186.000;  -61.000
268.209;  -51.475; -175.000; -413.000
268.350;  -66.250; -388.000; -532.000
268.490;  -82.800; -648.000; -521.000
268.631;   29.550;  127.000;  225.000
268.772; -109.425; -874.000; -647.000
268.913;  -44.000; -328.000; -476.000
269.054;   -5.650; -117.000;   12.000
269.194;  -44.575; -418.000; -402.000
269.335; -137.725;-1137.000;-1074.000
269.476;  -15.450;   33.000;  -35.000
269.617;  -48.975; -347.000; -392.000
269.757;  -86.875; -713.000; -646.000
269.898; -100.050; -856.000; -613.000
270.039;  -58.925; -415.000; -405.000
270.180; -131.400; -952.000; -816.000
270.320;  -17.800; -190.000; -250.000
270.461;  -42.450; -277.000; -249.000
270.602;  -22.675; -186.000; -156.000
270.742; -124.100; -868.000; -943.000
270.883;  -59.800; -442.000; -390.000
271.023;  -58.600; -358.000; -357.000
271.164;  -66.450; -607.000; -528.000
271.305; -101.125; -666.000; -654.000
271.445;  -88.700; -722.000; -683.000
271.586;  -66.800; -462.000; -283.000
271.726;  -39.125; -397.000; -322.000
271.867;  -56.000; -594.000; -534.000
272.008;  184.350; -473.000; -285.000
272.148;  142.375;  462.000;  468.000
272.289;  -10.950; -113.000; -181.000
272.429;    7.950;   19.000;  185.000
272.570;  -91.900; -633.000; -737.000
272.710;  -98.725; -825.000; -775.000
272.851;  -31.850;  113.000; -130.000
272.991; -156.475;-1173.000;-1077.000
273.131;  -75.300; -419.000; -459.000
273.272; -104.800; -683.000; -723.000
273.412;    6.350; -143.000;  -31.000
273.553;  -57.850; -488.000; -507.000
273.693;  125.725;  913.000;  858.000
273.834;  -71.725; -894.000; -692.000
273.974;  -60.200; -664.000; -615.000
274.114; -104.100; -772.000; -560.000
274.255;   85.250;  414.000;  373.000
274.395;    7.900; -180.000; -125.000
274.535;   44.000;  199.000;  350.000
274.676;   11.425;  225.000;   94.000
274.816;    8.900;  110.000;   34.000
274.956;  -85.875; -624.000; -690.000
275.097;  -67.650;-1014.000; -922.000
275.237; -110.125; -913.000; -803.000
275.377;  -89.600; -778.000; -689.000
275.517; -146.875; -878.000; -937.000
275.658;  -60.475; -590.000; -555.000
275.798;  -74.650; -606.000; -413.000
275.938;   31.650;  215.000;  323.000
276.078;  -81.050; -626.000; -395.000
276.218;    0.875;   99.000;  104.000
276.359; -126.325;-1026.000;-1024.000
276.499;  -76.925; -605.000; -446.000
276.639;  -32.675; -305.000; -151.000
276.779;  -40.225; -475.000; -357.000
276.919; -101.000; -783.000; -624.000
277.059;  -26.850; -261.000; -212.000
277.199;  -60.450; -357.000; -259.000
277.340;   39.575;  287.000;  175.000
277.480; -115.975; -840.000; -693.000
277.620;   14.200;  192.000;   16.000
277.760; -191.900;-1533.000;-1294.000
277.900;   19.950;  113.000;   33.000
278.040;   30.650;  137.000;  159.000
278.180;   33.775;  270.000;  170.000
278.320;    1.200;   21.000;   56.000
278.460;  -72.175; -443.000; -469.000
278.600;  -81.800; -708.000; -598.000
278.740;   50.050;  448.000;  224.000
278.880;  -37.425; -768.000; -791.000
279.020;   -7.825; -194.000; -144.000
279.160;  -91.650; -672.000; -595.000
279.300; -122.975; -926.000; -873.000
279.440;  -79.050; -709.000; -622.000
279.579;  -13.575;-1014.000; -929.000
279.719;  -39.975; -410.000; -394.000
279.859;   70.800;   -4.000;   41.000
279.999;   22.600; -208.000;  101.000
280.139;  -25.575; -435.000; -387.000
280.279;  -76.900; -708.000; -745.000
280.419;  -18.675; -229.000; -147.000
280.559;  -26.150; -259.000; -180.000
280.698;  -90.100; -790.000; -639.000
280.838;  -91.300; -778.000; -800.000
280.978;  -96.275; -846.000; -790.000
281.118; -113.375; -811.000; -704.000
281.257;    3.875;   24.000;    6.000
281.397;  -92.575;-1094.000; -960.000
281.537;  -89.425; -599.000; -712.000
281.677;  -21.250; -150.000; -101.000
281.816;  -82.700; -700.000; -630.000
281.956;  -30.225; -193.000; -257.000
282.096;  -69.725; -539.000; -396.000
282.235; -103.325; -672.000; -638.000
282.375;  -26.700; -243.000;  -98.000
282.515;  -89.300; -715.000; -707.000
282.654;   16.025;   29.000;  106.000
282.794;   10.325;  388.000;  244.000
282.934;  -58.050; -530.000; -491.000
283.073; -130.750;-1030.000; -857.000
283.213;  -60.300; -460.000; -467.000
283.353;  -37.125; -408.000; -349.000
283.492;  -42.575; -264.000; -296.000
283.632;  -56.900; -254.000; -168.000
283.771; -102.600; -859.000; -730.000
283.911;  -55.400; -369.000; -260.000
284.050; -106.375; -794.000; -748.000
284.190; -165.500;-1229.000;-1096.000
284.329; -139.825;-1055.000; -964.000
284.469;  -73.375; -516.000; -591.000
284.608;  -63.750; -559.000; -598.000
284.748;  -80.100; -614.000; -570.000
284.887;   -9.275;  -87.000;  -20.000
285.027; -122.975; -844.000; -892.000
285.166;  -30.275; -192.000; -249.000
285.306;   12.800; -116.000;  -33.000
285.445;  -51.125; -229.000; -343.000
285.584; -102.300; -630.000; -494.000
285.724;  -45.950; -282.000; -322.000
285.863; -117.350; -857.000; -507.000
286.002;  -60.450; -366.000; -276.000
286.142; -106.500; -715.000; -622.000
286.281;  -71.725; -525.000; -493.000
286.420;  -71.100; -554.000; -417.000
286.560;   86.275;  653.000;  623.000
286.699; -133.325; -958.000; -912.000
286.838;  -79.275; -590.000; -591.000
286.978;  -84.200; -533.000; -537.000
287.117; -131.225;-1085.000; -950.000
287.256;  -39.175; -228.000; -211.000
287.395;  -61.525; -197.000; -378.000
287.535;  -49.575; -370.000; -298.000
287.674;  -76.800; -509.000; -484.000
287.813;   50.800;  661.000;  533.000
287.952; -131.850;-1010.000; -871.000
288.091; -133.450;-1049.000; -915.000
288.231;   13.775;   13.000;   15.000
288.370; -175.450;-1217.000;-1200.000
288.509;  -92.900; -728.000; -645.000
288.648;  -86.450; -770.000; -548.000
288.787;  -40.400; -243.000;  -87.000
288.926;  -64.800; -454.000; -475.000
289.065;  100.900;  859.000;  672.000
289.204;  -51.025; -377.000; -217.000
289.344;  -93.875; -791.000; -690.000
289.483;   35.575;  416.000;  304.000
289.622;  -37.075; -291.000; -149.000
289.761;  -23.825; -309.000; -166.000
289.900; -112.425; -785.000; -626.000
290.039;  -18.950;  -12.000;  -95.000
290.178;  -55.250; -274.000; -180.000
290.317;  -91.575; -618.000; -479.000
290.456;  -70.375; -463.000; -451.000
290.595; -118.375; -961.000; -833.000
290.734; -126.425; -904.000; -891.000
290.873;  -81.750; -456.000; -420.000
291.011; -114.075; -833.000; -843.000
291.150; -106.575; -770.000; -682.000
291.289;  -31.975; -343.000; -110.000
291.428;  -84.775; -599.000; -480.000
291.567;  -73.750; -370.000; -442.000
291.706;   -8.200;  109.000;  154.000
291.845;  -95.200; -597.000; -505.000
291.984; -176.675;-1234.000;-1061.000
292.122;   68.800;  602.000;  582.000
292.261;   37.650;  620.000;  463.000
292.400;    4.925; -144.000;  211.000
292.539; -120.250; -959.000; -813.000
292.678;  -34.100; -325.000; -300.000
292.816; -139.125;-1136.000; -965.000
292.955;  -87.000; -844.000; -684.000
293.094;  -26.600; -173.000; -337.000
293.233;  -55.725; -556.000; -400.000
293.371;  -31.625; -225.000;  -84.000
293.510; -105.375; -866.000; -780.000
293.649; -116.950; -959.000; -924.000
293.787;  -57.450;-1083.000;-1012.000
293.926;   -2.000; -113.000;  -32.000
294.065;  -53.550; -379.000; -290.000
294.203;   49.175;  298.000;  406.000
294.342;   24.925;   74.000;  156.000
294.481; 5956.875;51180.000; -836.000
294.619;  -37.725; -425.000; -582.000
294.758; -148.200;-1230.000;-1137.000
294.896;   57.425; -125.000;    5.000
295.035; -122.800;-1040.000;-1006.000
295.174; -105.700;-1082.000; -954.000
295.312;  -37.625; -323.000; -203.000
295.451;    1.350; -307.000; -428.000
295.589;  -51.625; -389.000; -518.000
295.728;   27.200; -292.000; -165.000
295.866;   15.375;  -36.000;  -51.000
296.005;  -59.450; -584.000; -341.000
296.143;  -80.875; -558.000; -596.000
296.282;  -99.600; -957.000; -881.000
296.420;  -89.000; -657.000; -557.000
296.559;  -61.225; -892.000; -633.000
296.697;   47.650; -847.000; -665.000
296.835;   76.375;-1141.000;-1002.000
296.974;   59.350;  -23.000;   39.000
297.112;    9.100; -443.000; -504.000
297.251;  -64.650; -815.000; -755.000
297.389;  114.625; -576.000; -438.000
297.527;   36.550; -145.000;  -83.000
297.666;  -54.100; -486.000; -438.000
297.804;  -53.250; -404.000; -264.000
297.942;   -8.150; -136.000; -161.000
298.081;   -1.850; -183.000;   63.000
298.219;   70.850;  -17.000;  -19.000
298.357;   58.825; -144.000;  -71.000
298.495;   37.500; -810.000; -812.000
298.634;   83.350;  245.000;  219.000
298.772;   54.225; -220.000; -338.000
298.910;  -25.050; -309.000; -182.000
299.048;  -13.875; -130.000; -153.000
299.187;  -40.550; -350.000; -250.000
299.325;   21.675;   52.000;  122.000
299.463;   87.675; -389.000; -299.000
299.601;  116.050; -327.000; -271.000
299.739;  -98.725; -908.000; -883.000
299.877;  -90.475; -791.000; -703.000
300.016;  -51.600;-1095.000; -935.000
300.154;  184.750;  -19.000; -161.000
300.292;   67.150; -428.000; -348.000
300.430;   30.275; -408.000; -291.000
300.568;  -99.375; -940.000; -874.000
300.706;  -50.700; -366.000; -469.000
300.844;  -60.950;-1108.000; -979.000
300.982;  101.200;  246.000;  282.000
301.120; -106.375; -965.000; -866.000
301.258;  -63.550; -812.000; -705.000
301.396;   40.000;  104.000;  -41.000
301.534;   98.200; -218.000; -293.000
301.672;   -1.725; -664.000; -521.000
301.810;   44.850; -613.000; -545.000
301.948;  118.625;   53.000;  149.000
302.086;  692.375; -250.000;  -32.000
302.224; 1031.000; -610.000; -585.000
302.362;   43.375; -558.000; -622.000
302.500;   -6.575; -923.000; -893.000
302.638;  118.500;  128.000;  245.000
302.776;   -5.725; -352.000; -408.000
302.913;   29.600;  447.000;  236.000
303.051;    8.375;  -86.000;  -23.000
303.189;   39.325;   90.000;  118.000
303.327;  -34.450; -341.000; -256.000
303.465;  -81.975; -832.000; -588.000
303.603;  -88.900; -805.000; -604.000
303.740;  116.850;  417.000;  241.000
303.878;   16.850; -800.000; -759.000
304.016;  -94.525; -915.000; -790.000
304.154; -105.350;-1123.000;-1152.000
304.291;  -16.150; -505.000; -554.000
304.429;    1.125;  102.000;   74.000
304.567; -131.525; -908.000; -893.000
304.705;  -53.500; -408.000; -515.000
304.842;  108.250; -616.000; -540.000
304.980;   58.650;  215.000;   35.000
305.118;   63.750; -367.000; -365.000
305.255;  -70.475; -945.000; -927.000
305.393;   66.200;  178.000;  239.000
305.531;  -97.875;-1173.000; -956.000
305.668;  -59.900; -663.000; -582.000
305.806;  120.375; -358.000; -439.000
305.943;  121.275; -629.000; -637.000
306.081;   62.200; -378.000; -267.000
306.219; -102.050; -863.000; -748.000
306.356;   12.325;  158.000;   27.000
306.494;   84.650;  981.000;  761.000
306.631;  -12.350;  -11.000;  -55.000
306.769;    9.550; -613.000; -485.000
306.906;   -9.800; -284.000; -258.000
307.044;  -59.225; -473.000; -488.000
307.181;  -61.925; -410.000; -332.000
307.319;   -2.850;  112.000;   87.000
307.456; -163.325;-1191.000;-1153.000
307.594;  -96.375; -980.000; -727.000
307.731;  -15.575; -371.000; -164.000
307.868;    5.475;  -15.000;   20.000
308.006; -128.000; -961.000; -847.000
308.143;  -57.100; -618.000; -330.000
308.281;  208.600;  -37.000; -254.000
308.418;    2.900; -748.000; -640.000
308.555;  -74.650; -400.000; -250.000
308.693;  -80.825; -577.000; -573.000
308.830; -100.000; -712.000; -657.000
308.967;  -18.750; -215.000;  -95.000
309.105;  -29.175; -507.000; -396.000
309.242;   42.625; -468.000; -367.000
309.379;  420.325; -577.000; -655.000
309.517;  -46.900; -936.000; -948.000
309.654; -105.375; -910.000; -734.000
309.791;  -68.475; -662.000; -580.000
309.928; -101.375; -977.000; -914.000
310.065;  182.525;  819.000;  697.000
310.203;   14.600; -825.000; -850.000
310.340;    0.600; -465.000; -321.000
310.477;  -73.725; -412.000; -516.000
310.614;  -64.900; -383.000; -473.000
310.751;  -75.250; -427.000; -518.000
310.889;  -26.750;    1.000;   11.000
311.026; -145.750;-1161.000; -939.000
311.163;  -46.475; -386.000; -380.000
311.300;  -71.450; -512.000; -479.000
311.437;  -72.500; -658.000; -619.000
311.574; -145.475;-1226.000; -985.000
311.711;  -71.125; -595.000; -433.000
311.848;  -36.975; -380.000; -388.000
311.985;    4.100;  270.000;   93.000
312.122; -121.575; -932.000; -762.000
312.259; -121.275; -941.000; -994.000
312.396;  -85.200; -508.000; -551.000
312.533;  -98.025; -812.000; -790.000
312.670; -138.175;-1070.000; -898.000
312.807;  -33.900; -352.000; -367.000
312.944;  -73.600; -513.000; -611.000
313.081;  -38.750; -150.000; -415.000
313.218; -114.300;-1111.000; -867.000
313.355;   10.475; -531.000; -449.000
313.492;   13.125; -455.000; -292.000
313.629;  129.050;  815.000;  735.000
313.766; -140.825;-1176.000;-1008.000
313.902;  -20.875; -186.000;   21.000
314.039;  -41.125; -372.000; -289.000
314.176;   20.325;  286.000;  192.000
314.313;  -66.025; -569.000; -473.000
314.450;  -80.950; -788.000; -684.000
314.587;  -51.125; -468.000; -480.000
314.723;   -5.275;  -78.000;  130.000
314.860;   25.950;  318.000;  332.000
314.997;    7.325;  223.000;  142.000
315.134;  -44.675; -385.000; -368.000
315.270;  -38.250; -480.000; -496.000
315.407; -117.225;-1094.000; -967.000
315.544;  -45.550; -657.000; -538.000
315.681;  -73.825; -681.000; -565.000
315.817;   23.350; -133.000; -176.000
315.954;   10.950; -613.000; -392.000
316.091; -127.175;-1045.000;-1023.000
316.227;  -31.025;  -71.000; -179.000
316.364;  -22.275;   23.000;    6.000
316.500;  -38.950; -113.000; -300.000
316.637;  -39.700; -181.000; -302.000
316.774;  -84.275; -625.000; -358.000
316.910;  -99.050; -598.000; -629.000
317.047;  -61.300; -487.000; -351.000
317.183;  -52.300; -435.000; -566.000
317.320;  -14.675; -367.000; -321.000
317.456;  -75.925; -733.000; -805.000
317.593;  -96.275; -598.000; -641.000
317.729;  -12.500;  168.000;  -67.000
317.866; -193.775;-1434.000;-1285.000
318.002;  -89.950; -708.000; -948.000
318.139;  -86.925; -883.000; -867.000
318.275; -102.450;-1003.000; -738.000
318.412;  -62.625; -517.000; -336.000
318.548;  -35.225; -751.000; -720.000
318.685;  -89.750; -985.000; -888.000
318.821;  -88.575; -762.000; -735.000
318.957;  -18.875;   34.000;  -23.000
319.094;   27.300;  297.000;  154.000
319.230;  -58.350; -756.000; -742.000
319.367;  151.525; -471.000; -520.000
319.503;   74.900; -538.000; -436.000
319.639; -103.675; -877.000; -793.000
319.775;  -57.675; -750.000; -685.000
319.912;  -59.700; -424.000; -519.000
320.048;  -76.775;-1184.000;-1184.000
320.184;   69.325;   59.000;   70.000
320.321;  -66.200; -497.000; -467.000
320.457;   71.325;  475.000;  662.000
320.593;  -75.800; -375.000; -382.000
320.729; -114.125; -732.000; -734.000
320.866;  -82.575; -577.000; -635.000
321.002;  -74.075; -759.000; -809.000
321.138;   -2.250; -135.000; -211.000
321.274;   65.275; -148.000; -115.000
321.410;  -17.700; -585.000; -353.000
321.546;  -20.150;-1011.000; -911.000
321.683;   54.725;  400.000;  185.000
321.819;   -5.200;  -48.000; -117.000
321.955; -108.325; -743.000; -722.000
322.091;  -40.700; -585.000; -540.000
322.227;  -13.550; -382.000; -202.000
322.363;  -10.950; -320.000; -215.000
322.499;  -49.975; -343.000; -331.000
322.635;  174.075;  636.000;  443.000
322.771;   28.675; -139.000;   12.000
322.907;   81.250;  129.000;  327.000
323.043;  -29.575; -115.000; -206.000
323.179;  -34.450; -394.000; -363.000
323.315;   29.875; -401.000; -371.000
323.451;  106.350; -328.000; -236.000
323.587;   75.700;  -60.000;  -77.000
323.723;   28.175; -682.000; -601.000
323.859;  -14.375; -258.000;  -76.000
323.995;  -27.825; -467.000; -409.000
324.131; -134.350; -967.000; -892.000
324.267;  -51.150; -254.000; -276.000
324.402; -119.700; -960.000; -983.000
324.538;  -22.300; -279.000; -104.000
324.674;   32.475;  164.000;   77.000
324.810;  136.000;  226.000;  308.000
324.946;   13.900; -810.000; -658.000
325.082;  -78.075; -568.000; -475.000
325.217;   -8.925;  -62.000;   16.000
325.353;  -96.475; -764.000; -659.000
325.489;  -85.350; -540.000; -506.000
325.625;  -75.975; -579.000; -525.000
325.760;   59.250;  517.000;  376.000
325.896;  -27.225; -515.000; -702.000
326.032;  -54.875; -403.000; -352.000
326.168;  -78.075; -462.000; -369.000
326.303;  -65.000; -352.000; -461.000
326.439;  -32.525; -336.000; -276.000
326.575;    0.475; -190.000;  -29.000
326.710;  -13.000; -156.000;  -30.000
326.846;  -10.800;  146.000;  103.000
326.982;  -88.625; -530.000; -548.000
327.117;  -75.150; -481.000; -442.000
327.253;  -93.775; -745.000; -742.000
327.388; -128.000;-1137.000;-1153.000
327.524;  -39.300; -811.000; -578.000
327.659;  -31.250;  -58.000;  -22.000
327.795;  -15.200;   69.000;   45.000
327.931;  -83.475; -723.000; -499.000
328.066;  -19.050; -417.000; -276.000
328.202;  -22.200;   12.000; -129.000
328.337;   99.475;  957.000;  713.000
328.473;   22.350;  -12.000;  -74.000
328.608;  -34.950; -256.000; -267.000
328.743;  -80.950; -799.000; -664.000
328.879;   10.825;  214.000;  114.000
329.014;  -33.675; -102.000; -122.000
329.150;  -89.375; -358.000; -483.000
329.285;  -70.250; -465.000; -466.000
329.421;  -54.450; -548.000; -246.000
329.556;  -21.575;  -36.000;   85.000
329.691;  -94.050; -633.000; -615.000
329.827;  -72.950; -626.000; -480.000
329.962;  -43.200;  131.000; -301.000
330.097;  -96.625; -673.000; -585.000
330.233;  -49.675; -410.000; -223.000
330.368; -120.350; -839.000; -628.000
330.503;  -23.100;    3.000;   98.000
330.638;   17.750;  -93.000; -125.000
330.774;  -65.500; -609.000; -530.000
330.909;  -54.550; -434.000; -244.000
331.044;  -88.000; -714.000; -708.000
331.179; -174.125;-1217.000;-1109.000
331.315;   -7.500;   77.000;   20.000
331.450;    9.225;  157.000;  285.000
331.585;  -81.800; -805.000; -706.000
331.720;  -81.000; -510.000; -460.000
331.855;  -15.675;  -35.000; -102.000
331.990;  230.200;   62.000;  138.000
332.126;  117.075; -110.000;   71.000
332.261;  -15.800; -379.000; -265.000
332.396;  -15.475; -135.000; -242.000
332.531; -105.225;-1074.000;-1031.000
332.666;   19.050; -519.000; -363.000
332.801; -103.925; -726.000; -807.000
332.936;  -30.425; -192.000; -122.000
333.071; -121.350; -870.000; -817.000
333.206;    9.175;  307.000;  379.000
333.341;   12.225;  344.000;  418.000
333.476;  -83.375; -627.000; -623.000
333.611;  -52.200; -251.000; -173.000
333.746;  -39.050; -381.000; -464.000
333.881; -113.625; -973.000; -935.000
334.016; -126.900; -936.000; -917.000
334.151; -114.150; -746.000; -702.000
334.286;   25.600;  152.000;  186.000
334.421;  -27.800; -125.000; -178.000
334.556;  -73.625; -611.000; -567.000
334.690;  -94.475; -631.000; -577.000
334.825;   46.100;  381.000;   83.000
334.960;  -54.975; -285.000; -413.000
335.095;    1.375;  135.000;  -91.000
335.230;  -88.350; -722.000; -738.000
335.365; -132.925;-1084.000; -990.000
335.499; -124.625;-1108.000;-1037.000
335.634;   30.250;    9.000;  534.000
335.769; -101.925; -755.000; -720.000
335.904;  -71.700; -603.000; -561.000
336.038;  -56.875; -735.000; -657.000
336.173; -119.050;-1206.000;-1194.000
336.308;   -7.075; -116.000; -189.000
336.443;   17.075; -544.000; -634.000
336.577;  -69.700; -936.000; -787.000
336.712;   58.025;   -4.000;  -12.000
336.847;  -33.425; -724.000; -607.000
336.981;   69.800; -272.000; -208.000
337.116;  289.575;  615.000;  501.000
337.250;  165.725; -434.000; -421.000
337.385;  235.325; -297.000; -208.000
337.520;   71.025; -632.000; -603.000
337.654;  -34.550; -215.000; -126.000
337.789; -122.350; -989.000; -933.000
337.923;  -36.475; -104.000; -205.000
338.058;  -97.200; -673.000; -738.000
338.192;  -35.225; -611.000; -488.000
338.327;  -16.500;  -18.000; -155.000
338.461;  -47.575; -299.000; -469.000
338.596;  -81.750; -780.000; -638.000
338.730;  -93.925; -767.000; -803.000
338.865;   80.325;  -46.000; -140.000
338.999;  -47.300; -846.000; -702.000
339.134;  -14.225; -634.000; -536.000
339.268;   21.800; -741.000; -603.000
339.403;  356.700; -740.000; -775.000
339.537;  107.575; -894.000; -820.000
339.671; -114.150; -829.000; -813.000
339.806;  -60.175; -556.000; -512.000
339.940;    3.650; -261.000; -235.000
340.074;  -89.375; -685.000; -510.000
340.209;  -54.450; -351.000; -230.000
340.343;  -94.600; -517.000; -573.000
340.477;  146.200;  998.000; 1036.000
340.612;  -56.700;-1033.000; -900.000
340.746;  130.975; -199.000; -243.000
340.880;  -70.925; -924.000; -785.000
341.014;  -27.350;  -45.000; -154.000
341.149; -110.050; -756.000; -718.000
341.283; -116.025; -839.000; -754.000
341.417;  -74.450;-1124.000; -938.000
341.551;  139.775; -768.000; -708.000
341.685;  -25.550; -633.000; -611.000
341.820;  -60.900; -562.000; -493.000
341.954;  -45.125; -218.000; -349.000
342.088; -152.700;-1102.000;-1019.000
342.222;   41.150;  565.000;  618.000
342.356;  -70.000; -395.000; -335.000
342.490;  -99.825; -880.000; -841.000
342.624;  -41.750; -339.000; -242.000
342.758;    4.500; -364.000; -312.000
342.892;  -55.275; -710.000; -585.000
343.026;  -45.350;  -58.000; -116.000
343.160;  -59.475; -426.000; -376.000
343.294;  -67.125; -474.000; -337.000
343.428;  -15.925; -488.000; -448.000
343.562;  -16.975; -172.000;  -23.000
343.696;  -18.325; -385.000; -314.000
343.830;  -22.550; -362.000; -356.000
343.964;   20.300; -231.000; -168.000
344.098;  996.100;  199.000;   70.000
344.232;  810.200; -266.000; -127.000
344.366;  101.725; -567.000; -453.000
344.500;   81.775; -665.000; -744.000
344.634;   47.550; -324.000; -164.000
344.768;  -15.350; -531.000; -341.000
344.902;   23.925;  278.000;  256.000
345.035;  -64.400; -556.000; -496.000
345.169; -133.425; -933.000; -656.000
345.303;  -23.125; -308.000; -482.000
345.437;  -65.050; -826.000; -717.000
345.571;  -78.550; -675.000; -594.000
345.704;  -73.275; -309.000; -532.000
345.838;  -30.800; -331.000; -284.000
345.972;  -44.475; -543.000; -495.000
346.106;  161.475; -179.000; -190.000
346.239;  409.475; -312.000; -243.000
346.373;   10.025; -343.000; -302.000
346.507; -136.775; -950.000; -962.000
346.640;  142.050;  -30.000;   13.000
346.774;  -50.900; -650.000; -797.000
346.908;  -22.325; -138.000;  -11.000
347.041;  -87.650; -646.000; -593.000
347.175;   -0.050;  259.000;   27.000
347.309;  -72.450; -698.000; -628.000
347.442;  -91.625; -883.000; -732.000
347.576;  285.025;  670.000;  668.000
347.709;  219.625; -123.000;  -52.000
347.843;  -73.925; -933.000; -825.000
347.976;   20.650;  235.000;  294.000
348.110; -168.150;-1268.000;-1186.000
348.243; -101.200; -679.000; -772.000
348.377;   -8.525;  -26.000;   60.000
348.510;   53.025;  403.000;  540.000
348.644;  -41.425;  -37.000; -159.000
348.777;   -4.300;  180.000;  191.000
348.911;  -57.200; -142.000; -112.000
349.044;  177.600;  471.000;  448.000
349.178;  186.200;-1069.000;-1006.000
349.311;  106.150;  141.000;  255.000
349.444;  -15.525; -927.000; -813.000
349.578;  -21.675; -347.000; -200.000
349.711;  -85.850; -959.000; -862.000
349.845;   14.250; -661.000; -591.000
349.978; -130.025;-1224.000;-1137.000
350.111;  -89.850; -546.000; -612.000
350.244;  -75.550; -596.000; -700.000
350.378;   10.925; -392.000; -393.000
350.511;  -65.850; -393.000; -426.000
350.644;  -91.475; -808.000; -806.000
350.778;    5.275;  168.000;  104.000
350.911;   -7.275;  134.000;  140.000
351.044;  -84.800; -685.000; -615.000
351.177;  -31.675; -321.000; -281.000
351.310;  -12.550;    3.000; -131.000
351.444;  -87.325; -888.000; -788.000
351.577;  118.700;  140.000;   90.000
351.710;  109.875;  593.000;  417.000
351.843;  -52.600; -165.000;  -77.000
351.976;   -5.725;  149.000;  -79.000
352.109;  -88.225; -621.000; -612.000
352.242;  -27.850; -464.000; -419.000
352.376;  -62.050; -580.000; -636.000
352.509;  187.875; -437.000; -356.000
352.642;   32.625; -654.000; -604.000
352.775;   49.725; -141.000;  -98.000
352.908; -113.525; -933.000; -904.000
353.041; -102.300; -814.000; -824.000
353.174;  -46.425; -551.000; -424.000
353.307;  -83.150; -753.000; -764.000
353.440;   72.475;  541.000;  453.000
353.573; -112.375; -957.000;-1008.000
353.706;  -47.875; -384.000; -558.000
353.839;  -15.625; -264.000; -220.000
353.971;  -88.400; -657.000; -512.000
354.104;  -75.700; -896.000; -835.000
354.237;  -32.850; -627.000; -662.000
354.370;  -82.875; -846.000; -879.000
354.503; -171.450;-1231.000;-1308.000
354.636;  -48.025; -529.000; -348.000
354.769; -109.900; -937.000; -860.000
354.902;   -7.025; -230.000; -139.000
355.034;  -36.925; -164.000; -220.000
355.167;  -27.900; -262.000; -162.000
355.300;  -86.750;-1061.000; -880.000
355.433;  940.000;  -71.000;  -14.000
355.565; 1495.350; -402.000; -384.000
355.698;  375.675; -356.000; -296.000
355.831;   12.225; -882.000; -801.000
355.964;   78.225; -285.000; -170.000
356.096;  -75.625; -856.000; -843.000
356.229;   11.525; -523.000; -530.000
356.362;  309.350; -373.000; -266.000
356.494;  584.350; -229.000; -162.000
356.627;  495.000;  269.000;  377.000
356.760;  666.000;  120.000;   53.000
356.892;  941.100; -286.000; -601.000
357.025;  719.175;  403.000;  389.000
357.157;  647.100; -167.000; -179.000
357.290;  624.275; -856.000; -713.000
357.423;  214.975; -667.000; -556.000
357.555;  119.475; -217.000; -228.000
357.688;  147.550; -483.000; -364.000
357.820;  507.075; -870.000; -877.000
357.953; 3938.225; -563.000; -589.000
358.085;  894.550; -632.000; -612.000
358.218; 1271.850;-1131.000; -932.000
358.350;  227.025;  -58.000;  312.000
358.483; -106.975;-1300.000;-1187.000
358.615;   -0.825;-1182.000;-1078.000
358.747;  -38.050;-1187.000;-1058.000
358.880;   39.775; -810.000; -744.000
359.012;    1.075; -376.000; -202.000
359.145;  -24.550; -480.000; -511.000
359.277;   92.150; -962.000; -913.000
359.409; 3250.375;  536.000;  231.000
359.542;  906.150; -738.000; -688.000
359.674;   76.300;   46.000;   13.000
359.806;  -68.025; -565.000; -438.000
359.939;  -50.125; -617.000; -516.000
360.071;   -8.675; -583.000; -579.000
360.203;  -12.825; -411.000; -364.000
360.335;   43.725;  164.000;  -16.000
360.468;  205.625; -249.000; -307.000
360.600; 2592.850; -547.000; -454.000
360.732; 2777.600; -546.000; -423.000
360.864;  399.425;-1216.000;-1044.000
360.996;  326.400; -516.000; -554.000
361.129;   66.200; -389.000; -598.000
361.261;   19.650;  110.000; -113.000
361.393;  -41.800; -252.000; -214.000
361.525;   26.575;   94.000;  244.000
361.657;  -28.500; -821.000; -703.000
361.789;   -3.300; -139.000; -155.000
361.921;  277.225; -642.000; -593.000
362.053;  264.350;  524.000;  541.000
362.185;   52.000;  288.000;   72.000
362.318;  -72.000; -709.000; -705.000
362.450;  127.575;  294.000;  444.000
362.582;  129.300; -913.000; -870.000
362.714;  -40.775; -353.000; -332.000
362.846;  -89.575; -606.000; -490.000
362.978; -148.200; -941.000; -811.000
363.109;   57.450; -161.000; -260.000
363.241;  480.575; -739.000; -749.000
363.373;  441.450; -649.000; -564.000
363.505;  636.300; -186.000;  -91.000
363.637;  160.175; -787.000; -601.000
363.769; -112.825;-1067.000;-1080.000
363.901;  -63.250; -596.000; -654.000
364.033; -100.425;-1103.000;-1062.000
364.165;    4.325; -283.000; -283.000
364.296;   78.175; -316.000; -177.000
364.428;   60.975;-1344.000;-1220.000
364.560;  -64.475; -679.000; -661.000
364.692;  -67.800; -738.000; -835.000
364.824;  314.075; -588.000; -456.000
364.955;  456.300; -402.000; -564.000
365.087;  868.325;-1097.000; -852.000
365.219;   39.375; -686.000; -816.000
365.351;  -66.500; -526.000; -572.000
365.482;   51.950;  300.000;  240.000
365.614;  -51.800; -402.000; -314.000
365.746;  -86.150; -729.000; -752.000
365.877;  -96.425; -706.000; -672.000
366.009;  242.825;  -35.000;  -62.000
366.141;  -88.125;-1249.000;-1134.000
366.272; -108.200; -803.000; -719.000
366.404; -126.675;-1005.000; -874.000
366.535;   -5.650; -139.000;  -12.000
366.667; -109.150; -644.000; -649.000
366.799;   27.600;  353.000;  203.000
366.930; -103.175; -862.000; -996.000
367.062;  113.100; -639.000; -613.000
367.193;  150.450; -872.000; -842.000
367.325;  -63.050; -580.000; -684.000
367.456;   70.075; -246.000;   31.000
367.588;  151.375; -371.000; -318.000
367.719;   30.625;  -44.000;  -45.000
367.851;  -20.075; -222.000; -241.000
367.982;  -32.450; -875.000; -732.000
368.113;  118.450; -475.000; -358.000
368.245; -108.475; -960.000; -841.000
368.376;  -21.775; -254.000; -302.000
368.508;  -25.500; -188.000; -263.000
368.639; -143.400;-1166.000;-1034.000
368.770;    1.000; -670.000; -589.000
368.902;  -64.925; -836.000; -926.000
369.033; -112.700; -906.000; -855.000
369.164;  -48.625; -720.000; -653.000
369.296; -104.375; -452.000; -601.000
369.427;   -6.375; -209.000; -144.000
369.558;  -41.425; -593.000; -377.000
369.689; -105.475; -721.000; -569.000
369.821; -135.000; -951.000; -845.000
369.952;  -16.400;   42.000; -108.000
370.083;  -48.475; -229.000; -108.000
370.214;  -82.475; -735.000; -650.000
370.345;  -18.950;   65.000;   81.000
370.477;  -85.375; -810.000; -790.000
370.608;  243.750; -328.000; -264.000
370.739;  -38.200;-1233.000;-1292.000
370.870;  -25.250;-1102.000; -923.000
371.001;  107.125; -378.000; -467.000
371.132;  -56.175; -754.000; -735.000
371.263;  -38.375;  -42.000; -148.000
371.394; -135.975; -841.000; -748.000
371.525;   34.925;  345.000;  225.000
371.657;  -85.650; -808.000; -670.000
371.788;   60.525;  103.000;  199.000
371.919;  213.125; -384.000; -304.000
372.050; 3861.875;  -91.000; -156.000
372.181; 1211.225; -188.000; -294.000
372.311;  402.025;   42.000; -127.000
372.442;   43.925; -457.000; -451.000
372.573;  -29.450; -444.000; -340.000
372.704; -108.700;-1008.000; -980.000
372.835;  104.925; -228.000; -289.000
372.966;  -52.725; -646.000; -554.000
373.097;  -60.475; -575.000; -711.000
373.228;  -24.625; -717.000; -542.000
373.359;  152.900; -824.000; -536.000
373.490; 1053.500; -881.000; -727.000
373.620; 1306.800;-1001.000; -803.000
373.751; 1916.350; -332.000; -396.000
373.882;  904.675; -663.000; -733.000
374.013;   83.700; -449.000; -262.000
374.143;  -33.025; -581.000; -659.000
374.274;  -82.275; -987.000; -908.000
374.405;  179.900; -388.000; -276.000
374.536;  485.150; -526.000; -387.000
374.666; 1227.650; -759.000; -807.000
374.797;  253.225; -817.000; -868.000
374.928;  946.675; -710.000; -560.000
375.058; 1009.025; -535.000; -500.000
375.189;  102.800;  -59.000;  -93.000
375.320;  -80.125; -928.000;-1034.000
375.450;  -39.575; -625.000; -616.000
375.581;  -43.550; -526.000; -436.000
375.712;  -31.500; -574.000; -250.000
375.842;  346.300; -438.000; -415.000
375.973;  253.525; -554.000; -513.000
376.103;  -30.375; -665.000; -648.000
376.234;  -77.175; -531.000; -552.000
376.364;  -20.250; -944.000; -867.000
376.495;  331.275;  925.000;  529.000
376.625;    4.025; -472.000; -485.000
376.756;   74.925; -709.000; -678.000
376.886;  -60.075;-1178.000;-1026.000
377.017;   37.075;-1048.000;-1061.000
377.147;  344.625; -786.000; -782.000
377.278;   45.100;  174.000;  228.000
377.408; -131.150; -801.000; -815.000
377.538; -100.775; -707.000; -693.000
377.669;  -82.650; -537.000; -613.000
377.799;  -83.775; -645.000; -635.000
377.929;  -60.400; -610.000; -428.000
378.060; -132.125; -781.000; -847.000
378.190;  -68.025; -726.000; -531.000
378.320;  -48.950; -401.000; -406.000
378.451;  -14.325; -131.000;  -22.000
378.581;  -11.425;  -67.000; -110.000
378.711;  139.500; 1035.000;  866.000
378.841;   -6.875; -533.000; -675.000
378.972;  -67.250; -871.000; -751.000
379.102;    0.925; -652.000; -579.000
379.232;  -24.450; -126.000;  -73.000
379.362; -100.500;-1001.000; -885.000
379.492;   24.075; -373.000; -424.000
379.623;  111.875;    0.000;  111.000
379.753;  -90.275;-1107.000; -974.000
379.883;  224.500;   59.000;  156.000
380.013;   20.825;-1081.000;-1017.000
380.143;  -95.025;-1097.000;-1056.000
380.273;  -95.800; -985.000; -861.000
380.403;   -7.400; -344.000; -257.000
380.533;  -22.675; -651.000; -664.000
380.663;   65.125;  173.000;  128.000
380.793;  -69.950;-1027.000;-1074.000
380.923;  -10.725; -103.000;  -34.000
381.053;  -89.875; -613.000; -623.000
381.183;  -43.650; -106.000; -248.000
381.313;   62.975; -656.000; -470.000
381.443;   62.400; -692.000; -473.000
381.573;  231.125; -402.000; -409.000
381.703;  352.250;-1249.000;-1095.000
381.833; -111.350;-1454.000;-1336.000
381.963;  110.525; -134.000;  -87.000
382.093; 1487.550; -925.000; -909.000
382.223;  517.950; -713.000; -602.000
382.353;   -5.325; -801.000; -608.000
382.482;  405.425;-1091.000; -964.000
382.612;  852.450; -872.000; -644.000
382.742;  512.725; -695.000; -622.000
382.872;  319.525; -565.000; -551.000
383.002;   71.150;  347.000; -132.000
383.131;   -3.875; -226.000; -160.000
383.261;  -34.175; -706.000; -768.000
383.391;  287.375; -552.000; -377.000
383.521; 3068.375;  451.000;  263.000
383.650;  786.425; -947.000; -904.000
383.780;  -14.100; -783.000; -656.000
383.910;  113.725;  880.000;  802.000
384.039;   32.350; -794.000; -656.000
384.169;  262.275;-1205.000;-1017.000
384.299;   -2.725; -650.000; -662.000
384.428;  -70.450; -764.000; -680.000
384.558;  -42.975; -308.000; -275.000
384.687;  -27.325; -414.000; -334.000
384.817;    9.200;   75.000;   -2.000
384.947;   33.575; -234.000; -141.000
385.076;  302.500;  982.000;  912.000
385.206;  104.075;  369.000;  480.000
385.335;  -32.775; -549.000; -417.000
385.465;  -69.025; -655.000; -663.000
385.594;  137.750;  -53.000;  -44.000
385.724;  480.425; -868.000; -838.000
385.853;  156.850; -296.000; -270.000
385.982; 1452.975; -743.000; -787.000
386.112; 2421.400;-1052.000; -871.000
386.241;  166.250; -307.000; -312.000
386.371;   35.500; -174.000;  -87.000
386.500;   22.475; -825.000; -789.000
386.629;   41.775; -874.000; -817.000
386.759;   69.525;  -43.000;   68.000
386.888;  -12.875; -170.000; -250.000
387.017;  -66.250; -648.000; -620.000
387.147;  -72.650; -771.000; -798.000
387.276;   14.825; -410.000; -397.000
387.405;   30.700; -398.000; -342.000
387.535;  -40.675; -452.000; -361.000
387.664;  -57.700; -692.000; -620.000
387.793;   85.725; -198.000; -113.000
387.922;  567.025;  255.000;  200.000
388.052;   44.350; -576.000; -423.000
388.181;   22.700; -342.000; -472.000
388.310;   19.050; -889.000; -710.000
388.439;  -40.975; -749.000; -742.000
388.568;  190.525;  365.000;  244.000
388.697; 1126.725; -756.000; -653.000
388.826;  250.300; -768.000; -666.000
388.956;   61.925; -285.000; -307.000
389.085;  -32.425; -347.000; -287.000
389.214; -117.475; -842.000; -872.000
389.343;  -69.800; -645.000; -413.000
389.472;  392.075;  126.000;  149.000
389.601;  545.200;   91.000;    0.000
389.730;   16.450; -568.000; -687.000
389.859;   62.150;  226.000;   46.000
389.988;  205.425; -423.000; -408.000
390.117;  153.725; -168.000; -146.000
390.246;   -9.000; -331.000; -320.000
390.375;  145.600; -673.000; -626.000
390.504;  -53.075; -703.000; -621.000
390.633;  -95.600; -672.000; -726.000
390.761;  -63.000; -732.000; -645.000
390.890;   21.675;   -4.000; -130.000
391.019;  -20.625; -421.000; -441.000
391.148; -124.400; -826.000; -855.000
391.277;  -66.025; -576.000; -493.000
391.406;  -73.350; -821.000; -805.000
391.534;   11.875;  574.000; -301.000
391.663;  -53.200; -583.000; -645.000
391.792;  -74.900; -673.000; -701.000
391.921;  105.125;   -3.000;   15.000
392.050;  205.175; -287.000; -228.000
392.178;  -31.600;-1206.000;-1061.000
392.307;  140.000; -758.000; -712.000
392.436;   99.250; -427.000; -641.000
392.564;   13.000;  166.000;   -6.000
392.693;  -82.800; -860.000; -682.000
392.822;  225.625; -529.000; -534.000
392.950;  112.950; -880.000; -714.000
393.079;  336.050; -188.000; -328.000
393.208;   53.500; -488.000; -511.000
393.336;   -7.300; -170.000; -145.000
393.465;  -50.175; -317.000; -199.000
393.593;   -0.650;   62.000;   79.000
393.722; -159.925;-1121.000; -916.000
393.850;  -36.125; -188.000;  -61.000
393.979; -158.075; -926.000; -805.000
394.107;  -68.250; -517.000; -537.000
394.236;  -30.200; -570.000; -507.000
394.364;  236.725;  383.000;  206.000
394.493;  457.150; -911.000; -767.000
394.621;    3.600; -955.000; -916.000
394.750;  683.225; -873.000; -923.000
394.878; 2825.675; -247.000; -149.000
395.007; 4035.525; -721.000; -807.000
395.135;  334.525; -790.000; -721.000
395.263;  -89.850;-1038.000;-1040.000
395.392;    4.900;  -25.000; -107.000
395.520; -128.425; -818.000; -679.000
395.648;  -78.425; -865.000; -915.000
395.777;  -16.075; -366.000; -405.000
395.905;  -50.900; -449.000; -564.000
396.033;   22.150;  217.000;  172.000
396.162;  673.500; -399.000; -453.000
396.290;  634.450;  -17.000;   -2.000
396.418;  115.750; -555.000; -514.000
396.546;  -57.950; -571.000; -466.000
396.674;  -93.100; -850.000; -878.000
396.803;   12.900;  -72.000;  -23.000
396.931;   97.575; -179.000; -199.000
397.059;   97.550;-1026.000; -989.000
397.187; -105.250;-1026.000; -975.000
397.315; -136.225; -884.000; -649.000
397.443;  -94.400; -592.000; -443.000
397.572;  -85.925; -578.000; -424.000
397.700;   -3.525; -607.000; -614.000
397.828;   22.700;  120.000;  -90.000
397.956;  -58.550; -508.000; -478.000
398.084;  -66.150; -767.000; -626.000
398.212;   27.175;  137.000;  124.000
398.340;   11.775;  -56.000;  159.000
398.468;   37.525; -390.000; -169.000
398.596; -126.350; -993.000; -953.000
398.724; -122.875; -762.000; -767.000
398.852; -166.250;-1024.000; -976.000
398.980;  -67.325; -560.000; -560.000
399.108;  -51.425; -982.000; -735.000
399.236;   39.000;   13.000;    8.000
399.363;   13.375;  222.000;  196.000
399.491;  -75.850; -404.000; -398.000
399.619; -125.425; -829.000; -800.000
399.747; -111.875; -859.000; -771.000
399.875;   82.825;  220.000;  234.000
400.003;  -49.300; -359.000; -284.000
400.130;  -98.325; -421.000; -341.000
400.258;  -32.450;  -83.000;   38.000
400.386;  -72.150; -352.000; -168.000
400.514;  -32.400; -526.000; -587.000
400.641;  -67.975; -928.000; -802.000
400.769; -132.375; -979.000; -888.000
400.897; -104.600; -838.000; -793.000
401.025;  -31.975; -166.000; -152.000
401.152;   -4.950;  220.000;   38.000
401.280;  -80.125; -430.000; -429.000
401.408; -115.450; -712.000; -576.000
401.535; -115.150; -735.000; -758.000
401.663; -187.000;-1134.000;-1054.000
401.790;  -92.775; -514.000; -525.000
401.918;   37.775;  436.000;  405.000
402.046;  -24.250;  134.000;  122.000
402.173;  -44.975;  -18.000;    7.000
402.301;  -70.775; -519.000; -397.000
402.428;   25.800;  528.000;  383.000
402.556; -137.100;-1188.000; -913.000
402.683;  -31.600;  -20.000;   -1.000
402.811;  -19.125;  -37.000; -206.000
402.938;  -12.375;   20.000;   27.000
403.066;  198.125; -574.000; -558.000
403.193;  363.625;  299.000;  239.000
403.321;  280.325; -396.000; -574.000
403.448;  373.000;   83.000;   27.000
403.575;  151.375;  -90.000;  -46.000
403.703;  -93.125; -732.000; -557.000
403.830;  -61.250; -531.000; -496.000
403.957; -140.700;-1117.000;-1023.000
404.085;   -0.725;  -61.000; -172.000
404.212;  117.450;  -50.000;   63.000
404.339;  256.000; -566.000; -306.000
404.467; 5564.700; -612.000; -524.000
404.594; 4058.575; -287.000; -227.000
404.721; 1001.500; -869.000; -764.000
404.848;  100.850; -113.000; -202.000
404.976; -103.025; -856.000; -783.000
405.103;  -12.900;  -14.000;  -82.000
405.230;   -8.525;  190.000;  226.000
405.357;   14.775;  117.000;   44.000
405.484;  226.450;  -49.000;    5.000
405.612;   48.625; -548.000; -563.000
405.739;  -56.300; -488.000; -243.000
405.866;   78.175;  669.000;  385.000
405.993;  -47.175; -398.000; -102.000
406.120; -141.000; -801.000; -887.000
406.247;  -59.400; -323.000; -342.000
406.374;  450.300;  540.000;  629.000
406.501;  158.375; -632.000; -702.000
406.628;  -71.650; -621.000; -589.000
406.755;  -97.600; -803.000; -620.000
406.882;  -32.100; -228.000; -277.000
407.009; -105.075; -719.000; -628.000
407.136;   50.850; -480.000; -401.000
407.263;  182.700; -939.000; -829.000
407.390;  -82.175; -692.000; -614.000
407.517; -147.475;-1139.000;-1187.000
407.644;  -58.650; -332.000; -256.000
407.771;  -67.725; -249.000; -287.000
407.898;   -0.500;  168.000;  328.000
408.025;  -74.050; -421.000; -313.000
408.151;  -12.150;   82.000;  153.000
408.278;  -79.775; -267.000; -216.000
408.405; -124.150; -931.000; -899.000
408.532;  -50.150; -549.000; -542.000
408.659; -112.225; -677.000; -648.000
408.785; -201.125;-1298.000;-1170.000
408.912;  -71.900; -412.000; -296.000
409.039; -110.750; -610.000; -686.000
409.166; -104.625; -591.000; -555.000
409.292; -117.100; -571.000; -534.000
409.419; -129.400; -665.000; -649.000
409.546;  -79.125; -431.000; -192.000
409.672; -113.275; -713.000; -545.000
409.799;  -22.300;  -36.000;   34.000
409.926;  -45.150; -180.000; -179.000
410.052; -168.925;-1127.000;-1091.000
410.179;  -67.850; -368.000; -392.000
410.305;  -82.700; -375.000; -493.000
410.432;  -54.650; -220.000; -333.000
410.558;  -95.625; -305.000; -380.000
410.685; -112.075; -688.000; -431.000
410.812; -104.325; -409.000; -588.000
410.938; -136.675; -964.000; -808.000
411.065;  -96.750; -671.000; -645.000
411.191;  -20.350; -189.000; -174.000
411.317; -118.625; -823.000; -742.000
411.444;  -61.650; -317.000; -246.000
411.570;  -78.550; -339.000; -294.000
411.697; -122.650; -758.000; -752.000
411.823; -161.600; -989.000; -999.000
411.949;  -39.800;  -56.000;   17.000
412.076; -117.125; -539.000; -519.000
412.202; -129.100; -758.000; -757.000
412.329; -118.075; -798.000; -752.000
412.455; -106.625; -821.000; -657.000
412.581;  -16.375;  -15.000;  172.000
412.707;  -66.025; -540.000; -457.000
412.834;   18.075;  156.000;  219.000
412.960;  -83.550; -785.000; -784.000
413.086; -100.825; -743.000; -701.000
413.212;  147.975;  604.000;  578.000
413.339;  -49.500; -685.000; -701.000
413.465;    5.925; -364.000; -310.000
413.591;  -85.150; -757.000; -474.000
413.717;  -63.000; -358.000; -366.000
413.843; -142.950; -839.000; -861.000
413.969;  -62.375;  -47.000; -292.000
414.096; -103.325; -679.000; -679.000
414.222;  -12.200;  -33.000;   85.000
414.348;  -27.725; -652.000; -385.000
414.474;  107.825;   38.000;  -52.000
414.600;   -4.775; -126.000; -144.000
414.726;  -31.950;  -96.000;  -55.000
414.852;  -58.100; -365.000; -342.000
414.978;   37.300;  104.000;  -18.000
415.104;   33.300;   38.000;   80.000
415.230;    5.000; -329.000; -330.000
415.356;   35.000; -409.000; -514.000
415.482;  198.000;   13.000;  -35.000
415.608;  278.625; -247.000; -323.000
415.734;  941.325;   67.000;   38.000
415.860;19385.025; -875.000; -767.000
415.986;15513.800; -685.000; -607.000
416.111; 1404.925; -798.000; -652.000
416.237;  281.450; -424.000; -571.000
416.363; 1018.650; -765.000; -733.000
416.489; 4162.450; -324.000; -251.000
416.615;  494.800; -707.000; -742.000
416.741;  -25.425; -677.000; -784.000
416.866;  -79.550; -673.000; -736.000
416.992; -113.150; -801.000; -818.000
417.118;  -28.625;  -41.000;  -80.000
417.244;  -62.900; -798.000; -531.000
417.369;  -82.150; -801.000; -612.000
417.495;    4.825; -325.000; -254.000
417.621;  -89.000;-1015.000; -803.000
417.746;    2.325; -579.000; -572.000
417.872;   55.325; -254.000; -144.000
417.998;   26.450; -515.000; -530.000
418.123;  965.425;-1073.000; -845.000
418.249; 5422.300; -512.000; -601.000
418.374;  845.700; -916.000; -824.000
418.500;  127.825; -383.000; -482.000
418.626;  116.300;   70.000;  -59.000
418.751;  120.875; -549.000; -448.000
418.877;  196.775; -637.000; -643.000
419.002; 1627.525; -688.000; -560.000
419.128;12421.675; -930.000; -721.000
419.253; 3363.975; -967.000; -837.000
419.379;  415.625; -391.000; -338.000
419.504;  391.475;  325.000;  415.000
419.629;  508.925; -393.000; -212.000
419.755; 3207.450; -317.000; -254.000
419.880;20669.725;  -98.000;   67.000
420.006;11199.400; -280.000; -221.000
420.131;29893.925; -662.000; -775.000
420.256; 4761.900; -315.000; -316.000
420.382;  614.025; -665.000; -687.000
420.507;   86.825; -649.000; -778.000
420.632;  141.725; -337.000; -339.000
420.758;  275.000; -251.000; -425.000
420.883;  -69.425; -876.000; -672.000
421.008;  -89.975; -775.000; -619.000
421.133;  -67.125; -509.000; -467.000
421.259;  -47.350; -325.000; -259.000
421.384; -107.025; -834.000; -693.000
421.509;  -49.375;-1052.000; -862.000
421.634; 1233.075; -936.000; -820.000
421.759;  608.625; -359.000; -327.000
421.885;  -46.675; -717.000; -656.000
422.010;  -74.300; -673.000; -542.000
422.135; -143.925; -695.000; -727.000
422.260;   20.300;  340.000;  280.000
422.385;  -53.325;   12.000;  -98.000
422.510;   -3.125;  151.000;  -26.000
422.635;   13.225;  -87.000;  -43.000
422.760;  110.375; -766.000; -791.000
422.885;   63.100;  -57.000;  -80.000
423.010;  -32.825; -112.000; -169.000
423.135;  -93.850; -481.000; -561.000
423.260;  -13.700; -150.000; -245.000
423.385;   71.150;  476.000;  222.000
423.510;   26.675;   71.000;  -22.000
423.635;   89.275;  133.000;   45.000
423.760;   56.250;  383.000;  328.000
423.885;   50.000;  336.000;  391.000
424.010;   24.075;  -68.000;  -13.000
424.135;  -34.625;    5.000;  -33.000
424.259;  -89.000; -654.000; -457.000
424.384;  -48.000; -279.000; -272.000
424.509;  -35.000; -260.000; -186.000
424.634; -103.125; -761.000; -623.000
424.759;  -16.125; -688.000; -544.000
424.883;  -12.975; -506.000; -527.000
425.008;  165.175; -502.000; -410.000
425.133; 1957.900; -679.000; -653.000
425.258; 1028.850; -517.000; -381.000
425.382; 1021.550; -867.000; -774.000
425.507; 2906.700; -487.000; -543.000
425.632;  505.950; -802.000; -663.000
425.756;  455.500; -256.000; -146.000
425.881; 5912.000; -831.000; -857.000
426.006;17466.950; -604.000; -355.000
426.130; 3063.450; -696.000; -508.000
426.255;  379.625; -611.000; -491.000
426.379;  162.750; -189.000; -577.000
426.504;  350.150;  660.000;  544.000
426.629; 3898.250; -519.000; -466.000
426.753; 3005.600;   64.000;  -46.000
426.878;  338.100; -252.000; -288.000
427.002;  193.150; -651.000; -668.000
427.127; 1477.950;  -35.000; -158.000
427.251;11230.775;  372.000;  401.000
427.375; 3633.300; -191.000; -173.000
427.500; 2423.025; -616.000; -610.000
427.624;  937.000; -234.000; -400.000
427.749;  104.500; -216.000; -225.000
427.873;  -33.400; -499.000; -412.000
427.997;  -33.825; -222.000; -230.000
428.122;   83.000;  795.000;  703.000
428.246;   74.900;  433.000;  434.000
428.371; -118.725; -869.000; -773.000
428.495; -102.300; -624.000; -646.000
428.619;  -10.775; -186.000; -117.000
428.743;   11.550;   65.000;  132.000
428.868;   13.025; -732.000; -643.000
428.992; 1457.675; -219.000; -326.000
429.116;  643.025; -329.000; -357.000
429.240;  305.850;  419.000;  426.000
429.365;   -9.900; -454.000; -574.000
429.489;  -35.500; -638.000; -647.000
429.613;   13.025; -236.000; -177.000
429.737;   24.650; -563.000; -432.000
429.861;  262.075; -247.000; -133.000
429.985; 5278.925; -425.000; -305.000
430.109; 6426.875; -770.000; -908.000
430.234;  797.125;   76.000;  -50.000
430.358;   73.300; -250.000; -160.000
430.482;  -59.650; -672.000; -564.000
430.606;  -63.250; -655.000; -375.000
430.730;   27.225; -437.000; -388.000
430.854;  169.475; -909.000; -835.000
430.978;  -71.100; -795.000; -764.000
431.102;  -80.675; -499.000; -422.000
431.226; -103.550; -874.000; -815.000
431.350;   27.400;  345.000;  422.000
431.474;  -85.075; -661.000; -373.000
431.597; -149.350;-1060.000; -848.000
431.721;  -76.950; -276.000; -267.000
431.845; -132.600; -704.000; -472.000
431.969;  -78.225; -304.000; -349.000
432.093;  -79.300; -395.000; -317.000
432.217;  -24.475;   32.000;   82.000
432.341;  -87.400; -523.000; -518.000
432.464;    3.400;   96.000;   40.000
432.588;  230.800; -401.000; -329.000
432.712;  120.000;  -52.000;  -52.000
432.836;   47.250;  213.000;  263.000
432.959;  -19.850; -372.000; -311.000
433.083;   66.600;   11.000;    2.000
433.207;  352.375;  285.000;  930.000
433.330; 4760.050; -391.000; -200.000
433.454; 6403.975; -654.000; -638.000
433.578; 3681.350;  583.000;  278.000
433.701;  752.000; -623.000; -675.000
433.825;  176.575; -292.000; -299.000
433.949;  178.375;   28.000;  -72.000
434.072;   86.975; -410.000; -323.000
434.196;  -32.400; -309.000; -117.000
434.319; 3576.275;25482.000;25124.000
434.443;  682.700; -656.000; -603.000
434.566; 2667.600;  281.000;   62.000
434.690;  533.325; -637.000; -383.000
434.813;   74.625; -251.000; -173.000
434.937;  -81.475; -569.000; -696.000
435.060;  -47.850; -423.000; -332.000
435.184;  331.250; -492.000; -217.000
435.307;  211.250;  159.000;  102.000
435.431;   -8.350;  -40.000;   24.000
435.554;  -70.175; -399.000; -240.000
435.677;  -86.650; -350.000; -258.000
435.801;  -45.975;  -25.000;   49.000
435.924;  -31.125;    1.000;  -67.000
436.048; -109.375;-1019.000; -732.000
436.171;  -79.675; -240.000;  -66.000
436.294;  -40.600; -248.000; -229.000
436.417;   81.350; -963.000; -849.000
436.541;  -64.125; -814.000; -840.000
436.664;  -57.675; -242.000; -316.000
436.787;  -23.900;   13.000;  113.000
436.910; -117.675; -792.000; -422.000
437.034;    8.975;  142.000;  143.000
437.157;   58.975;  -11.000;    0.000
437.280;  -47.575; -392.000; -292.000
437.403;  -73.950; -982.000; -869.000
437.526;  637.950; -903.000; -865.000
437.649; 2469.725; -505.000; -332.000
437.772;  448.550; -692.000; -540.000
437.896;  127.525;  700.000;  544.000
438.019;  -95.450; -758.000; -503.000
438.142;  -84.750; -596.000; -506.000
438.265;   -4.150; -639.000; -670.000
438.388;  632.650; -520.000; -410.000
438.511;  157.850; -597.000; -394.000
438.634;  -43.550; -247.000; -125.000
438.757; -134.150; -693.000; -619.000
438.880;  -27.900;  -34.000;  -57.000
439.003;  -64.200; -417.000; -437.000
439.126;  -68.275; -287.000; -167.000
439.248;  -72.375;  -98.000; -139.000
439.371;  -45.175;    9.000;  -53.000
439.494;   21.125;  510.000;  439.000
439.617;  -58.200;   65.000;  -88.000
439.740; -187.275; -968.000; -816.000
439.863; -143.525; -755.000; -595.000
439.986; -113.775; -476.000; -431.000
440.108;  -71.225; -161.000; -112.000
440.231; -172.400; -950.000; -836.000
440.354;  -49.750;  -64.000; -150.000
440.477;   32.525; -566.000; -542.000
440.599;   14.025; -200.000; -225.000
440.722; -120.200; -709.000; -586.000
440.845;   51.500;  751.000;  928.000
440.968; -119.950; -415.000; -311.000
441.090;  -76.400; -199.000;  -33.000
441.213; -157.875;-1021.000; -825.000
441.336;  -68.850; -159.000;   -5.000
441.458;  -72.825; -549.000; -396.000
441.581;  -77.900; -628.000; -629.000
441.703;  -68.275; -152.000;   13.000
441.826; -121.125; -557.000; -400.000
441.948;  -48.100;   56.000;   51.000
442.071;   12.925;  555.000;  424.000
442.193; -120.225; -531.000; -485.000
442.316;    7.575;  152.000;   97.000
442.438;   56.625; -233.000;  -10.000
442.561;   71.550;  272.000;  262.000
442.683;  531.700; -809.000; -522.000
442.806; 1305.850;   -8.000;   74.000
442.928;   71.050; -859.000; -604.000
443.051;  -61.625; -577.000; -373.000
443.173;  -97.175; -341.000; -339.000
443.295;  -96.925; -263.000; -371.000
443.418;  -67.575; -321.000;  -29.000
443.540;  -31.625; -106.000;   -4.000
443.662; -108.050; -563.000; -465.000
443.785;  -19.350;  335.000;  199.000
443.907;  -89.550; -362.000; -208.000
444.029; -123.200; -767.000; -494.000
444.152; -152.000; -644.000; -554.000
444.274;  -41.675;  -18.000;  -24.000
444.396; -108.750; -461.000; -221.000
444.518; -131.650; -691.000; -454.000
444.640; -106.875; -268.000; -111.000
444.763;  -20.000;  388.000;  249.000
444.885; -126.375; -432.000; -392.000
445.007;  -35.575;   35.000;   86.000
445.129; -118.825; -610.000; -515.000
445.251; -108.425; -372.000; -439.000
445.373; -120.500; -537.000; -386.000
445.495;   -1.725;  242.000;  350.000
445.617;   39.925;  853.000;  753.000
445.739;  -59.475; -215.000;  -97.000
445.861;  -32.700; -245.000; -112.000
445.984;  -31.775; -267.000; -101.000
446.105;  194.425; -418.000; -251.000
446.227;  666.550; -176.000;  -19.000
446.349;   37.250; -358.000; -249.000
446.471;  -97.875; -615.000; -448.000
446.593;  -54.400; -316.000;   19.000
446.715;   -5.100;  -67.000;   41.000
446.837;   60.025;  697.000;  832.000
446.959; -110.925; -457.000; -478.000
447.081; -133.775; -628.000; -518.000
447.203;   47.550;  862.000;  834.000
447.325;  -93.125; -270.000;   42.000
447.446;  -18.300;  286.000;  530.000
447.568; -147.150; -921.000; -803.000
447.690;  -86.100; -236.000; -245.000
447.812; -153.400; -798.000; -519.000
447.933;  -36.450;  155.000;  127.000
448.055;  -71.150; -306.000; -261.000
448.177;  136.400;   31.000;   79.000
448.299;  126.375; -935.000; -727.000
448.420;   28.975;  -25.000;  159.000
448.542;  -47.850;   -3.000;   33.000
448.664;  -27.950;  109.000;  322.000
448.785;  -42.375;  265.000;   83.000
448.907;  -80.150; -614.000; -353.000
449.028;  -30.700; -771.000; -471.000
449.150;   55.550;  492.000;  589.000
449.272; -173.075;-1044.000; -913.000
449.393;   23.250;  612.000;  694.000
449.515; -134.175; -634.000; -581.000
449.636;  -60.675; -264.000; -155.000
449.758;   77.350;  763.000;  622.000
449.879;  -99.575; -498.000; -396.000
450.001;  -81.275; -149.000;  -49.000
450.122;  -40.025;  -95.000;  162.000
450.244;  -16.775;   37.000;  364.000
450.365;  -87.075; -495.000; -301.000
450.486;  -37.825;   80.000;  268.000
450.608;   13.600;  393.000;  326.000
450.729;   53.375;  578.000;  645.000
450.850;   -0.900; -574.000; -466.000
450.972;  675.400; -552.000; -389.000
451.093; 4701.875;  190.000;  588.000
451.214; 2301.925; -516.000; -337.000
451.336;  415.125;  773.000;  579.000
451.457;   53.175;  264.000;  393.000
451.578;  -54.300; -118.000;  -74.000
451.699; -123.575; -546.000; -540.000
451.821;  -67.925; -284.000;  -50.000
451.942;  -20.000;  278.000;  285.000
452.063;   20.750;  228.000;  419.000
452.184;  528.750;  -54.000;  -49.000
452.305; 1117.500;  103.000;  170.000
452.427;  162.375; -549.000; -301.000
452.548;  -19.050;   23.000;   79.000
452.669;  -62.975; -257.000;  -89.000
452.790;  -52.025;    3.000;  -18.000
452.911;    0.025;  195.000;  259.000
453.032;  -75.450; -289.000;  -60.000
453.153;  -49.375;  -29.000;   81.000
453.274;   77.725;  737.000;  868.000
453.395;  -43.975;  -51.000;  175.000
453.516;  119.775; 1317.000; 1388.000
453.637;  -57.675; -205.000; -150.000
453.758;  -57.850;   15.000;   69.000
453.879; -110.800; -462.000; -250.000
454.000;   64.225; 1086.000;  948.000
454.121; -119.525; -554.000; -326.000
454.242; -115.175; -599.000; -383.000
454.362;  -56.975;  -99.000;  114.000
454.483;  -35.000; -309.000; -229.000
454.604;   55.675;  512.000;  580.000
454.725; -125.875; -627.000; -555.000
454.846; -118.550; -474.000; -406.000
454.967;  -20.350;  230.000;  539.000
455.087;  -58.150;  179.000;  153.000
455.208;   10.900;  554.000;  856.000
455.329;  -69.500;  -22.000;   82.000
455.450;    9.650;  473.000;  633.000
455.570;  -74.900; -234.000; -211.000
455.691;  -53.875;  201.000;  407.000
455.812; -107.225; -270.000;  -92.000
455.932;  -71.000;  107.000;  -97.000
456.053;  -74.650;   36.000;   24.000
456.173; -111.800; -433.000; -355.000
456.294; -134.625; -476.000; -303.000
456.415;  -63.275;  -73.000;   70.000
456.535;  -34.850;  297.000;  273.000
456.656;  -59.650;  132.000;  240.000
456.776;  -73.950;    3.000;  298.000
456.897;  -15.525;  308.000;  513.000
457.017;  -78.775; -153.000;   -3.000
457.138; -113.125; -402.000; -249.000
457.258;  -27.725;  263.000;  224.000
457.379;  -20.650;  509.000;  521.000
457.499;  -32.525;  443.000;  432.000
457.620; -129.625; -407.000; -231.000
457.740; -105.350; -132.000;  -11.000
457.860;  -67.450;   87.000;   44.000
457.981;  -48.275;  132.000;  124.000
458.101;  -74.400;  -89.000;   40.000
458.221;  -16.625;  336.000;  402.000
458.342;  -69.875;   -4.000;  -37.000
458.462;   14.900;  617.000;  352.000
458.582;  -55.150; -302.000; -294.000
458.703;   -4.950;  303.000;  154.000
458.823;  -38.975;   22.000;  163.000
458.943;   25.000;  341.000;  467.000
459.063;   -8.725; 1124.000;  192.000
459.183;  -26.025;  328.000;  313.000
459.304;   -9.225;  315.000;  517.000
459.424;  -72.400; -246.000;  -89.000
459.544;  301.675;  388.000;  764.000
459.664;  814.350;  499.000;  506.000
459.784;  335.525; 1004.000; 1175.000
459.904;   64.225;  867.000;  744.000
460.024;   71.475;  867.000;  684.000
460.144;   12.675;  449.000;  554.000
460.264;  -14.450;  515.000;  327.000
460.385;  -96.025; -145.000; -119.000
460.505;   22.925;  905.000;  858.000
460.625;  -92.975;  -17.000;  -68.000
460.745;  -36.650;  396.000;  541.000
460.864;  -43.200;  153.000;  469.000
460.984;   10.700;  499.000;  573.000
461.104;  132.025; 1656.000; 1775.000
461.224;    9.125;  657.000;  650.000
461.344;  -44.750;  431.000;  360.000
461.464;  -39.075;  258.000;  513.000
461.584;  -16.125;  283.000;  466.000
461.704;  -36.925;   58.000;  108.000
461.824;  -58.425;  238.000;  259.000
461.943;  -46.625;  191.000;  130.000
462.063;  -65.600;    2.000;  324.000
462.183;   12.250;  639.000;  717.000
462.303;   93.650; 1678.000; 1230.000
462.422;   19.575;  781.000;  840.000
462.542;  -33.725;  271.000;  391.000
462.662;   41.025;  353.000;  380.000
462.782;  227.675;  833.000;  572.000
462.901;  480.725;  545.000;  717.000
463.021;  294.175; 1702.000; 1638.000
463.141;  -15.150;  337.000;  770.000
463.260;  -15.300;  614.000;  474.000
463.380;    2.025;  902.000;  884.000
463.499;  -41.950;  342.000;  332.000
463.619;  -50.525;  581.000;  559.000
463.738;  100.900; 1644.000;  903.000
463.858;   22.225;  657.000;  811.000
463.978;  -25.375;  542.000;  396.000
464.097;   39.350;  921.000; 1114.000
464.217;  103.225; 1196.000; 1143.000
464.336;  113.075; 1068.000; 1130.000
464.455;  -30.175;  328.000;  659.000
464.575;   37.800;  597.000;  602.000
464.694;  166.950; 1204.000; 1179.000
464.814;  128.525; 1190.000; 1138.000
464.933;   87.050; 1095.000; 1027.000
465.052;   95.875; 1412.000; 1054.000
465.172;   72.000;  922.000;  799.000
465.291;  147.775; 1376.000; 1320.000
465.410;   14.675;  462.000;  735.000
465.530;   73.600; 1355.000; 1310.000
465.649;   63.575; 1209.000; 1273.000
465.768;  133.275; 1673.000; 1508.000
465.888;   48.750;  941.000; 1174.000
466.007;   84.150; 1335.000; 1440.000
466.126;    0.275;  721.000;  641.000
466.245;   39.725; 1176.000; 1187.000
466.364;   22.250;  950.000; 1060.000
466.484;   55.725; 1024.000; 1213.000
466.603;   33.025; 1101.000; 1222.000
466.722;  112.750; 1490.000; 1769.000
466.841;   88.425; 1151.000; 1401.000
466.960;   50.150; 1069.000;  972.000
467.079;  115.650; 1971.000; 1786.000
467.198;   63.625; 1238.000; 1181.000
467.317;   90.750; 1768.000; 1162.000
467.436;   51.450; 1709.000; 1261.000
467.555;  108.625; 1796.000; 1746.000
467.674;   62.275; 1227.000; 1329.000
467.793;   50.600; 1376.000; 1374.000
467.912;   82.725; 1658.000; 1539.000
468.031;  118.875; 2038.000; 1930.000
468.150;  134.550; 1842.000; 1837.000
468.269;  194.825; 2313.000; 2090.000
468.388;  176.650; 2168.000; 2339.000
468.507;  253.225; 2884.000; 2903.000
468.626;  248.125; 2555.000; 2541.000
468.744;  132.475; 2018.000; 2174.000
468.863;  185.175; 2312.000; 2523.000
468.982;  110.225; 1503.000; 1555.000
469.101;  214.250; 2788.000; 2692.000
469.220;  150.425; 2333.000; 2176.000
469.338;  253.450; 2935.000; 3051.000
469.457;  191.925; 2719.000; 2545.000
469.576;  318.875; 3953.000; 3784.000
469.695;  241.975; 2877.000; 3066.000
469.813;  402.300; 4148.000; 4192.000
469.932;  392.825; 4255.000; 4485.000
470.051;  409.950; 4075.000; 4161.000
470.169;  804.425; 4470.000; 4338.000
470.288; 1476.625; 4700.000; 4809.000
470.406;  937.075; 5059.000; 5194.000
470.525;  634.600; 6101.000; 5787.000
470.644;  650.575; 6847.000; 6794.000
470.762;  809.200; 8397.000; 7873.000
470.881;  878.625; 8651.000; 8464.000
470.999; 1031.875; 9685.000; 9151.000
471.118; 1103.400;11174.000;10711.000

