
Integration time [ms]: 100.000
Averaging Nr. [scans]: 40
Smoothing Nr. [pixels]: 0
Data measured with spectrometer [name]: 2101012U2
Wave   ;Sample   ;Dark     ;Reference
[nm]   ;[counts] ;[counts] ;[counts] 

197.733;   66.400;  516.000;  404.000
197.879;  -82.250; -610.000; -634.000
198.025;  -47.900; -475.000; -420.000
198.171;  -68.825; -602.000; -612.000
198.317;  -46.300; -401.000; -316.000
198.463;  -59.850; -655.000; -404.000
198.609;   18.150;  181.000; -137.000
198.755;  -79.875; -644.000; -410.000
198.901;  -69.650; -505.000; -424.000
199.047;  -71.950; -615.000; -488.000
199.193;  -41.625; -230.000; -468.000
199.339;  -34.300; -222.000; -369.000
199.485;   35.775;  330.000;  271.000
199.631;    7.475;  227.000;  310.000
199.777;  -37.250; -466.000; -398.000
199.923;  -58.875; -610.000; -424.000
200.069;   -1.125; -141.000;  -58.000
200.215;   46.250;  128.000;  453.000
200.361;   44.850;  243.000;  477.000
200.507;  -59.350; -600.000; -373.000
200.653;  -25.025; -371.000; -194.000
200.798;  -34.400; -215.000; -125.000
200.944;   -8.575; -146.000;  -41.000
201.090;   45.100;   61.000;  222.000
201.236;   -3.975; -116.000; -158.000
201.382;  105.675;  874.000;  903.000
201.528;    9.500;  -58.000;  -48.000
201.674;  -51.350; -386.000; -293.000
201.819;  -53.475; -540.000; -439.000
201.965;  -79.525; -699.000; -447.000
202.111;  -23.850; -273.000; -226.000
202.257;  -35.250; -250.000; -238.000
202.402;    4.550;   13.000;  -36.000
202.548;  -29.150; -169.000; -116.000
202.694;   74.375;  410.000; -183.000
202.840;  -68.850; -603.000; -531.000
202.985;  -92.000; -681.000; -639.000
203.131; -106.450; -832.000; -666.000
203.277;  -19.650; -199.000; -262.000
203.423;  -48.000; -434.000; -520.000
203.568;  -45.925; -462.000; -237.000
203.714;  -54.075; -535.000; -542.000
203.860;  -84.675; -682.000; -641.000
204.005;   15.000;  112.000;  167.000
204.151;   66.325;  561.000;  556.000
204.296;  -40.925; -354.000; -221.000
204.442;  -77.025; -600.000; -547.000
204.588;  -77.350; -592.000; -579.000
204.733;   19.850;  178.000;  168.000
204.879; -132.375;-1018.000; -822.000
205.025;   10.250;  -99.000;  126.000
205.170;  -11.625;  -17.000;   94.000
205.316;   70.900;  438.000;  661.000
205.461;  -83.325; -698.000; -554.000
205.607;   86.475;  609.000;  665.000
205.752;  -78.350; -626.000; -551.000
205.898;  -55.125; -501.000; -391.000
206.043;  -65.000; -578.000; -506.000
206.189;  -35.500; -243.000; -285.000
206.334;   86.075;  554.000;  606.000
206.480;   76.850;  409.000;  239.000
206.625;  -73.350; -529.000; -552.000
206.771;  -26.625; -451.000; -373.000
206.916;  -36.725; -210.000; -537.000
207.062;  -70.875; -545.000; -591.000
207.207;  -52.925; -546.000; -443.000
207.353;   53.050;  185.000;  460.000
207.498;   15.350;  196.000;   85.000
207.643;  -58.275; -501.000; -370.000
207.789; -126.875;-1069.000; -910.000
207.934; -100.275; -665.000; -713.000
208.080;  -24.450; -154.000;   66.000
208.225;    1.300;  -22.000;  -57.000
208.370;  -68.275; -727.000; -619.000
208.516;  -78.575; -741.000; -487.000
208.661;  -20.775; -127.000;  -69.000
208.806;  -26.450; -165.000; -171.000
208.952; -124.650;-1044.000; -731.000
209.097;   65.750;  378.000;  349.000
209.242;  -36.425; -307.000; -382.000
209.387;   62.150;  392.000;  350.000
209.533;  -60.150; -321.000; -350.000
209.678;   74.550;  472.000;  543.000
209.823;  -65.700; -408.000; -310.000
209.969; -102.050; -860.000; -757.000
210.114;  -96.125; -907.000; -719.000
210.259; -114.925; -939.000; -889.000
210.404;  -10.450; -171.000;  103.000
210.549;   12.875;  108.000;    3.000
210.695;  -14.525;   -3.000;  -95.000
210.840;   31.400;   94.000;   67.000
210.985;  -71.925; -484.000; -303.000
211.130;   62.975;  268.000;  406.000
211.275;    6.575;  207.000;  199.000
211.420;  -54.325; -300.000; -289.000
211.566;  -68.750; -536.000; -489.000
211.711;   20.625;  218.000;  157.000
211.856;  -56.375; -545.000; -519.000
212.001;   10.525;  151.000;   44.000
212.146;   19.225;  153.000;   49.000
212.291;  -29.575; -210.000; -186.000
212.436;  -30.625; -280.000;   -6.000
212.581;  -87.450; -685.000; -653.000
212.726;  -78.900; -487.000; -538.000
212.871;  -41.875; -552.000; -217.000
213.016; -143.850;-1172.000;-1029.000
213.161;   61.850;  406.000;  291.000
213.306;  -76.975; -435.000; -577.000
213.451;  -95.325; -778.000; -689.000
213.596;  -50.800; -455.000; -347.000
213.741;  -58.000; -448.000; -538.000
213.886;  -73.400; -498.000; -517.000
214.031;  -25.300; -294.000; -124.000
214.176;  -53.950; -408.000; -341.000
214.321;  -13.650; -296.000; -157.000
214.466;  -36.425; -163.000;  -43.000
214.611;  -10.200;  -61.000;  -10.000
214.756; -118.575; -948.000; -858.000
214.901;  -25.900; -388.000; -226.000
215.046; -117.300; -797.000; -825.000
215.191;   15.175;  128.000;   35.000
215.336;   -4.050; -157.000;  -19.000
215.480;  -77.100; -684.000; -505.000
215.625;  -13.200; -175.000;  -19.000
215.770;  -88.325; -757.000; -662.000
215.915;   -2.225;   -5.000;  -97.000
216.060;  -14.750; -113.000;  -21.000
216.205; -122.300; -731.000; -779.000
216.349;  -75.650; -470.000; -533.000
216.494; -113.600; -939.000; -867.000
216.639;  -96.475; -823.000; -888.000
216.784;  -83.800; -577.000; -525.000
216.929;   46.225;  392.000;  281.000
217.073;  -11.675; -244.000;  -31.000
217.218;   -4.000;   78.000;  -47.000
217.363;  -83.950; -656.000; -618.000
217.507;  -81.800; -623.000; -588.000
217.652; -120.225; -845.000; -874.000
217.797;  -79.200; -708.000; -659.000
217.942;  -97.175; -856.000; -720.000
218.086;   60.475;  608.000;  539.000
218.231;  -24.200; -174.000;  -26.000
218.376;  -18.400; -337.000; -229.000
218.520;   -5.550;  -41.000;   96.000
218.665;  -31.300; -338.000; -204.000
218.810;  -50.925; -275.000; -233.000
218.954;   16.825;  201.000;   35.000
219.099; -108.075; -713.000; -963.000
219.243;  -75.850; -589.000; -554.000
219.388;  -29.325; -264.000; -136.000
219.532;   -2.825; -116.000; -116.000
219.677;  -71.650; -564.000; -521.000
219.822;    9.275;   33.000;   89.000
219.966;  -10.250;   17.000;  -99.000
220.111;  -51.475; -328.000;  -40.000
220.255;  -93.750; -797.000; -750.000
220.400;  -17.450; -180.000; -146.000
220.544;  -64.125; -516.000; -450.000
220.689;  -50.975; -422.000; -451.000
220.833;  -22.875; -123.000;  -58.000
220.978;  -41.650; -393.000; -563.000
221.122;   12.725;  319.000;  307.000
221.267; -117.950; -906.000; -837.000
221.411;  -76.650; -478.000; -394.000
221.555;   -3.575; -104.000;  -23.000
221.700;  -60.625; -329.000; -222.000
221.844;   30.850;  255.000;  272.000
221.989;  -49.725; -328.000; -311.000
222.133;  -29.075; -289.000; -307.000
222.277;   -4.875;    5.000;   78.000
222.422;   12.175;  227.000;  113.000
222.566;  -32.000; -381.000; -214.000
222.711;  -56.450; -414.000; -479.000
222.855;  -99.600; -643.000; -586.000
222.999;  -76.850; -642.000; -717.000
223.144;  -31.275; -195.000; -194.000
223.288;   45.575;  423.000;  251.000
223.432;    9.175;  184.000;  230.000
223.576;   11.550;  152.000;  -21.000
223.721;   25.300;  364.000;  273.000
223.865;  -58.825; -472.000; -475.000
224.009;  236.725; 1673.000; 1631.000
224.153;  -73.925; -660.000; -671.000
224.298;  -71.300; -531.000; -489.000
224.442;  -13.825;  -74.000;  -33.000
224.586;  -18.450; -169.000; -106.000
224.730;  -93.950; -858.000; -670.000
224.875; -103.525; -739.000; -688.000
225.019;    8.750;  102.000;  188.000
225.163;   55.600;  208.000;  341.000
225.307;   26.300;   97.000;  -91.000
225.451;   42.975;  360.000;  481.000
225.595;   24.550;  264.000;  176.000
225.739;  -34.025; -170.000;  -94.000
225.884;    5.875;   86.000;    5.000
226.028;  -93.375; -760.000; -626.000
226.172;  -33.550; -260.000; -273.000
226.316; -122.475; -941.000; -902.000
226.460;  -65.625; -645.000; -493.000
226.604;  -61.225; -406.000; -400.000
226.748;  -96.875; -836.000; -733.000
226.892;  -43.325; -227.000; -181.000
227.036;  -46.500; -537.000; -447.000
227.180;  -53.025; -551.000; -375.000
227.324;  -53.575; -561.000; -580.000
227.468; -106.975; -819.000; -717.000
227.612;    8.100;  242.000;  -28.000
227.756;  -99.875; -845.000; -698.000
227.900;   42.500;  342.000;  441.000
228.044;  -61.800; -509.000; -290.000
228.188;   70.200;  448.000;  568.000
228.332;  -80.900; -546.000; -472.000
228.476;  -38.925; -223.000; -149.000
228.620;  -44.375; -210.000; -150.000
228.764;   60.350;  431.000;  349.000
228.908;  -37.725; -155.000;   30.000
229.052;  -70.750; -615.000; -528.000
229.195;  -18.575; -172.000;   13.000
229.339;  -44.175; -235.000; -305.000
229.483;  -29.300;    5.000; -162.000
229.627;   -2.800; -156.000;  139.000
229.771;  -44.025; -218.000; -294.000
229.915;   12.300;  230.000;   79.000
230.059;  -97.000; -648.000; -663.000
230.202;  -34.375; -370.000; -317.000
230.346;  -19.150; -107.000;  107.000
230.490;  -64.450; -489.000; -521.000
230.634; -117.875; -736.000; -553.000
230.777;   60.275;  478.000;  509.000
230.921;  -59.350; -450.000; -359.000
231.065;  -45.075; -246.000; -286.000
231.209;   22.150;  261.000;  265.000
231.352;    7.575;   54.000;   40.000
231.496;   13.400;  568.000;  188.000
231.640;  -82.125; -693.000; -621.000
231.783;   46.675;  546.000;  525.000
231.927;  -49.200; -294.000; -365.000
232.071; -129.000; -962.000; -736.000
232.214; -113.675; -980.000; -764.000
232.358;  -92.325; -683.000; -599.000
232.502;    3.150;  -19.000;    7.000
232.645; -135.300;-1090.000; -927.000
232.789;  -14.625; -257.000; -218.000
232.933;  -40.300; -407.000; -224.000
233.076; -126.800;-1038.000; -897.000
233.220; -116.250; -752.000; -777.000
233.363;  -67.150; -669.000; -477.000
233.507;   47.200;  371.000;  129.000
233.650;  -96.900; -764.000; -834.000
233.794;   25.000;  438.000;  461.000
233.938;  -57.875; -530.000; -362.000
234.081;   -7.950;  -93.000;   31.000
234.225;  -75.250; -631.000; -539.000
234.368; -116.025; -773.000; -723.000
234.512;  -33.975; -385.000; -299.000
234.655;  -85.725; -582.000; -555.000
234.798;  -68.075; -493.000; -466.000
234.942; -143.950; -884.000;-1002.000
235.085;  -70.550; -651.000; -443.000
235.229;  -68.225; -405.000; -410.000
235.372;  -50.950; -247.000; -191.000
235.516;  -64.075; -397.000; -321.000
235.659;   16.000;   92.000;  121.000
235.802;  -16.275;  -38.000;  -22.000
235.946;   12.000;  335.000;  215.000
236.089;   15.950;  126.000;  250.000
236.233;   38.650;  275.000;  298.000
236.376;  -53.975; -235.000; -378.000
236.519;  -45.500; -297.000; -319.000
236.663;  -36.950; -215.000; -117.000
236.806; -125.150;-1029.000; -999.000
236.949;   37.500;  543.000;  431.000
237.092;   54.475;  412.000;  391.000
237.236;  -87.600; -589.000; -502.000
237.379;   66.250;  352.000;  428.000
237.522; -125.850; -879.000; -768.000
237.666;  -12.475; -271.000;   18.000
237.809; -123.675; -851.000; -823.000
237.952;   37.600;  469.000;  271.000
238.095;  -69.825; -447.000; -442.000
238.238;   72.775;  688.000;  700.000
238.382;   -2.250;  166.000;  103.000
238.525;  -71.600; -598.000; -511.000
238.668; -129.675;-1060.000; -985.000
238.811;  -80.775; -638.000; -643.000
238.954;  -64.175; -483.000; -334.000
239.097;   83.975;  617.000;  664.000
239.241;   22.300;  394.000;  326.000
239.384;  -38.325; -254.000; -214.000
239.527;  -73.125; -424.000; -224.000
239.670; -140.200; -994.000;-1091.000
239.813; -113.450; -696.000; -658.000
239.956;   69.775;  579.000;  473.000
240.099; -103.050; -778.000; -725.000
240.242;   55.275;  428.000;  432.000
240.385;   37.450;  466.000;  450.000
240.528;  -81.500; -706.000; -473.000
240.671;   22.225;  189.000;  134.000
240.814;  -37.575; -441.000; -158.000
240.957; -105.325; -767.000; -578.000
241.100;  -90.650; -779.000; -755.000
241.243; -139.550;-1234.000; -893.000
241.386;  -69.250; -508.000; -379.000
241.529;  -90.200; -735.000; -547.000
241.672;  -66.175; -566.000; -495.000
241.815; -118.600; -832.000; -808.000
241.958;  -12.025; -125.000; -182.000
242.101;  -74.975; -545.000; -390.000
242.244;  -39.550; -270.000; -325.000
242.387;  -56.475; -304.000; -246.000
242.530;   59.050;  470.000;  134.000
242.673;  -52.300; -381.000; -309.000
242.815; -113.800; -925.000; -899.000
242.958;  -63.275; -482.000; -381.000
243.101;   12.750;  132.000;  187.000
243.244;  -92.400; -564.000; -521.000
243.387;  -51.325; -313.000; -316.000
243.530;  -97.275; -657.000; -674.000
243.672;   10.950;   43.000;  -92.000
243.815;  -48.450; -355.000; -283.000
243.958;   -2.425;   98.000;  -26.000
244.101;  -12.025;   59.000;  -16.000
244.243;   -9.425;  -47.000;  101.000
244.386;  -99.475; -761.000; -630.000
244.529;  -32.125; -132.000; -139.000
244.672; -160.000;-1154.000; -951.000
244.814;  -98.675; -621.000; -794.000
244.957;  -66.150; -380.000; -304.000
245.100;  -73.775; -489.000; -489.000
245.242;  -61.300; -387.000; -374.000
245.385;   -9.050;  -59.000;  -39.000
245.528; -120.600; -871.000; -705.000
245.670;   83.075;  612.000;  634.000
245.813;  -93.150; -599.000; -547.000
245.956;  -33.825; -324.000; -275.000
246.098;  -75.575; -508.000; -650.000
246.241;    5.100;  194.000;   48.000
246.383;  -14.000; -119.000;  -73.000
246.526;  -70.000; -454.000; -525.000
246.669; -109.875; -889.000; -780.000
246.811;   19.750;  172.000;   -1.000
246.954;  -61.475; -512.000; -426.000
247.096;  -24.400;  -84.000;   -6.000
247.239;  -70.575; -482.000; -445.000
247.381;  -62.175; -647.000; -488.000
247.524;   90.300;  645.000;  679.000
247.666;   -3.750;   58.000;   11.000
247.809; -111.425; -887.000; -691.000
247.951;  -14.100;  -75.000;  138.000
248.094;   22.025;  432.000;  308.000
248.236; -154.325;-1262.000;-1238.000
248.378;    2.525; -356.000;  -81.000
248.521;  -29.450; -334.000; -337.000
248.663;  -42.625; -236.000; -267.000
248.806;  -10.925; -300.000; -266.000
248.948;  -96.450; -886.000; -763.000
249.090;  -60.425; -428.000; -398.000
249.233;  -50.850; -344.000; -381.000
249.375;  -64.350; -474.000; -451.000
249.518;  -17.325;  -83.000; -133.000
249.660;   -7.125; -103.000;    3.000
249.802; -162.025;-1303.000;-1189.000
249.945;  -73.150; -612.000; -540.000
250.087; -118.075; -834.000; -768.000
250.229;  -43.375; -362.000; -480.000
250.371;  -83.875; -494.000; -439.000
250.514;  -40.700; -310.000; -244.000
250.656;  -51.450;   69.000;  102.000
250.798; -122.725; -849.000; -800.000
250.940;  -63.100; -322.000; -322.000
251.083;  -29.450; -335.000; -111.000
251.225;   55.025;  338.000;  310.000
251.367;  -42.450; -274.000; -373.000
251.509;  -37.275; -265.000; -210.000
251.651;  -90.875; -731.000; -671.000
251.794;   47.750;  538.000;  632.000
251.936;  -93.750; -821.000; -747.000
252.078;  -80.850; -540.000; -461.000
252.220;  -67.750; -645.000; -477.000
252.362;   83.925;  344.000;  462.000
252.504;  -80.650; -677.000; -584.000
252.646; -100.100; -875.000; -722.000
252.788;   -4.575;   14.000; -128.000
252.931;  -25.675; -257.000; -253.000
253.073;  -34.275; -376.000; -317.000
253.215;   -5.150;  141.000;  122.000
253.357;  -10.200;   82.000; -153.000
253.499;  -50.725; -374.000; -234.000
253.641;  -91.325; -749.000; -594.000
253.783;  -88.475; -609.000; -527.000
253.925;  -82.500; -586.000; -591.000
254.067; -109.000; -744.000; -667.000
254.209;  -29.400; -391.000; -259.000
254.351; -143.800; -865.000; -883.000
254.493;  -69.350; -441.000; -417.000
254.635; -123.875; -936.000; -818.000
254.777;  -85.150; -752.000; -687.000
254.918;  -67.550; -512.000; -430.000
255.060;  -50.275; -551.000; -395.000
255.202;  -51.025; -473.000; -261.000
255.344;  -73.350; -658.000; -455.000
255.486;  -83.625; -471.000; -406.000
255.628; -109.650; -780.000; -781.000
255.770;  -90.800; -676.000; -536.000
255.912;  -69.700; -559.000; -468.000
256.053;  -86.225; -730.000; -508.000
256.195;  148.825; 1008.000;  903.000
256.337; -102.275; -861.000; -595.000
256.479;   59.725;  532.000;  416.000
256.621;  -54.600; -394.000; -212.000
256.762;  -88.725; -789.000; -742.000
256.904;   50.975;  485.000;  487.000
257.046;  -44.425; -381.000; -271.000
257.188;  -49.525; -351.000; -264.000
257.329;  -82.275; -525.000; -464.000
257.471; -118.100; -939.000; -807.000
257.613;  -69.900; -584.000; -498.000
257.755; -138.975;-1073.000; -982.000
257.896;   33.350;  286.000;  392.000
258.038;  -78.500; -403.000; -352.000
258.180;  -42.650; -354.000; -279.000
258.321;  -91.775; -581.000; -457.000
258.463;  -12.150;  -71.000;  133.000
258.605;  -89.350; -562.000; -570.000
258.746;  -97.975; -886.000; -772.000
258.888; -142.900;-1026.000;-1020.000
259.029;   18.175;  121.000;   -8.000
259.171;  -97.525; -614.000; -550.000
259.313;   -6.275;  -49.000;  -47.000
259.454;  -67.825; -536.000; -414.000
259.596;  -52.750; -483.000; -390.000
259.737;  -84.275; -590.000; -474.000
259.879;   42.150;  217.000;  311.000
260.020;   85.650;  901.000;  636.000
260.162;  -27.925; -146.000; -253.000
260.303; -112.950; -768.000; -687.000
260.445;  -76.600; -609.000; -613.000
260.586;   22.525;  392.000;  157.000
260.728;  -45.025; -360.000; -248.000
260.869;  -98.050; -350.000; -343.000
261.011;   74.600;  706.000;  537.000
261.152;  -62.600; -479.000; -319.000
261.293;  -78.575; -576.000; -595.000
261.435;  -39.625; -219.000; -184.000
261.576;  -35.100; -455.000; -325.000
261.718;   55.700;  420.000;  470.000
261.859; -106.800; -940.000; -949.000
262.000; -130.300; -951.000;-1016.000
262.142;  -20.825;  -52.000;  -60.000
262.283; -113.050; -808.000; -691.000
262.424;  -82.825; -666.000; -625.000
262.566; -151.000;-1161.000; -983.000
262.707; -120.575; -840.000; -830.000
262.848; -115.700; -769.000; -726.000
262.990;  -48.375; -362.000; -345.000
263.131;   69.850;  650.000;  681.000
263.272;  -13.950;  -61.000;  -41.000
263.413;  -96.200; -589.000; -561.000
263.555;  -73.550; -669.000; -143.000
263.696;  -88.250; -550.000; -641.000
263.837;  -50.125; -449.000; -551.000
263.978;   -5.500;   -5.000;  -77.000
264.119;  -44.375; -283.000; -264.000
264.261; -120.425; -847.000; -630.000
264.402;   -0.425;   33.000;   40.000
264.543;  -79.875; -509.000; -524.000
264.684;  -17.850;   61.000;  -50.000
264.825;  -80.125; -816.000; -538.000
264.966;    2.525;  -84.000;  -67.000
265.107; -113.200; -646.000; -670.000
265.248; -123.325; -825.000; -812.000
265.390;  -22.800;  152.000;   -9.000
265.531;  -23.775; -238.000; -107.000
265.672;  -86.925; -557.000; -630.000
265.813;   75.425;  563.000;  439.000
265.954; -150.275; -959.000; -940.000
266.095;  -15.925; -372.000; -322.000
266.236;  -93.125; -686.000; -548.000
266.377;  -50.350; -243.000; -297.000
266.518;  -57.675; -619.000; -547.000
266.659;   32.350;  170.000;  268.000
266.800;  -12.700;   83.000;   85.000
266.941;  -77.775; -487.000; -478.000
267.082;    0.700;  354.000;   99.000
267.223;  -51.375; -344.000; -273.000
267.364; -109.350; -892.000; -686.000
267.504;  -26.375;    3.000;  135.000
267.645;   -0.550;  160.000;   67.000
267.786;  -39.525; -147.000;  -86.000
267.927;  -58.000; -473.000; -379.000
268.068;  -26.700; -186.000;  -61.000
268.209;  -39.900; -175.000; -413.000
268.350;  -45.950; -388.000; -532.000
268.490;  -85.325; -648.000; -521.000
268.631;   29.875;  127.000;  225.000
268.772; -112.200; -874.000; -647.000
268.913;  -41.425; -328.000; -476.000
269.054;   -4.400; -117.000;   12.000
269.194;  -59.800; -418.000; -402.000
269.335; -148.200;-1137.000;-1074.000
269.476;  -11.875;   33.000;  -35.000
269.617;  -60.650; -347.000; -392.000
269.757;  -82.825; -713.000; -646.000
269.898; -104.600; -856.000; -613.000
270.039;  -64.700; -415.000; -405.000
270.180; -148.850; -952.000; -816.000
270.320;  -21.375; -190.000; -250.000
270.461;  -48.625; -277.000; -249.000
270.602;   -7.375; -186.000; -156.000
270.742; -124.025; -868.000; -943.000
270.883;  -68.225; -442.000; -390.000
271.023;  -57.675; -358.000; -357.000
271.164;  -82.550; -607.000; -528.000
271.305; -101.825; -666.000; -654.000
271.445;  -82.300; -722.000; -683.000
271.586;  -64.525; -462.000; -283.000
271.726;  -43.075; -397.000; -322.000
271.867;  -62.200; -594.000; -534.000
272.008;  190.650; -473.000; -285.000
272.148;  132.375;  462.000;  468.000
272.289;   14.800; -113.000; -181.000
272.429;   21.175;   19.000;  185.000
272.570;  -73.575; -633.000; -737.000
272.710;  -98.850; -825.000; -775.000
272.851;  -35.225;  113.000; -130.000
272.991; -154.875;-1173.000;-1077.000
273.131;  -66.250; -419.000; -459.000
273.272;  -90.975; -683.000; -723.000
273.412;   17.875; -143.000;  -31.000
273.553;  -51.725; -488.000; -507.000
273.693;  128.375;  913.000;  858.000
273.834;  -85.500; -894.000; -692.000
273.974;  -83.600; -664.000; -615.000
274.114;  -96.050; -772.000; -560.000
274.255;   77.825;  414.000;  373.000
274.395;   -3.200; -180.000; -125.000
274.535;   32.925;  199.000;  350.000
274.676;   10.225;  225.000;   94.000
274.816;    6.000;  110.000;   34.000
274.956;  -84.900; -624.000; -690.000
275.097;  -49.625;-1014.000; -922.000
275.237; -107.300; -913.000; -803.000
275.377;  -89.700; -778.000; -689.000
275.517; -137.375; -878.000; -937.000
275.658;  -65.200; -590.000; -555.000
275.798;  -78.500; -606.000; -413.000
275.938;   14.900;  215.000;  323.000
276.078;  -95.700; -626.000; -395.000
276.218;   -2.950;   99.000;  104.000
276.359; -130.400;-1026.000;-1024.000
276.499;  -65.800; -605.000; -446.000
276.639;  -37.475; -305.000; -151.000
276.779;  -46.850; -475.000; -357.000
276.919;  -86.375; -783.000; -624.000
277.059;  -32.175; -261.000; -212.000
277.199;  -46.075; -357.000; -259.000
277.340;   56.275;  287.000;  175.000
277.480; -107.900; -840.000; -693.000
277.620;   16.575;  192.000;   16.000
277.760; -199.950;-1533.000;-1294.000
277.900;   17.350;  113.000;   33.000
278.040;   20.775;  137.000;  159.000
278.180;   38.450;  270.000;  170.000
278.320;   -4.350;   21.000;   56.000
278.460;  -72.300; -443.000; -469.000
278.600;  -84.400; -708.000; -598.000
278.740;   38.700;  448.000;  224.000
278.880;  -62.700; -768.000; -791.000
279.020;   -9.275; -194.000; -144.000
279.160;  -89.100; -672.000; -595.000
279.300; -115.500; -926.000; -873.000
279.440;  -87.850; -709.000; -622.000
279.579;  -21.100;-1014.000; -929.000
279.719;  -54.625; -410.000; -394.000
279.859;   70.050;   -4.000;   41.000
279.999;   13.575; -208.000;  101.000
280.139;   -6.800; -435.000; -387.000
280.279;  -79.075; -708.000; -745.000
280.419;  -14.550; -229.000; -147.000
280.559;  -35.275; -259.000; -180.000
280.698;  -86.550; -790.000; -639.000
280.838;  -82.125; -778.000; -800.000
280.978; -100.150; -846.000; -790.000
281.118; -114.000; -811.000; -704.000
281.257;   -1.600;   24.000;    6.000
281.397; -104.550;-1094.000; -960.000
281.537;  -87.425; -599.000; -712.000
281.677;  -23.700; -150.000; -101.000
281.816;  -82.350; -700.000; -630.000
281.956;  -22.950; -193.000; -257.000
282.096;  -73.775; -539.000; -396.000
282.235; -108.450; -672.000; -638.000
282.375;  -26.500; -243.000;  -98.000
282.515; -112.075; -715.000; -707.000
282.654;   17.750;   29.000;  106.000
282.794;   28.425;  388.000;  244.000
282.934;  -48.800; -530.000; -491.000
283.073; -134.375;-1030.000; -857.000
283.213;  -71.575; -460.000; -467.000
283.353;  -32.925; -408.000; -349.000
283.492;  -19.175; -264.000; -296.000
283.632;  -39.975; -254.000; -168.000
283.771;  -94.875; -859.000; -730.000
283.911;  -51.375; -369.000; -260.000
284.050; -119.525; -794.000; -748.000
284.190; -150.300;-1229.000;-1096.000
284.329; -141.325;-1055.000; -964.000
284.469;  -69.100; -516.000; -591.000
284.608;  -57.225; -559.000; -598.000
284.748;  -78.750; -614.000; -570.000
284.887;    1.400;  -87.000;  -20.000
285.027; -117.075; -844.000; -892.000
285.166;  -35.725; -192.000; -249.000
285.306;    1.150; -116.000;  -33.000
285.445;  -55.850; -229.000; -343.000
285.584;  -99.600; -630.000; -494.000
285.724;  -54.150; -282.000; -322.000
285.863; -120.675; -857.000; -507.000
286.002;  -51.875; -366.000; -276.000
286.142; -106.825; -715.000; -622.000
286.281;  -72.300; -525.000; -493.000
286.420;  -85.925; -554.000; -417.000
286.560;  106.750;  653.000;  623.000
286.699; -130.450; -958.000; -912.000
286.838;  -86.350; -590.000; -591.000
286.978; -100.700; -533.000; -537.000
287.117; -131.950;-1085.000; -950.000
287.256;  -32.325; -228.000; -211.000
287.395;  -52.200; -197.000; -378.000
287.535;  -46.475; -370.000; -298.000
287.674;  -70.875; -509.000; -484.000
287.813;   51.225;  661.000;  533.000
287.952; -126.150;-1010.000; -871.000
288.091; -144.950;-1049.000; -915.000
288.231;   19.775;   13.000;   15.000
288.370; -163.750;-1217.000;-1200.000
288.509;  -87.275; -728.000; -645.000
288.648;  -90.875; -770.000; -548.000
288.787;  -36.600; -243.000;  -87.000
288.926;  -59.525; -454.000; -475.000
289.065;  130.275;  859.000;  672.000
289.204;  -54.325; -377.000; -217.000
289.344;  -97.575; -791.000; -690.000
289.483;   27.250;  416.000;  304.000
289.622;  -35.825; -291.000; -149.000
289.761;  -22.000; -309.000; -166.000
289.900; -100.525; -785.000; -626.000
290.039;  -31.700;  -12.000;  -95.000
290.178;  -32.300; -274.000; -180.000
290.317;  -81.525; -618.000; -479.000
290.456;  -54.250; -463.000; -451.000
290.595; -122.575; -961.000; -833.000
290.734; -136.050; -904.000; -891.000
290.873;  -78.425; -456.000; -420.000
291.011; -107.225; -833.000; -843.000
291.150;  -99.775; -770.000; -682.000
291.289;  -27.400; -343.000; -110.000
291.428;  -97.000; -599.000; -480.000
291.567;  -58.125; -370.000; -442.000
291.706;  -11.200;  109.000;  154.000
291.845;  -87.650; -597.000; -505.000
291.984; -162.300;-1234.000;-1061.000
292.122;   60.600;  602.000;  582.000
292.261;   34.675;  620.000;  463.000
292.400;   23.000; -144.000;  211.000
292.539; -127.275; -959.000; -813.000
292.678;  -39.800; -325.000; -300.000
292.816; -146.625;-1136.000; -965.000
292.955;  -82.525; -844.000; -684.000
293.094;  -24.425; -173.000; -337.000
293.233;  -58.700; -556.000; -400.000
293.371;  -30.250; -225.000;  -84.000
293.510;  -96.150; -866.000; -780.000
293.649; -129.825; -959.000; -924.000
293.787;  -52.775;-1083.000;-1012.000
293.926;  -13.275; -113.000;  -32.000
294.065;  -51.400; -379.000; -290.000
294.203;   51.475;  298.000;  406.000
294.342;   20.175;   74.000;  156.000
294.481; 5185.625;51180.000; -836.000
294.619;  -34.050; -425.000; -582.000
294.758; -130.700;-1230.000;-1137.000
294.896;   68.250; -125.000;    5.000
295.035; -126.275;-1040.000;-1006.000
295.174; -117.400;-1082.000; -954.000
295.312;  -52.325; -323.000; -203.000
295.451;   -5.050; -307.000; -428.000
295.589;  -44.725; -389.000; -518.000
295.728;   16.625; -292.000; -165.000
295.866;   11.375;  -36.000;  -51.000
296.005;  -53.200; -584.000; -341.000
296.143;  -86.325; -558.000; -596.000
296.282; -106.225; -957.000; -881.000
296.420;  -91.075; -657.000; -557.000
296.559;  -84.375; -892.000; -633.000
296.697;   37.475; -847.000; -665.000
296.835;   83.575;-1141.000;-1002.000
296.974;   48.425;  -23.000;   39.000
297.112;   21.975; -443.000; -504.000
297.251;  -69.350; -815.000; -755.000
297.389;  105.550; -576.000; -438.000
297.527;   43.875; -145.000;  -83.000
297.666;  -48.525; -486.000; -438.000
297.804;  -57.875; -404.000; -264.000
297.942;  -15.025; -136.000; -161.000
298.081;   -5.875; -183.000;   63.000
298.219;   69.450;  -17.000;  -19.000
298.357;   62.775; -144.000;  -71.000
298.495;   37.325; -810.000; -812.000
298.634;   85.675;  245.000;  219.000
298.772;   39.800; -220.000; -338.000
298.910;  -33.675; -309.000; -182.000
299.048;  -11.075; -130.000; -153.000
299.187;  -29.600; -350.000; -250.000
299.325;   16.200;   52.000;  122.000
299.463;   54.075; -389.000; -299.000
299.601;  115.600; -327.000; -271.000
299.739; -100.200; -908.000; -883.000
299.877;  -79.650; -791.000; -703.000
300.016;  -33.100;-1095.000; -935.000
300.154;  171.400;  -19.000; -161.000
300.292;   49.225; -428.000; -348.000
300.430;   32.875; -408.000; -291.000
300.568;  -94.050; -940.000; -874.000
300.706;  -52.175; -366.000; -469.000
300.844;  -65.725;-1108.000; -979.000
300.982;  105.000;  246.000;  282.000
301.120;  -98.000; -965.000; -866.000
301.258;  -63.675; -812.000; -705.000
301.396;   31.300;  104.000;  -41.000
301.534;   75.850; -218.000; -293.000
301.672;    4.475; -664.000; -521.000
301.810;   47.375; -613.000; -545.000
301.948;  115.450;   53.000;  149.000
302.086;  703.950; -250.000;  -32.000
302.224; 1004.000; -610.000; -585.000
302.362;   45.075; -558.000; -622.000
302.500;    1.100; -923.000; -893.000
302.638;  107.200;  128.000;  245.000
302.776;    0.100; -352.000; -408.000
302.913;   53.225;  447.000;  236.000
303.051;   -4.300;  -86.000;  -23.000
303.189;   60.650;   90.000;  118.000
303.327;  -31.425; -341.000; -256.000
303.465;  -82.525; -832.000; -588.000
303.603;  -94.850; -805.000; -604.000
303.740;  112.450;  417.000;  241.000
303.878;   21.300; -800.000; -759.000
304.016;  -92.550; -915.000; -790.000
304.154; -117.075;-1123.000;-1152.000
304.291;  -28.350; -505.000; -554.000
304.429;    7.100;  102.000;   74.000
304.567; -130.100; -908.000; -893.000
304.705;  -59.150; -408.000; -515.000
304.842;  117.275; -616.000; -540.000
304.980;   47.250;  215.000;   35.000
305.118;   58.125; -367.000; -365.000
305.255;  -79.075; -945.000; -927.000
305.393;   50.575;  178.000;  239.000
305.531;  -86.800;-1173.000; -956.000
305.668;  -61.800; -663.000; -582.000
305.806;  110.675; -358.000; -439.000
305.943;  128.175; -629.000; -637.000
306.081;   69.450; -378.000; -267.000
306.219;  -96.250; -863.000; -748.000
306.356;    6.800;  158.000;   27.000
306.494;  121.075;  981.000;  761.000
306.631;  -14.800;  -11.000;  -55.000
306.769;   18.175; -613.000; -485.000
306.906;  -19.525; -284.000; -258.000
307.044;  -62.200; -473.000; -488.000
307.181;  -57.925; -410.000; -332.000
307.319;   12.750;  112.000;   87.000
307.456; -154.150;-1191.000;-1153.000
307.594; -104.525; -980.000; -727.000
307.731;   -2.150; -371.000; -164.000
307.868;  -15.575;  -15.000;   20.000
308.006; -136.500; -961.000; -847.000
308.143;  -68.625; -618.000; -330.000
308.281;  199.800;  -37.000; -254.000
308.418;    1.625; -748.000; -640.000
308.555;  -63.675; -400.000; -250.000
308.693;  -65.875; -577.000; -573.000
308.830; -120.500; -712.000; -657.000
308.967;   -7.875; -215.000;  -95.000
309.105;  -47.400; -507.000; -396.000
309.242;   54.175; -468.000; -367.000
309.379;  385.325; -577.000; -655.000
309.517;  -52.875; -936.000; -948.000
309.654; -112.200; -910.000; -734.000
309.791;  -69.275; -662.000; -580.000
309.928; -115.900; -977.000; -914.000
310.065;  186.200;  819.000;  697.000
310.203;    7.450; -825.000; -850.000
310.340;  -11.775; -465.000; -321.000
310.477;  -73.550; -412.000; -516.000
310.614;  -62.300; -383.000; -473.000
310.751;  -79.400; -427.000; -518.000
310.889;  -19.575;    1.000;   11.000
311.026; -148.525;-1161.000; -939.000
311.163;  -45.275; -386.000; -380.000
311.300;  -71.675; -512.000; -479.000
311.437;  -68.825; -658.000; -619.000
311.574; -143.250;-1226.000; -985.000
311.711;  -59.975; -595.000; -433.000
311.848;  -61.475; -380.000; -388.000
311.985;    0.400;  270.000;   93.000
312.122; -118.775; -932.000; -762.000
312.259; -117.225; -941.000; -994.000
312.396;  -79.900; -508.000; -551.000
312.533;  -93.275; -812.000; -790.000
312.670; -119.775;-1070.000; -898.000
312.807;  -34.450; -352.000; -367.000
312.944;  -69.525; -513.000; -611.000
313.081;  -15.100; -150.000; -415.000
313.218; -111.875;-1111.000; -867.000
313.355;   13.775; -531.000; -449.000
313.492;    0.100; -455.000; -292.000
313.629;  134.750;  815.000;  735.000
313.766; -161.425;-1176.000;-1008.000
313.902;   -9.625; -186.000;   21.000
314.039;  -53.875; -372.000; -289.000
314.176;   34.725;  286.000;  192.000
314.313;  -87.750; -569.000; -473.000
314.450;  -79.450; -788.000; -684.000
314.587;  -55.025; -468.000; -480.000
314.723;   -2.850;  -78.000;  130.000
314.860;   33.650;  318.000;  332.000
314.997;   22.450;  223.000;  142.000
315.134;  -38.700; -385.000; -368.000
315.270;  -25.250; -480.000; -496.000
315.407; -121.800;-1094.000; -967.000
315.544;  -40.150; -657.000; -538.000
315.681;  -54.800; -681.000; -565.000
315.817;   27.500; -133.000; -176.000
315.954;   13.450; -613.000; -392.000
316.091; -120.925;-1045.000;-1023.000
316.227;   -8.325;  -71.000; -179.000
316.364;    2.950;   23.000;    6.000
316.500;  -46.650; -113.000; -300.000
316.637;  -43.925; -181.000; -302.000
316.774;  -96.200; -625.000; -358.000
316.910; -103.325; -598.000; -629.000
317.047;  -68.625; -487.000; -351.000
317.183;  -41.150; -435.000; -566.000
317.320;  -11.225; -367.000; -321.000
317.456;  -75.225; -733.000; -805.000
317.593;  -89.200; -598.000; -641.000
317.729;   13.650;  168.000;  -67.000
317.866; -194.350;-1434.000;-1285.000
318.002;  -85.625; -708.000; -948.000
318.139; -106.050; -883.000; -867.000
318.275; -108.750;-1003.000; -738.000
318.412;  -71.750; -517.000; -336.000
318.548;  -15.800; -751.000; -720.000
318.685;  -95.500; -985.000; -888.000
318.821;  -91.650; -762.000; -735.000
318.957;  -18.000;   34.000;  -23.000
319.094;   39.175;  297.000;  154.000
319.230;  -51.425; -756.000; -742.000
319.367;  165.000; -471.000; -520.000
319.503;   58.775; -538.000; -436.000
319.639;  -84.450; -877.000; -793.000
319.775;  -65.750; -750.000; -685.000
319.912;  -45.725; -424.000; -519.000
320.048;  -95.250;-1184.000;-1184.000
320.184;   71.400;   59.000;   70.000
320.321;  -59.400; -497.000; -467.000
320.457;   50.000;  475.000;  662.000
320.593;  -66.250; -375.000; -382.000
320.729;  -96.875; -732.000; -734.000
320.866;  -69.525; -577.000; -635.000
321.002;  -75.425; -759.000; -809.000
321.138;   -9.950; -135.000; -211.000
321.274;   94.050; -148.000; -115.000
321.410;  -14.525; -585.000; -353.000
321.546;  -30.750;-1011.000; -911.000
321.683;   46.000;  400.000;  185.000
321.819;   -4.850;  -48.000; -117.000
321.955;  -91.100; -743.000; -722.000
322.091;  -44.975; -585.000; -540.000
322.227;  -13.225; -382.000; -202.000
322.363;  -12.450; -320.000; -215.000
322.499;  -46.350; -343.000; -331.000
322.635;  169.325;  636.000;  443.000
322.771;   21.200; -139.000;   12.000
322.907;  103.000;  129.000;  327.000
323.043;  -25.250; -115.000; -206.000
323.179;  -30.100; -394.000; -363.000
323.315;   25.425; -401.000; -371.000
323.451;   87.450; -328.000; -236.000
323.587;   64.350;  -60.000;  -77.000
323.723;   30.125; -682.000; -601.000
323.859;  -11.775; -258.000;  -76.000
323.995;  -23.925; -467.000; -409.000
324.131; -114.425; -967.000; -892.000
324.267;  -42.025; -254.000; -276.000
324.402; -132.950; -960.000; -983.000
324.538;  -11.200; -279.000; -104.000
324.674;   24.450;  164.000;   77.000
324.810;  121.475;  226.000;  308.000
324.946;   17.600; -810.000; -658.000
325.082;  -63.275; -568.000; -475.000
325.217;   -6.025;  -62.000;   16.000
325.353;  -97.950; -764.000; -659.000
325.489;  -85.725; -540.000; -506.000
325.625;  -71.150; -579.000; -525.000
325.760;   64.450;  517.000;  376.000
325.896;  -31.550; -515.000; -702.000
326.032;  -56.375; -403.000; -352.000
326.168;  -61.200; -462.000; -369.000
326.303;  -76.075; -352.000; -461.000
326.439;  -27.000; -336.000; -276.000
326.575;   -8.950; -190.000;  -29.000
326.710;  -16.900; -156.000;  -30.000
326.846;   -3.375;  146.000;  103.000
326.982;  -96.975; -530.000; -548.000
327.117;  -76.300; -481.000; -442.000
327.253;  -81.950; -745.000; -742.000
327.388; -119.625;-1137.000;-1153.000
327.524;  -49.375; -811.000; -578.000
327.659;  -24.525;  -58.000;  -22.000
327.795;  -23.775;   69.000;   45.000
327.931;  -74.750; -723.000; -499.000
328.066;  -31.575; -417.000; -276.000
328.202;   -9.200;   12.000; -129.000
328.337;   99.050;  957.000;  713.000
328.473;   31.800;  -12.000;  -74.000
328.608;  -35.525; -256.000; -267.000
328.743;  -91.800; -799.000; -664.000
328.879;   15.925;  214.000;  114.000
329.014;  -43.175; -102.000; -122.000
329.150;  -77.650; -358.000; -483.000
329.285;  -81.175; -465.000; -466.000
329.421;  -54.425; -548.000; -246.000
329.556;  -21.200;  -36.000;   85.000
329.691;  -91.525; -633.000; -615.000
329.827;  -84.525; -626.000; -480.000
329.962;  -40.975;  131.000; -301.000
330.097;  -90.050; -673.000; -585.000
330.233;  -56.375; -410.000; -223.000
330.368; -127.600; -839.000; -628.000
330.503;  -28.725;    3.000;   98.000
330.638;    4.225;  -93.000; -125.000
330.774;  -57.950; -609.000; -530.000
330.909;  -46.925; -434.000; -244.000
331.044;  -84.800; -714.000; -708.000
331.179; -174.125;-1217.000;-1109.000
331.315;    9.100;   77.000;   20.000
331.450;   10.975;  157.000;  285.000
331.585;  -78.875; -805.000; -706.000
331.720;  -82.250; -510.000; -460.000
331.855;   -6.225;  -35.000; -102.000
331.990;  255.850;   62.000;  138.000
332.126;  128.050; -110.000;   71.000
332.261;  -15.450; -379.000; -265.000
332.396;   -6.250; -135.000; -242.000
332.531; -112.350;-1074.000;-1031.000
332.666;   34.000; -519.000; -363.000
332.801; -104.300; -726.000; -807.000
332.936;  -20.975; -192.000; -122.000
333.071; -149.125; -870.000; -817.000
333.206;   21.250;  307.000;  379.000
333.341;   29.325;  344.000;  418.000
333.476;  -85.075; -627.000; -623.000
333.611;  -46.600; -251.000; -173.000
333.746;  -43.950; -381.000; -464.000
333.881; -112.900; -973.000; -935.000
334.016; -124.625; -936.000; -917.000
334.151; -121.875; -746.000; -702.000
334.286;   21.225;  152.000;  186.000
334.421;  -24.025; -125.000; -178.000
334.556;  -82.300; -611.000; -567.000
334.690;  -93.250; -631.000; -577.000
334.825;   51.850;  381.000;   83.000
334.960;  -65.675; -285.000; -413.000
335.095;    0.700;  135.000;  -91.000
335.230;  -91.775; -722.000; -738.000
335.365; -129.150;-1084.000; -990.000
335.499; -142.950;-1108.000;-1037.000
335.634;   23.700;    9.000;  534.000
335.769;  -95.000; -755.000; -720.000
335.904;  -61.425; -603.000; -561.000
336.038;  -52.025; -735.000; -657.000
336.173; -108.500;-1206.000;-1194.000
336.308;    1.650; -116.000; -189.000
336.443;   17.050; -544.000; -634.000
336.577;  -70.200; -936.000; -787.000
336.712;   70.475;   -4.000;  -12.000
336.847;  -30.475; -724.000; -607.000
336.981;   75.925; -272.000; -208.000
337.116;  281.825;  615.000;  501.000
337.250;  165.225; -434.000; -421.000
337.385;  236.150; -297.000; -208.000
337.520;   76.175; -632.000; -603.000
337.654;  -37.575; -215.000; -126.000
337.789; -115.225; -989.000; -933.000
337.923;  -34.825; -104.000; -205.000
338.058;  -80.850; -673.000; -738.000
338.192;  -35.825; -611.000; -488.000
338.327;    1.475;  -18.000; -155.000
338.461;  -57.400; -299.000; -469.000
338.596;  -91.025; -780.000; -638.000
338.730;  -98.250; -767.000; -803.000
338.865;   78.425;  -46.000; -140.000
338.999;  -41.775; -846.000; -702.000
339.134;  -29.100; -634.000; -536.000
339.268;   -1.325; -741.000; -603.000
339.403;  369.625; -740.000; -775.000
339.537;  118.900; -894.000; -820.000
339.671; -105.475; -829.000; -813.000
339.806;  -58.475; -556.000; -512.000
339.940;   12.725; -261.000; -235.000
340.074; -106.250; -685.000; -510.000
340.209;  -40.000; -351.000; -230.000
340.343;  -89.525; -517.000; -573.000
340.477;  143.950;  998.000; 1036.000
340.612;  -39.100;-1033.000; -900.000
340.746;  130.475; -199.000; -243.000
340.880;  -74.350; -924.000; -785.000
341.014;   -4.875;  -45.000; -154.000
341.149; -115.600; -756.000; -718.000
341.283; -110.500; -839.000; -754.000
341.417;  -93.750;-1124.000; -938.000
341.551;  151.200; -768.000; -708.000
341.685;  -43.725; -633.000; -611.000
341.820;  -71.825; -562.000; -493.000
341.954;  -49.600; -218.000; -349.000
342.088; -143.000;-1102.000;-1019.000
342.222;   40.500;  565.000;  618.000
342.356;  -53.900; -395.000; -335.000
342.490;  -88.950; -880.000; -841.000
342.624;  -46.350; -339.000; -242.000
342.758;   -0.150; -364.000; -312.000
342.892;  -49.375; -710.000; -585.000
343.026;  -32.225;  -58.000; -116.000
343.160;  -58.725; -426.000; -376.000
343.294;  -85.050; -474.000; -337.000
343.428;  -10.600; -488.000; -448.000
343.562;   -8.350; -172.000;  -23.000
343.696;  -13.650; -385.000; -314.000
343.830;  -16.400; -362.000; -356.000
343.964;   25.725; -231.000; -168.000
344.098;  971.625;  199.000;   70.000
344.232;  812.750; -266.000; -127.000
344.366;  102.975; -567.000; -453.000
344.500;   68.700; -665.000; -744.000
344.634;   32.925; -324.000; -164.000
344.768;  -12.275; -531.000; -341.000
344.902;   15.550;  278.000;  256.000
345.035;  -82.825; -556.000; -496.000
345.169; -120.225; -933.000; -656.000
345.303;  -27.700; -308.000; -482.000
345.437;  -64.650; -826.000; -717.000
345.571;  -63.550; -675.000; -594.000
345.704;  -74.050; -309.000; -532.000
345.838;  -15.875; -331.000; -284.000
345.972;  -43.775; -543.000; -495.000
346.106;  161.175; -179.000; -190.000
346.239;  424.525; -312.000; -243.000
346.373;   24.475; -343.000; -302.000
346.507; -132.575; -950.000; -962.000
346.640;  149.750;  -30.000;   13.000
346.774;  -37.100; -650.000; -797.000
346.908;  -16.925; -138.000;  -11.000
347.041; -103.625; -646.000; -593.000
347.175;    0.950;  259.000;   27.000
347.309;  -60.750; -698.000; -628.000
347.442;  -85.625; -883.000; -732.000
347.576;  300.725;  670.000;  668.000
347.709;  214.400; -123.000;  -52.000
347.843;  -89.450; -933.000; -825.000
347.976;   32.800;  235.000;  294.000
348.110; -174.050;-1268.000;-1186.000
348.243;  -95.650; -679.000; -772.000
348.377;   -0.875;  -26.000;   60.000
348.510;   43.975;  403.000;  540.000
348.644;  -36.400;  -37.000; -159.000
348.777;  -10.275;  180.000;  191.000
348.911;  -43.475; -142.000; -112.000
349.044;  177.325;  471.000;  448.000
349.178;  175.350;-1069.000;-1006.000
349.311;  125.300;  141.000;  255.000
349.444;   10.900; -927.000; -813.000
349.578;   -9.225; -347.000; -200.000
349.711;  -95.025; -959.000; -862.000
349.845;   -2.600; -661.000; -591.000
349.978; -142.825;-1224.000;-1137.000
350.111;  -82.300; -546.000; -612.000
350.244;  -76.425; -596.000; -700.000
350.378;   15.100; -392.000; -393.000
350.511;  -54.875; -393.000; -426.000
350.644;  -96.850; -808.000; -806.000
350.778;    8.325;  168.000;  104.000
350.911;    7.675;  134.000;  140.000
351.044;  -85.150; -685.000; -615.000
351.177;  -27.750; -321.000; -281.000
351.310;  -17.375;    3.000; -131.000
351.444;  -66.775; -888.000; -788.000
351.577;  104.250;  140.000;   90.000
351.710;  102.650;  593.000;  417.000
351.843;  -21.350; -165.000;  -77.000
351.976;    0.175;  149.000;  -79.000
352.109;  -95.825; -621.000; -612.000
352.242;  -40.075; -464.000; -419.000
352.376;  -50.025; -580.000; -636.000
352.509;  200.875; -437.000; -356.000
352.642;   17.425; -654.000; -604.000
352.775;   59.000; -141.000;  -98.000
352.908; -119.550; -933.000; -904.000
353.041; -107.325; -814.000; -824.000
353.174;  -60.025; -551.000; -424.000
353.307;  -78.675; -753.000; -764.000
353.440;   60.825;  541.000;  453.000
353.573; -111.075; -957.000;-1008.000
353.706;  -16.675; -384.000; -558.000
353.839;  -19.000; -264.000; -220.000
353.971;  -91.250; -657.000; -512.000
354.104;  -74.425; -896.000; -835.000
354.237;  -34.300; -627.000; -662.000
354.370;  -75.525; -846.000; -879.000
354.503; -172.000;-1231.000;-1308.000
354.636;  -32.425; -529.000; -348.000
354.769; -125.725; -937.000; -860.000
354.902;  -24.825; -230.000; -139.000
355.034;   -5.975; -164.000; -220.000
355.167;  -15.975; -262.000; -162.000
355.300;  -82.300;-1061.000; -880.000
355.433;  989.450;  -71.000;  -14.000
355.565; 1519.300; -402.000; -384.000
355.698;  375.275; -356.000; -296.000
355.831;   11.775; -882.000; -801.000
355.964;   83.700; -285.000; -170.000
356.096;  -73.425; -856.000; -843.000
356.229;   14.775; -523.000; -530.000
356.362;  295.550; -373.000; -266.000
356.494;  575.850; -229.000; -162.000
356.627;  505.400;  269.000;  377.000
356.760;  665.925;  120.000;   53.000
356.892;  965.375; -286.000; -601.000
357.025;  687.750;  403.000;  389.000
357.157;  663.100; -167.000; -179.000
357.290;  658.325; -856.000; -713.000
357.423;  206.675; -667.000; -556.000
357.555;  116.025; -217.000; -228.000
357.688;  135.100; -483.000; -364.000
357.820;  486.575; -870.000; -877.000
357.953; 3918.500; -563.000; -589.000
358.085;  871.450; -632.000; -612.000
358.218; 1254.975;-1131.000; -932.000
358.350;  233.625;  -58.000;  312.000
358.483; -102.425;-1300.000;-1187.000
358.615;    1.425;-1182.000;-1078.000
358.747;  -38.725;-1187.000;-1058.000
358.880;   40.400; -810.000; -744.000
359.012;    3.500; -376.000; -202.000
359.145;  -34.500; -480.000; -511.000
359.277;   75.450; -962.000; -913.000
359.409; 3195.775;  536.000;  231.000
359.542;  865.025; -738.000; -688.000
359.674;   76.075;   46.000;   13.000
359.806;  -65.825; -565.000; -438.000
359.939;  -44.550; -617.000; -516.000
360.071;  -16.925; -583.000; -579.000
360.203;   -7.550; -411.000; -364.000
360.335;   66.025;  164.000;  -16.000
360.468;  206.925; -249.000; -307.000
360.600; 2560.225; -547.000; -454.000
360.732; 2849.800; -546.000; -423.000
360.864;  413.275;-1216.000;-1044.000
360.996;  300.650; -516.000; -554.000
361.129;   55.300; -389.000; -598.000
361.261;   19.725;  110.000; -113.000
361.393;  -13.625; -252.000; -214.000
361.525;   41.600;   94.000;  244.000
361.657;  -39.050; -821.000; -703.000
361.789;   31.775; -139.000; -155.000
361.921;  270.075; -642.000; -593.000
362.053;  277.025;  524.000;  541.000
362.185;   59.300;  288.000;   72.000
362.318;  -70.425; -709.000; -705.000
362.450;  115.525;  294.000;  444.000
362.582;  133.375; -913.000; -870.000
362.714;  -39.000; -353.000; -332.000
362.846;  -88.075; -606.000; -490.000
362.978; -142.500; -941.000; -811.000
363.109;   55.375; -161.000; -260.000
363.241;  482.825; -739.000; -749.000
363.373;  454.400; -649.000; -564.000
363.505;  662.075; -186.000;  -91.000
363.637;  170.175; -787.000; -601.000
363.769; -128.150;-1067.000;-1080.000
363.901;  -59.825; -596.000; -654.000
364.033; -106.950;-1103.000;-1062.000
364.165;    4.800; -283.000; -283.000
364.296;   82.925; -316.000; -177.000
364.428;   74.850;-1344.000;-1220.000
364.560;  -75.425; -679.000; -661.000
364.692;  -51.300; -738.000; -835.000
364.824;  284.175; -588.000; -456.000
364.955;  455.275; -402.000; -564.000
365.087;  897.725;-1097.000; -852.000
365.219;   36.200; -686.000; -816.000
365.351;  -62.300; -526.000; -572.000
365.482;   51.825;  300.000;  240.000
365.614;  -44.225; -402.000; -314.000
365.746;  -98.000; -729.000; -752.000
365.877;  -98.175; -706.000; -672.000
366.009;  255.525;  -35.000;  -62.000
366.141;  -82.150;-1249.000;-1134.000
366.272;  -99.450; -803.000; -719.000
366.404; -115.950;-1005.000; -874.000
366.535;  -23.150; -139.000;  -12.000
366.667; -101.950; -644.000; -649.000
366.799;   18.900;  353.000;  203.000
366.930; -130.625; -862.000; -996.000
367.062;  106.750; -639.000; -613.000
367.193;  158.350; -872.000; -842.000
367.325;  -58.700; -580.000; -684.000
367.456;   54.725; -246.000;   31.000
367.588;  158.925; -371.000; -318.000
367.719;   27.375;  -44.000;  -45.000
367.851;  -16.100; -222.000; -241.000
367.982;  -31.425; -875.000; -732.000
368.113;  109.625; -475.000; -358.000
368.245; -113.175; -960.000; -841.000
368.376;  -17.000; -254.000; -302.000
368.508;  -38.325; -188.000; -263.000
368.639; -119.900;-1166.000;-1034.000
368.770;  -11.100; -670.000; -589.000
368.902;  -48.600; -836.000; -926.000
369.033; -103.450; -906.000; -855.000
369.164;  -48.225; -720.000; -653.000
369.296; -104.325; -452.000; -601.000
369.427;   -7.250; -209.000; -144.000
369.558;  -55.500; -593.000; -377.000
369.689;  -83.350; -721.000; -569.000
369.821; -128.025; -951.000; -845.000
369.952;  -19.800;   42.000; -108.000
370.083;  -47.500; -229.000; -108.000
370.214;  -76.875; -735.000; -650.000
370.345;   -8.875;   65.000;   81.000
370.477;  -90.975; -810.000; -790.000
370.608;  234.675; -328.000; -264.000
370.739;  -31.575;-1233.000;-1292.000
370.870;  -34.500;-1102.000; -923.000
371.001;  104.850; -378.000; -467.000
371.132;  -75.825; -754.000; -735.000
371.263;  -10.875;  -42.000; -148.000
371.394; -116.800; -841.000; -748.000
371.525;   17.725;  345.000;  225.000
371.657;  -84.850; -808.000; -670.000
371.788;   78.425;  103.000;  199.000
371.919;  191.700; -384.000; -304.000
372.050; 3777.825;  -91.000; -156.000
372.181; 1193.675; -188.000; -294.000
372.311;  395.850;   42.000; -127.000
372.442;   40.975; -457.000; -451.000
372.573;  -10.575; -444.000; -340.000
372.704; -128.275;-1008.000; -980.000
372.835;   98.050; -228.000; -289.000
372.966;  -50.150; -646.000; -554.000
373.097;  -58.650; -575.000; -711.000
373.228;  -38.925; -717.000; -542.000
373.359;  144.425; -824.000; -536.000
373.490;  993.650; -881.000; -727.000
373.620; 1306.300;-1001.000; -803.000
373.751; 1872.025; -332.000; -396.000
373.882;  884.425; -663.000; -733.000
374.013;   67.700; -449.000; -262.000
374.143;  -33.375; -581.000; -659.000
374.274; -102.100; -987.000; -908.000
374.405;  189.850; -388.000; -276.000
374.536;  471.575; -526.000; -387.000
374.666; 1206.625; -759.000; -807.000
374.797;  256.175; -817.000; -868.000
374.928;  925.375; -710.000; -560.000
375.058;  965.350; -535.000; -500.000
375.189;  103.150;  -59.000;  -93.000
375.320;  -90.250; -928.000;-1034.000
375.450;  -38.200; -625.000; -616.000
375.581;  -51.575; -526.000; -436.000
375.712;  -21.975; -574.000; -250.000
375.842;  322.225; -438.000; -415.000
375.973;  244.575; -554.000; -513.000
376.103;  -46.975; -665.000; -648.000
376.234;  -79.675; -531.000; -552.000
376.364;  -28.550; -944.000; -867.000
376.495;  345.375;  925.000;  529.000
376.625;    3.100; -472.000; -485.000
376.756;   80.075; -709.000; -678.000
376.886;  -54.200;-1178.000;-1026.000
377.017;   57.100;-1048.000;-1061.000
377.147;  350.875; -786.000; -782.000
377.278;   64.750;  174.000;  228.000
377.408; -129.700; -801.000; -815.000
377.538;  -94.825; -707.000; -693.000
377.669;  -65.925; -537.000; -613.000
377.799;  -85.500; -645.000; -635.000
377.929;  -48.725; -610.000; -428.000
378.060; -128.975; -781.000; -847.000
378.190;  -75.575; -726.000; -531.000
378.320;  -62.400; -401.000; -406.000
378.451;  -24.875; -131.000;  -22.000
378.581;   -8.025;  -67.000; -110.000
378.711;  148.375; 1035.000;  866.000
378.841;   -2.850; -533.000; -675.000
378.972;  -67.900; -871.000; -751.000
379.102;    9.400; -652.000; -579.000
379.232;  -25.075; -126.000;  -73.000
379.362; -107.850;-1001.000; -885.000
379.492;   12.325; -373.000; -424.000
379.623;  110.575;    0.000;  111.000
379.753;  -86.525;-1107.000; -974.000
379.883;  222.100;   59.000;  156.000
380.013;   15.400;-1081.000;-1017.000
380.143;  -87.050;-1097.000;-1056.000
380.273;  -86.600; -985.000; -861.000
380.403;   -5.750; -344.000; -257.000
380.533;  -26.325; -651.000; -664.000
380.663;   65.700;  173.000;  128.000
380.793;  -85.200;-1027.000;-1074.000
380.923;  -24.350; -103.000;  -34.000
381.053; -106.225; -613.000; -623.000
381.183;  -23.125; -106.000; -248.000
381.313;   44.300; -656.000; -470.000
381.443;   56.550; -692.000; -473.000
381.573;  231.525; -402.000; -409.000
381.703;  320.375;-1249.000;-1095.000
381.833; -108.625;-1454.000;-1336.000
381.963;  119.375; -134.000;  -87.000
382.093; 1494.575; -925.000; -909.000
382.223;  500.350; -713.000; -602.000
382.353;   -7.375; -801.000; -608.000
382.482;  403.350;-1091.000; -964.000
382.612;  828.925; -872.000; -644.000
382.742;  478.075; -695.000; -622.000
382.872;  296.825; -565.000; -551.000
383.002;   79.775;  347.000; -132.000
383.131;  -12.150; -226.000; -160.000
383.261;  -43.050; -706.000; -768.000
383.391;  283.875; -552.000; -377.000
383.521; 3171.850;  451.000;  263.000
383.650;  804.150; -947.000; -904.000
383.780;   -6.775; -783.000; -656.000
383.910;  113.575;  880.000;  802.000
384.039;   41.175; -794.000; -656.000
384.169;  255.550;-1205.000;-1017.000
384.299;  -14.675; -650.000; -662.000
384.428;  -90.450; -764.000; -680.000
384.558;  -46.925; -308.000; -275.000
384.687;  -32.025; -414.000; -334.000
384.817;   11.600;   75.000;   -2.000
384.947;   20.950; -234.000; -141.000
385.076;  285.125;  982.000;  912.000
385.206;   92.550;  369.000;  480.000
385.335;  -21.475; -549.000; -417.000
385.465;  -75.325; -655.000; -663.000
385.594;  136.500;  -53.000;  -44.000
385.724;  470.025; -868.000; -838.000
385.853;  143.000; -296.000; -270.000
385.982; 1431.475; -743.000; -787.000
386.112; 2340.925;-1052.000; -871.000
386.241;  156.600; -307.000; -312.000
386.371;   27.950; -174.000;  -87.000
386.500;    1.250; -825.000; -789.000
386.629;   26.750; -874.000; -817.000
386.759;   61.425;  -43.000;   68.000
386.888;    3.225; -170.000; -250.000
387.017;  -80.875; -648.000; -620.000
387.147;  -78.750; -771.000; -798.000
387.276;    7.775; -410.000; -397.000
387.405;    7.125; -398.000; -342.000
387.535;  -50.200; -452.000; -361.000
387.664;  -61.900; -692.000; -620.000
387.793;   65.125; -198.000; -113.000
387.922;  548.400;  255.000;  200.000
388.052;   36.600; -576.000; -423.000
388.181;   12.875; -342.000; -472.000
388.310;    3.900; -889.000; -710.000
388.439;  -22.550; -749.000; -742.000
388.568;  172.850;  365.000;  244.000
388.697; 1105.975; -756.000; -653.000
388.826;  241.025; -768.000; -666.000
388.956;   58.700; -285.000; -307.000
389.085;  -30.750; -347.000; -287.000
389.214; -101.175; -842.000; -872.000
389.343;  -67.325; -645.000; -413.000
389.472;  400.050;  126.000;  149.000
389.601;  523.375;   91.000;    0.000
389.730;   20.475; -568.000; -687.000
389.859;   65.225;  226.000;   46.000
389.988;  198.975; -423.000; -408.000
390.117;  153.100; -168.000; -146.000
390.246;   -0.550; -331.000; -320.000
390.375;  113.100; -673.000; -626.000
390.504;  -39.875; -703.000; -621.000
390.633; -104.500; -672.000; -726.000
390.761;  -66.050; -732.000; -645.000
390.890;   14.250;   -4.000; -130.000
391.019;  -34.700; -421.000; -441.000
391.148; -123.350; -826.000; -855.000
391.277;  -66.650; -576.000; -493.000
391.406;  -71.475; -821.000; -805.000
391.534;   24.325;  574.000; -301.000
391.663;  -71.825; -583.000; -645.000
391.792;  -81.300; -673.000; -701.000
391.921;   97.075;   -3.000;   15.000
392.050;  187.700; -287.000; -228.000
392.178;  -17.325;-1206.000;-1061.000
392.307;  149.900; -758.000; -712.000
392.436;   81.850; -427.000; -641.000
392.564;   29.650;  166.000;   -6.000
392.693;  -86.475; -860.000; -682.000
392.822;  210.850; -529.000; -534.000
392.950;  123.425; -880.000; -714.000
393.079;  361.875; -188.000; -328.000
393.208;   41.175; -488.000; -511.000
393.336;  -10.675; -170.000; -145.000
393.465;  -44.850; -317.000; -199.000
393.593;   -1.700;   62.000;   79.000
393.722; -148.925;-1121.000; -916.000
393.850;  -48.250; -188.000;  -61.000
393.979; -147.150; -926.000; -805.000
394.107;  -59.700; -517.000; -537.000
394.236;  -22.275; -570.000; -507.000
394.364;  235.225;  383.000;  206.000
394.493;  419.975; -911.000; -767.000
394.621;  -14.575; -955.000; -916.000
394.750;  707.100; -873.000; -923.000
394.878; 2902.525; -247.000; -149.000
395.007; 4129.275; -721.000; -807.000
395.135;  331.175; -790.000; -721.000
395.263;  -86.550;-1038.000;-1040.000
395.392;    1.875;  -25.000; -107.000
395.520; -125.925; -818.000; -679.000
395.648;  -73.900; -865.000; -915.000
395.777;  -18.675; -366.000; -405.000
395.905;  -35.950; -449.000; -564.000
396.033;   23.675;  217.000;  172.000
396.162;  646.700; -399.000; -453.000
396.290;  597.275;  -17.000;   -2.000
396.418;  130.575; -555.000; -514.000
396.546;  -70.750; -571.000; -466.000
396.674;  -93.100; -850.000; -878.000
396.803;   27.000;  -72.000;  -23.000
396.931;  101.325; -179.000; -199.000
397.059;   64.175;-1026.000; -989.000
397.187; -100.425;-1026.000; -975.000
397.315; -137.775; -884.000; -649.000
397.443; -101.050; -592.000; -443.000
397.572;  -92.425; -578.000; -424.000
397.700;   -6.700; -607.000; -614.000
397.828;   10.100;  120.000;  -90.000
397.956;  -50.825; -508.000; -478.000
398.084;  -59.325; -767.000; -626.000
398.212;   51.500;  137.000;  124.000
398.340;   17.450;  -56.000;  159.000
398.468;   40.400; -390.000; -169.000
398.596; -129.050; -993.000; -953.000
398.724; -127.125; -762.000; -767.000
398.852; -162.225;-1024.000; -976.000
398.980;  -70.525; -560.000; -560.000
399.108;  -48.725; -982.000; -735.000
399.236;   29.000;   13.000;    8.000
399.363;    7.450;  222.000;  196.000
399.491;  -74.375; -404.000; -398.000
399.619; -118.225; -829.000; -800.000
399.747; -110.025; -859.000; -771.000
399.875;   77.925;  220.000;  234.000
400.003;  -47.325; -359.000; -284.000
400.130; -108.700; -421.000; -341.000
400.258;  -35.275;  -83.000;   38.000
400.386;  -74.200; -352.000; -168.000
400.514;  -50.125; -526.000; -587.000
400.641;  -82.550; -928.000; -802.000
400.769; -142.350; -979.000; -888.000
400.897; -103.825; -838.000; -793.000
401.025;  -18.650; -166.000; -152.000
401.152;  -21.925;  220.000;   38.000
401.280;  -77.525; -430.000; -429.000
401.408; -115.250; -712.000; -576.000
401.535; -111.025; -735.000; -758.000
401.663; -195.325;-1134.000;-1054.000
401.790;  -90.175; -514.000; -525.000
401.918;   37.100;  436.000;  405.000
402.046;   -2.275;  134.000;  122.000
402.173;  -33.525;  -18.000;    7.000
402.301;  -79.800; -519.000; -397.000
402.428;   29.225;  528.000;  383.000
402.556; -135.675;-1188.000; -913.000
402.683;  -26.750;  -20.000;   -1.000
402.811;  -21.050;  -37.000; -206.000
402.938;  -18.125;   20.000;   27.000
403.066;  202.200; -574.000; -558.000
403.193;  360.675;  299.000;  239.000
403.321;  274.875; -396.000; -574.000
403.448;  343.775;   83.000;   27.000
403.575;  152.000;  -90.000;  -46.000
403.703; -104.500; -732.000; -557.000
403.830;  -72.150; -531.000; -496.000
403.957; -142.525;-1117.000;-1023.000
404.085;    5.950;  -61.000; -172.000
404.212;   94.350;  -50.000;   63.000
404.339;  258.700; -566.000; -306.000
404.467; 5723.150; -612.000; -524.000
404.594; 4057.625; -287.000; -227.000
404.721;  995.425; -869.000; -764.000
404.848;   80.200; -113.000; -202.000
404.976;  -99.400; -856.000; -783.000
405.103;   -4.250;  -14.000;  -82.000
405.230;    4.850;  190.000;  226.000
405.357;   10.300;  117.000;   44.000
405.484;  261.550;  -49.000;    5.000
405.612;   68.975; -548.000; -563.000
405.739;  -58.150; -488.000; -243.000
405.866;   79.100;  669.000;  385.000
405.993;  -41.075; -398.000; -102.000
406.120; -123.150; -801.000; -887.000
406.247;  -62.525; -323.000; -342.000
406.374;  452.675;  540.000;  629.000
406.501;  138.025; -632.000; -702.000
406.628;  -73.375; -621.000; -589.000
406.755; -102.225; -803.000; -620.000
406.882;  -41.750; -228.000; -277.000
407.009; -111.550; -719.000; -628.000
407.136;   51.925; -480.000; -401.000
407.263;  155.850; -939.000; -829.000
407.390;  -59.225; -692.000; -614.000
407.517; -165.875;-1139.000;-1187.000
407.644;  -56.500; -332.000; -256.000
407.771;  -62.675; -249.000; -287.000
407.898;    5.475;  168.000;  328.000
408.025;  -62.600; -421.000; -313.000
408.151;  -10.000;   82.000;  153.000
408.278;  -63.300; -267.000; -216.000
408.405; -105.525; -931.000; -899.000
408.532;  -70.350; -549.000; -542.000
408.659;  -96.850; -677.000; -648.000
408.785; -204.100;-1298.000;-1170.000
408.912;  -67.400; -412.000; -296.000
409.039; -109.875; -610.000; -686.000
409.166; -110.250; -591.000; -555.000
409.292; -109.675; -571.000; -534.000
409.419; -117.250; -665.000; -649.000
409.546;  -96.400; -431.000; -192.000
409.672; -119.175; -713.000; -545.000
409.799;  -30.125;  -36.000;   34.000
409.926;  -40.050; -180.000; -179.000
410.052; -171.700;-1127.000;-1091.000
410.179;  -63.925; -368.000; -392.000
410.305;  -81.250; -375.000; -493.000
410.432;  -45.300; -220.000; -333.000
410.558;  -99.700; -305.000; -380.000
410.685; -109.150; -688.000; -431.000
410.812; -112.700; -409.000; -588.000
410.938; -136.025; -964.000; -808.000
411.065;  -99.725; -671.000; -645.000
411.191;  -14.375; -189.000; -174.000
411.317; -107.500; -823.000; -742.000
411.444;  -73.300; -317.000; -246.000
411.570;  -75.475; -339.000; -294.000
411.697; -118.800; -758.000; -752.000
411.823; -164.825; -989.000; -999.000
411.949;  -33.750;  -56.000;   17.000
412.076; -119.675; -539.000; -519.000
412.202; -103.425; -758.000; -757.000
412.329; -125.950; -798.000; -752.000
412.455; -133.900; -821.000; -657.000
412.581;  -20.925;  -15.000;  172.000
412.707;  -63.000; -540.000; -457.000
412.834;   10.025;  156.000;  219.000
412.960;  -76.850; -785.000; -784.000
413.086; -113.600; -743.000; -701.000
413.212;  143.000;  604.000;  578.000
413.339;  -52.225; -685.000; -701.000
413.465;    8.950; -364.000; -310.000
413.591;  -90.900; -757.000; -474.000
413.717;  -52.725; -358.000; -366.000
413.843; -145.225; -839.000; -861.000
413.969;  -55.825;  -47.000; -292.000
414.096; -102.775; -679.000; -679.000
414.222;  -10.175;  -33.000;   85.000
414.348;  -22.900; -652.000; -385.000
414.474;   97.950;   38.000;  -52.000
414.600;  -12.825; -126.000; -144.000
414.726;  -21.875;  -96.000;  -55.000
414.852;  -67.375; -365.000; -342.000
414.978;   24.200;  104.000;  -18.000
415.104;   47.350;   38.000;   80.000
415.230;   15.225; -329.000; -330.000
415.356;   45.100; -409.000; -514.000
415.482;  215.600;   13.000;  -35.000
415.608;  272.475; -247.000; -323.000
415.734;  969.675;   67.000;   38.000
415.860;19813.700; -875.000; -767.000
415.986;15581.225; -685.000; -607.000
416.111; 1388.825; -798.000; -652.000
416.237;  286.700; -424.000; -571.000
416.363; 1077.900; -765.000; -733.000
416.489; 4309.950; -324.000; -251.000
416.615;  522.325; -707.000; -742.000
416.741;   -1.625; -677.000; -784.000
416.866;  -90.350; -673.000; -736.000
416.992; -116.700; -801.000; -818.000
417.118;  -15.225;  -41.000;  -80.000
417.244;  -73.775; -798.000; -531.000
417.369;  -78.850; -801.000; -612.000
417.495;   -7.725; -325.000; -254.000
417.621;  -79.525;-1015.000; -803.000
417.746;    2.275; -579.000; -572.000
417.872;   47.825; -254.000; -144.000
417.998;   61.650; -515.000; -530.000
418.123;  982.900;-1073.000; -845.000
418.249; 5481.000; -512.000; -601.000
418.374;  861.550; -916.000; -824.000
418.500;  116.975; -383.000; -482.000
418.626;  114.950;   70.000;  -59.000
418.751;  134.000; -549.000; -448.000
418.877;  210.350; -637.000; -643.000
419.002; 1712.200; -688.000; -560.000
419.128;12721.175; -930.000; -721.000
419.253; 3383.925; -967.000; -837.000
419.379;  420.975; -391.000; -338.000
419.504;  410.375;  325.000;  415.000
419.629;  519.000; -393.000; -212.000
419.755; 3365.575; -317.000; -254.000
419.880;21318.250;  -98.000;   67.000
420.006;11523.925; -280.000; -221.000
420.131;30478.900; -662.000; -775.000
420.256; 4792.800; -315.000; -316.000
420.382;  630.500; -665.000; -687.000
420.507;   76.275; -649.000; -778.000
420.632;  139.000; -337.000; -339.000
420.758;  257.275; -251.000; -425.000
420.883;  -76.875; -876.000; -672.000
421.008;  -97.825; -775.000; -619.000
421.133;  -79.000; -509.000; -467.000
421.259;  -53.825; -325.000; -259.000
421.384; -108.400; -834.000; -693.000
421.509;  -43.100;-1052.000; -862.000
421.634; 1174.725; -936.000; -820.000
421.759;  572.050; -359.000; -327.000
421.885;  -41.175; -717.000; -656.000
422.010;  -78.375; -673.000; -542.000
422.135; -148.775; -695.000; -727.000
422.260;   36.400;  340.000;  280.000
422.385;  -41.775;   12.000;  -98.000
422.510;    3.000;  151.000;  -26.000
422.635;   22.475;  -87.000;  -43.000
422.760;  113.375; -766.000; -791.000
422.885;   49.975;  -57.000;  -80.000
423.010;  -35.900; -112.000; -169.000
423.135;  -92.725; -481.000; -561.000
423.260;  -17.175; -150.000; -245.000
423.385;   64.650;  476.000;  222.000
423.510;   24.925;   71.000;  -22.000
423.635;   87.550;  133.000;   45.000
423.760;   52.875;  383.000;  328.000
423.885;   52.775;  336.000;  391.000
424.010;    5.500;  -68.000;  -13.000
424.135;  -30.675;    5.000;  -33.000
424.259;  -85.500; -654.000; -457.000
424.384;  -69.650; -279.000; -272.000
424.509;  -33.350; -260.000; -186.000
424.634;  -94.075; -761.000; -623.000
424.759;  -20.250; -688.000; -544.000
424.883;   -9.625; -506.000; -527.000
425.008;  162.525; -502.000; -410.000
425.133; 2029.450; -679.000; -653.000
425.258; 1024.275; -517.000; -381.000
425.382; 1011.475; -867.000; -774.000
425.507; 2803.850; -487.000; -543.000
425.632;  498.175; -802.000; -663.000
425.756;  468.375; -256.000; -146.000
425.881; 6167.150; -831.000; -857.000
426.006;18121.650; -604.000; -355.000
426.130; 3099.700; -696.000; -508.000
426.255;  394.550; -611.000; -491.000
426.379;  167.125; -189.000; -577.000
426.504;  361.625;  660.000;  544.000
426.629; 3991.850; -519.000; -466.000
426.753; 3028.500;   64.000;  -46.000
426.878;  363.200; -252.000; -288.000
427.002;  184.775; -651.000; -668.000
427.127; 1510.700;  -35.000; -158.000
427.251;11490.825;  372.000;  401.000
427.375; 3607.725; -191.000; -173.000
427.500; 2404.750; -616.000; -610.000
427.624;  878.325; -234.000; -400.000
427.749;  108.850; -216.000; -225.000
427.873;  -31.800; -499.000; -412.000
427.997;  -54.050; -222.000; -230.000
428.122;   79.000;  795.000;  703.000
428.246;   68.150;  433.000;  434.000
428.371; -115.950; -869.000; -773.000
428.495; -120.350; -624.000; -646.000
428.619;  -36.750; -186.000; -117.000
428.743;   27.825;   65.000;  132.000
428.868;   19.125; -732.000; -643.000
428.992; 1439.600; -219.000; -326.000
429.116;  636.575; -329.000; -357.000
429.240;  276.825;  419.000;  426.000
429.365;  -15.500; -454.000; -574.000
429.489;  -35.775; -638.000; -647.000
429.613;   18.275; -236.000; -177.000
429.737;   36.825; -563.000; -432.000
429.861;  263.750; -247.000; -133.000
429.985; 5407.225; -425.000; -305.000
430.109; 6527.150; -770.000; -908.000
430.234;  786.200;   76.000;  -50.000
430.358;   71.100; -250.000; -160.000
430.482;  -53.425; -672.000; -564.000
430.606;  -57.200; -655.000; -375.000
430.730;    7.625; -437.000; -388.000
430.854;  127.950; -909.000; -835.000
430.978;  -57.700; -795.000; -764.000
431.102;  -78.850; -499.000; -422.000
431.226; -110.950; -874.000; -815.000
431.350;   15.150;  345.000;  422.000
431.474;  -77.075; -661.000; -373.000
431.597; -147.525;-1060.000; -848.000
431.721;  -75.300; -276.000; -267.000
431.845; -120.650; -704.000; -472.000
431.969;  -85.150; -304.000; -349.000
432.093;  -90.400; -395.000; -317.000
432.217;  -20.350;   32.000;   82.000
432.341;  -91.700; -523.000; -518.000
432.464;  -10.675;   96.000;   40.000
432.588;  211.275; -401.000; -329.000
432.712;  119.800;  -52.000;  -52.000
432.836;   34.225;  213.000;  263.000
432.959;  -26.150; -372.000; -311.000
433.083;   64.875;   11.000;    2.000
433.207;  373.125;  285.000;  930.000
433.330; 4851.850; -391.000; -200.000
433.454; 6558.275; -654.000; -638.000
433.578; 3713.975;  583.000;  278.000
433.701;  740.400; -623.000; -675.000
433.825;  147.275; -292.000; -299.000
433.949;  165.550;   28.000;  -72.000
434.072;   57.550; -410.000; -323.000
434.196;  -11.825; -309.000; -117.000
434.319; 3577.825;25482.000;25124.000
434.443;  699.800; -656.000; -603.000
434.566; 2703.475;  281.000;   62.000
434.690;  518.025; -637.000; -383.000
434.813;   63.250; -251.000; -173.000
434.937;  -69.450; -569.000; -696.000
435.060;  -56.950; -423.000; -332.000
435.184;  303.725; -492.000; -217.000
435.307;  169.925;  159.000;  102.000
435.431;  -27.200;  -40.000;   24.000
435.554;  -76.200; -399.000; -240.000
435.677;  -87.675; -350.000; -258.000
435.801;  -48.525;  -25.000;   49.000
435.924;  -19.950;    1.000;  -67.000
436.048; -103.300;-1019.000; -732.000
436.171;  -64.700; -240.000;  -66.000
436.294;  -28.050; -248.000; -229.000
436.417;  104.800; -963.000; -849.000
436.541;  -55.000; -814.000; -840.000
436.664;  -66.275; -242.000; -316.000
436.787;  -33.550;   13.000;  113.000
436.910; -120.150; -792.000; -422.000
437.034;   -1.375;  142.000;  143.000
437.157;   44.000;  -11.000;    0.000
437.280;  -54.600; -392.000; -292.000
437.403;  -75.200; -982.000; -869.000
437.526;  599.800; -903.000; -865.000
437.649; 2343.725; -505.000; -332.000
437.772;  389.325; -692.000; -540.000
437.896;  138.925;  700.000;  544.000
438.019; -105.025; -758.000; -503.000
438.142;  -90.750; -596.000; -506.000
438.265;  -18.425; -639.000; -670.000
438.388;  593.400; -520.000; -410.000
438.511;  122.775; -597.000; -394.000
438.634;  -44.000; -247.000; -125.000
438.757; -141.925; -693.000; -619.000
438.880;  -17.025;  -34.000;  -57.000
439.003;  -85.350; -417.000; -437.000
439.126;  -53.800; -287.000; -167.000
439.248;  -74.400;  -98.000; -139.000
439.371;  -41.225;    9.000;  -53.000
439.494;   22.000;  510.000;  439.000
439.617;  -60.600;   65.000;  -88.000
439.740; -179.650; -968.000; -816.000
439.863; -140.850; -755.000; -595.000
439.986; -132.150; -476.000; -431.000
440.108;  -54.075; -161.000; -112.000
440.231; -153.550; -950.000; -836.000
440.354;  -53.925;  -64.000; -150.000
440.477;   26.475; -566.000; -542.000
440.599;   18.775; -200.000; -225.000
440.722; -110.000; -709.000; -586.000
440.845;   72.325;  751.000;  928.000
440.968; -102.150; -415.000; -311.000
441.090;  -73.925; -199.000;  -33.000
441.213; -161.575;-1021.000; -825.000
441.336;  -60.725; -159.000;   -5.000
441.458;  -91.325; -549.000; -396.000
441.581;  -76.550; -628.000; -629.000
441.703;  -69.600; -152.000;   13.000
441.826; -108.275; -557.000; -400.000
441.948;  -60.525;   56.000;   51.000
442.071;   29.425;  555.000;  424.000
442.193; -112.800; -531.000; -485.000
442.316;    6.300;  152.000;   97.000
442.438;   55.375; -233.000;  -10.000
442.561;   69.150;  272.000;  262.000
442.683;  530.800; -809.000; -522.000
442.806; 1227.325;   -8.000;   74.000
442.928;   49.350; -859.000; -604.000
443.051;  -70.325; -577.000; -373.000
443.173;  -99.450; -341.000; -339.000
443.295;  -94.975; -263.000; -371.000
443.418;  -70.175; -321.000;  -29.000
443.540;   -9.400; -106.000;   -4.000
443.662; -128.475; -563.000; -465.000
443.785;  -13.925;  335.000;  199.000
443.907; -103.450; -362.000; -208.000
444.029; -132.225; -767.000; -494.000
444.152; -147.950; -644.000; -554.000
444.274;  -31.775;  -18.000;  -24.000
444.396; -117.575; -461.000; -221.000
444.518; -130.300; -691.000; -454.000
444.640; -111.925; -268.000; -111.000
444.763;  -18.875;  388.000;  249.000
444.885; -118.175; -432.000; -392.000
445.007;  -36.475;   35.000;   86.000
445.129; -135.800; -610.000; -515.000
445.251;  -96.950; -372.000; -439.000
445.373; -133.900; -537.000; -386.000
445.495;   -1.750;  242.000;  350.000
445.617;   34.500;  853.000;  753.000
445.739;  -65.375; -215.000;  -97.000
445.861;  -32.375; -245.000; -112.000
445.984;  -40.725; -267.000; -101.000
446.105;  185.350; -418.000; -251.000
446.227;  640.700; -176.000;  -19.000
446.349;   17.900; -358.000; -249.000
446.471;  -93.550; -615.000; -448.000
446.593;  -65.300; -316.000;   19.000
446.715;   -1.850;  -67.000;   41.000
446.837;   61.125;  697.000;  832.000
446.959; -100.025; -457.000; -478.000
447.081; -134.150; -628.000; -518.000
447.203;   34.050;  862.000;  834.000
447.325;  -83.150; -270.000;   42.000
447.446;  -14.750;  286.000;  530.000
447.568; -156.025; -921.000; -803.000
447.690;  -78.500; -236.000; -245.000
447.812; -140.725; -798.000; -519.000
447.933;  -39.525;  155.000;  127.000
448.055;  -70.775; -306.000; -261.000
448.177;  124.050;   31.000;   79.000
448.299;   83.500; -935.000; -727.000
448.420;   26.975;  -25.000;  159.000
448.542;  -49.825;   -3.000;   33.000
448.664;   -9.075;  109.000;  322.000
448.785;  -38.075;  265.000;   83.000
448.907;  -81.925; -614.000; -353.000
449.028;  -23.275; -771.000; -471.000
449.150;   61.000;  492.000;  589.000
449.272; -178.600;-1044.000; -913.000
449.393;   17.800;  612.000;  694.000
449.515; -151.025; -634.000; -581.000
449.636;  -53.475; -264.000; -155.000
449.758;   79.400;  763.000;  622.000
449.879;  -91.225; -498.000; -396.000
450.001;  -84.825; -149.000;  -49.000
450.122;  -44.150;  -95.000;  162.000
450.244;  -26.975;   37.000;  364.000
450.365;  -91.250; -495.000; -301.000
450.486;  -32.175;   80.000;  268.000
450.608;   11.250;  393.000;  326.000
450.729;   52.775;  578.000;  645.000
450.850;   12.675; -574.000; -466.000
450.972;  704.325; -552.000; -389.000
451.093; 4847.050;  190.000;  588.000
451.214; 2349.575; -516.000; -337.000
451.336;  435.075;  773.000;  579.000
451.457;   55.350;  264.000;  393.000
451.578;  -31.100; -118.000;  -74.000
451.699; -115.350; -546.000; -540.000
451.821;  -54.375; -284.000;  -50.000
451.942;   -9.125;  278.000;  285.000
452.063;   22.675;  228.000;  419.000
452.184;  533.075;  -54.000;  -49.000
452.305; 1129.425;  103.000;  170.000
452.427;  156.500; -549.000; -301.000
452.548;  -23.100;   23.000;   79.000
452.669;  -46.350; -257.000;  -89.000
452.790;  -50.500;    3.000;  -18.000
452.911;  -19.500;  195.000;  259.000
453.032;  -63.175; -289.000;  -60.000
453.153;  -32.675;  -29.000;   81.000
453.274;   47.275;  737.000;  868.000
453.395;  -63.025;  -51.000;  175.000
453.516;  132.400; 1317.000; 1388.000
453.637;  -60.175; -205.000; -150.000
453.758;  -56.575;   15.000;   69.000
453.879; -127.550; -462.000; -250.000
454.000;   64.300; 1086.000;  948.000
454.121; -123.500; -554.000; -326.000
454.242; -124.425; -599.000; -383.000
454.362;  -62.375;  -99.000;  114.000
454.483;  -32.475; -309.000; -229.000
454.604;   34.575;  512.000;  580.000
454.725; -114.825; -627.000; -555.000
454.846; -129.150; -474.000; -406.000
454.967;  -52.050;  230.000;  539.000
455.087;  -56.525;  179.000;  153.000
455.208;   -4.125;  554.000;  856.000
455.329;  -72.975;  -22.000;   82.000
455.450;   34.650;  473.000;  633.000
455.570;  -92.150; -234.000; -211.000
455.691;  -51.125;  201.000;  407.000
455.812; -111.225; -270.000;  -92.000
455.932;  -65.675;  107.000;  -97.000
456.053;  -85.550;   36.000;   24.000
456.173; -126.675; -433.000; -355.000
456.294; -137.600; -476.000; -303.000
456.415;  -68.200;  -73.000;   70.000
456.535;  -51.800;  297.000;  273.000
456.656;  -39.225;  132.000;  240.000
456.776;  -81.775;    3.000;  298.000
456.897;  -18.625;  308.000;  513.000
457.017;  -76.075; -153.000;   -3.000
457.138;  -97.975; -402.000; -249.000
457.258;  -37.950;  263.000;  224.000
457.379;  -19.050;  509.000;  521.000
457.499;  -23.875;  443.000;  432.000
457.620; -123.375; -407.000; -231.000
457.740;  -96.450; -132.000;  -11.000
457.860;  -57.175;   87.000;   44.000
457.981;  -60.725;  132.000;  124.000
458.101;  -76.325;  -89.000;   40.000
458.221;  -23.725;  336.000;  402.000
458.342;  -57.900;   -4.000;  -37.000
458.462;    4.825;  617.000;  352.000
458.582;  -30.275; -302.000; -294.000
458.703;    5.025;  303.000;  154.000
458.823;  -13.850;   22.000;  163.000
458.943;   21.725;  341.000;  467.000
459.063;  -20.600; 1124.000;  192.000
459.183;  -22.775;  328.000;  313.000
459.304;   11.575;  315.000;  517.000
459.424;  -52.075; -246.000;  -89.000
459.544;  336.875;  388.000;  764.000
459.664;  820.050;  499.000;  506.000
459.784;  338.950; 1004.000; 1175.000
459.904;   47.325;  867.000;  744.000
460.024;   65.575;  867.000;  684.000
460.144;    0.250;  449.000;  554.000
460.264;   -1.025;  515.000;  327.000
460.385;  -78.500; -145.000; -119.000
460.505;   44.300;  905.000;  858.000
460.625;  -87.950;  -17.000;  -68.000
460.745;  -21.575;  396.000;  541.000
460.864;  -57.500;  153.000;  469.000
460.984;   12.075;  499.000;  573.000
461.104;  126.800; 1656.000; 1775.000
461.224;    8.800;  657.000;  650.000
461.344;  -23.175;  431.000;  360.000
461.464;  -29.775;  258.000;  513.000
461.584;  -14.100;  283.000;  466.000
461.704;  -47.425;   58.000;  108.000
461.824;  -55.425;  238.000;  259.000
461.943;  -32.800;  191.000;  130.000
462.063;  -76.875;    2.000;  324.000
462.183;   18.100;  639.000;  717.000
462.303;  101.075; 1678.000; 1230.000
462.422;   27.775;  781.000;  840.000
462.542;  -45.950;  271.000;  391.000
462.662;   39.025;  353.000;  380.000
462.782;  219.050;  833.000;  572.000
462.901;  483.000;  545.000;  717.000
463.021;  270.575; 1702.000; 1638.000
463.141;  -11.700;  337.000;  770.000
463.260;  -14.625;  614.000;  474.000
463.380;   12.875;  902.000;  884.000
463.499;  -42.950;  342.000;  332.000
463.619;  -34.825;  581.000;  559.000
463.738;  104.375; 1644.000;  903.000
463.858;    7.400;  657.000;  811.000
463.978;  -51.000;  542.000;  396.000
464.097;   47.575;  921.000; 1114.000
464.217;  110.250; 1196.000; 1143.000
464.336;   99.450; 1068.000; 1130.000
464.455;  -37.550;  328.000;  659.000
464.575;   43.550;  597.000;  602.000
464.694;  165.300; 1204.000; 1179.000
464.814;  134.175; 1190.000; 1138.000
464.933;   71.575; 1095.000; 1027.000
465.052;   92.350; 1412.000; 1054.000
465.172;   69.100;  922.000;  799.000
465.291;  147.600; 1376.000; 1320.000
465.410;    8.025;  462.000;  735.000
465.530;   89.950; 1355.000; 1310.000
465.649;   61.050; 1209.000; 1273.000
465.768;  134.600; 1673.000; 1508.000
465.888;   40.875;  941.000; 1174.000
466.007;   86.100; 1335.000; 1440.000
466.126;    2.350;  721.000;  641.000
466.245;   40.700; 1176.000; 1187.000
466.364;   13.700;  950.000; 1060.000
466.484;   49.900; 1024.000; 1213.000
466.603;   36.275; 1101.000; 1222.000
466.722;  105.750; 1490.000; 1769.000
466.841;   61.050; 1151.000; 1401.000
466.960;   33.550; 1069.000;  972.000
467.079;  118.875; 1971.000; 1786.000
467.198;   44.700; 1238.000; 1181.000
467.317;   89.250; 1768.000; 1162.000
467.436;   60.825; 1709.000; 1261.000
467.555;  111.875; 1796.000; 1746.000
467.674;   65.900; 1227.000; 1329.000
467.793;   44.875; 1376.000; 1374.000
467.912;   96.175; 1658.000; 1539.000
468.031;  133.375; 2038.000; 1930.000
468.150;  147.950; 1842.000; 1837.000
468.269;  193.150; 2313.000; 2090.000
468.388;  184.875; 2168.000; 2339.000
468.507;  241.025; 2884.000; 2903.000
468.626;  243.750; 2555.000; 2541.000
468.744;  139.600; 2018.000; 2174.000
468.863;  195.025; 2312.000; 2523.000
468.982;   88.050; 1503.000; 1555.000
469.101;  228.750; 2788.000; 2692.000
469.220;  143.575; 2333.000; 2176.000
469.338;  253.000; 2935.000; 3051.000
469.457;  186.050; 2719.000; 2545.000
469.576;  336.425; 3953.000; 3784.000
469.695;  241.525; 2877.000; 3066.000
469.813;  420.700; 4148.000; 4192.000
469.932;  422.700; 4255.000; 4485.000
470.051;  406.500; 4075.000; 4161.000
470.169;  827.725; 4470.000; 4338.000
470.288; 1497.450; 4700.000; 4809.000
470.406;  916.800; 5059.000; 5194.000
470.525;  629.150; 6101.000; 5787.000
470.644;  616.275; 6847.000; 6794.000
470.762;  801.175; 8397.000; 7873.000
470.881;  893.325; 8651.000; 8464.000
470.999; 1015.900; 9685.000; 9151.000
471.118; 1092.025;11174.000;10711.000

