
Integration time [ms]: 100.000
Averaging Nr. [scans]: 40
Smoothing Nr. [pixels]: 0
Data measured with spectrometer [name]: 2101012U2
Wave   ;Sample   ;Dark     ;Reference
[nm]   ;[counts] ;[counts] ;[counts] 

197.733;   62.125;  516.000;  404.000
197.879;  -74.525; -610.000; -634.000
198.025;  -42.650; -475.000; -420.000
198.171;  -60.925; -602.000; -612.000
198.317;  -14.275; -401.000; -316.000
198.463;  -51.725; -655.000; -404.000
198.609;   15.100;  181.000; -137.000
198.755;  -90.900; -644.000; -410.000
198.901;  -71.950; -505.000; -424.000
199.047;  -65.175; -615.000; -488.000
199.193;  -40.450; -230.000; -468.000
199.339;  -28.075; -222.000; -369.000
199.485;   43.300;  330.000;  271.000
199.631;   22.950;  227.000;  310.000
199.777;  -45.075; -466.000; -398.000
199.923;  -58.325; -610.000; -424.000
200.069;    0.000; -141.000;  -58.000
200.215;   58.675;  128.000;  453.000
200.361;   40.350;  243.000;  477.000
200.507;  -61.350; -600.000; -373.000
200.653;  -19.975; -371.000; -194.000
200.798;  -41.525; -215.000; -125.000
200.944;    1.500; -146.000;  -41.000
201.090;   34.125;   61.000;  222.000
201.236;    3.775; -116.000; -158.000
201.382;  128.500;  874.000;  903.000
201.528;   -4.125;  -58.000;  -48.000
201.674;  -31.975; -386.000; -293.000
201.819;  -47.000; -540.000; -439.000
201.965;  -74.775; -699.000; -447.000
202.111;   -7.850; -273.000; -226.000
202.257;  -29.775; -250.000; -238.000
202.402;   13.425;   13.000;  -36.000
202.548;  -21.475; -169.000; -116.000
202.694;   88.350;  410.000; -183.000
202.840;  -63.000; -603.000; -531.000
202.985;  -64.775; -681.000; -639.000
203.131; -102.275; -832.000; -666.000
203.277;   -4.325; -199.000; -262.000
203.423;  -49.600; -434.000; -520.000
203.568;  -44.300; -462.000; -237.000
203.714;  -52.200; -535.000; -542.000
203.860;  -77.075; -682.000; -641.000
204.005;    2.775;  112.000;  167.000
204.151;   88.325;  561.000;  556.000
204.296;  -35.250; -354.000; -221.000
204.442;  -68.175; -600.000; -547.000
204.588;  -78.450; -592.000; -579.000
204.733;    8.225;  178.000;  168.000
204.879; -113.750;-1018.000; -822.000
205.025;   13.775;  -99.000;  126.000
205.170;   -0.200;  -17.000;   94.000
205.316;   78.950;  438.000;  661.000
205.461;  -77.525; -698.000; -554.000
205.607;   74.075;  609.000;  665.000
205.752;  -80.325; -626.000; -551.000
205.898;  -46.650; -501.000; -391.000
206.043;  -55.925; -578.000; -506.000
206.189;  -31.025; -243.000; -285.000
206.334;   70.275;  554.000;  606.000
206.480;   72.000;  409.000;  239.000
206.625;  -68.825; -529.000; -552.000
206.771;  -49.800; -451.000; -373.000
206.916;  -45.425; -210.000; -537.000
207.062;  -57.600; -545.000; -591.000
207.207;  -52.725; -546.000; -443.000
207.353;   57.050;  185.000;  460.000
207.498;   16.925;  196.000;   85.000
207.643;  -44.625; -501.000; -370.000
207.789; -117.575;-1069.000; -910.000
207.934;  -87.750; -665.000; -713.000
208.080;  -27.475; -154.000;   66.000
208.225;    2.200;  -22.000;  -57.000
208.370;  -75.975; -727.000; -619.000
208.516;  -61.775; -741.000; -487.000
208.661;  -13.650; -127.000;  -69.000
208.806;  -21.100; -165.000; -171.000
208.952; -119.325;-1044.000; -731.000
209.097;   73.900;  378.000;  349.000
209.242;  -50.250; -307.000; -382.000
209.387;   76.525;  392.000;  350.000
209.533;  -58.625; -321.000; -350.000
209.678;   68.700;  472.000;  543.000
209.823;  -46.850; -408.000; -310.000
209.969;  -93.900; -860.000; -757.000
210.114;  -96.575; -907.000; -719.000
210.259; -104.500; -939.000; -889.000
210.404;  -12.575; -171.000;  103.000
210.549;   -3.750;  108.000;    3.000
210.695;  -15.275;   -3.000;  -95.000
210.840;   32.775;   94.000;   67.000
210.985;  -58.225; -484.000; -303.000
211.130;   58.050;  268.000;  406.000
211.275;    8.000;  207.000;  199.000
211.420;  -48.350; -300.000; -289.000
211.566;  -62.175; -536.000; -489.000
211.711;   28.275;  218.000;  157.000
211.856;  -64.200; -545.000; -519.000
212.001;    0.550;  151.000;   44.000
212.146;   20.900;  153.000;   49.000
212.291;  -15.075; -210.000; -186.000
212.436;  -27.850; -280.000;   -6.000
212.581;  -84.925; -685.000; -653.000
212.726;  -82.325; -487.000; -538.000
212.871;  -36.325; -552.000; -217.000
213.016; -149.575;-1172.000;-1029.000
213.161;   62.800;  406.000;  291.000
213.306;  -75.925; -435.000; -577.000
213.451;  -92.325; -778.000; -689.000
213.596;  -41.725; -455.000; -347.000
213.741;  -58.400; -448.000; -538.000
213.886;  -69.225; -498.000; -517.000
214.031;  -43.525; -294.000; -124.000
214.176;  -42.825; -408.000; -341.000
214.321;  -17.450; -296.000; -157.000
214.466;  -29.475; -163.000;  -43.000
214.611;    6.500;  -61.000;  -10.000
214.756; -116.225; -948.000; -858.000
214.901;  -11.500; -388.000; -226.000
215.046; -107.550; -797.000; -825.000
215.191;    7.350;  128.000;   35.000
215.336;  -15.425; -157.000;  -19.000
215.480;  -62.400; -684.000; -505.000
215.625;  -21.050; -175.000;  -19.000
215.770;  -65.500; -757.000; -662.000
215.915;  -16.750;   -5.000;  -97.000
216.060;   -9.100; -113.000;  -21.000
216.205; -102.200; -731.000; -779.000
216.349;  -75.000; -470.000; -533.000
216.494; -125.550; -939.000; -867.000
216.639;  -99.825; -823.000; -888.000
216.784;  -85.925; -577.000; -525.000
216.929;   58.700;  392.000;  281.000
217.073;  -25.300; -244.000;  -31.000
217.218;    8.575;   78.000;  -47.000
217.363;  -82.525; -656.000; -618.000
217.507;  -82.900; -623.000; -588.000
217.652; -119.750; -845.000; -874.000
217.797;  -91.600; -708.000; -659.000
217.942; -102.675; -856.000; -720.000
218.086;   73.700;  608.000;  539.000
218.231;  -25.450; -174.000;  -26.000
218.376;  -33.100; -337.000; -229.000
218.520;    5.725;  -41.000;   96.000
218.665;  -31.675; -338.000; -204.000
218.810;  -45.950; -275.000; -233.000
218.954;   18.300;  201.000;   35.000
219.099; -101.300; -713.000; -963.000
219.243;  -67.775; -589.000; -554.000
219.388;  -22.000; -264.000; -136.000
219.532;  -15.625; -116.000; -116.000
219.677;  -67.900; -564.000; -521.000
219.822;    2.900;   33.000;   89.000
219.966;    2.575;   17.000;  -99.000
220.111;  -41.575; -328.000;  -40.000
220.255;  -92.325; -797.000; -750.000
220.400;  -14.675; -180.000; -146.000
220.544;  -59.675; -516.000; -450.000
220.689;  -50.675; -422.000; -451.000
220.833;  -11.275; -123.000;  -58.000
220.978;  -36.500; -393.000; -563.000
221.122;   15.725;  319.000;  307.000
221.267; -111.275; -906.000; -837.000
221.411;  -57.800; -478.000; -394.000
221.555;    1.000; -104.000;  -23.000
221.700;  -43.325; -329.000; -222.000
221.844;   26.200;  255.000;  272.000
221.989;  -48.600; -328.000; -311.000
222.133;  -29.650; -289.000; -307.000
222.277;  -23.475;    5.000;   78.000
222.422;   11.750;  227.000;  113.000
222.566;  -30.400; -381.000; -214.000
222.711;  -65.750; -414.000; -479.000
222.855;  -67.975; -643.000; -586.000
222.999;  -81.825; -642.000; -717.000
223.144;  -21.500; -195.000; -194.000
223.288;   56.600;  423.000;  251.000
223.432;   22.225;  184.000;  230.000
223.576;   28.125;  152.000;  -21.000
223.721;   45.650;  364.000;  273.000
223.865;  -50.325; -472.000; -475.000
224.009;  234.600; 1673.000; 1631.000
224.153;  -65.250; -660.000; -671.000
224.298;  -73.400; -531.000; -489.000
224.442;   -5.075;  -74.000;  -33.000
224.586;   -1.050; -169.000; -106.000
224.730;  -80.950; -858.000; -670.000
224.875; -102.650; -739.000; -688.000
225.019;    0.125;  102.000;  188.000
225.163;   50.100;  208.000;  341.000
225.307;   18.900;   97.000;  -91.000
225.451;   43.275;  360.000;  481.000
225.595;   29.875;  264.000;  176.000
225.739;  -11.350; -170.000;  -94.000
225.884;   -5.650;   86.000;    5.000
226.028;  -98.525; -760.000; -626.000
226.172;  -41.700; -260.000; -273.000
226.316; -119.550; -941.000; -902.000
226.460;  -61.150; -645.000; -493.000
226.604;  -42.900; -406.000; -400.000
226.748;  -92.200; -836.000; -733.000
226.892;  -36.100; -227.000; -181.000
227.036;  -49.825; -537.000; -447.000
227.180;  -67.775; -551.000; -375.000
227.324;  -58.225; -561.000; -580.000
227.468; -103.175; -819.000; -717.000
227.612;   18.000;  242.000;  -28.000
227.756;  -96.750; -845.000; -698.000
227.900;   56.325;  342.000;  441.000
228.044;  -49.675; -509.000; -290.000
228.188;   51.150;  448.000;  568.000
228.332;  -85.350; -546.000; -472.000
228.476;  -21.975; -223.000; -149.000
228.620;  -32.900; -210.000; -150.000
228.764;   65.650;  431.000;  349.000
228.908;  -20.600; -155.000;   30.000
229.052;  -57.950; -615.000; -528.000
229.195;  -18.300; -172.000;   13.000
229.339;  -32.475; -235.000; -305.000
229.483;  -22.950;    5.000; -162.000
229.627;    2.000; -156.000;  139.000
229.771;  -43.450; -218.000; -294.000
229.915;   17.475;  230.000;   79.000
230.059;  -79.800; -648.000; -663.000
230.202;  -40.200; -370.000; -317.000
230.346;  -12.725; -107.000;  107.000
230.490;  -50.300; -489.000; -521.000
230.634;  -97.150; -736.000; -553.000
230.777;   61.450;  478.000;  509.000
230.921;  -58.775; -450.000; -359.000
231.065;  -48.225; -246.000; -286.000
231.209;   13.125;  261.000;  265.000
231.352;   31.025;   54.000;   40.000
231.496;   15.825;  568.000;  188.000
231.640;  -73.275; -693.000; -621.000
231.783;   47.450;  546.000;  525.000
231.927;  -41.925; -294.000; -365.000
232.071; -119.175; -962.000; -736.000
232.214; -108.725; -980.000; -764.000
232.358;  -94.550; -683.000; -599.000
232.502;   -4.800;  -19.000;    7.000
232.645; -130.900;-1090.000; -927.000
232.789;  -15.825; -257.000; -218.000
232.933;  -44.725; -407.000; -224.000
233.076; -110.550;-1038.000; -897.000
233.220; -104.050; -752.000; -777.000
233.363;  -84.125; -669.000; -477.000
233.507;   48.700;  371.000;  129.000
233.650;  -91.175; -764.000; -834.000
233.794;   46.550;  438.000;  461.000
233.938;  -61.900; -530.000; -362.000
234.081;  -15.075;  -93.000;   31.000
234.225;  -71.600; -631.000; -539.000
234.368;  -98.525; -773.000; -723.000
234.512;  -38.025; -385.000; -299.000
234.655;  -86.350; -582.000; -555.000
234.798;  -74.075; -493.000; -466.000
234.942; -125.275; -884.000;-1002.000
235.085;  -91.025; -651.000; -443.000
235.229;  -69.000; -405.000; -410.000
235.372;  -40.700; -247.000; -191.000
235.516;  -60.325; -397.000; -321.000
235.659;   19.450;   92.000;  121.000
235.802;  -19.875;  -38.000;  -22.000
235.946;   36.350;  335.000;  215.000
236.089;   21.125;  126.000;  250.000
236.233;   46.875;  275.000;  298.000
236.376;  -47.675; -235.000; -378.000
236.519;  -42.475; -297.000; -319.000
236.663;  -27.750; -215.000; -117.000
236.806; -126.550;-1029.000; -999.000
236.949;   48.675;  543.000;  431.000
237.092;   52.825;  412.000;  391.000
237.236;  -93.050; -589.000; -502.000
237.379;   65.925;  352.000;  428.000
237.522; -112.725; -879.000; -768.000
237.666;   -8.275; -271.000;   18.000
237.809; -127.150; -851.000; -823.000
237.952;   30.825;  469.000;  271.000
238.095;  -67.950; -447.000; -442.000
238.238;   65.800;  688.000;  700.000
238.382;    0.725;  166.000;  103.000
238.525;  -69.200; -598.000; -511.000
238.668; -138.200;-1060.000; -985.000
238.811;  -73.925; -638.000; -643.000
238.954;  -72.175; -483.000; -334.000
239.097;   86.950;  617.000;  664.000
239.241;   33.875;  394.000;  326.000
239.384;  -35.525; -254.000; -214.000
239.527;  -59.425; -424.000; -224.000
239.670; -141.975; -994.000;-1091.000
239.813;  -98.275; -696.000; -658.000
239.956;   71.750;  579.000;  473.000
240.099;  -93.950; -778.000; -725.000
240.242;   50.500;  428.000;  432.000
240.385;   41.750;  466.000;  450.000
240.528;  -72.075; -706.000; -473.000
240.671;   13.800;  189.000;  134.000
240.814;  -48.400; -441.000; -158.000
240.957;  -99.975; -767.000; -578.000
241.100; -100.625; -779.000; -755.000
241.243; -144.175;-1234.000; -893.000
241.386;  -46.875; -508.000; -379.000
241.529;  -87.050; -735.000; -547.000
241.672;  -59.125; -566.000; -495.000
241.815; -100.050; -832.000; -808.000
241.958;  -30.075; -125.000; -182.000
242.101;  -70.625; -545.000; -390.000
242.244;  -52.275; -270.000; -325.000
242.387;  -45.650; -304.000; -246.000
242.530;   50.275;  470.000;  134.000
242.673;  -36.175; -381.000; -309.000
242.815; -113.625; -925.000; -899.000
242.958;  -67.450; -482.000; -381.000
243.101;   11.350;  132.000;  187.000
243.244;  -76.975; -564.000; -521.000
243.387;  -49.250; -313.000; -316.000
243.530; -102.150; -657.000; -674.000
243.672;  -11.050;   43.000;  -92.000
243.815;  -46.000; -355.000; -283.000
243.958;    9.275;   98.000;  -26.000
244.101;   -4.200;   59.000;  -16.000
244.243;  -12.250;  -47.000;  101.000
244.386; -103.075; -761.000; -630.000
244.529;  -19.525; -132.000; -139.000
244.672; -143.875;-1154.000; -951.000
244.814;  -85.075; -621.000; -794.000
244.957;  -61.025; -380.000; -304.000
245.100;  -72.150; -489.000; -489.000
245.242;  -60.200; -387.000; -374.000
245.385;   -5.600;  -59.000;  -39.000
245.528; -122.775; -871.000; -705.000
245.670;   79.925;  612.000;  634.000
245.813;  -83.950; -599.000; -547.000
245.956;  -41.250; -324.000; -275.000
246.098;  -59.675; -508.000; -650.000
246.241;   12.750;  194.000;   48.000
246.383;  -22.000; -119.000;  -73.000
246.526;  -65.675; -454.000; -525.000
246.669; -103.300; -889.000; -780.000
246.811;   23.850;  172.000;   -1.000
246.954;  -60.150; -512.000; -426.000
247.096;  -18.050;  -84.000;   -6.000
247.239;  -70.300; -482.000; -445.000
247.381;  -59.775; -647.000; -488.000
247.524;   67.550;  645.000;  679.000
247.666;   -8.650;   58.000;   11.000
247.809; -105.125; -887.000; -691.000
247.951;  -13.475;  -75.000;  138.000
248.094;    7.700;  432.000;  308.000
248.236; -159.250;-1262.000;-1238.000
248.378;  -17.975; -356.000;  -81.000
248.521;  -45.450; -334.000; -337.000
248.663;  -46.625; -236.000; -267.000
248.806;  -35.600; -300.000; -266.000
248.948; -104.600; -886.000; -763.000
249.090;  -62.650; -428.000; -398.000
249.233;  -68.450; -344.000; -381.000
249.375;  -72.825; -474.000; -451.000
249.518;  -20.350;  -83.000; -133.000
249.660;   -0.275; -103.000;    3.000
249.802; -154.950;-1303.000;-1189.000
249.945;  -77.225; -612.000; -540.000
250.087; -105.825; -834.000; -768.000
250.229;  -50.275; -362.000; -480.000
250.371;  -79.150; -494.000; -439.000
250.514;  -30.850; -310.000; -244.000
250.656;   -8.350;   69.000;  102.000
250.798; -106.725; -849.000; -800.000
250.940;  -64.200; -322.000; -322.000
251.083;  -26.950; -335.000; -111.000
251.225;   45.250;  338.000;  310.000
251.367;  -49.800; -274.000; -373.000
251.509;  -45.750; -265.000; -210.000
251.651;  -89.825; -731.000; -671.000
251.794;   64.525;  538.000;  632.000
251.936; -101.900; -821.000; -747.000
252.078;  -84.800; -540.000; -461.000
252.220;  -54.250; -645.000; -477.000
252.362;   48.100;  344.000;  462.000
252.504;  -74.850; -677.000; -584.000
252.646; -119.250; -875.000; -722.000
252.788;   -5.850;   14.000; -128.000
252.931;  -57.875; -257.000; -253.000
253.073;  -41.200; -376.000; -317.000
253.215;   -0.200;  141.000;  122.000
253.357;   -8.650;   82.000; -153.000
253.499;  -43.575; -374.000; -234.000
253.641;  -76.200; -749.000; -594.000
253.783;  -89.875; -609.000; -527.000
253.925;  -80.400; -586.000; -591.000
254.067; -107.250; -744.000; -667.000
254.209;  -27.675; -391.000; -259.000
254.351; -127.575; -865.000; -883.000
254.493;  -66.875; -441.000; -417.000
254.635; -119.450; -936.000; -818.000
254.777;  -86.650; -752.000; -687.000
254.918;  -75.875; -512.000; -430.000
255.060;  -64.675; -551.000; -395.000
255.202;  -71.225; -473.000; -261.000
255.344;  -75.300; -658.000; -455.000
255.486;  -67.550; -471.000; -406.000
255.628; -101.075; -780.000; -781.000
255.770;  -80.050; -676.000; -536.000
255.912;  -64.375; -559.000; -468.000
256.053;  -91.625; -730.000; -508.000
256.195;  146.225; 1008.000;  903.000
256.337;  -98.500; -861.000; -595.000
256.479;   54.350;  532.000;  416.000
256.621;  -50.225; -394.000; -212.000
256.762;  -93.325; -789.000; -742.000
256.904;   46.375;  485.000;  487.000
257.046;  -36.100; -381.000; -271.000
257.188;  -42.250; -351.000; -264.000
257.329;  -77.175; -525.000; -464.000
257.471; -120.525; -939.000; -807.000
257.613;  -63.650; -584.000; -498.000
257.755; -148.425;-1073.000; -982.000
257.896;   45.300;  286.000;  392.000
258.038;  -75.750; -403.000; -352.000
258.180;  -29.300; -354.000; -279.000
258.321;  -77.375; -581.000; -457.000
258.463;   -4.200;  -71.000;  133.000
258.605;  -96.075; -562.000; -570.000
258.746; -106.525; -886.000; -772.000
258.888; -143.750;-1026.000;-1020.000
259.029;    8.100;  121.000;   -8.000
259.171;  -84.850; -614.000; -550.000
259.313;  -19.500;  -49.000;  -47.000
259.454;  -72.925; -536.000; -414.000
259.596;  -54.250; -483.000; -390.000
259.737;  -90.400; -590.000; -474.000
259.879;   35.750;  217.000;  311.000
260.020;   79.875;  901.000;  636.000
260.162;  -31.900; -146.000; -253.000
260.303; -123.525; -768.000; -687.000
260.445;  -83.775; -609.000; -613.000
260.586;   13.525;  392.000;  157.000
260.728;  -44.725; -360.000; -248.000
260.869;  -72.800; -350.000; -343.000
261.011;   72.200;  706.000;  537.000
261.152;  -68.600; -479.000; -319.000
261.293;  -82.200; -576.000; -595.000
261.435;  -44.925; -219.000; -184.000
261.576;  -46.075; -455.000; -325.000
261.718;   50.625;  420.000;  470.000
261.859; -127.025; -940.000; -949.000
262.000; -131.200; -951.000;-1016.000
262.142;  -18.300;  -52.000;  -60.000
262.283; -110.525; -808.000; -691.000
262.424;  -89.925; -666.000; -625.000
262.566; -145.725;-1161.000; -983.000
262.707; -116.275; -840.000; -830.000
262.848; -129.050; -769.000; -726.000
262.990;  -52.300; -362.000; -345.000
263.131;   76.725;  650.000;  681.000
263.272;    3.075;  -61.000;  -41.000
263.413; -104.075; -589.000; -561.000
263.555;  -70.925; -669.000; -143.000
263.696;  -84.775; -550.000; -641.000
263.837;  -51.375; -449.000; -551.000
263.978;    2.925;   -5.000;  -77.000
264.119;  -44.050; -283.000; -264.000
264.261; -115.525; -847.000; -630.000
264.402;   -9.825;   33.000;   40.000
264.543;  -77.875; -509.000; -524.000
264.684;    0.750;   61.000;  -50.000
264.825;  -88.725; -816.000; -538.000
264.966;  -15.175;  -84.000;  -67.000
265.107; -119.075; -646.000; -670.000
265.248; -112.500; -825.000; -812.000
265.390;  -12.450;  152.000;   -9.000
265.531;  -14.750; -238.000; -107.000
265.672;  -78.075; -557.000; -630.000
265.813;   57.875;  563.000;  439.000
265.954; -143.125; -959.000; -940.000
266.095;  -17.550; -372.000; -322.000
266.236; -106.250; -686.000; -548.000
266.377;  -41.800; -243.000; -297.000
266.518;  -65.175; -619.000; -547.000
266.659;   15.375;  170.000;  268.000
266.800;    5.000;   83.000;   85.000
266.941;  -70.275; -487.000; -478.000
267.082;    1.950;  354.000;   99.000
267.223;  -61.400; -344.000; -273.000
267.364; -119.250; -892.000; -686.000
267.504;  -18.025;    3.000;  135.000
267.645;  -11.575;  160.000;   67.000
267.786;  -41.950; -147.000;  -86.000
267.927;  -86.700; -473.000; -379.000
268.068;  -32.925; -186.000;  -61.000
268.209;  -36.175; -175.000; -413.000
268.350;  -57.100; -388.000; -532.000
268.490;  -87.225; -648.000; -521.000
268.631;   28.700;  127.000;  225.000
268.772; -115.675; -874.000; -647.000
268.913;  -60.700; -328.000; -476.000
269.054;  -29.625; -117.000;   12.000
269.194;  -45.600; -418.000; -402.000
269.335; -155.275;-1137.000;-1074.000
269.476;  -18.450;   33.000;  -35.000
269.617;  -53.425; -347.000; -392.000
269.757;  -92.400; -713.000; -646.000
269.898; -103.800; -856.000; -613.000
270.039;  -62.275; -415.000; -405.000
270.180; -135.225; -952.000; -816.000
270.320;  -28.975; -190.000; -250.000
270.461;  -45.775; -277.000; -249.000
270.602;  -18.650; -186.000; -156.000
270.742; -128.775; -868.000; -943.000
270.883;  -58.225; -442.000; -390.000
271.023;  -50.925; -358.000; -357.000
271.164;  -81.575; -607.000; -528.000
271.305; -102.825; -666.000; -654.000
271.445;  -74.275; -722.000; -683.000
271.586;  -64.050; -462.000; -283.000
271.726;  -58.400; -397.000; -322.000
271.867;  -76.275; -594.000; -534.000
272.008;   61.850; -473.000; -285.000
272.148;   76.975;  462.000;  468.000
272.289;  -14.650; -113.000; -181.000
272.429;    1.475;   19.000;  185.000
272.570;  -91.850; -633.000; -737.000
272.710; -102.775; -825.000; -775.000
272.851;  -35.950;  113.000; -130.000
272.991; -150.850;-1173.000;-1077.000
273.131;  -64.725; -419.000; -459.000
273.272; -112.025; -683.000; -723.000
273.412;    0.300; -143.000;  -31.000
273.553;  -73.550; -488.000; -507.000
273.693;  119.950;  913.000;  858.000
273.834; -124.350; -894.000; -692.000
273.974;  -72.375; -664.000; -615.000
274.114; -105.975; -772.000; -560.000
274.255;   48.075;  414.000;  373.000
274.395;  -24.100; -180.000; -125.000
274.535;   24.925;  199.000;  350.000
274.676;    7.275;  225.000;   94.000
274.816;    4.700;  110.000;   34.000
274.956;  -95.900; -624.000; -690.000
275.097; -101.375;-1014.000; -922.000
275.237; -124.475; -913.000; -803.000
275.377;  -91.200; -778.000; -689.000
275.517; -156.125; -878.000; -937.000
275.658;  -58.650; -590.000; -555.000
275.798;  -82.725; -606.000; -413.000
275.938;   24.600;  215.000;  323.000
276.078;  -70.300; -626.000; -395.000
276.218;    5.725;   99.000;  104.000
276.359; -133.525;-1026.000;-1024.000
276.499;  -64.675; -605.000; -446.000
276.639;  -37.675; -305.000; -151.000
276.779;  -51.450; -475.000; -357.000
276.919; -100.750; -783.000; -624.000
277.059;  -30.900; -261.000; -212.000
277.199;  -53.925; -357.000; -259.000
277.340;   22.850;  287.000;  175.000
277.480; -104.075; -840.000; -693.000
277.620;   14.475;  192.000;   16.000
277.760; -186.200;-1533.000;-1294.000
277.900;    0.575;  113.000;   33.000
278.040;   -6.425;  137.000;  159.000
278.180;   20.775;  270.000;  170.000
278.320;   -5.725;   21.000;   56.000
278.460;  -66.375; -443.000; -469.000
278.600;  -68.400; -708.000; -598.000
278.740;   47.200;  448.000;  224.000
278.880; -104.725; -768.000; -791.000
279.020;  -21.700; -194.000; -144.000
279.160;  -94.950; -672.000; -595.000
279.300; -121.225; -926.000; -873.000
279.440; -102.275; -709.000; -622.000
279.579;  -80.900;-1014.000; -929.000
279.719;  -54.200; -410.000; -394.000
279.859;   49.100;   -4.000;   41.000
279.999;   -2.275; -208.000;  101.000
280.139;  -38.500; -435.000; -387.000
280.279;  -96.375; -708.000; -745.000
280.419;  -18.375; -229.000; -147.000
280.559;  -46.675; -259.000; -180.000
280.698;  -95.125; -790.000; -639.000
280.838; -111.250; -778.000; -800.000
280.978; -107.275; -846.000; -790.000
281.118; -103.750; -811.000; -704.000
281.257;   -8.400;   24.000;    6.000
281.397; -138.000;-1094.000; -960.000
281.537; -103.525; -599.000; -712.000
281.677;  -41.725; -150.000; -101.000
281.816;  -86.350; -700.000; -630.000
281.956;  -51.550; -193.000; -257.000
282.096;  -65.725; -539.000; -396.000
282.235; -108.500; -672.000; -638.000
282.375;  -23.575; -243.000;  -98.000
282.515;  -89.575; -715.000; -707.000
282.654;   17.375;   29.000;  106.000
282.794;   15.575;  388.000;  244.000
282.934;  -62.100; -530.000; -491.000
283.073; -138.575;-1030.000; -857.000
283.213;  -54.825; -460.000; -467.000
283.353;  -57.725; -408.000; -349.000
283.492;  -43.775; -264.000; -296.000
283.632;  -60.575; -254.000; -168.000
283.771;  -93.725; -859.000; -730.000
283.911;  -68.075; -369.000; -260.000
284.050; -106.725; -794.000; -748.000
284.190; -144.175;-1229.000;-1096.000
284.329; -137.725;-1055.000; -964.000
284.469;  -79.575; -516.000; -591.000
284.608;  -61.650; -559.000; -598.000
284.748;  -94.875; -614.000; -570.000
284.887;   -5.925;  -87.000;  -20.000
285.027; -129.975; -844.000; -892.000
285.166;  -45.475; -192.000; -249.000
285.306;  -17.350; -116.000;  -33.000
285.445;  -33.800; -229.000; -343.000
285.584;  -94.950; -630.000; -494.000
285.724;  -40.850; -282.000; -322.000
285.863; -111.600; -857.000; -507.000
286.002;  -45.400; -366.000; -276.000
286.142; -103.100; -715.000; -622.000
286.281;  -76.025; -525.000; -493.000
286.420;  -74.975; -554.000; -417.000
286.560;   67.025;  653.000;  623.000
286.699; -121.400; -958.000; -912.000
286.838;  -87.375; -590.000; -591.000
286.978;  -73.450; -533.000; -537.000
287.117; -123.925;-1085.000; -950.000
287.256;  -36.400; -228.000; -211.000
287.395;  -58.425; -197.000; -378.000
287.535;  -38.750; -370.000; -298.000
287.674;  -88.600; -509.000; -484.000
287.813;   55.550;  661.000;  533.000
287.952; -132.725;-1010.000; -871.000
288.091; -147.625;-1049.000; -915.000
288.231;    7.225;   13.000;   15.000
288.370; -167.925;-1217.000;-1200.000
288.509;  -86.000; -728.000; -645.000
288.648;  -93.325; -770.000; -548.000
288.787;  -40.925; -243.000;  -87.000
288.926;  -63.200; -454.000; -475.000
289.065;   97.075;  859.000;  672.000
289.204;  -70.450; -377.000; -217.000
289.344;  -88.100; -791.000; -690.000
289.483;    7.925;  416.000;  304.000
289.622;  -39.000; -291.000; -149.000
289.761;  -22.725; -309.000; -166.000
289.900; -104.825; -785.000; -626.000
290.039;  -30.375;  -12.000;  -95.000
290.178;  -33.300; -274.000; -180.000
290.317;  -79.675; -618.000; -479.000
290.456;  -64.000; -463.000; -451.000
290.595; -122.125; -961.000; -833.000
290.734; -122.675; -904.000; -891.000
290.873;  -60.825; -456.000; -420.000
291.011; -115.000; -833.000; -843.000
291.150; -114.125; -770.000; -682.000
291.289;  -35.400; -343.000; -110.000
291.428;  -85.550; -599.000; -480.000
291.567;  -54.800; -370.000; -442.000
291.706;   -9.650;  109.000;  154.000
291.845;  -90.775; -597.000; -505.000
291.984; -159.450;-1234.000;-1061.000
292.122;   47.825;  602.000;  582.000
292.261;   41.225;  620.000;  463.000
292.400;   -8.375; -144.000;  211.000
292.539; -134.450; -959.000; -813.000
292.678;  -52.425; -325.000; -300.000
292.816; -152.775;-1136.000; -965.000
292.955;  -87.125; -844.000; -684.000
293.094;  -35.275; -173.000; -337.000
293.233;  -49.500; -556.000; -400.000
293.371;  -38.500; -225.000;  -84.000
293.510;  -99.900; -866.000; -780.000
293.649; -130.325; -959.000; -924.000
293.787; -112.125;-1083.000;-1012.000
293.926;  -13.625; -113.000;  -32.000
294.065;  -47.850; -379.000; -290.000
294.203;   35.000;  298.000;  406.000
294.342;   32.450;   74.000;  156.000
294.481; 5263.250;51180.000; -836.000
294.619;  -32.000; -425.000; -582.000
294.758; -153.350;-1230.000;-1137.000
294.896;    6.550; -125.000;    5.000
295.035; -128.300;-1040.000;-1006.000
295.174; -118.800;-1082.000; -954.000
295.312;  -43.550; -323.000; -203.000
295.451;  -35.500; -307.000; -428.000
295.589;  -73.975; -389.000; -518.000
295.728;    6.675; -292.000; -165.000
295.866;  -19.700;  -36.000;  -51.000
296.005;  -68.150; -584.000; -341.000
296.143;  -77.750; -558.000; -596.000
296.282; -101.100; -957.000; -881.000
296.420;  -98.825; -657.000; -557.000
296.559;  -94.350; -892.000; -633.000
296.697;  -59.775; -847.000; -665.000
296.835;  -86.950;-1141.000;-1002.000
296.974;   10.675;  -23.000;   39.000
297.112;  -38.800; -443.000; -504.000
297.251;  -86.075; -815.000; -755.000
297.389;  -23.600; -576.000; -438.000
297.527;   -3.950; -145.000;  -83.000
297.666;  -58.375; -486.000; -438.000
297.804;  -58.250; -404.000; -264.000
297.942;   -9.675; -136.000; -161.000
298.081;   -3.200; -183.000;   63.000
298.219;   21.875;  -17.000;  -19.000
298.357;  -11.950; -144.000;  -71.000
298.495;  -71.325; -810.000; -812.000
298.634;   24.425;  245.000;  219.000
298.772;  -21.050; -220.000; -338.000
298.910;  -64.200; -309.000; -182.000
299.048;  -13.900; -130.000; -153.000
299.187;  -43.425; -350.000; -250.000
299.325;   -3.375;   52.000;  122.000
299.463;  -29.775; -389.000; -299.000
299.601;   -3.425; -327.000; -271.000
299.739; -134.175; -908.000; -883.000
299.877;  -95.700; -791.000; -703.000
300.016; -111.825;-1095.000; -935.000
300.154;   40.050;  -19.000; -161.000
300.292;  -28.675; -428.000; -348.000
300.430;  -42.150; -408.000; -291.000
300.568; -133.850; -940.000; -874.000
300.706;  -68.225; -366.000; -469.000
300.844; -125.050;-1108.000; -979.000
300.982;   65.550;  246.000;  282.000
301.120; -136.875; -965.000; -866.000
301.258;  -93.850; -812.000; -705.000
301.396;   -6.875;  104.000;  -41.000
301.534;  -31.150; -218.000; -293.000
301.672;  -80.150; -664.000; -521.000
301.810;  -53.475; -613.000; -545.000
301.948;   41.775;   53.000;  149.000
302.086;  209.800; -250.000;  -32.000
302.224;  232.725; -610.000; -585.000
302.362;  -60.900; -558.000; -622.000
302.500;  -90.625; -923.000; -893.000
302.638;   31.325;  128.000;  245.000
302.776;  -32.300; -352.000; -408.000
302.913;   15.800;  447.000;  236.000
303.051;  -33.100;  -86.000;  -23.000
303.189;   16.850;   90.000;  118.000
303.327;  -43.425; -341.000; -256.000
303.465;  -81.700; -832.000; -588.000
303.603; -103.000; -805.000; -604.000
303.740;   52.925;  417.000;  241.000
303.878;  -71.600; -800.000; -759.000
304.016;  -99.075; -915.000; -790.000
304.154; -144.900;-1123.000;-1152.000
304.291;  -57.825; -505.000; -554.000
304.429;    6.275;  102.000;   74.000
304.567; -123.300; -908.000; -893.000
304.705;  -61.800; -408.000; -515.000
304.842;  -18.525; -616.000; -540.000
304.980;   18.525;  215.000;   35.000
305.118;  -23.725; -367.000; -365.000
305.255; -114.500; -945.000; -927.000
305.393;   37.850;  178.000;  239.000
305.531; -140.775;-1173.000; -956.000
305.668;  -81.125; -663.000; -582.000
305.806;    3.100; -358.000; -439.000
305.943;  -19.250; -629.000; -637.000
306.081;  -18.525; -378.000; -267.000
306.219;  -99.225; -863.000; -748.000
306.356;   11.925;  158.000;   27.000
306.494;  119.675;  981.000;  761.000
306.631;  -12.500;  -11.000;  -55.000
306.769;  -13.425; -613.000; -485.000
306.906;  -24.500; -284.000; -258.000
307.044;  -41.550; -473.000; -488.000
307.181;  -45.575; -410.000; -332.000
307.319;    4.750;  112.000;   87.000
307.456; -170.100;-1191.000;-1153.000
307.594; -119.275; -980.000; -727.000
307.731;  -29.575; -371.000; -164.000
307.868;   -9.875;  -15.000;   20.000
308.006; -122.975; -961.000; -847.000
308.143;  -72.950; -618.000; -330.000
308.281;   45.725;  -37.000; -254.000
308.418;  -54.550; -748.000; -640.000
308.555;  -86.100; -400.000; -250.000
308.693;  -70.550; -577.000; -573.000
308.830;  -93.800; -712.000; -657.000
308.967;  -17.600; -215.000;  -95.000
309.105;  -32.500; -507.000; -396.000
309.242;   -7.850; -468.000; -367.000
309.379;   39.925; -577.000; -655.000
309.517;  -90.475; -936.000; -948.000
309.654;  -94.725; -910.000; -734.000
309.791;  -53.275; -662.000; -580.000
309.928; -118.425; -977.000; -914.000
310.065;  136.175;  819.000;  697.000
310.203;  -75.050; -825.000; -850.000
310.340;  -35.725; -465.000; -321.000
310.477;  -76.200; -412.000; -516.000
310.614;  -58.225; -383.000; -473.000
310.751;  -68.925; -427.000; -518.000
310.889;  -17.850;    1.000;   11.000
311.026; -143.950;-1161.000; -939.000
311.163;  -41.250; -386.000; -380.000
311.300;  -69.950; -512.000; -479.000
311.437;  -71.500; -658.000; -619.000
311.574; -139.450;-1226.000; -985.000
311.711;  -47.650; -595.000; -433.000
311.848;  -25.250; -380.000; -388.000
311.985;   22.275;  270.000;   93.000
312.122; -120.000; -932.000; -762.000
312.259; -107.175; -941.000; -994.000
312.396;  -72.325; -508.000; -551.000
312.533;  -74.650; -812.000; -790.000
312.670; -133.575;-1070.000; -898.000
312.807;  -18.925; -352.000; -367.000
312.944;  -71.750; -513.000; -611.000
313.081;   -9.425; -150.000; -415.000
313.218;  -87.925;-1111.000; -867.000
313.355;   -0.275; -531.000; -449.000
313.492;   -9.625; -455.000; -292.000
313.629;  131.550;  815.000;  735.000
313.766; -143.650;-1176.000;-1008.000
313.902;  -14.175; -186.000;   21.000
314.039;  -43.375; -372.000; -289.000
314.176;   22.700;  286.000;  192.000
314.313;  -74.950; -569.000; -473.000
314.450;  -79.275; -788.000; -684.000
314.587;  -59.550; -468.000; -480.000
314.723;    7.825;  -78.000;  130.000
314.860;   36.400;  318.000;  332.000
314.997;   36.450;  223.000;  142.000
315.134;  -33.300; -385.000; -368.000
315.270;  -20.500; -480.000; -496.000
315.407; -116.050;-1094.000; -967.000
315.544;  -54.525; -657.000; -538.000
315.681;  -59.200; -681.000; -565.000
315.817;   43.575; -133.000; -176.000
315.954;   36.000; -613.000; -392.000
316.091; -112.475;-1045.000;-1023.000
316.227;  -25.600;  -71.000; -179.000
316.364;   -7.500;   23.000;    6.000
316.500;  -50.050; -113.000; -300.000
316.637;  -52.150; -181.000; -302.000
316.774;  -91.175; -625.000; -358.000
316.910;  -83.375; -598.000; -629.000
317.047;  -65.525; -487.000; -351.000
317.183;  -50.325; -435.000; -566.000
317.320;   24.325; -367.000; -321.000
317.456;  -39.725; -733.000; -805.000
317.593;  -83.350; -598.000; -641.000
317.729;  -10.200;  168.000;  -67.000
317.866; -183.075;-1434.000;-1285.000
318.002;  -95.775; -708.000; -948.000
318.139; -113.025; -883.000; -867.000
318.275; -104.525;-1003.000; -738.000
318.412;  -66.100; -517.000; -336.000
318.548;  -79.100; -751.000; -720.000
318.685; -103.500; -985.000; -888.000
318.821;  -87.200; -762.000; -735.000
318.957;  -19.825;   34.000;  -23.000
319.094;   28.450;  297.000;  154.000
319.230;  -77.525; -756.000; -742.000
319.367;   -5.225; -471.000; -520.000
319.503;  -16.875; -538.000; -436.000
319.639; -101.375; -877.000; -793.000
319.775; -100.075; -750.000; -685.000
319.912;  -63.150; -424.000; -519.000
320.048;  -95.125;-1184.000;-1184.000
320.184;   83.725;   59.000;   70.000
320.321;  -49.250; -497.000; -467.000
320.457;   80.725;  475.000;  662.000
320.593;  -68.825; -375.000; -382.000
320.729; -102.750; -732.000; -734.000
320.866;  -62.450; -577.000; -635.000
321.002; -100.300; -759.000; -809.000
321.138;  -42.425; -135.000; -211.000
321.274;   10.625; -148.000; -115.000
321.410;  -65.625; -585.000; -353.000
321.546; -107.900;-1011.000; -911.000
321.683;    8.975;  400.000;  185.000
321.819;  -18.825;  -48.000; -117.000
321.955; -126.475; -743.000; -722.000
322.091;  -83.875; -585.000; -540.000
322.227;  -43.975; -382.000; -202.000
322.363;  -41.975; -320.000; -215.000
322.499;  -54.275; -343.000; -331.000
322.635;   89.175;  636.000;  443.000
322.771;  -29.300; -139.000;   12.000
322.907;   48.550;  129.000;  327.000
323.043;  -32.150; -115.000; -206.000
323.179;  -57.425; -394.000; -363.000
323.315;  -47.400; -401.000; -371.000
323.451;   19.025; -328.000; -236.000
323.587;   57.200;  -60.000;  -77.000
323.723;  -56.675; -682.000; -601.000
323.859;  -36.375; -258.000;  -76.000
323.995;  -56.150; -467.000; -409.000
324.131; -123.825; -967.000; -892.000
324.267;  -44.600; -254.000; -276.000
324.402; -139.525; -960.000; -983.000
324.538;  -39.850; -279.000; -104.000
324.674;   -7.550;  164.000;   77.000
324.810;   48.425;  226.000;  308.000
324.946;  -48.075; -810.000; -658.000
325.082;  -74.875; -568.000; -475.000
325.217;  -22.900;  -62.000;   16.000
325.353; -108.025; -764.000; -659.000
325.489; -101.800; -540.000; -506.000
325.625;  -72.325; -579.000; -525.000
325.760;   85.275;  517.000;  376.000
325.896;   16.700; -515.000; -702.000
326.032;  -47.025; -403.000; -352.000
326.168;  -63.150; -462.000; -369.000
326.303;  -60.050; -352.000; -461.000
326.439;  -13.050; -336.000; -276.000
326.575;   -8.375; -190.000;  -29.000
326.710;  -14.550; -156.000;  -30.000
326.846;  -31.150;  146.000;  103.000
326.982;  -80.875; -530.000; -548.000
327.117;  -89.550; -481.000; -442.000
327.253;  -70.450; -745.000; -742.000
327.388; -156.075;-1137.000;-1153.000
327.524;  -71.850; -811.000; -578.000
327.659;  -27.650;  -58.000;  -22.000
327.795;  -22.375;   69.000;   45.000
327.931;  -72.175; -723.000; -499.000
328.066;  -25.300; -417.000; -276.000
328.202;  -38.525;   12.000; -129.000
328.337;  104.825;  957.000;  713.000
328.473;   31.975;  -12.000;  -74.000
328.608;  -33.300; -256.000; -267.000
328.743; -106.250; -799.000; -664.000
328.879;    4.125;  214.000;  114.000
329.014;  -25.550; -102.000; -122.000
329.150;  -83.450; -358.000; -483.000
329.285;  -87.500; -465.000; -466.000
329.421;  -58.700; -548.000; -246.000
329.556;  -32.175;  -36.000;   85.000
329.691;  -92.425; -633.000; -615.000
329.827;  -79.450; -626.000; -480.000
329.962;  -49.025;  131.000; -301.000
330.097;  -91.850; -673.000; -585.000
330.233;  -36.975; -410.000; -223.000
330.368; -121.500; -839.000; -628.000
330.503;   -9.575;    3.000;   98.000
330.638;  -14.950;  -93.000; -125.000
330.774;  -74.025; -609.000; -530.000
330.909;  -46.675; -434.000; -244.000
331.044;  -96.775; -714.000; -708.000
331.179; -171.750;-1217.000;-1109.000
331.315;   -4.675;   77.000;   20.000
331.450;    5.475;  157.000;  285.000
331.585;  -86.650; -805.000; -706.000
331.720;  -87.675; -510.000; -460.000
331.855;    6.375;  -35.000; -102.000
331.990;  421.950;   62.000;  138.000
332.126;  209.325; -110.000;   71.000
332.261;   11.725; -379.000; -265.000
332.396;   20.725; -135.000; -242.000
332.531;  -60.425;-1074.000;-1031.000
332.666;   94.900; -519.000; -363.000
332.801; -103.550; -726.000; -807.000
332.936;  -24.525; -192.000; -122.000
333.071; -132.675; -870.000; -817.000
333.206;    1.600;  307.000;  379.000
333.341;   10.575;  344.000;  418.000
333.476;  -75.100; -627.000; -623.000
333.611;  -34.925; -251.000; -173.000
333.746;  -58.500; -381.000; -464.000
333.881; -118.800; -973.000; -935.000
334.016; -132.200; -936.000; -917.000
334.151; -108.975; -746.000; -702.000
334.286;   17.825;  152.000;  186.000
334.421;  -17.650; -125.000; -178.000
334.556;  -67.325; -611.000; -567.000
334.690;  -91.500; -631.000; -577.000
334.825;   46.525;  381.000;   83.000
334.960;  -53.750; -285.000; -413.000
335.095;    5.775;  135.000;  -91.000
335.230;  -94.450; -722.000; -738.000
335.365; -121.200;-1084.000; -990.000
335.499; -136.500;-1108.000;-1037.000
335.634;   17.550;    9.000;  534.000
335.769;  -91.625; -755.000; -720.000
335.904;  -43.525; -603.000; -561.000
336.038;  -38.025; -735.000; -657.000
336.173; -110.475;-1206.000;-1194.000
336.308;   16.850; -116.000; -189.000
336.443;   49.150; -544.000; -634.000
336.577;  -40.125; -936.000; -787.000
336.712;   78.350;   -4.000;  -12.000
336.847;  -12.700; -724.000; -607.000
336.981;   63.600; -272.000; -208.000
337.116;  298.375;  615.000;  501.000
337.250;  110.750; -434.000; -421.000
337.385;  481.350; -297.000; -208.000
337.520;  231.175; -632.000; -603.000
337.654;  -29.125; -215.000; -126.000
337.789; -113.000; -989.000; -933.000
337.923;  -37.425; -104.000; -205.000
338.058; -109.650; -673.000; -738.000
338.192;  -53.675; -611.000; -488.000
338.327;   -8.025;  -18.000; -155.000
338.461;  -68.075; -299.000; -469.000
338.596;  -94.725; -780.000; -638.000
338.730;  -86.025; -767.000; -803.000
338.865;  166.400;  -46.000; -140.000
338.999;   17.375; -846.000; -702.000
339.134;    1.575; -634.000; -536.000
339.268;   42.375; -741.000; -603.000
339.403;  557.750; -740.000; -775.000
339.537;  281.650; -894.000; -820.000
339.671;  -95.125; -829.000; -813.000
339.806;  -20.500; -556.000; -512.000
339.940;   34.400; -261.000; -235.000
340.074; -108.825; -685.000; -510.000
340.209;  -44.925; -351.000; -230.000
340.343;  -93.950; -517.000; -573.000
340.477;  114.975;  998.000; 1036.000
340.612;    8.175;-1033.000; -900.000
340.746;  230.725; -199.000; -243.000
340.880; -101.750; -924.000; -785.000
341.014;  -23.500;  -45.000; -154.000
341.149; -118.325; -756.000; -718.000
341.283; -115.575; -839.000; -754.000
341.417; -131.725;-1124.000; -938.000
341.551;  -33.775; -768.000; -708.000
341.685;  -64.150; -633.000; -611.000
341.820;  -48.500; -562.000; -493.000
341.954;  -50.700; -218.000; -349.000
342.088; -142.725;-1102.000;-1019.000
342.222;   36.325;  565.000;  618.000
342.356;  -85.250; -395.000; -335.000
342.490; -116.625; -880.000; -841.000
342.624;  -60.725; -339.000; -242.000
342.758;  -62.100; -364.000; -312.000
342.892;  -91.725; -710.000; -585.000
343.026;  -45.100;  -58.000; -116.000
343.160;  -61.300; -426.000; -376.000
343.294;  -83.850; -474.000; -337.000
343.428;  -71.875; -488.000; -448.000
343.562;  -25.750; -172.000;  -23.000
343.696;  -63.600; -385.000; -314.000
343.830;  -49.525; -362.000; -356.000
343.964;  -22.850; -231.000; -168.000
344.098;  304.650;  199.000;   70.000
344.232;  250.100; -266.000; -127.000
344.366;   75.075; -567.000; -453.000
344.500;  -33.925; -665.000; -744.000
344.634;  -42.025; -324.000; -164.000
344.768;  -61.750; -531.000; -341.000
344.902;    0.025;  278.000;  256.000
345.035;  -79.850; -556.000; -496.000
345.169; -134.975; -933.000; -656.000
345.303;  -46.775; -308.000; -482.000
345.437; -112.550; -826.000; -717.000
345.571;  -59.425; -675.000; -594.000
345.704;  -73.050; -309.000; -532.000
345.838;  -18.675; -331.000; -284.000
345.972;  -64.825; -543.000; -495.000
346.106;  259.475; -179.000; -190.000
346.239;  473.075; -312.000; -243.000
346.373;    6.400; -343.000; -302.000
346.507; -129.250; -950.000; -962.000
346.640;   18.475;  -30.000;   13.000
346.774;  -89.700; -650.000; -797.000
346.908;  -19.475; -138.000;  -11.000
347.041; -107.300; -646.000; -593.000
347.175;    2.850;  259.000;   27.000
347.309; -110.575; -698.000; -628.000
347.442; -117.400; -883.000; -732.000
347.576;  136.825;  670.000;  668.000
347.709;   36.500; -123.000;  -52.000
347.843; -114.100; -933.000; -825.000
347.976;   18.000;  235.000;  294.000
348.110; -190.375;-1268.000;-1186.000
348.243;  -91.625; -679.000; -772.000
348.377;    0.900;  -26.000;   60.000
348.510;   23.825;  403.000;  540.000
348.644;  -45.875;  -37.000; -159.000
348.777;   -5.650;  180.000;  191.000
348.911;  -65.100; -142.000; -112.000
349.044;   75.100;  471.000;  448.000
349.178;  -38.400;-1069.000;-1006.000
349.311;   94.050;  141.000;  255.000
349.444;   22.725; -927.000; -813.000
349.578;  -33.575; -347.000; -200.000
349.711; -125.250; -959.000; -862.000
349.845;  -71.950; -661.000; -591.000
349.978; -168.825;-1224.000;-1137.000
350.111;  -89.875; -546.000; -612.000
350.244; -109.150; -596.000; -700.000
350.378;  -66.775; -392.000; -393.000
350.511;  -66.475; -393.000; -426.000
350.644; -103.300; -808.000; -806.000
350.778;    8.650;  168.000;  104.000
350.911;   -7.300;  134.000;  140.000
351.044; -116.125; -685.000; -615.000
351.177;  -42.700; -321.000; -281.000
351.310;  -19.750;    3.000; -131.000
351.444; -106.125; -888.000; -788.000
351.577;   45.200;  140.000;   90.000
351.710;   80.525;  593.000;  417.000
351.843;  -40.475; -165.000;  -77.000
351.976;   -0.550;  149.000;  -79.000
352.109;  -93.150; -621.000; -612.000
352.242;  -61.125; -464.000; -419.000
352.376;  -92.175; -580.000; -636.000
352.509;   10.800; -437.000; -356.000
352.642;  -80.500; -654.000; -604.000
352.775;    1.900; -141.000;  -98.000
352.908; -119.150; -933.000; -904.000
353.041; -111.900; -814.000; -824.000
353.174;  -55.100; -551.000; -424.000
353.307;  -86.825; -753.000; -764.000
353.440;   53.550;  541.000;  453.000
353.573;  -97.125; -957.000;-1008.000
353.706;  -59.625; -384.000; -558.000
353.839;  -43.400; -264.000; -220.000
353.971;  -94.225; -657.000; -512.000
354.104; -106.925; -896.000; -835.000
354.237;  -87.250; -627.000; -662.000
354.370;  -87.725; -846.000; -879.000
354.503; -167.350;-1231.000;-1308.000
354.636;  -27.200; -529.000; -348.000
354.769; -128.250; -937.000; -860.000
354.902;  -27.275; -230.000; -139.000
355.034;  -23.575; -164.000; -220.000
355.167;  -13.975; -262.000; -162.000
355.300;  -71.225;-1061.000; -880.000
355.433; 1431.075;  -71.000;  -14.000
355.565; 2262.075; -402.000; -384.000
355.698;  584.300; -356.000; -296.000
355.831;  -12.200; -882.000; -801.000
355.964;   24.775; -285.000; -170.000
356.096;  -71.800; -856.000; -843.000
356.229;   -1.400; -523.000; -530.000
356.362;  535.800; -373.000; -266.000
356.494;  914.300; -229.000; -162.000
356.627;  327.650;  269.000;  377.000
356.760;  905.275;  120.000;   53.000
356.892; 1531.900; -286.000; -601.000
357.025;  361.925;  403.000;  389.000
357.157;  235.050; -167.000; -179.000
357.290; 1203.075; -856.000; -713.000
357.423;  382.825; -667.000; -556.000
357.555;   99.825; -217.000; -228.000
357.688;  100.925; -483.000; -364.000
357.820;  172.050; -870.000; -877.000
357.953; 1492.925; -563.000; -589.000
358.085;  236.400; -632.000; -612.000
358.218;  121.950;-1131.000; -932.000
358.350;   30.575;  -58.000;  312.000
358.483; -167.800;-1300.000;-1187.000
358.615; -128.950;-1182.000;-1078.000
358.747; -148.725;-1187.000;-1058.000
358.880;  -48.525; -810.000; -744.000
359.012;  -26.550; -376.000; -202.000
359.145;  -67.375; -480.000; -511.000
359.277;  -57.275; -962.000; -913.000
359.409; 1242.925;  536.000;  231.000
359.542;  265.850; -738.000; -688.000
359.674;   11.300;   46.000;   13.000
359.806;  -79.700; -565.000; -438.000
359.939;  -42.850; -617.000; -516.000
360.071;   31.675; -583.000; -579.000
360.203;  -34.550; -411.000; -364.000
360.335;   18.100;  164.000;  -16.000
360.468;   94.350; -249.000; -307.000
360.600; 1326.700; -547.000; -454.000
360.732; 4293.000; -546.000; -423.000
360.864;  651.500;-1216.000;-1044.000
360.996;   65.900; -516.000; -554.000
361.129;  -40.250; -389.000; -598.000
361.261;  -19.975;  110.000; -113.000
361.393;  -52.100; -252.000; -214.000
361.525;   -4.525;   94.000;  244.000
361.657; -106.050; -821.000; -703.000
361.789;  -31.500; -139.000; -155.000
361.921;  -42.150; -642.000; -593.000
362.053;   91.575;  524.000;  541.000
362.185;   -0.650;  288.000;   72.000
362.318; -117.900; -709.000; -705.000
362.450;   28.575;  294.000;  444.000
362.582;  -96.400; -913.000; -870.000
362.714;  -46.925; -353.000; -332.000
362.846;  -85.625; -606.000; -490.000
362.978; -123.825; -941.000; -811.000
363.109;  -38.275; -161.000; -260.000
363.241;  155.700; -739.000; -749.000
363.373;  646.350; -649.000; -564.000
363.505; 1051.300; -186.000;  -91.000
363.637;  234.525; -787.000; -601.000
363.769; -125.450;-1067.000;-1080.000
363.901;  -90.925; -596.000; -654.000
364.033; -153.050;-1103.000;-1062.000
364.165;  -23.450; -283.000; -283.000
364.296;   94.400; -316.000; -177.000
364.428;  196.500;-1344.000;-1220.000
364.560;  -52.325; -679.000; -661.000
364.692;  -87.325; -738.000; -835.000
364.824;  -21.625; -588.000; -456.000
364.955;  506.750; -402.000; -564.000
365.087; 1727.450;-1097.000; -852.000
365.219;  103.075; -686.000; -816.000
365.351;  -63.350; -526.000; -572.000
365.482;   16.475;  300.000;  240.000
365.614;  -60.175; -402.000; -314.000
365.746; -111.325; -729.000; -752.000
365.877;  -90.225; -706.000; -672.000
366.009;  422.725;  -35.000;  -62.000
366.141;  -29.325;-1249.000;-1134.000
366.272; -100.850; -803.000; -719.000
366.404; -117.275;-1005.000; -874.000
366.535;  -17.950; -139.000;  -12.000
366.667; -109.500; -644.000; -649.000
366.799;   29.550;  353.000;  203.000
366.930; -136.225; -862.000; -996.000
367.062;  185.475; -639.000; -613.000
367.193;  358.925; -872.000; -842.000
367.325;  -39.325; -580.000; -684.000
367.456;   -8.175; -246.000;   31.000
367.588;  276.750; -371.000; -318.000
367.719;   40.875;  -44.000;  -45.000
367.851;  -47.300; -222.000; -241.000
367.982; -108.375; -875.000; -732.000
368.113;   -2.625; -475.000; -358.000
368.245; -143.750; -960.000; -841.000
368.376;  -48.950; -254.000; -302.000
368.508;  -53.050; -188.000; -263.000
368.639; -157.250;-1166.000;-1034.000
368.770;  -88.000; -670.000; -589.000
368.902; -100.675; -836.000; -926.000
369.033; -129.400; -906.000; -855.000
369.164;  -38.850; -720.000; -653.000
369.296; -108.750; -452.000; -601.000
369.427;  -30.950; -209.000; -144.000
369.558;  -66.350; -593.000; -377.000
369.689;  -91.850; -721.000; -569.000
369.821; -126.425; -951.000; -845.000
369.952;  -40.850;   42.000; -108.000
370.083;  -49.675; -229.000; -108.000
370.214; -106.375; -735.000; -650.000
370.345;  -17.800;   65.000;   81.000
370.477; -100.600; -810.000; -790.000
370.608;   25.350; -328.000; -264.000
370.739; -135.000;-1233.000;-1292.000
370.870; -119.225;-1102.000; -923.000
371.001;  -25.725; -378.000; -467.000
371.132; -100.250; -754.000; -735.000
371.263;  -31.450;  -42.000; -148.000
371.394; -144.775; -841.000; -748.000
371.525;   -0.975;  345.000;  225.000
371.657; -109.300; -808.000; -670.000
371.788;   30.050;  103.000;  199.000
371.919;   10.750; -384.000; -304.000
372.050; 1280.925;  -91.000; -156.000
372.181;  384.975; -188.000; -294.000
372.311;  106.675;   42.000; -127.000
372.442;  -40.500; -457.000; -451.000
372.573;  -54.275; -444.000; -340.000
372.704; -154.525;-1008.000; -980.000
372.835;  -20.325; -228.000; -289.000
372.966;  -85.325; -646.000; -554.000
373.097;  -97.625; -575.000; -711.000
373.228;  -94.100; -717.000; -542.000
373.359;  -43.700; -824.000; -536.000
373.490;  162.575; -881.000; -727.000
373.620;  266.825;-1001.000; -803.000
373.751;  542.625; -332.000; -396.000
373.882;  226.200; -663.000; -733.000
374.013;  -19.550; -449.000; -262.000
374.143;  -90.950; -581.000; -659.000
374.274; -121.300; -987.000; -908.000
374.405;   55.100; -388.000; -276.000
374.536;  105.950; -526.000; -387.000
374.666;  286.850; -759.000; -807.000
374.797;   -4.375; -817.000; -868.000
374.928;  194.250; -710.000; -560.000
375.058;  210.275; -535.000; -500.000
375.189;    7.000;  -59.000;  -93.000
375.320; -131.075; -928.000;-1034.000
375.450;  -61.675; -625.000; -616.000
375.581;  -65.200; -526.000; -436.000
375.712;  -51.400; -574.000; -250.000
375.842;    8.550; -438.000; -415.000
375.973;  -13.425; -554.000; -513.000
376.103; -105.825; -665.000; -648.000
376.234;  -92.500; -531.000; -552.000
376.364; -108.300; -944.000; -867.000
376.495;  140.000;  925.000;  529.000
376.625;  -61.675; -472.000; -485.000
376.756;  -77.900; -709.000; -678.000
376.886; -140.125;-1178.000;-1026.000
377.017;  138.750;-1048.000;-1061.000
377.147;  650.600; -786.000; -782.000
377.278;   80.175;  174.000;  228.000
377.408; -120.800; -801.000; -815.000
377.538;  -92.625; -707.000; -693.000
377.669;  -85.775; -537.000; -613.000
377.799; -100.775; -645.000; -635.000
377.929;  -77.525; -610.000; -428.000
378.060; -134.150; -781.000; -847.000
378.190;  -38.125; -726.000; -531.000
378.320;  -33.925; -401.000; -406.000
378.451;  -23.650; -131.000;  -22.000
378.581;  -32.250;  -67.000; -110.000
378.711;   92.875; 1035.000;  866.000
378.841;  -71.600; -533.000; -675.000
378.972; -111.575; -871.000; -751.000
379.102;  -76.875; -652.000; -579.000
379.232;  -46.775; -126.000;  -73.000
379.362; -123.150;-1001.000; -885.000
379.492;  -54.075; -373.000; -424.000
379.623;   42.225;    0.000;  111.000
379.753; -120.625;-1107.000; -974.000
379.883;   79.550;   59.000;  156.000
380.013; -111.450;-1081.000;-1017.000
380.143; -125.925;-1097.000;-1056.000
380.273;  -98.950; -985.000; -861.000
380.403;    4.200; -344.000; -257.000
380.533;  -51.750; -651.000; -664.000
380.663;   29.100;  173.000;  128.000
380.793; -155.850;-1027.000;-1074.000
380.923;  -44.600; -103.000;  -34.000
381.053;  -98.900; -613.000; -623.000
381.183;  -40.675; -106.000; -248.000
381.313;  -67.350; -656.000; -470.000
381.443;  -50.900; -692.000; -473.000
381.573;  -47.300; -402.000; -409.000
381.703;  -78.275;-1249.000;-1095.000
381.833; -189.825;-1454.000;-1336.000
381.963;   22.775; -134.000;  -87.000
382.093;  384.375; -925.000; -909.000
382.223;   81.350; -713.000; -602.000
382.353;  -93.050; -801.000; -608.000
382.482;    4.425;-1091.000; -964.000
382.612;  166.175; -872.000; -644.000
382.742;   77.700; -695.000; -622.000
382.872;  -14.375; -565.000; -551.000
383.002;   16.725;  347.000; -132.000
383.131;  -32.200; -226.000; -160.000
383.261;  -39.875; -706.000; -768.000
383.391;  334.325; -552.000; -377.000
383.521; 5098.725;  451.000;  263.000
383.650; 1548.050; -947.000; -904.000
383.780;   34.725; -783.000; -656.000
383.910;   97.000;  880.000;  802.000
384.039;  -80.050; -794.000; -656.000
384.169;  -97.750;-1205.000;-1017.000
384.299;  -92.125; -650.000; -662.000
384.428; -111.075; -764.000; -680.000
384.558;  -62.350; -308.000; -275.000
384.687;  -70.375; -414.000; -334.000
384.817;   -6.400;   75.000;   -2.000
384.947;  -37.750; -234.000; -141.000
385.076;  140.650;  982.000;  912.000
385.206;   53.325;  369.000;  480.000
385.335;  -66.825; -549.000; -417.000
385.465; -125.375; -655.000; -663.000
385.594;   15.925;  -53.000;  -44.000
385.724;   16.700; -868.000; -838.000
385.853;    0.325; -296.000; -270.000
385.982;  360.650; -743.000; -787.000
386.112;  663.725;-1052.000; -871.000
386.241;   11.150; -307.000; -312.000
386.371;  -24.350; -174.000;  -87.000
386.500;  -48.725; -825.000; -789.000
386.629;  -13.375; -874.000; -817.000
386.759;   61.175;  -43.000;   68.000
386.888;  -23.325; -170.000; -250.000
387.017;  -96.475; -648.000; -620.000
387.147; -122.200; -771.000; -798.000
387.276;  -77.025; -410.000; -397.000
387.405;  -47.675; -398.000; -342.000
387.535;  -77.350; -452.000; -361.000
387.664;  -84.200; -692.000; -620.000
387.793;  -16.300; -198.000; -113.000
387.922;  141.600;  255.000;  200.000
388.052;  -71.625; -576.000; -423.000
388.181;  -54.600; -342.000; -472.000
388.310;  -93.375; -889.000; -710.000
388.439; -122.575; -749.000; -742.000
388.568;   42.525;  365.000;  244.000
388.697;  254.625; -756.000; -653.000
388.826;   -7.175; -768.000; -666.000
388.956;  -30.150; -285.000; -307.000
389.085;  -66.725; -347.000; -287.000
389.214; -112.075; -842.000; -872.000
389.343;  -71.150; -645.000; -413.000
389.472;  546.000;  126.000;  149.000
389.601;  640.725;   91.000;    0.000
389.730;  -17.375; -568.000; -687.000
389.859;   25.950;  226.000;   46.000
389.988;   26.600; -423.000; -408.000
390.117;   26.600; -168.000; -146.000
390.246;  -51.975; -331.000; -320.000
390.375;  -74.900; -673.000; -626.000
390.504;  -96.950; -703.000; -621.000
390.633; -128.675; -672.000; -726.000
390.761;  -97.475; -732.000; -645.000
390.890;  -33.875;   -4.000; -130.000
391.019;  -69.075; -421.000; -441.000
391.148; -135.125; -826.000; -855.000
391.277;  -96.575; -576.000; -493.000
391.406; -114.175; -821.000; -805.000
391.534;    6.225;  574.000; -301.000
391.663; -111.100; -583.000; -645.000
391.792; -119.500; -673.000; -701.000
391.921;  -14.700;   -3.000;   15.000
392.050;  -10.575; -287.000; -228.000
392.178; -139.050;-1206.000;-1061.000
392.307;  -37.350; -758.000; -712.000
392.436;  -56.850; -427.000; -641.000
392.564;   -6.400;  166.000;   -6.000
392.693; -106.450; -860.000; -682.000
392.822;   -8.850; -529.000; -534.000
392.950;  -36.725; -880.000; -714.000
393.079;   48.950; -188.000; -328.000
393.208;  -52.650; -488.000; -511.000
393.336;  -33.275; -170.000; -145.000
393.465;  -73.700; -317.000; -199.000
393.593;   -4.450;   62.000;   79.000
393.722; -138.475;-1121.000; -916.000
393.850;  -31.925; -188.000;  -61.000
393.979; -147.950; -926.000; -805.000
394.107;  -79.725; -517.000; -537.000
394.236;  -57.400; -570.000; -507.000
394.364;   96.275;  383.000;  206.000
394.493;   65.125; -911.000; -767.000
394.621;   -2.700; -955.000; -916.000
394.750; 1168.425; -873.000; -923.000
394.878; 4476.050; -247.000; -149.000
395.007; 6609.300; -721.000; -807.000
395.135;  588.175; -790.000; -721.000
395.263;  -57.225;-1038.000;-1040.000
395.392;   -3.325;  -25.000; -107.000
395.520; -129.450; -818.000; -679.000
395.648; -129.725; -865.000; -915.000
395.777;  -71.425; -366.000; -405.000
395.905;  -80.825; -449.000; -564.000
396.033;  -17.800;  217.000;  172.000
396.162;  108.375; -399.000; -453.000
396.290;  112.150;  -17.000;   -2.000
396.418;  -58.875; -555.000; -514.000
396.546;  -95.100; -571.000; -466.000
396.674; -127.700; -850.000; -878.000
396.803;  -26.100;  -72.000;  -23.000
396.931;  -32.975; -179.000; -199.000
397.059; -119.375;-1026.000; -989.000
397.187; -130.750;-1026.000; -975.000
397.315; -140.900; -884.000; -649.000
397.443;  -99.975; -592.000; -443.000
397.572; -109.900; -578.000; -424.000
397.700; -103.150; -607.000; -614.000
397.828;  -40.150;  120.000;  -90.000
397.956;  -39.025; -508.000; -478.000
398.084;  -27.825; -767.000; -626.000
398.212;    3.200;  137.000;  124.000
398.340;  -20.675;  -56.000;  159.000
398.468;  -62.275; -390.000; -169.000
398.596; -149.150; -993.000; -953.000
398.724; -123.800; -762.000; -767.000
398.852; -147.375;-1024.000; -976.000
398.980;  -84.525; -560.000; -560.000
399.108; -109.125; -982.000; -735.000
399.236;   -3.600;   13.000;    8.000
399.363;   -3.175;  222.000;  196.000
399.491;  -80.475; -404.000; -398.000
399.619; -126.575; -829.000; -800.000
399.747; -109.650; -859.000; -771.000
399.875;   30.125;  220.000;  234.000
400.003;  -69.775; -359.000; -284.000
400.130; -114.425; -421.000; -341.000
400.258;  -27.375;  -83.000;   38.000
400.386;  -87.200; -352.000; -168.000
400.514; -100.275; -526.000; -587.000
400.641; -146.775; -928.000; -802.000
400.769; -143.600; -979.000; -888.000
400.897; -132.675; -838.000; -793.000
401.025;  -50.225; -166.000; -152.000
401.152;  -22.150;  220.000;   38.000
401.280;  -87.025; -430.000; -429.000
401.408; -113.450; -712.000; -576.000
401.535; -109.100; -735.000; -758.000
401.663; -192.250;-1134.000;-1054.000
401.790; -105.200; -514.000; -525.000
401.918;   24.475;  436.000;  405.000
402.046;  -16.600;  134.000;  122.000
402.173;  -43.000;  -18.000;    7.000
402.301;  -79.125; -519.000; -397.000
402.428;   27.925;  528.000;  383.000
402.556; -155.700;-1188.000; -913.000
402.683;  -31.950;  -20.000;   -1.000
402.811;  -21.475;  -37.000; -206.000
402.938;  -25.275;   20.000;   27.000
403.066;   -1.975; -574.000; -558.000
403.193;   93.175;  299.000;  239.000
403.321;   44.475; -396.000; -574.000
403.448;  122.650;   83.000;   27.000
403.575;   32.775;  -90.000;  -46.000
403.703;  -97.500; -732.000; -557.000
403.830;  -57.625; -531.000; -496.000
403.957; -118.800;-1117.000;-1023.000
404.085;   18.725;  -61.000; -172.000
404.212;   97.225;  -50.000;   63.000
404.339;  434.475; -566.000; -306.000
404.467; 9047.675; -612.000; -524.000
404.594; 5591.775; -287.000; -227.000
404.721;  956.925; -869.000; -764.000
404.848;  103.125; -113.000; -202.000
404.976; -102.150; -856.000; -783.000
405.103;    8.175;  -14.000;  -82.000
405.230;   -9.125;  190.000;  226.000
405.357;   41.175;  117.000;   44.000
405.484;  402.375;  -49.000;    5.000
405.612;  110.575; -548.000; -563.000
405.739;  -58.275; -488.000; -243.000
405.866;   61.750;  669.000;  385.000
405.993;  -42.650; -398.000; -102.000
406.120; -135.925; -801.000; -887.000
406.247;  -88.025; -323.000; -342.000
406.374;  103.825;  540.000;  629.000
406.501;  -83.475; -632.000; -702.000
406.628;  -85.800; -621.000; -589.000
406.755; -122.175; -803.000; -620.000
406.882;  -61.550; -228.000; -277.000
407.009; -106.900; -719.000; -628.000
407.136;  -51.800; -480.000; -401.000
407.263;  -73.050; -939.000; -829.000
407.390; -102.925; -692.000; -614.000
407.517; -170.000;-1139.000;-1187.000
407.644;  -67.775; -332.000; -256.000
407.771;  -76.675; -249.000; -287.000
407.898;   -8.075;  168.000;  328.000
408.025;  -70.600; -421.000; -313.000
408.151;   -7.450;   82.000;  153.000
408.278;  -68.750; -267.000; -216.000
408.405; -140.975; -931.000; -899.000
408.532;  -89.600; -549.000; -542.000
408.659; -118.800; -677.000; -648.000
408.785; -192.025;-1298.000;-1170.000
408.912;  -67.175; -412.000; -296.000
409.039; -110.075; -610.000; -686.000
409.166; -115.950; -591.000; -555.000
409.292; -107.150; -571.000; -534.000
409.419; -118.400; -665.000; -649.000
409.546;  -90.400; -431.000; -192.000
409.672; -121.250; -713.000; -545.000
409.799;  -39.350;  -36.000;   34.000
409.926;  -53.350; -180.000; -179.000
410.052; -181.050;-1127.000;-1091.000
410.179;  -78.700; -368.000; -392.000
410.305;  -99.400; -375.000; -493.000
410.432;  -45.600; -220.000; -333.000
410.558;  -90.750; -305.000; -380.000
410.685; -100.900; -688.000; -431.000
410.812; -115.175; -409.000; -588.000
410.938; -134.850; -964.000; -808.000
411.065; -122.975; -671.000; -645.000
411.191;  -52.150; -189.000; -174.000
411.317; -135.950; -823.000; -742.000
411.444;  -75.125; -317.000; -246.000
411.570;  -74.200; -339.000; -294.000
411.697; -116.750; -758.000; -752.000
411.823; -183.975; -989.000; -999.000
411.949;  -52.000;  -56.000;   17.000
412.076; -120.225; -539.000; -519.000
412.202; -129.450; -758.000; -757.000
412.329; -131.400; -798.000; -752.000
412.455; -114.375; -821.000; -657.000
412.581;  -27.450;  -15.000;  172.000
412.707; -105.775; -540.000; -457.000
412.834;    1.450;  156.000;  219.000
412.960; -107.875; -785.000; -784.000
413.086; -106.100; -743.000; -701.000
413.212;   88.525;  604.000;  578.000
413.339; -101.400; -685.000; -701.000
413.465;  -65.725; -364.000; -310.000
413.591; -115.775; -757.000; -474.000
413.717;  -51.675; -358.000; -366.000
413.843; -133.475; -839.000; -861.000
413.969;  -61.050;  -47.000; -292.000
414.096;  -98.300; -679.000; -679.000
414.222;  -15.475;  -33.000;   85.000
414.348;  -73.050; -652.000; -385.000
414.474;   12.275;   38.000;  -52.000
414.600;  -30.650; -126.000; -144.000
414.726;  -12.125;  -96.000;  -55.000
414.852;  -41.175; -365.000; -342.000
414.978;   41.150;  104.000;  -18.000
415.104;   42.650;   38.000;   80.000
415.230;   38.075; -329.000; -330.000
415.356;   55.600; -409.000; -514.000
415.482;  247.250;   13.000;  -35.000
415.608;  402.675; -247.000; -323.000
415.734; 1342.750;   67.000;   38.000
415.860;27680.975; -875.000; -767.000
415.986;22996.100; -685.000; -607.000
416.111; 2156.375; -798.000; -652.000
416.237;  488.600; -424.000; -571.000
416.363; 1672.700; -765.000; -733.000
416.489; 6823.900; -324.000; -251.000
416.615;  921.600; -707.000; -742.000
416.741;   57.950; -677.000; -784.000
416.866;  -40.625; -673.000; -736.000
416.992; -108.375; -801.000; -818.000
417.118;  -27.300;  -41.000;  -80.000
417.244;  -81.000; -798.000; -531.000
417.369;  -73.575; -801.000; -612.000
417.495;  -14.750; -325.000; -254.000
417.621;  -91.450;-1015.000; -803.000
417.746;    3.025; -579.000; -572.000
417.872;   65.375; -254.000; -144.000
417.998;  122.825; -515.000; -530.000
418.123; 1553.350;-1073.000; -845.000
418.249; 8656.425; -512.000; -601.000
418.374; 1491.500; -916.000; -824.000
418.500;  239.125; -383.000; -482.000
418.626;  157.975;   70.000;  -59.000
418.751;  162.800; -549.000; -448.000
418.877;  313.625; -637.000; -643.000
419.002; 2556.800; -688.000; -560.000
419.128;19678.750; -930.000; -721.000
419.253; 5611.850; -967.000; -837.000
419.379;  782.350; -391.000; -338.000
419.504;  598.075;  325.000;  415.000
419.629;  835.575; -393.000; -212.000
419.755; 5360.350; -317.000; -254.000
419.880;35063.100;  -98.000;   67.000
420.006;17683.100; -280.000; -221.000
420.131;43951.350; -662.000; -775.000
420.256; 7206.675; -315.000; -316.000
420.382;  975.700; -665.000; -687.000
420.507;  169.025; -649.000; -778.000
420.632;   44.775; -337.000; -339.000
420.758;   51.500; -251.000; -425.000
420.883;  -90.625; -876.000; -672.000
421.008; -102.475; -775.000; -619.000
421.133;  -85.775; -509.000; -467.000
421.259;  -43.550; -325.000; -259.000
421.384; -138.700; -834.000; -693.000
421.509; -118.225;-1052.000; -862.000
421.634;  160.100; -936.000; -820.000
421.759;   91.250; -359.000; -327.000
421.885;  -91.800; -717.000; -656.000
422.010;  -89.800; -673.000; -542.000
422.135; -140.700; -695.000; -727.000
422.260;   13.450;  340.000;  280.000
422.385;  -48.275;   12.000;  -98.000
422.510;  -11.225;  151.000;  -26.000
422.635;  -40.275;  -87.000;  -43.000
422.760;  -19.150; -766.000; -791.000
422.885;   25.550;  -57.000;  -80.000
423.010;  -42.950; -112.000; -169.000
423.135;  -95.150; -481.000; -561.000
423.260;  -40.100; -150.000; -245.000
423.385;   16.650;  476.000;  222.000
423.510;   -0.575;   71.000;  -22.000
423.635;   -2.900;  133.000;   45.000
423.760;   42.025;  383.000;  328.000
423.885;   36.675;  336.000;  391.000
424.010;   -6.050;  -68.000;  -13.000
424.135;  -17.725;    5.000;  -33.000
424.259;  -73.625; -654.000; -457.000
424.384;  -51.150; -279.000; -272.000
424.509;  -34.125; -260.000; -186.000
424.634;  -85.975; -761.000; -623.000
424.759;  -27.425; -688.000; -544.000
424.883;   -3.200; -506.000; -527.000
425.008;  196.075; -502.000; -410.000
425.133; 2885.575; -679.000; -653.000
425.258; 1596.250; -517.000; -381.000
425.382;  515.575; -867.000; -774.000
425.507; 1156.600; -487.000; -543.000
425.632;  397.025; -802.000; -663.000
425.756;  699.350; -256.000; -146.000
425.881;10082.000; -831.000; -857.000
426.006;31287.725; -604.000; -355.000
426.130; 5264.600; -696.000; -508.000
426.255;  711.800; -611.000; -491.000
426.379;  273.200; -189.000; -577.000
426.504;  506.600;  660.000;  544.000
426.629; 5698.450; -519.000; -466.000
426.753; 4509.775;   64.000;  -46.000
426.878;  564.200; -252.000; -288.000
427.002;  313.425; -651.000; -668.000
427.127; 2106.900;  -35.000; -158.000
427.251;17361.875;  372.000;  401.000
427.375; 5726.700; -191.000; -173.000
427.500; 1334.850; -616.000; -610.000
427.624;  411.625; -234.000; -400.000
427.749;   71.825; -216.000; -225.000
427.873;  -21.700; -499.000; -412.000
427.997;  -32.825; -222.000; -230.000
428.122;   49.600;  795.000;  703.000
428.246;   30.650;  433.000;  434.000
428.371; -145.125; -869.000; -773.000
428.495;  -92.900; -624.000; -646.000
428.619;  -55.350; -186.000; -117.000
428.743;   10.075;   65.000;  132.000
428.868;  -74.850; -732.000; -643.000
428.992;  487.675; -219.000; -326.000
429.116;  187.425; -329.000; -357.000
429.240;  104.525;  419.000;  426.000
429.365;  -57.000; -454.000; -574.000
429.489;  -63.900; -638.000; -647.000
429.613;   34.700; -236.000; -177.000
429.737;   81.150; -563.000; -432.000
429.861;  380.825; -247.000; -133.000
429.985; 8008.750; -425.000; -305.000
430.109;10255.475; -770.000; -908.000
430.234; 1258.525;   76.000;  -50.000
430.358;  149.050; -250.000; -160.000
430.482;  -34.150; -672.000; -564.000
430.606;  -71.500; -655.000; -375.000
430.730;  -54.225; -437.000; -388.000
430.854;  -84.875; -909.000; -835.000
430.978; -100.675; -795.000; -764.000
431.102;  -87.000; -499.000; -422.000
431.226; -116.825; -874.000; -815.000
431.350;   12.300;  345.000;  422.000
431.474;  -88.575; -661.000; -373.000
431.597; -164.600;-1060.000; -848.000
431.721;  -73.400; -276.000; -267.000
431.845; -122.850; -704.000; -472.000
431.969;  -77.800; -304.000; -349.000
432.093;  -91.325; -395.000; -317.000
432.217;   -7.350;   32.000;   82.000
432.341; -106.075; -523.000; -518.000
432.464;   -2.975;   96.000;   40.000
432.588;  -27.125; -401.000; -329.000
432.712;   10.525;  -52.000;  -52.000
432.836;   56.325;  213.000;  263.000
432.959;   26.125; -372.000; -311.000
433.083;  141.800;   11.000;    2.000
433.207;  562.050;  285.000;  930.000
433.330; 7629.425; -391.000; -200.000
433.454;10730.200; -654.000; -638.000
433.578; 5912.425;  583.000;  278.000
433.701; 1294.450; -623.000; -675.000
433.825;  144.825; -292.000; -299.000
433.949;   40.175;   28.000;  -72.000
434.072;   -6.175; -410.000; -323.000
434.196;   -5.050; -309.000; -117.000
434.319; 3483.275;25482.000;25124.000
434.443;  869.725; -656.000; -603.000
434.566; 4167.675;  281.000;   62.000
434.690;  919.425; -637.000; -383.000
434.813;  156.225; -251.000; -173.000
434.937;  -42.375; -569.000; -696.000
435.060;  -81.275; -423.000; -332.000
435.184;   -8.025; -492.000; -217.000
435.307;   -0.125;  159.000;  102.000
435.431;  -37.875;  -40.000;   24.000
435.554;  -83.350; -399.000; -240.000
435.677;  -88.375; -350.000; -258.000
435.801;  -47.175;  -25.000;   49.000
435.924;  -43.450;    1.000;  -67.000
436.048; -150.650;-1019.000; -732.000
436.171;  -71.075; -240.000;  -66.000
436.294;  -26.675; -248.000; -229.000
436.417;  230.200; -963.000; -849.000
436.541;  -26.325; -814.000; -840.000
436.664;  -50.575; -242.000; -316.000
436.787;  -38.425;   13.000;  113.000
436.910; -118.250; -792.000; -422.000
437.034;  -15.350;  142.000;  143.000
437.157;    1.525;  -11.000;    0.000
437.280;  -85.975; -392.000; -292.000
437.403; -142.375; -982.000; -869.000
437.526;    7.500; -903.000; -865.000
437.649;  453.625; -505.000; -332.000
437.772;    0.450; -692.000; -540.000
437.896;   53.925;  700.000;  544.000
438.019;  -96.600; -758.000; -503.000
438.142; -104.475; -596.000; -506.000
438.265; -128.025; -639.000; -670.000
438.388;   20.725; -520.000; -410.000
438.511;  -76.750; -597.000; -394.000
438.634;  -71.075; -247.000; -125.000
438.757; -140.025; -693.000; -619.000
438.880;  -58.375;  -34.000;  -57.000
439.003; -101.975; -417.000; -437.000
439.126;  -74.275; -287.000; -167.000
439.248;  -73.550;  -98.000; -139.000
439.371;  -49.375;    9.000;  -53.000
439.494;   19.725;  510.000;  439.000
439.617;  -60.450;   65.000;  -88.000
439.740; -180.775; -968.000; -816.000
439.863; -135.375; -755.000; -595.000
439.986; -120.625; -476.000; -431.000
440.108;  -56.350; -161.000; -112.000
440.231; -160.825; -950.000; -836.000
440.354;  -62.325;  -64.000; -150.000
440.477; -126.725; -566.000; -542.000
440.599;  -95.600; -200.000; -225.000
440.722; -127.575; -709.000; -586.000
440.845;   52.750;  751.000;  928.000
440.968; -102.150; -415.000; -311.000
441.090;  -85.950; -199.000;  -33.000
441.213; -163.125;-1021.000; -825.000
441.336;  -58.325; -159.000;   -5.000
441.458;  -94.250; -549.000; -396.000
441.581; -130.750; -628.000; -629.000
441.703;  -73.200; -152.000;   13.000
441.826; -107.375; -557.000; -400.000
441.948;  -54.225;   56.000;   51.000
442.071;   22.025;  555.000;  424.000
442.193; -129.250; -531.000; -485.000
442.316;    5.375;  152.000;   97.000
442.438;   81.600; -233.000;  -10.000
442.561;   61.175;  272.000;  262.000
442.683;   21.375; -809.000; -522.000
442.806;  252.400;   -8.000;   74.000
442.928; -103.950; -859.000; -604.000
443.051;  -91.475; -577.000; -373.000
443.173; -103.425; -341.000; -339.000
443.295;  -85.900; -263.000; -371.000
443.418;  -83.150; -321.000;  -29.000
443.540;  -47.200; -106.000;   -4.000
443.662; -135.250; -563.000; -465.000
443.785;  -16.400;  335.000;  199.000
443.907;  -97.225; -362.000; -208.000
444.029; -128.650; -767.000; -494.000
444.152; -153.600; -644.000; -554.000
444.274;  -45.200;  -18.000;  -24.000
444.396; -111.775; -461.000; -221.000
444.518; -126.700; -691.000; -454.000
444.640;  -96.975; -268.000; -111.000
444.763;  -21.150;  388.000;  249.000
444.885; -127.975; -432.000; -392.000
445.007;  -38.175;   35.000;   86.000
445.129; -129.775; -610.000; -515.000
445.251; -109.500; -372.000; -439.000
445.373; -136.550; -537.000; -386.000
445.495;  -22.675;  242.000;  350.000
445.617;   32.325;  853.000;  753.000
445.739;  -72.625; -215.000;  -97.000
445.861;  -63.825; -245.000; -112.000
445.984;  -65.275; -267.000; -101.000
446.105;  -23.325; -418.000; -251.000
446.227;  114.300; -176.000;  -19.000
446.349;  -82.600; -358.000; -249.000
446.471; -130.575; -615.000; -448.000
446.593;  -89.175; -316.000;   19.000
446.715;  -35.525;  -67.000;   41.000
446.837;   31.200;  697.000;  832.000
446.959; -104.450; -457.000; -478.000
447.081; -128.325; -628.000; -518.000
447.203;   48.925;  862.000;  834.000
447.325;  -85.475; -270.000;   42.000
447.446;  -17.650;  286.000;  530.000
447.568; -166.775; -921.000; -803.000
447.690;  -78.525; -236.000; -245.000
447.812; -149.975; -798.000; -519.000
447.933;  -34.550;  155.000;  127.000
448.055;  -83.225; -306.000; -261.000
448.177;   15.275;   31.000;   79.000
448.299; -104.825; -935.000; -727.000
448.420;  -23.950;  -25.000;  159.000
448.542;  -52.050;   -3.000;   33.000
448.664;  -23.575;  109.000;  322.000
448.785;  -34.300;  265.000;   83.000
448.907; -103.900; -614.000; -353.000
449.028; -102.475; -771.000; -471.000
449.150;   37.275;  492.000;  589.000
449.272; -181.675;-1044.000; -913.000
449.393;   16.150;  612.000;  694.000
449.515; -147.525; -634.000; -581.000
449.636;  -78.300; -264.000; -155.000
449.758;   42.250;  763.000;  622.000
449.879;  -79.700; -498.000; -396.000
450.001;  -86.225; -149.000;  -49.000
450.122;  -41.100;  -95.000;  162.000
450.244;  -34.950;   37.000;  364.000
450.365;  -83.975; -495.000; -301.000
450.486;  -10.275;   80.000;  268.000
450.608;   42.750;  393.000;  326.000
450.729;  115.700;  578.000;  645.000
450.850;   91.275; -574.000; -466.000
450.972; 1222.875; -552.000; -389.000
451.093; 7971.150;  190.000;  588.000
451.214; 4168.125; -516.000; -337.000
451.336;  723.975;  773.000;  579.000
451.457;  121.150;  264.000;  393.000
451.578;  -11.675; -118.000;  -74.000
451.699; -113.300; -546.000; -540.000
451.821;  -50.100; -284.000;  -50.000
451.942;    9.925;  278.000;  285.000
452.063;   64.050;  228.000;  419.000
452.184;  809.300;  -54.000;  -49.000
452.305; 1740.950;  103.000;  170.000
452.427;  343.400; -549.000; -301.000
452.548;    6.450;   23.000;   79.000
452.669;  -55.525; -257.000;  -89.000
452.790;  -61.725;    3.000;  -18.000
452.911;  -16.550;  195.000;  259.000
453.032;  -82.475; -289.000;  -60.000
453.153;  -57.075;  -29.000;   81.000
453.274;   45.725;  737.000;  868.000
453.395;  -55.425;  -51.000;  175.000
453.516;   98.175; 1317.000; 1388.000
453.637;  -86.125; -205.000; -150.000
453.758;  -51.875;   15.000;   69.000
453.879; -120.850; -462.000; -250.000
454.000;   72.525; 1086.000;  948.000
454.121; -127.250; -554.000; -326.000
454.242; -108.175; -599.000; -383.000
454.362;  -45.325;  -99.000;  114.000
454.483;  -20.525; -309.000; -229.000
454.604;   55.600;  512.000;  580.000
454.725; -132.775; -627.000; -555.000
454.846; -130.950; -474.000; -406.000
454.967;  -18.300;  230.000;  539.000
455.087;  -40.950;  179.000;  153.000
455.208;    2.525;  554.000;  856.000
455.329;  -62.275;  -22.000;   82.000
455.450;   71.550;  473.000;  633.000
455.570;  -53.950; -234.000; -211.000
455.691;  -52.275;  201.000;  407.000
455.812; -102.200; -270.000;  -92.000
455.932;  -57.200;  107.000;  -97.000
456.053;  -73.200;   36.000;   24.000
456.173; -109.025; -433.000; -355.000
456.294; -113.950; -476.000; -303.000
456.415;  -64.275;  -73.000;   70.000
456.535;  -32.775;  297.000;  273.000
456.656;  -46.775;  132.000;  240.000
456.776;  -77.225;    3.000;  298.000
456.897;    3.000;  308.000;  513.000
457.017;  -68.050; -153.000;   -3.000
457.138; -101.650; -402.000; -249.000
457.258;  -36.125;  263.000;  224.000
457.379;  -20.775;  509.000;  521.000
457.499;  -38.275;  443.000;  432.000
457.620; -124.425; -407.000; -231.000
457.740; -107.225; -132.000;  -11.000
457.860;  -45.850;   87.000;   44.000
457.981;  -46.475;  132.000;  124.000
458.101;  -76.925;  -89.000;   40.000
458.221;  -19.275;  336.000;  402.000
458.342;  -53.525;   -4.000;  -37.000
458.462;   45.100;  617.000;  352.000
458.582;   30.625; -302.000; -294.000
458.703;   59.025;  303.000;  154.000
458.823;   12.250;   22.000;  163.000
458.943;   51.700;  341.000;  467.000
459.063;   27.150; 1124.000;  192.000
459.183;  -22.900;  328.000;  313.000
459.304;   18.000;  315.000;  517.000
459.424;  -42.800; -246.000;  -89.000
459.544;  456.400;  388.000;  764.000
459.664; 1315.825;  499.000;  506.000
459.784;  530.250; 1004.000; 1175.000
459.904;   90.825;  867.000;  744.000
460.024;   52.300;  867.000;  684.000
460.144;  -18.675;  449.000;  554.000
460.264;  -14.775;  515.000;  327.000
460.385;  -87.150; -145.000; -119.000
460.505;   27.150;  905.000;  858.000
460.625; -101.250;  -17.000;  -68.000
460.745;  -16.675;  396.000;  541.000
460.864;  -51.725;  153.000;  469.000
460.984;   34.225;  499.000;  573.000
461.104;  139.975; 1656.000; 1775.000
461.224;   -2.525;  657.000;  650.000
461.344;  -38.350;  431.000;  360.000
461.464;  -37.325;  258.000;  513.000
461.584;  -36.175;  283.000;  466.000
461.704;  -61.300;   58.000;  108.000
461.824;  -81.350;  238.000;  259.000
461.943;  -50.875;  191.000;  130.000
462.063;  -80.750;    2.000;  324.000
462.183;   17.075;  639.000;  717.000
462.303;   85.975; 1678.000; 1230.000
462.422;   35.925;  781.000;  840.000
462.542;  -36.925;  271.000;  391.000
462.662;   28.900;  353.000;  380.000
462.782;  345.275;  833.000;  572.000
462.901;  741.775;  545.000;  717.000
463.021;  390.500; 1702.000; 1638.000
463.141;   -6.450;  337.000;  770.000
463.260;  -10.725;  614.000;  474.000
463.380;   11.250;  902.000;  884.000
463.499;  -38.075;  342.000;  332.000
463.619;  -24.500;  581.000;  559.000
463.738;   93.850; 1644.000;  903.000
463.858;   19.025;  657.000;  811.000
463.978;  -31.075;  542.000;  396.000
464.097;   39.925;  921.000; 1114.000
464.217;  149.750; 1196.000; 1143.000
464.336;  139.825; 1068.000; 1130.000
464.455;  -24.825;  328.000;  659.000
464.575;   -0.925;  597.000;  602.000
464.694;  123.100; 1204.000; 1179.000
464.814;  165.200; 1190.000; 1138.000
464.933;   79.600; 1095.000; 1027.000
465.052;  100.150; 1412.000; 1054.000
465.172;   66.000;  922.000;  799.000
465.291;  121.800; 1376.000; 1320.000
465.410;   -0.950;  462.000;  735.000
465.530;   72.975; 1355.000; 1310.000
465.649;   52.250; 1209.000; 1273.000
465.768;  137.950; 1673.000; 1508.000
465.888;   62.450;  941.000; 1174.000
466.007;   94.575; 1335.000; 1440.000
466.126;   -5.275;  721.000;  641.000
466.245;   44.450; 1176.000; 1187.000
466.364;    9.300;  950.000; 1060.000
466.484;   42.775; 1024.000; 1213.000
466.603;   34.825; 1101.000; 1222.000
466.722;  106.600; 1490.000; 1769.000
466.841;   52.475; 1151.000; 1401.000
466.960;   38.125; 1069.000;  972.000
467.079;  142.550; 1971.000; 1786.000
467.198;   44.950; 1238.000; 1181.000
467.317;   82.375; 1768.000; 1162.000
467.436;   83.100; 1709.000; 1261.000
467.555;  136.925; 1796.000; 1746.000
467.674;   59.175; 1227.000; 1329.000
467.793;   38.900; 1376.000; 1374.000
467.912;   96.225; 1658.000; 1539.000
468.031;  134.100; 2038.000; 1930.000
468.150;  129.250; 1842.000; 1837.000
468.269;  193.300; 2313.000; 2090.000
468.388;  186.675; 2168.000; 2339.000
468.507;  248.175; 2884.000; 2903.000
468.626;  222.800; 2555.000; 2541.000
468.744;  142.825; 2018.000; 2174.000
468.863;  205.525; 2312.000; 2523.000
468.982;   91.125; 1503.000; 1555.000
469.101;  224.675; 2788.000; 2692.000
469.220;  161.075; 2333.000; 2176.000
469.338;  256.125; 2935.000; 3051.000
469.457;  216.150; 2719.000; 2545.000
469.576;  346.425; 3953.000; 3784.000
469.695;  232.950; 2877.000; 3066.000
469.813;  408.500; 4148.000; 4192.000
469.932;  399.700; 4255.000; 4485.000
470.051;  463.225; 4075.000; 4161.000
470.169; 1028.825; 4470.000; 4338.000
470.288; 2023.525; 4700.000; 4809.000
470.406; 1163.500; 5059.000; 5194.000
470.525;  688.275; 6101.000; 5787.000
470.644;  644.475; 6847.000; 6794.000
470.762;  795.225; 8397.000; 7873.000
470.881;  913.775; 8651.000; 8464.000
470.999; 1073.950; 9685.000; 9151.000
471.118; 1107.875;11174.000;10711.000

