
Integration time [ms]: 200.000
Averaging Nr. [scans]: 10
Smoothing Nr. [pixels]: 0
Data measured with spectrometer [name]: 2101012U2
Wave   ;Sample   ;Dark     ;Reference
[nm]   ;[counts] ;[counts] ;[counts] 

197.733;  130.300;  516.000;  404.000
197.879; -193.700; -610.000; -634.000
198.025; -100.900; -475.000; -420.000
198.171; -167.300; -602.000; -612.000
198.317;  -73.800; -401.000; -316.000
198.463; -156.300; -655.000; -404.000
198.609;   45.700;  181.000; -137.000
198.755; -166.700; -644.000; -410.000
198.901; -155.200; -505.000; -424.000
199.047; -137.600; -615.000; -488.000
199.193;  -75.800; -230.000; -468.000
199.339; -101.600; -222.000; -369.000
199.485;   78.800;  330.000;  271.000
199.631;   43.000;  227.000;  310.000
199.777;  -99.500; -466.000; -398.000
199.923; -130.200; -610.000; -424.000
200.069;   20.500; -141.000;  -58.000
200.215;  128.400;  128.000;  453.000
200.361;  115.600;  243.000;  477.000
200.507; -148.800; -600.000; -373.000
200.653;  -70.100; -371.000; -194.000
200.798;  -88.100; -215.000; -125.000
200.944;    6.900; -146.000;  -41.000
201.090;   93.800;   61.000;  222.000
201.236;   12.700; -116.000; -158.000
201.382;  249.000;  874.000;  903.000
201.528;   -2.400;  -58.000;  -48.000
201.674;  -78.400; -386.000; -293.000
201.819;  -84.500; -540.000; -439.000
201.965; -183.300; -699.000; -447.000
202.111;  -36.000; -273.000; -226.000
202.257;  -78.100; -250.000; -238.000
202.402;   28.400;   13.000;  -36.000
202.548;  -51.800; -169.000; -116.000
202.694;  201.700;  410.000; -183.000
202.840; -169.400; -603.000; -531.000
202.985; -175.400; -681.000; -639.000
203.131; -226.800; -832.000; -666.000
203.277;  -34.800; -199.000; -262.000
203.423; -106.100; -434.000; -520.000
203.568;  -75.500; -462.000; -237.000
203.714; -144.900; -535.000; -542.000
203.860; -191.400; -682.000; -641.000
204.005;   24.700;  112.000;  167.000
204.151;  133.200;  561.000;  556.000
204.296;  -93.300; -354.000; -221.000
204.442; -145.700; -600.000; -547.000
204.588; -167.100; -592.000; -579.000
204.733;   30.300;  178.000;  168.000
204.879; -262.500;-1018.000; -822.000
205.025;   12.800;  -99.000;  126.000
205.170;  -10.900;  -17.000;   94.000
205.316;  173.900;  438.000;  661.000
205.461; -168.000; -698.000; -554.000
205.607;  164.600;  609.000;  665.000
205.752; -192.600; -626.000; -551.000
205.898; -116.700; -501.000; -391.000
206.043; -163.000; -578.000; -506.000
206.189;  -60.900; -243.000; -285.000
206.334;  127.700;  554.000;  606.000
206.480;  217.900;  409.000;  239.000
206.625; -179.100; -529.000; -552.000
206.771; -101.200; -451.000; -373.000
206.916;  -72.700; -210.000; -537.000
207.062; -144.200; -545.000; -591.000
207.207; -120.800; -546.000; -443.000
207.353;  107.400;  185.000;  460.000
207.498;   38.700;  196.000;   85.000
207.643;  -87.500; -501.000; -370.000
207.789; -283.300;-1069.000; -910.000
207.934; -192.900; -665.000; -713.000
208.080;  -56.800; -154.000;   66.000
208.225;  -12.000;  -22.000;  -57.000
208.370; -170.800; -727.000; -619.000
208.516; -161.500; -741.000; -487.000
208.661;  -57.000; -127.000;  -69.000
208.806;  -61.000; -165.000; -171.000
208.952; -291.700;-1044.000; -731.000
209.097;  158.200;  378.000;  349.000
209.242;  -93.600; -307.000; -382.000
209.387;   94.200;  392.000;  350.000
209.533;  -96.200; -321.000; -350.000
209.678;  156.000;  472.000;  543.000
209.823; -122.400; -408.000; -310.000
209.969; -216.600; -860.000; -757.000
210.114; -233.600; -907.000; -719.000
210.259; -232.200; -939.000; -889.000
210.404;  -27.600; -171.000;  103.000
210.549;   41.200;  108.000;    3.000
210.695;  -35.100;   -3.000;  -95.000
210.840;   66.600;   94.000;   67.000
210.985; -138.500; -484.000; -303.000
211.130;  159.700;  268.000;  406.000
211.275;   50.300;  207.000;  199.000
211.420; -110.600; -300.000; -289.000
211.566; -161.300; -536.000; -489.000
211.711;   30.600;  218.000;  157.000
211.856; -128.800; -545.000; -519.000
212.001;   10.300;  151.000;   44.000
212.146;   16.800;  153.000;   49.000
212.291;  -30.500; -210.000; -186.000
212.436;  -58.800; -280.000;   -6.000
212.581; -174.000; -685.000; -653.000
212.726; -161.600; -487.000; -538.000
212.871;  -85.700; -552.000; -217.000
213.016; -298.600;-1172.000;-1029.000
213.161;  142.300;  406.000;  291.000
213.306; -155.400; -435.000; -577.000
213.451; -206.700; -778.000; -689.000
213.596;  -89.000; -455.000; -347.000
213.741; -132.700; -448.000; -538.000
213.886; -151.300; -498.000; -517.000
214.031;  -32.900; -294.000; -124.000
214.176; -136.300; -408.000; -341.000
214.321;  -21.700; -296.000; -157.000
214.466;  -61.500; -163.000;  -43.000
214.611;  -24.600;  -61.000;  -10.000
214.756; -267.800; -948.000; -858.000
214.901;  -46.800; -388.000; -226.000
215.046; -270.400; -797.000; -825.000
215.191;   24.500;  128.000;   35.000
215.336;  -44.200; -157.000;  -19.000
215.480; -136.400; -684.000; -505.000
215.625;  -31.300; -175.000;  -19.000
215.770; -153.900; -757.000; -662.000
215.915;    3.500;   -5.000;  -97.000
216.060;   22.600; -113.000;  -21.000
216.205; -257.000; -731.000; -779.000
216.349; -132.800; -470.000; -533.000
216.494; -288.100; -939.000; -867.000
216.639; -274.400; -823.000; -888.000
216.784; -165.300; -577.000; -525.000
216.929;  130.000;  392.000;  281.000
217.073;  -36.600; -244.000;  -31.000
217.218;   32.000;   78.000;  -47.000
217.363; -177.800; -656.000; -618.000
217.507; -135.300; -623.000; -588.000
217.652; -291.600; -845.000; -874.000
217.797; -178.400; -708.000; -659.000
217.942; -239.100; -856.000; -720.000
218.086;  158.200;  608.000;  539.000
218.231;  -60.000; -174.000;  -26.000
218.376;  -68.000; -337.000; -229.000
218.520;   31.800;  -41.000;   96.000
218.665;  -69.700; -338.000; -204.000
218.810;  -67.600; -275.000; -233.000
218.954;   45.600;  201.000;   35.000
219.099; -246.700; -713.000; -963.000
219.243; -132.000; -589.000; -554.000
219.388;  -61.100; -264.000; -136.000
219.532;   12.000; -116.000; -116.000
219.677; -149.900; -564.000; -521.000
219.822;   34.300;   33.000;   89.000
219.966;   20.700;   17.000;  -99.000
220.111;  -47.400; -328.000;  -40.000
220.255; -166.200; -797.000; -750.000
220.400;  -37.400; -180.000; -146.000
220.544; -138.400; -516.000; -450.000
220.689; -105.000; -422.000; -451.000
220.833;  -25.400; -123.000;  -58.000
220.978; -119.100; -393.000; -563.000
221.122;   25.000;  319.000;  307.000
221.267; -250.100; -906.000; -837.000
221.411; -151.200; -478.000; -394.000
221.555;  -14.200; -104.000;  -23.000
221.700; -108.000; -329.000; -222.000
221.844;  101.200;  255.000;  272.000
221.989;  -77.800; -328.000; -311.000
222.133; -103.700; -289.000; -307.000
222.277;    4.800;    5.000;   78.000
222.422;   10.100;  227.000;  113.000
222.566;  -49.300; -381.000; -214.000
222.711; -120.800; -414.000; -479.000
222.855; -166.100; -643.000; -586.000
222.999; -179.100; -642.000; -717.000
223.144;  -89.700; -195.000; -194.000
223.288;  124.200;  423.000;  251.000
223.432;   30.500;  184.000;  230.000
223.576;   60.200;  152.000;  -21.000
223.721;  123.400;  364.000;  273.000
223.865; -106.500; -472.000; -475.000
224.009;  573.200; 1673.000; 1631.000
224.153; -181.800; -660.000; -671.000
224.298; -143.000; -531.000; -489.000
224.442;  -32.000;  -74.000;  -33.000
224.586;    3.900; -169.000; -106.000
224.730; -209.100; -858.000; -670.000
224.875; -256.700; -739.000; -688.000
225.019;   53.700;  102.000;  188.000
225.163;  135.800;  208.000;  341.000
225.307;   33.800;   97.000;  -91.000
225.451;  110.400;  360.000;  481.000
225.595;   81.200;  264.000;  176.000
225.739;  -33.000; -170.000;  -94.000
225.884;   45.300;   86.000;    5.000
226.028; -198.400; -760.000; -626.000
226.172;  -37.300; -260.000; -273.000
226.316; -256.300; -941.000; -902.000
226.460; -103.200; -645.000; -493.000
226.604; -130.400; -406.000; -400.000
226.748; -200.200; -836.000; -733.000
226.892;  -53.000; -227.000; -181.000
227.036;  -70.900; -537.000; -447.000
227.180; -115.200; -551.000; -375.000
227.324; -104.700; -561.000; -580.000
227.468; -254.500; -819.000; -717.000
227.612;   12.700;  242.000;  -28.000
227.756; -241.300; -845.000; -698.000
227.900;  111.600;  342.000;  441.000
228.044; -107.700; -509.000; -290.000
228.188;  113.900;  448.000;  568.000
228.332; -201.100; -546.000; -472.000
228.476;  -30.200; -223.000; -149.000
228.620;  -60.300; -210.000; -150.000
228.764;  139.900;  431.000;  349.000
228.908;  -12.600; -155.000;   30.000
229.052; -106.400; -615.000; -528.000
229.195;  -37.800; -172.000;   13.000
229.339;  -45.200; -235.000; -305.000
229.483;  -33.600;    5.000; -162.000
229.627;   -5.100; -156.000;  139.000
229.771;  -94.300; -218.000; -294.000
229.915;   55.600;  230.000;   79.000
230.059; -201.600; -648.000; -663.000
230.202;  -69.000; -370.000; -317.000
230.346;  -24.800; -107.000;  107.000
230.490; -139.200; -489.000; -521.000
230.634; -231.000; -736.000; -553.000
230.777;  189.600;  478.000;  509.000
230.921;  -99.600; -450.000; -359.000
231.065;  -58.600; -246.000; -286.000
231.209;   73.400;  261.000;  265.000
231.352;   20.900;   54.000;   40.000
231.496;   51.500;  568.000;  188.000
231.640; -170.600; -693.000; -621.000
231.783;  119.200;  546.000;  525.000
231.927;  -78.700; -294.000; -365.000
232.071; -269.400; -962.000; -736.000
232.214; -225.600; -980.000; -764.000
232.358; -202.700; -683.000; -599.000
232.502;   34.700;  -19.000;    7.000
232.645; -292.000;-1090.000; -927.000
232.789;  -15.600; -257.000; -218.000
232.933;  -58.900; -407.000; -224.000
233.076; -257.900;-1038.000; -897.000
233.220; -236.500; -752.000; -777.000
233.363; -140.600; -669.000; -477.000
233.507;  118.000;  371.000;  129.000
233.650; -182.900; -764.000; -834.000
233.794;  125.400;  438.000;  461.000
233.938; -118.700; -530.000; -362.000
234.081;  -51.200;  -93.000;   31.000
234.225; -142.700; -631.000; -539.000
234.368; -231.600; -773.000; -723.000
234.512;  -96.200; -385.000; -299.000
234.655; -213.500; -582.000; -555.000
234.798; -131.700; -493.000; -466.000
234.942; -249.500; -884.000;-1002.000
235.085; -166.700; -651.000; -443.000
235.229; -158.600; -405.000; -410.000
235.372;  -95.300; -247.000; -191.000
235.516;  -99.800; -397.000; -321.000
235.659;   73.600;   92.000;  121.000
235.802;  -45.200;  -38.000;  -22.000
235.946;   84.400;  335.000;  215.000
236.089;   82.000;  126.000;  250.000
236.233;   98.600;  275.000;  298.000
236.376;  -75.500; -235.000; -378.000
236.519;  -96.600; -297.000; -319.000
236.663;  -57.300; -215.000; -117.000
236.806; -258.700;-1029.000; -999.000
236.949;   72.800;  543.000;  431.000
237.092;  135.200;  412.000;  391.000
237.236; -174.700; -589.000; -502.000
237.379;  164.400;  352.000;  428.000
237.522; -231.100; -879.000; -768.000
237.666;  -20.900; -271.000;   18.000
237.809; -248.800; -851.000; -823.000
237.952;   86.600;  469.000;  271.000
238.095; -138.100; -447.000; -442.000
238.238;  227.100;  688.000;  700.000
238.382;   25.500;  166.000;  103.000
238.525; -119.700; -598.000; -511.000
238.668; -307.500;-1060.000; -985.000
238.811; -148.100; -638.000; -643.000
238.954; -140.900; -483.000; -334.000
239.097;  223.500;  617.000;  664.000
239.241;   59.400;  394.000;  326.000
239.384;  -65.900; -254.000; -214.000
239.527;  -99.700; -424.000; -224.000
239.670; -317.100; -994.000;-1091.000
239.813; -230.100; -696.000; -658.000
239.956;  180.100;  579.000;  473.000
240.099; -240.000; -778.000; -725.000
240.242;  171.000;  428.000;  432.000
240.385;  119.200;  466.000;  450.000
240.528; -146.900; -706.000; -473.000
240.671;   57.900;  189.000;  134.000
240.814;  -84.500; -441.000; -158.000
240.957; -231.200; -767.000; -578.000
241.100; -184.800; -779.000; -755.000
241.243; -319.000;-1234.000; -893.000
241.386; -106.200; -508.000; -379.000
241.529; -188.700; -735.000; -547.000
241.672; -107.500; -566.000; -495.000
241.815; -223.800; -832.000; -808.000
241.958;  -39.500; -125.000; -182.000
242.101; -154.400; -545.000; -390.000
242.244;  -61.500; -270.000; -325.000
242.387;  -62.900; -304.000; -246.000
242.530;  147.700;  470.000;  134.000
242.673;  -84.600; -381.000; -309.000
242.815; -236.200; -925.000; -899.000
242.958; -155.000; -482.000; -381.000
243.101;   54.700;  132.000;  187.000
243.244; -163.300; -564.000; -521.000
243.387;  -79.200; -313.000; -316.000
243.530; -210.300; -657.000; -674.000
243.672;    2.800;   43.000;  -92.000
243.815; -107.900; -355.000; -283.000
243.958;   16.200;   98.000;  -26.000
244.101;  -12.100;   59.000;  -16.000
244.243;  -21.600;  -47.000;  101.000
244.386; -251.500; -761.000; -630.000
244.529;  -28.500; -132.000; -139.000
244.672; -310.900;-1154.000; -951.000
244.814; -211.600; -621.000; -794.000
244.957; -100.800; -380.000; -304.000
245.100; -172.500; -489.000; -489.000
245.242; -131.300; -387.000; -374.000
245.385;   32.600;  -59.000;  -39.000
245.528; -240.200; -871.000; -705.000
245.670;  243.400;  612.000;  634.000
245.813; -183.900; -599.000; -547.000
245.956;  -62.000; -324.000; -275.000
246.098; -164.900; -508.000; -650.000
246.241;   17.200;  194.000;   48.000
246.383;   43.500; -119.000;  -73.000
246.526; -153.100; -454.000; -525.000
246.669; -246.200; -889.000; -780.000
246.811;   20.000;  172.000;   -1.000
246.954; -133.500; -512.000; -426.000
247.096;  -39.800;  -84.000;   -6.000
247.239; -160.900; -482.000; -445.000
247.381; -152.600; -647.000; -488.000
247.524;  191.300;  645.000;  679.000
247.666;   -4.300;   58.000;   11.000
247.809; -257.900; -887.000; -691.000
247.951;  -14.600;  -75.000;  138.000
248.094;   58.100;  432.000;  308.000
248.236; -316.500;-1262.000;-1238.000
248.378;    2.900; -356.000;  -81.000
248.521;  -27.500; -334.000; -337.000
248.663;  -75.900; -236.000; -267.000
248.806;  -35.800; -300.000; -266.000
248.948; -193.700; -886.000; -763.000
249.090; -101.100; -428.000; -398.000
249.233; -132.300; -344.000; -381.000
249.375; -120.400; -474.000; -451.000
249.518;  -50.700;  -83.000; -133.000
249.660;   -9.900; -103.000;    3.000
249.802; -381.000;-1303.000;-1189.000
249.945; -145.800; -612.000; -540.000
250.087; -225.600; -834.000; -768.000
250.229;  -93.100; -362.000; -480.000
250.371; -142.300; -494.000; -439.000
250.514;  -82.400; -310.000; -244.000
250.656; -146.700;   69.000;  102.000
250.798; -228.100; -849.000; -800.000
250.940; -113.500; -322.000; -322.000
251.083;  -19.600; -335.000; -111.000
251.225;  148.600;  338.000;  310.000
251.367;  -66.700; -274.000; -373.000
251.509;  -53.300; -265.000; -210.000
251.651; -196.100; -731.000; -671.000
251.794;  117.800;  538.000;  632.000
251.936; -223.800; -821.000; -747.000
252.078; -158.200; -540.000; -461.000
252.220; -119.700; -645.000; -477.000
252.362;  184.500;  344.000;  462.000
252.504; -148.600; -677.000; -584.000
252.646; -239.400; -875.000; -722.000
252.788;    2.300;   14.000; -128.000
252.931;  -41.400; -257.000; -253.000
253.073; -100.800; -376.000; -317.000
253.215;   27.500;  141.000;  122.000
253.357;   14.400;   82.000; -153.000
253.499; -122.300; -374.000; -234.000
253.641; -176.300; -749.000; -594.000
253.783; -172.000; -609.000; -527.000
253.925; -159.700; -586.000; -591.000
254.067; -237.700; -744.000; -667.000
254.209;  -34.000; -391.000; -259.000
254.351; -276.300; -865.000; -883.000
254.493; -113.100; -441.000; -417.000
254.635; -243.700; -936.000; -818.000
254.777; -163.800; -752.000; -687.000
254.918; -151.300; -512.000; -430.000
255.060; -128.400; -551.000; -395.000
255.202; -108.500; -473.000; -261.000
255.344; -158.000; -658.000; -455.000
255.486; -152.500; -471.000; -406.000
255.628; -222.300; -780.000; -781.000
255.770; -209.900; -676.000; -536.000
255.912; -122.700; -559.000; -468.000
256.053; -187.400; -730.000; -508.000
256.195;  352.900; 1008.000;  903.000
256.337; -212.200; -861.000; -595.000
256.479;  119.700;  532.000;  416.000
256.621;  -63.900; -394.000; -212.000
256.762; -189.900; -789.000; -742.000
256.904;  150.000;  485.000;  487.000
257.046;  -78.300; -381.000; -271.000
257.188; -102.800; -351.000; -264.000
257.329; -139.900; -525.000; -464.000
257.471; -252.600; -939.000; -807.000
257.613; -115.300; -584.000; -498.000
257.755; -302.300;-1073.000; -982.000
257.896;   54.000;  286.000;  392.000
258.038; -130.400; -403.000; -352.000
258.180;  -92.400; -354.000; -279.000
258.321; -184.100; -581.000; -457.000
258.463;   17.800;  -71.000;  133.000
258.605; -192.500; -562.000; -570.000
258.746; -237.500; -886.000; -772.000
258.888; -339.900;-1026.000;-1020.000
259.029;   28.500;  121.000;   -8.000
259.171; -150.500; -614.000; -550.000
259.313;   -3.100;  -49.000;  -47.000
259.454; -146.500; -536.000; -414.000
259.596;  -76.200; -483.000; -390.000
259.737; -144.400; -590.000; -474.000
259.879;   99.600;  217.000;  311.000
260.020;  203.900;  901.000;  636.000
260.162;   -9.100; -146.000; -253.000
260.303; -242.100; -768.000; -687.000
260.445; -167.800; -609.000; -613.000
260.586;   98.100;  392.000;  157.000
260.728;  -61.200; -360.000; -248.000
260.869; -139.000; -350.000; -343.000
261.011;  206.500;  706.000;  537.000
261.152;  -97.700; -479.000; -319.000
261.293; -132.600; -576.000; -595.000
261.435;  -32.500; -219.000; -184.000
261.576;  -70.900; -455.000; -325.000
261.718;  126.100;  420.000;  470.000
261.859; -226.300; -940.000; -949.000
262.000; -257.700; -951.000;-1016.000
262.142;    1.700;  -52.000;  -60.000
262.283; -230.600; -808.000; -691.000
262.424; -146.500; -666.000; -625.000
262.566; -318.200;-1161.000; -983.000
262.707; -225.200; -840.000; -830.000
262.848; -235.300; -769.000; -726.000
262.990;  -99.800; -362.000; -345.000
263.131;  195.300;  650.000;  681.000
263.272;    1.800;  -61.000;  -41.000
263.413; -208.700; -589.000; -561.000
263.555; -121.200; -669.000; -143.000
263.696; -175.000; -550.000; -641.000
263.837; -101.600; -449.000; -551.000
263.978;   -4.400;   -5.000;  -77.000
264.119;  -83.700; -283.000; -264.000
264.261; -220.700; -847.000; -630.000
264.402;   35.700;   33.000;   40.000
264.543; -144.600; -509.000; -524.000
264.684;   -1.700;   61.000;  -50.000
264.825; -135.700; -816.000; -538.000
264.966;   12.900;  -84.000;  -67.000
265.107; -239.400; -646.000; -670.000
265.248; -250.100; -825.000; -812.000
265.390;   22.700;  152.000;   -9.000
265.531;  -29.700; -238.000; -107.000
265.672; -184.300; -557.000; -630.000
265.813;  172.300;  563.000;  439.000
265.954; -303.200; -959.000; -940.000
266.095;  -20.100; -372.000; -322.000
266.236; -211.700; -686.000; -548.000
266.377;  -97.400; -243.000; -297.000
266.518; -131.100; -619.000; -547.000
266.659;   88.000;  170.000;  268.000
266.800;   49.000;   83.000;   85.000
266.941; -138.000; -487.000; -478.000
267.082;   46.800;  354.000;   99.000
267.223;  -71.600; -344.000; -273.000
267.364; -237.300; -892.000; -686.000
267.504;  -10.400;    3.000;  135.000
267.645;   12.700;  160.000;   67.000
267.786;  -49.700; -147.000;  -86.000
267.927; -142.800; -473.000; -379.000
268.068;  -21.400; -186.000;  -61.000
268.209;  -95.300; -175.000; -413.000
268.350;  -89.500; -388.000; -532.000
268.490; -159.800; -648.000; -521.000
268.631;   99.400;  127.000;  225.000
268.772; -243.800; -874.000; -647.000
268.913;  -87.100; -328.000; -476.000
269.054;  -35.300; -117.000;   12.000
269.194; -112.500; -418.000; -402.000
269.335; -315.600;-1137.000;-1074.000
269.476;   -5.100;   33.000;  -35.000
269.617;  -58.000; -347.000; -392.000
269.757; -182.800; -713.000; -646.000
269.898; -198.200; -856.000; -613.000
270.039;  -93.400; -415.000; -405.000
270.180; -259.800; -952.000; -816.000
270.320;  -15.300; -190.000; -250.000
270.461;  -78.700; -277.000; -249.000
270.602;  -41.300; -186.000; -156.000
270.742; -256.100; -868.000; -943.000
270.883;  -72.100; -442.000; -390.000
271.023;  -82.600; -358.000; -357.000
271.164; -142.200; -607.000; -528.000
271.305; -200.400; -666.000; -654.000
271.445; -175.000; -722.000; -683.000
271.586; -143.800; -462.000; -283.000
271.726;  -74.200; -397.000; -322.000
271.867; -123.500; -594.000; -534.000
272.008;  307.200; -473.000; -285.000
272.148;  266.900;  462.000;  468.000
272.289;   26.600; -113.000; -181.000
272.429;   41.100;   19.000;  185.000
272.570; -173.900; -633.000; -737.000
272.710; -200.500; -825.000; -775.000
272.851;  -31.100;  113.000; -130.000
272.991; -330.500;-1173.000;-1077.000
273.131; -133.100; -419.000; -459.000
273.272; -225.400; -683.000; -723.000
273.412;   42.400; -143.000;  -31.000
273.553; -118.100; -488.000; -507.000
273.693;  305.600;  913.000;  858.000
273.834; -209.200; -894.000; -692.000
273.974; -135.700; -664.000; -615.000
274.114; -208.700; -772.000; -560.000
274.255;  147.000;  414.000;  373.000
274.395;   28.900; -180.000; -125.000
274.535;  113.700;  199.000;  350.000
274.676;   65.400;  225.000;   94.000
274.816;   18.900;  110.000;   34.000
274.956; -169.900; -624.000; -690.000
275.097; -164.900;-1014.000; -922.000
275.237; -223.900; -913.000; -803.000
275.377; -180.200; -778.000; -689.000
275.517; -308.300; -878.000; -937.000
275.658; -109.500; -590.000; -555.000
275.798; -141.500; -606.000; -413.000
275.938;   13.100;  215.000;  323.000
276.078; -146.000; -626.000; -395.000
276.218;   24.100;   99.000;  104.000
276.359; -287.700;-1026.000;-1024.000
276.499; -137.600; -605.000; -446.000
276.639;  -43.600; -305.000; -151.000
276.779; -112.500; -475.000; -357.000
276.919; -216.400; -783.000; -624.000
277.059;   -1.500; -261.000; -212.000
277.199;  -68.300; -357.000; -259.000
277.340;  147.900;  287.000;  175.000
277.480; -213.600; -840.000; -693.000
277.620;   76.500;  192.000;   16.000
277.760; -401.600;-1533.000;-1294.000
277.900;   27.100;  113.000;   33.000
278.040;   69.200;  137.000;  159.000
278.180;   48.800;  270.000;  170.000
278.320;   32.400;   21.000;   56.000
278.460; -112.200; -443.000; -469.000
278.600; -157.000; -708.000; -598.000
278.740;  120.700;  448.000;  224.000
278.880; -187.500; -768.000; -791.000
279.020;   27.100; -194.000; -144.000
279.160; -177.100; -672.000; -595.000
279.300; -221.900; -926.000; -873.000
279.440; -184.000; -709.000; -622.000
279.579;  -71.500;-1014.000; -929.000
279.719;  -80.100; -410.000; -394.000
279.859;  118.700;   -4.000;   41.000
279.999;   50.400; -208.000;  101.000
280.139;  -49.200; -435.000; -387.000
280.279; -161.000; -708.000; -745.000
280.419;   31.000; -229.000; -147.000
280.559;  -42.900; -259.000; -180.000
280.698; -192.300; -790.000; -639.000
280.838; -191.700; -778.000; -800.000
280.978; -242.000; -846.000; -790.000
281.118; -220.300; -811.000; -704.000
281.257;   33.900;   24.000;    6.000
281.397; -249.700;-1094.000; -960.000
281.537; -165.500; -599.000; -712.000
281.677;  -11.800; -150.000; -101.000
281.816; -166.000; -700.000; -630.000
281.956;  -38.900; -193.000; -257.000
282.096; -100.000; -539.000; -396.000
282.235; -214.800; -672.000; -638.000
282.375;  -58.700; -243.000;  -98.000
282.515; -204.500; -715.000; -707.000
282.654;   70.300;   29.000;  106.000
282.794;   38.800;  388.000;  244.000
282.934;  -89.400; -530.000; -491.000
283.073; -259.700;-1030.000; -857.000
283.213;  -49.800; -460.000; -467.000
283.353;  -67.300; -408.000; -349.000
283.492;  -62.900; -264.000; -296.000
283.632;  -47.100; -254.000; -168.000
283.771; -172.600; -859.000; -730.000
283.911;  -96.100; -369.000; -260.000
284.050; -210.400; -794.000; -748.000
284.190; -320.600;-1229.000;-1096.000
284.329; -283.100;-1055.000; -964.000
284.469; -143.900; -516.000; -591.000
284.608; -100.100; -559.000; -598.000
284.748; -156.300; -614.000; -570.000
284.887;   41.600;  -87.000;  -20.000
285.027; -256.200; -844.000; -892.000
285.166;  -35.300; -192.000; -249.000
285.306;   59.000; -116.000;  -33.000
285.445;  -74.500; -229.000; -343.000
285.584; -175.700; -630.000; -494.000
285.724;  -58.400; -282.000; -322.000
285.863; -227.300; -857.000; -507.000
286.002;  -78.600; -366.000; -276.000
286.142; -206.800; -715.000; -622.000
286.281; -120.500; -525.000; -493.000
286.420; -166.900; -554.000; -417.000
286.560;  240.900;  653.000;  623.000
286.699; -256.500; -958.000; -912.000
286.838; -143.600; -590.000; -591.000
286.978; -170.200; -533.000; -537.000
287.117; -269.000;-1085.000; -950.000
287.256;  -39.200; -228.000; -211.000
287.395;  -58.700; -197.000; -378.000
287.535;  -98.900; -370.000; -298.000
287.674; -154.400; -509.000; -484.000
287.813;  139.000;  661.000;  533.000
287.952; -265.800;-1010.000; -871.000
288.091; -292.100;-1049.000; -915.000
288.231;   32.700;   13.000;   15.000
288.370; -337.600;-1217.000;-1200.000
288.509; -163.200; -728.000; -645.000
288.648; -166.600; -770.000; -548.000
288.787;   -5.700; -243.000;  -87.000
288.926; -123.800; -454.000; -475.000
289.065;  261.600;  859.000;  672.000
289.204; -100.600; -377.000; -217.000
289.344; -187.100; -791.000; -690.000
289.483;   57.300;  416.000;  304.000
289.622;  -46.400; -291.000; -149.000
289.761;   10.000; -309.000; -166.000
289.900; -205.000; -785.000; -626.000
290.039;  -12.500;  -12.000;  -95.000
290.178;  -44.800; -274.000; -180.000
290.317; -141.600; -618.000; -479.000
290.456; -112.800; -463.000; -451.000
290.595; -304.100; -961.000; -833.000
290.734; -241.100; -904.000; -891.000
290.873; -145.300; -456.000; -420.000
291.011; -223.600; -833.000; -843.000
291.150; -203.300; -770.000; -682.000
291.289;  -18.600; -343.000; -110.000
291.428; -192.400; -599.000; -480.000
291.567;  -76.600; -370.000; -442.000
291.706;  -12.500;  109.000;  154.000
291.845; -165.800; -597.000; -505.000
291.984; -319.400;-1234.000;-1061.000
292.122;  166.700;  602.000;  582.000
292.261;  142.100;  620.000;  463.000
292.400;   71.200; -144.000;  211.000
292.539; -226.100; -959.000; -813.000
292.678;  -47.100; -325.000; -300.000
292.816; -339.300;-1136.000; -965.000
292.955; -166.600; -844.000; -684.000
293.094;  -47.700; -173.000; -337.000
293.233;  -75.500; -556.000; -400.000
293.371;  -56.200; -225.000;  -84.000
293.510; -207.800; -866.000; -780.000
293.649; -269.100; -959.000; -924.000
293.787; -133.400;-1083.000;-1012.000
293.926;    5.500; -113.000;  -32.000
294.065;  -62.600; -379.000; -290.000
294.203;  142.000;  298.000;  406.000
294.342;   61.800;   74.000;  156.000
294.481;13530.000;51180.000; -836.000
294.619;    9.200; -425.000; -582.000
294.758; -287.700;-1230.000;-1137.000
294.896;  165.300; -125.000;    5.000
295.035; -233.400;-1040.000;-1006.000
295.174; -239.900;-1082.000; -954.000
295.312;  -87.900; -323.000; -203.000
295.451;    5.100; -307.000; -428.000
295.589; -115.600; -389.000; -518.000
295.728;   55.500; -292.000; -165.000
295.866;    8.100;  -36.000;  -51.000
296.005; -128.400; -584.000; -341.000
296.143; -147.800; -558.000; -596.000
296.282; -190.700; -957.000; -881.000
296.420; -134.800; -657.000; -557.000
296.559; -134.000; -892.000; -633.000
296.697;  -25.200; -847.000; -665.000
296.835;   81.700;-1141.000;-1002.000
296.974;   80.700;  -23.000;   39.000
297.112;   29.400; -443.000; -504.000
297.251; -156.400; -815.000; -755.000
297.389;  155.800; -576.000; -438.000
297.527;   86.200; -145.000;  -83.000
297.666; -104.500; -486.000; -438.000
297.804;  -89.900; -404.000; -264.000
297.942;  -12.800; -136.000; -161.000
298.081;   28.800; -183.000;   63.000
298.219;  154.700;  -17.000;  -19.000
298.357;   95.800; -144.000;  -71.000
298.495;   20.400; -810.000; -812.000
298.634;  152.500;  245.000;  219.000
298.772;  111.900; -220.000; -338.000
298.910;  -76.400; -309.000; -182.000
299.048;   11.500; -130.000; -153.000
299.187;  -55.100; -350.000; -250.000
299.325;   60.700;   52.000;  122.000
299.463;   73.800; -389.000; -299.000
299.601;  211.900; -327.000; -271.000
299.739; -199.500; -908.000; -883.000
299.877; -166.800; -791.000; -703.000
300.016; -135.700;-1095.000; -935.000
300.154;  264.900;  -19.000; -161.000
300.292;   80.700; -428.000; -348.000
300.430;   16.600; -408.000; -291.000
300.568; -201.200; -940.000; -874.000
300.706;  -69.600; -366.000; -469.000
300.844; -181.100;-1108.000; -979.000
300.982;  260.100;  246.000;  282.000
301.120; -217.100; -965.000; -866.000
301.258; -125.700; -812.000; -705.000
301.396;   73.200;  104.000;  -41.000
301.534;  119.300; -218.000; -293.000
301.672;  -36.800; -664.000; -521.000
301.810;   20.600; -613.000; -545.000
301.948;  267.000;   53.000;  149.000
302.086;  934.500; -250.000;  -32.000
302.224; 1531.400; -610.000; -585.000
302.362;   56.600; -558.000; -622.000
302.500;  -56.300; -923.000; -893.000
302.638;  203.300;  128.000;  245.000
302.776;   25.200; -352.000; -408.000
302.913;  129.700;  447.000;  236.000
303.051;    2.200;  -86.000;  -23.000
303.189;  118.100;   90.000;  118.000
303.327;  -74.100; -341.000; -256.000
303.465; -176.000; -832.000; -588.000
303.603; -168.900; -805.000; -604.000
303.740;  239.600;  417.000;  241.000
303.878;  -19.300; -800.000; -759.000
304.016; -193.200; -915.000; -790.000
304.154; -247.700;-1123.000;-1152.000
304.291;  -81.100; -505.000; -554.000
304.429;   63.700;  102.000;   74.000
304.567; -219.500; -908.000; -893.000
304.705;  -98.900; -408.000; -515.000
304.842;  117.300; -616.000; -540.000
304.980;  119.700;  215.000;   35.000
305.118;   66.800; -367.000; -365.000
305.255; -149.600; -945.000; -927.000
305.393;  169.500;  178.000;  239.000
305.531; -210.600;-1173.000; -956.000
305.668; -127.600; -663.000; -582.000
305.806;  155.800; -358.000; -439.000
305.943;  186.500; -629.000; -637.000
306.081;   97.700; -378.000; -267.000
306.219; -213.400; -863.000; -748.000
306.356;   56.800;  158.000;   27.000
306.494;  316.100;  981.000;  761.000
306.631;   20.600;  -11.000;  -55.000
306.769;   12.000; -613.000; -485.000
306.906;  -27.300; -284.000; -258.000
307.044;  -74.600; -473.000; -488.000
307.181;  -86.100; -410.000; -332.000
307.319;  110.500;  112.000;   87.000
307.456; -323.300;-1191.000;-1153.000
307.594; -177.300; -980.000; -727.000
307.731;  -18.000; -371.000; -164.000
307.868;    6.500;  -15.000;   20.000
308.006; -244.600; -961.000; -847.000
308.143; -127.200; -618.000; -330.000
308.281;  450.100;  -37.000; -254.000
308.418;   55.900; -748.000; -640.000
308.555; -118.200; -400.000; -250.000
308.693; -113.900; -577.000; -573.000
308.830; -209.900; -712.000; -657.000
308.967;   16.200; -215.000;  -95.000
309.105;  -76.300; -507.000; -396.000
309.242;  112.700; -468.000; -367.000
309.379;  801.100; -577.000; -655.000
309.517;  -74.500; -936.000; -948.000
309.654; -179.200; -910.000; -734.000
309.791;  -98.700; -662.000; -580.000
309.928; -236.400; -977.000; -914.000
310.065;  372.100;  819.000;  697.000
310.203;  -51.500; -825.000; -850.000
310.340;    8.100; -465.000; -321.000
310.477; -161.500; -412.000; -516.000
310.614;  -88.500; -383.000; -473.000
310.751;  -79.300; -427.000; -518.000
310.889;   -5.100;    1.000;   11.000
311.026; -283.900;-1161.000; -939.000
311.163;  -40.500; -386.000; -380.000
311.300; -125.000; -512.000; -479.000
311.437; -137.400; -658.000; -619.000
311.574; -271.000;-1226.000; -985.000
311.711;  -90.300; -595.000; -433.000
311.848;  -33.400; -380.000; -388.000
311.985;   64.900;  270.000;   93.000
312.122; -232.200; -932.000; -762.000
312.259; -212.900; -941.000; -994.000
312.396; -136.700; -508.000; -551.000
312.533; -146.300; -812.000; -790.000
312.670; -299.700;-1070.000; -898.000
312.807;  -45.900; -352.000; -367.000
312.944; -121.700; -513.000; -611.000
313.081;  -51.400; -150.000; -415.000
313.218; -200.200;-1111.000; -867.000
313.355;   34.200; -531.000; -449.000
313.492;   33.200; -455.000; -292.000
313.629;  298.100;  815.000;  735.000
313.766; -319.800;-1176.000;-1008.000
313.902;   15.900; -186.000;   21.000
314.039;  -75.800; -372.000; -289.000
314.176;   93.700;  286.000;  192.000
314.313; -139.700; -569.000; -473.000
314.450; -142.600; -788.000; -684.000
314.587;  -80.500; -468.000; -480.000
314.723;   41.200;  -78.000;  130.000
314.860;  115.200;  318.000;  332.000
314.997;   93.600;  223.000;  142.000
315.134;  -28.100; -385.000; -368.000
315.270;  -16.600; -480.000; -496.000
315.407; -262.200;-1094.000; -967.000
315.544;  -89.200; -657.000; -538.000
315.681; -113.800; -681.000; -565.000
315.817;   60.900; -133.000; -176.000
315.954;  -16.200; -613.000; -392.000
316.091; -234.200;-1045.000;-1023.000
316.227;    6.100;  -71.000; -179.000
316.364;   47.600;   23.000;    6.000
316.500;  -63.200; -113.000; -300.000
316.637;  -40.400; -181.000; -302.000
316.774; -132.000; -625.000; -358.000
316.910; -151.000; -598.000; -629.000
317.047; -133.900; -487.000; -351.000
317.183;  -46.400; -435.000; -566.000
317.320;  -31.200; -367.000; -321.000
317.456; -105.900; -733.000; -805.000
317.593; -143.800; -598.000; -641.000
317.729;   45.600;  168.000;  -67.000
317.866; -390.600;-1434.000;-1285.000
318.002; -128.000; -708.000; -948.000
318.139; -188.900; -883.000; -867.000
318.275; -196.300;-1003.000; -738.000
318.412; -117.000; -517.000; -336.000
318.548;  -62.800; -751.000; -720.000
318.685; -206.000; -985.000; -888.000
318.821; -195.200; -762.000; -735.000
318.957;    9.600;   34.000;  -23.000
319.094;  130.700;  297.000;  154.000
319.230; -100.400; -756.000; -742.000
319.367;  232.900; -471.000; -520.000
319.503;   96.200; -538.000; -436.000
319.639; -167.800; -877.000; -793.000
319.775; -128.400; -750.000; -685.000
319.912;  -89.300; -424.000; -519.000
320.048; -225.300;-1184.000;-1184.000
320.184;  147.100;   59.000;   70.000
320.321;  -87.400; -497.000; -467.000
320.457;  162.900;  475.000;  662.000
320.593; -104.000; -375.000; -382.000
320.729; -190.100; -732.000; -734.000
320.866; -164.300; -577.000; -635.000
321.002; -138.500; -759.000; -809.000
321.138;  -35.700; -135.000; -211.000
321.274;  148.600; -148.000; -115.000
321.410;  -48.000; -585.000; -353.000
321.546;  -80.800;-1011.000; -911.000
321.683;  128.100;  400.000;  185.000
321.819;   62.100;  -48.000; -117.000
321.955; -203.600; -743.000; -722.000
322.091;  -56.000; -585.000; -540.000
322.227;   -9.600; -382.000; -202.000
322.363;  -16.000; -320.000; -215.000
322.499;  -60.700; -343.000; -331.000
322.635;  355.500;  636.000;  443.000
322.771;   51.700; -139.000;   12.000
322.907;  178.800;  129.000;  327.000
323.043;  -30.300; -115.000; -206.000
323.179;  -41.200; -394.000; -363.000
323.315;   32.300; -401.000; -371.000
323.451;  131.900; -328.000; -236.000
323.587;  135.700;  -60.000;  -77.000
323.723;   28.200; -682.000; -601.000
323.859;  -52.000; -258.000;  -76.000
323.995;  -49.200; -467.000; -409.000
324.131; -249.400; -967.000; -892.000
324.267;  -74.200; -254.000; -276.000
324.402; -260.100; -960.000; -983.000
324.538;  -11.200; -279.000; -104.000
324.674;   48.700;  164.000;   77.000
324.810;  255.800;  226.000;  308.000
324.946;   -5.800; -810.000; -658.000
325.082; -108.400; -568.000; -475.000
325.217;  -38.300;  -62.000;   16.000
325.353; -181.100; -764.000; -659.000
325.489; -153.100; -540.000; -506.000
325.625; -113.000; -579.000; -525.000
325.760;  118.500;  517.000;  376.000
325.896;  -17.200; -515.000; -702.000
326.032; -101.800; -403.000; -352.000
326.168;  -79.600; -462.000; -369.000
326.303; -101.700; -352.000; -461.000
326.439;    6.700; -336.000; -276.000
326.575;   21.900; -190.000;  -29.000
326.710;   24.000; -156.000;  -30.000
326.846;  -14.900;  146.000;  103.000
326.982; -144.200; -530.000; -548.000
327.117; -111.000; -481.000; -442.000
327.253; -170.500; -745.000; -742.000
327.388; -260.900;-1137.000;-1153.000
327.524;  -88.300; -811.000; -578.000
327.659;  -33.100;  -58.000;  -22.000
327.795;   18.400;   69.000;   45.000
327.931; -162.200; -723.000; -499.000
328.066;  -32.400; -417.000; -276.000
328.202;   19.100;   12.000; -129.000
328.337;  255.600;  957.000;  713.000
328.473;   -5.700;  -12.000;  -74.000
328.608;  -18.400; -256.000; -267.000
328.743; -170.200; -799.000; -664.000
328.879;   72.200;  214.000;  114.000
329.014; -118.800; -102.000; -122.000
329.150; -133.600; -358.000; -483.000
329.285; -116.900; -465.000; -466.000
329.421;  -69.600; -548.000; -246.000
329.556;   -7.300;  -36.000;   85.000
329.691; -142.600; -633.000; -615.000
329.827; -143.400; -626.000; -480.000
329.962;  -41.600;  131.000; -301.000
330.097; -181.200; -673.000; -585.000
330.233;  -73.500; -410.000; -223.000
330.368; -246.700; -839.000; -628.000
330.503;   43.200;    3.000;   98.000
330.638;    7.600;  -93.000; -125.000
330.774; -115.600; -609.000; -530.000
330.909;  -96.700; -434.000; -244.000
331.044; -130.200; -714.000; -708.000
331.179; -331.300;-1217.000;-1109.000
331.315;   44.100;   77.000;   20.000
331.450;   28.700;  157.000;  285.000
331.585; -148.200; -805.000; -706.000
331.720; -166.200; -510.000; -460.000
331.855;  -20.200;  -35.000; -102.000
331.990;  382.600;   62.000;  138.000
332.126;  228.500; -110.000;   71.000
332.261;  -11.500; -379.000; -265.000
332.396;   16.700; -135.000; -242.000
332.531; -228.500;-1074.000;-1031.000
332.666;   67.800; -519.000; -363.000
332.801; -208.800; -726.000; -807.000
332.936;    4.000; -192.000; -122.000
333.071; -249.800; -870.000; -817.000
333.206;   81.800;  307.000;  379.000
333.341;   96.700;  344.000;  418.000
333.476; -145.300; -627.000; -623.000
333.611;  -50.700; -251.000; -173.000
333.746;  -41.200; -381.000; -464.000
333.881; -213.700; -973.000; -935.000
334.016; -185.100; -936.000; -917.000
334.151; -224.700; -746.000; -702.000
334.286;  102.900;  152.000;  186.000
334.421;    1.900; -125.000; -178.000
334.556; -120.400; -611.000; -567.000
334.690; -131.100; -631.000; -577.000
334.825;  143.000;  381.000;   83.000
334.960; -112.400; -285.000; -413.000
335.095;   66.800;  135.000;  -91.000
335.230; -206.700; -722.000; -738.000
335.365; -247.600;-1084.000; -990.000
335.499; -259.000;-1108.000;-1037.000
335.634;  102.200;    9.000;  534.000
335.769; -209.300; -755.000; -720.000
335.904; -104.600; -603.000; -561.000
336.038; -105.200; -735.000; -657.000
336.173; -219.900;-1206.000;-1194.000
336.308;   24.700; -116.000; -189.000
336.443;   41.200; -544.000; -634.000
336.577; -182.300; -936.000; -787.000
336.712;  150.000;   -4.000;  -12.000
336.847; -118.200; -724.000; -607.000
336.981;  104.500; -272.000; -208.000
337.116;  513.900;  615.000;  501.000
337.250;  249.500; -434.000; -421.000
337.385;  378.400; -297.000; -208.000
337.520;   96.200; -632.000; -603.000
337.654;  -42.200; -215.000; -126.000
337.789; -203.400; -989.000; -933.000
337.923;  -27.600; -104.000; -205.000
338.058; -169.800; -673.000; -738.000
338.192; -107.700; -611.000; -488.000
338.327;   38.500;  -18.000; -155.000
338.461; -109.600; -299.000; -469.000
338.596; -144.600; -780.000; -638.000
338.730; -203.100; -767.000; -803.000
338.865;  170.300;  -46.000; -140.000
338.999; -150.800; -846.000; -702.000
339.134;  -39.300; -634.000; -536.000
339.268;   -4.500; -741.000; -603.000
339.403;  517.700; -740.000; -775.000
339.537;  167.200; -894.000; -820.000
339.671; -220.400; -829.000; -813.000
339.806; -118.000; -556.000; -512.000
339.940;   53.100; -261.000; -235.000
340.074; -171.300; -685.000; -510.000
340.209;  -46.200; -351.000; -230.000
340.343; -156.700; -517.000; -573.000
340.477;  371.600;  998.000; 1036.000
340.612; -148.300;-1033.000; -900.000
340.746;  213.700; -199.000; -243.000
340.880; -150.400; -924.000; -785.000
341.014;    3.900;  -45.000; -154.000
341.149; -211.700; -756.000; -718.000
341.283; -234.600; -839.000; -754.000
341.417; -203.400;-1124.000; -938.000
341.551;  201.400; -768.000; -708.000
341.685;  -65.800; -633.000; -611.000
341.820;  -95.000; -562.000; -493.000
341.954;  -79.600; -218.000; -349.000
342.088; -257.500;-1102.000;-1019.000
342.222;  113.600;  565.000;  618.000
342.356;  -86.000; -395.000; -335.000
342.490; -182.900; -880.000; -841.000
342.624;  -54.200; -339.000; -242.000
342.758;   35.900; -364.000; -312.000
342.892; -119.800; -710.000; -585.000
343.026;  -38.900;  -58.000; -116.000
343.160;  -88.500; -426.000; -376.000
343.294; -126.200; -474.000; -337.000
343.428;  -38.800; -488.000; -448.000
343.562;  -23.700; -172.000;  -23.000
343.696;  -24.500; -385.000; -314.000
343.830;  -11.000; -362.000; -356.000
343.964;   41.500; -231.000; -168.000
344.098; 1553.600;  199.000;   70.000
344.232; 1305.700; -266.000; -127.000
344.366;  131.700; -567.000; -453.000
344.500;  112.200; -665.000; -744.000
344.634;   46.800; -324.000; -164.000
344.768;  -31.700; -531.000; -341.000
344.902;   75.200;  278.000;  256.000
345.035;  -97.400; -556.000; -496.000
345.169; -254.800; -933.000; -656.000
345.303;  -15.700; -308.000; -482.000
345.437; -141.600; -826.000; -717.000
345.571; -129.700; -675.000; -594.000
345.704; -110.700; -309.000; -532.000
345.838;   48.400; -331.000; -284.000
345.972;  -67.700; -543.000; -495.000
346.106;  249.500; -179.000; -190.000
346.239;  689.400; -312.000; -243.000
346.373;   31.400; -343.000; -302.000
346.507; -274.200; -950.000; -962.000
346.640;  306.400;  -30.000;   13.000
346.774; -108.400; -650.000; -797.000
346.908;   15.900; -138.000;  -11.000
347.041; -176.500; -646.000; -593.000
347.175;   76.400;  259.000;   27.000
347.309; -156.400; -698.000; -628.000
347.442; -191.900; -883.000; -732.000
347.576;  470.700;  670.000;  668.000
347.709;  349.700; -123.000;  -52.000
347.843; -161.600; -933.000; -825.000
347.976;   99.700;  235.000;  294.000
348.110; -333.500;-1268.000;-1186.000
348.243; -215.400; -679.000; -772.000
348.377;   40.200;  -26.000;   60.000
348.510;  180.000;  403.000;  540.000
348.644;  -61.200;  -37.000; -159.000
348.777;   62.900;  180.000;  191.000
348.911;  -57.400; -142.000; -112.000
349.044;  368.700;  471.000;  448.000
349.178;  204.400;-1069.000;-1006.000
349.311;  226.600;  141.000;  255.000
349.444;  -49.300; -927.000; -813.000
349.578;    1.100; -347.000; -200.000
349.711; -214.600; -959.000; -862.000
349.845;  -25.200; -661.000; -591.000
349.978; -277.300;-1224.000;-1137.000
350.111; -137.300; -546.000; -612.000
350.244; -127.500; -596.000; -700.000
350.378;   51.700; -392.000; -393.000
350.511; -119.900; -393.000; -426.000
350.644; -183.800; -808.000; -806.000
350.778;   37.700;  168.000;  104.000
350.911;   46.900;  134.000;  140.000
351.044; -159.200; -685.000; -615.000
351.177;  -14.700; -321.000; -281.000
351.310;  -35.100;    3.000; -131.000
351.444; -152.200; -888.000; -788.000
351.577;  234.000;  140.000;   90.000
351.710;  243.200;  593.000;  417.000
351.843;  -56.000; -165.000;  -77.000
351.976;   22.400;  149.000;  -79.000
352.109; -150.700; -621.000; -612.000
352.242;  -44.500; -464.000; -419.000
352.376; -123.400; -580.000; -636.000
352.509;  311.400; -437.000; -356.000
352.642;  -20.400; -654.000; -604.000
352.775;  119.800; -141.000;  -98.000
352.908; -220.200; -933.000; -904.000
353.041; -184.600; -814.000; -824.000
353.174; -135.500; -551.000; -424.000
353.307; -160.700; -753.000; -764.000
353.440;  169.200;  541.000;  453.000
353.573; -206.000; -957.000;-1008.000
353.706;  -66.600; -384.000; -558.000
353.839;  -30.700; -264.000; -220.000
353.971; -182.200; -657.000; -512.000
354.104; -155.300; -896.000; -835.000
354.237;  -68.000; -627.000; -662.000
354.370; -146.900; -846.000; -879.000
354.503; -375.100;-1231.000;-1308.000
354.636;  -65.000; -529.000; -348.000
354.769; -285.400; -937.000; -860.000
354.902;   -8.300; -230.000; -139.000
355.034;  -18.300; -164.000; -220.000
355.167;    2.000; -262.000; -162.000
355.300; -207.600;-1061.000; -880.000
355.433; 1450.600;  -71.000;  -14.000
355.565; 2215.500; -402.000; -384.000
355.698;  573.700; -356.000; -296.000
355.831;  -33.200; -882.000; -801.000
355.964;  180.100; -285.000; -170.000
356.096; -157.300; -856.000; -843.000
356.229;   -1.600; -523.000; -530.000
356.362;  480.200; -373.000; -266.000
356.494;  907.800; -229.000; -162.000
356.627;  815.100;  269.000;  377.000
356.760; 1033.800;  120.000;   53.000
356.892; 1368.600; -286.000; -601.000
357.025; 1125.600;  403.000;  389.000
357.157;  938.500; -167.000; -179.000
357.290;  997.400; -856.000; -713.000
357.423;  223.800; -667.000; -556.000
357.555;  224.100; -217.000; -228.000
357.688;  183.300; -483.000; -364.000
357.820;  735.100; -870.000; -877.000
357.953; 6013.900; -563.000; -589.000
358.085; 1248.500; -632.000; -612.000
358.218; 1804.900;-1131.000; -932.000
358.350;  390.200;  -58.000;  312.000
358.483; -236.100;-1300.000;-1187.000
358.615;  -78.000;-1182.000;-1078.000
358.747; -131.800;-1187.000;-1058.000
358.880;   39.100; -810.000; -744.000
359.012;  -35.600; -376.000; -202.000
359.145;  -35.900; -480.000; -511.000
359.277;   23.100; -962.000; -913.000
359.409; 5050.600;  536.000;  231.000
359.542; 1230.700; -738.000; -688.000
359.674;  142.500;   46.000;   13.000
359.806;  -79.600; -565.000; -438.000
359.939;  -76.800; -617.000; -516.000
360.071;  -36.500; -583.000; -579.000
360.203;  -16.500; -411.000; -364.000
360.335;  138.200;  164.000;  -16.000
360.468;  296.700; -249.000; -307.000
360.600; 3951.900; -547.000; -454.000
360.732; 4197.400; -546.000; -423.000
360.864;  475.800;-1216.000;-1044.000
360.996;  458.100; -516.000; -554.000
361.129;   72.800; -389.000; -598.000
361.261;   62.000;  110.000; -113.000
361.393;  -14.200; -252.000; -214.000
361.525;   92.400;   94.000;  244.000
361.657;  -55.600; -821.000; -703.000
361.789;   55.100; -139.000; -155.000
361.921;  355.200; -642.000; -593.000
362.053;  492.000;  524.000;  541.000
362.185;  115.000;  288.000;   72.000
362.318; -139.700; -709.000; -705.000
362.450;  263.600;  294.000;  444.000
362.582;  181.900; -913.000; -870.000
362.714;  -58.200; -353.000; -332.000
362.846; -142.800; -606.000; -490.000
362.978; -280.000; -941.000; -811.000
363.109;   81.800; -161.000; -260.000
363.241;  645.600; -739.000; -749.000
363.373;  612.700; -649.000; -564.000
363.505; 1016.400; -186.000;  -91.000
363.637;  225.300; -787.000; -601.000
363.769; -246.900;-1067.000;-1080.000
363.901; -120.300; -596.000; -654.000
364.033; -227.000;-1103.000;-1062.000
364.165;   13.500; -283.000; -283.000
364.296;  120.900; -316.000; -177.000
364.428;   59.300;-1344.000;-1220.000
364.560; -151.400; -679.000; -661.000
364.692;  -85.200; -738.000; -835.000
364.824;  395.800; -588.000; -456.000
364.955;  648.300; -402.000; -564.000
365.087; 1273.300;-1097.000; -852.000
365.219;    8.800; -686.000; -816.000
365.351; -114.200; -526.000; -572.000
365.482;  167.400;  300.000;  240.000
365.614;  -64.300; -402.000; -314.000
365.746; -175.700; -729.000; -752.000
365.877; -172.100; -706.000; -672.000
366.009;  419.700;  -35.000;  -62.000
366.141; -188.600;-1249.000;-1134.000
366.272; -177.600; -803.000; -719.000
366.404; -209.000;-1005.000; -874.000
366.535;   14.000; -139.000;  -12.000
366.667; -180.000; -644.000; -649.000
366.799;  148.200;  353.000;  203.000
366.930; -243.100; -862.000; -996.000
367.062;  206.700; -639.000; -613.000
367.193;  131.600; -872.000; -842.000
367.325; -120.200; -580.000; -684.000
367.456;  127.900; -246.000;   31.000
367.588;  276.600; -371.000; -318.000
367.719;   57.900;  -44.000;  -45.000
367.851;   11.800; -222.000; -241.000
367.982;  -89.300; -875.000; -732.000
368.113;  168.900; -475.000; -358.000
368.245; -203.900; -960.000; -841.000
368.376;   39.600; -254.000; -302.000
368.508;  -38.900; -188.000; -263.000
368.639; -264.000;-1166.000;-1034.000
368.770;  -31.500; -670.000; -589.000
368.902;  -94.500; -836.000; -926.000
369.033; -206.500; -906.000; -855.000
369.164;  -79.600; -720.000; -653.000
369.296; -220.500; -452.000; -601.000
369.427;   33.900; -209.000; -144.000
369.558;  -95.800; -593.000; -377.000
369.689; -120.300; -721.000; -569.000
369.821; -259.100; -951.000; -845.000
369.952;   -8.800;   42.000; -108.000
370.083;  -70.200; -229.000; -108.000
370.214; -112.000; -735.000; -650.000
370.345;   34.200;   65.000;   81.000
370.477; -145.900; -810.000; -790.000
370.608;  383.500; -328.000; -264.000
370.739; -133.400;-1233.000;-1292.000
370.870;  -89.300;-1102.000; -923.000
371.001;  193.100; -378.000; -467.000
371.132; -132.100; -754.000; -735.000
371.263;   10.600;  -42.000; -148.000
371.394; -254.600; -841.000; -748.000
371.525;  104.600;  345.000;  225.000
371.657; -173.700; -808.000; -670.000
371.788;  181.100;  103.000;  199.000
371.919;  317.300; -384.000; -304.000
372.050; 6185.000;  -91.000; -156.000
372.181; 1733.200; -188.000; -294.000
372.311;  658.300;   42.000; -127.000
372.442;   41.600; -457.000; -451.000
372.573;  -34.300; -444.000; -340.000
372.704; -247.600;-1008.000; -980.000
372.835;  174.300; -228.000; -289.000
372.966;  -97.500; -646.000; -554.000
373.097;  -97.400; -575.000; -711.000
373.228;  -80.800; -717.000; -542.000
373.359;  222.600; -824.000; -536.000
373.490; 1514.300; -881.000; -727.000
373.620; 1823.500;-1001.000; -803.000
373.751; 2999.600; -332.000; -396.000
373.882; 1290.700; -663.000; -733.000
374.013;  111.300; -449.000; -262.000
374.143;  -63.600; -581.000; -659.000
374.274; -218.100; -987.000; -908.000
374.405;  318.000; -388.000; -276.000
374.536;  710.500; -526.000; -387.000
374.666; 1890.800; -759.000; -807.000
374.797;  362.300; -817.000; -868.000
374.928; 1389.200; -710.000; -560.000
375.058; 1412.700; -535.000; -500.000
375.189;  149.900;  -59.000;  -93.000
375.320; -204.200; -928.000;-1034.000
375.450;  -60.200; -625.000; -616.000
375.581;  -84.100; -526.000; -436.000
375.712;   -6.400; -574.000; -250.000
375.842;  490.800; -438.000; -415.000
375.973;  322.700; -554.000; -513.000
376.103;  -68.700; -665.000; -648.000
376.234; -125.000; -531.000; -552.000
376.364;  -79.300; -944.000; -867.000
376.495;  619.800;  925.000;  529.000
376.625;  -39.400; -472.000; -485.000
376.756;   70.700; -709.000; -678.000
376.886; -160.800;-1178.000;-1026.000
377.017;   34.500;-1048.000;-1061.000
377.147;  462.200; -786.000; -782.000
377.278;  178.600;  174.000;  228.000
377.408; -221.500; -801.000; -815.000
377.538; -153.400; -707.000; -693.000
377.669; -142.300; -537.000; -613.000
377.799; -161.400; -645.000; -635.000
377.929; -112.700; -610.000; -428.000
378.060; -248.900; -781.000; -847.000
378.190; -108.600; -726.000; -531.000
378.320;  -63.400; -401.000; -406.000
378.451;  -10.000; -131.000;  -22.000
378.581;    2.100;  -67.000; -110.000
378.711;  330.400; 1035.000;  866.000
378.841;  -22.100; -533.000; -675.000
378.972; -147.300; -871.000; -751.000
379.102;   18.500; -652.000; -579.000
379.232;    7.800; -126.000;  -73.000
379.362; -226.600;-1001.000; -885.000
379.492;   51.600; -373.000; -424.000
379.623;  202.300;    0.000;  111.000
379.753; -207.800;-1107.000; -974.000
379.883;  336.800;   59.000;  156.000
380.013;  -34.900;-1081.000;-1017.000
380.143; -198.300;-1097.000;-1056.000
380.273; -163.000; -985.000; -861.000
380.403;   16.100; -344.000; -257.000
380.533;  -59.100; -651.000; -664.000
380.663;  160.600;  173.000;  128.000
380.793; -219.900;-1027.000;-1074.000
380.923;   14.300; -103.000;  -34.000
381.053; -143.800; -613.000; -623.000
381.183;   -1.000; -106.000; -248.000
381.313;   58.900; -656.000; -470.000
381.443;   54.200; -692.000; -473.000
381.573;  349.200; -402.000; -409.000
381.703;  371.200;-1249.000;-1095.000
381.833; -257.400;-1454.000;-1336.000
381.963;  217.600; -134.000;  -87.000
382.093; 2247.100; -925.000; -909.000
382.223;  631.400; -713.000; -602.000
382.353;  -48.300; -801.000; -608.000
382.482;  611.200;-1091.000; -964.000
382.612; 1226.200; -872.000; -644.000
382.742;  709.100; -695.000; -622.000
382.872;  414.000; -565.000; -551.000
383.002;  154.000;  347.000; -132.000
383.131;  -13.800; -226.000; -160.000
383.261;  -57.700; -706.000; -768.000
383.391;  416.800; -552.000; -377.000
383.521; 4951.500;  451.000;  263.000
383.650;  960.200; -947.000; -904.000
383.780;  -21.100; -783.000; -656.000
383.910;  286.000;  880.000;  802.000
384.039;   60.800; -794.000; -656.000
384.169;  332.400;-1205.000;-1017.000
384.299;  -60.700; -650.000; -662.000
384.428; -161.000; -764.000; -680.000
384.558;  -38.200; -308.000; -275.000
384.687;  -48.400; -414.000; -334.000
384.817;   90.900;   75.000;   -2.000
384.947;   44.900; -234.000; -141.000
385.076;  566.500;  982.000;  912.000
385.206;  252.500;  369.000;  480.000
385.335;  -42.000; -549.000; -417.000
385.465; -148.600; -655.000; -663.000
385.594;  280.500;  -53.000;  -44.000
385.724;  666.600; -868.000; -838.000
385.853;  206.900; -296.000; -270.000
385.982; 2384.500; -743.000; -787.000
386.112; 3572.000;-1052.000; -871.000
386.241;  209.600; -307.000; -312.000
386.371;   46.400; -174.000;  -87.000
386.500;  -12.300; -825.000; -789.000
386.629;   47.000; -874.000; -817.000
386.759;  118.100;  -43.000;   68.000
386.888;   31.700; -170.000; -250.000
387.017; -134.700; -648.000; -620.000
387.147; -150.400; -771.000; -798.000
387.276;   19.600; -410.000; -397.000
387.405;   75.300; -398.000; -342.000
387.535;  -60.500; -452.000; -361.000
387.664; -113.600; -692.000; -620.000
387.793;  115.700; -198.000; -113.000
387.922;  922.200;  255.000;  200.000
388.052;   29.000; -576.000; -423.000
388.181;   41.600; -342.000; -472.000
388.310;   -6.900; -889.000; -710.000
388.439;  -85.500; -749.000; -742.000
388.568;  392.600;  365.000;  244.000
388.697; 1807.600; -756.000; -653.000
388.826;  325.600; -768.000; -666.000
388.956;  101.900; -285.000; -307.000
389.085;  -65.700; -347.000; -287.000
389.214; -180.400; -842.000; -872.000
389.343; -113.300; -645.000; -413.000
389.472;  700.100;  126.000;  149.000
389.601;  883.500;   91.000;    0.000
389.730;   22.100; -568.000; -687.000
389.859;  135.500;  226.000;   46.000
389.988;  338.200; -423.000; -408.000
390.117;  241.700; -168.000; -146.000
390.246;   36.900; -331.000; -320.000
390.375;  181.300; -673.000; -626.000
390.504;  -84.500; -703.000; -621.000
390.633; -191.600; -672.000; -726.000
390.761; -110.000; -732.000; -645.000
390.890;   59.400;   -4.000; -130.000
391.019;  -39.000; -421.000; -441.000
391.148; -237.300; -826.000; -855.000
391.277; -120.400; -576.000; -493.000
391.406; -163.800; -821.000; -805.000
391.534;   86.600;  574.000; -301.000
391.663;  -99.300; -583.000; -645.000
391.792; -129.400; -673.000; -701.000
391.921;  180.900;   -3.000;   15.000
392.050;  360.500; -287.000; -228.000
392.178; -133.800;-1206.000;-1061.000
392.307;  263.700; -758.000; -712.000
392.436;  120.100; -427.000; -641.000
392.564;  104.900;  166.000;   -6.000
392.693; -162.600; -860.000; -682.000
392.822;  383.800; -529.000; -534.000
392.950;  141.600; -880.000; -714.000
393.079;  598.700; -188.000; -328.000
393.208;   28.100; -488.000; -511.000
393.336;   33.500; -170.000; -145.000
393.465;  -47.300; -317.000; -199.000
393.593;   56.400;   62.000;   79.000
393.722; -290.500;-1121.000; -916.000
393.850;   12.700; -188.000;  -61.000
393.979; -275.100; -926.000; -805.000
394.107;  -81.900; -517.000; -537.000
394.236;  -37.200; -570.000; -507.000
394.364;  567.600;  383.000;  206.000
394.493;  833.900; -911.000; -767.000
394.621;  -18.500; -955.000; -916.000
394.750; 1086.700; -873.000; -923.000
394.878; 4500.700; -247.000; -149.000
395.007; 5651.000; -721.000; -807.000
395.135;  393.300; -790.000; -721.000
395.263; -179.800;-1038.000;-1040.000
395.392;   62.800;  -25.000; -107.000
395.520; -228.900; -818.000; -679.000
395.648; -170.000; -865.000; -915.000
395.777;  -28.300; -366.000; -405.000
395.905;  -48.800; -449.000; -564.000
396.033;   77.300;  217.000;  172.000
396.162; 1496.600; -399.000; -453.000
396.290; 1225.600;  -17.000;   -2.000
396.418;  203.800; -555.000; -514.000
396.546; -135.200; -571.000; -466.000
396.674; -165.500; -850.000; -878.000
396.803;   37.500;  -72.000;  -23.000
396.931;  199.500; -179.000; -199.000
397.059;   15.500;-1026.000; -989.000
397.187; -219.800;-1026.000; -975.000
397.315; -252.600; -884.000; -649.000
397.443; -167.600; -592.000; -443.000
397.572; -168.300; -578.000; -424.000
397.700;  -32.300; -607.000; -614.000
397.828;  100.300;  120.000;  -90.000
397.956;  -42.900; -508.000; -478.000
398.084; -126.100; -767.000; -626.000
398.212;  144.700;  137.000;  124.000
398.340;   59.000;  -56.000;  159.000
398.468;   59.900; -390.000; -169.000
398.596; -249.300; -993.000; -953.000
398.724; -222.200; -762.000; -767.000
398.852; -313.100;-1024.000; -976.000
398.980;  -98.000; -560.000; -560.000
399.108; -104.200; -982.000; -735.000
399.236;  129.600;   13.000;    8.000
399.363;   50.200;  222.000;  196.000
399.491; -106.200; -404.000; -398.000
399.619; -223.300; -829.000; -800.000
399.747; -183.200; -859.000; -771.000
399.875;  205.600;  220.000;  234.000
400.003;  -58.200; -359.000; -284.000
400.130; -152.300; -421.000; -341.000
400.258;   32.800;  -83.000;   38.000
400.386;  -91.100; -352.000; -168.000
400.514;  -79.600; -526.000; -587.000
400.641; -126.700; -928.000; -802.000
400.769; -230.700; -979.000; -888.000
400.897; -167.200; -838.000; -793.000
401.025;   30.500; -166.000; -152.000
401.152;   38.500;  220.000;   38.000
401.280; -116.100; -430.000; -429.000
401.408; -179.600; -712.000; -576.000
401.535; -168.900; -735.000; -758.000
401.663; -344.000;-1134.000;-1054.000
401.790; -126.000; -514.000; -525.000
401.918;  162.800;  436.000;  405.000
402.046;   19.800;  134.000;  122.000
402.173;  -25.400;  -18.000;    7.000
402.301; -104.300; -519.000; -397.000
402.428;  141.100;  528.000;  383.000
402.556; -268.300;-1188.000; -913.000
402.683;    6.600;  -20.000;   -1.000
402.811;   26.400;  -37.000; -206.000
402.938;   16.100;   20.000;   27.000
403.066;  274.900; -574.000; -558.000
403.193;  574.500;  299.000;  239.000
403.321;  457.600; -396.000; -574.000
403.448;  574.300;   83.000;   27.000
403.575;  224.900;  -90.000;  -46.000
403.703; -171.200; -732.000; -557.000
403.830; -100.900; -531.000; -496.000
403.957; -263.200;-1117.000;-1023.000
404.085;   46.800;  -61.000; -172.000
404.212;  218.100;  -50.000;   63.000
404.339;  461.100; -566.000; -306.000
404.467; 8775.500; -612.000; -524.000
404.594; 5409.500; -287.000; -227.000
404.721; 1193.900; -869.000; -764.000
404.848;  128.900; -113.000; -202.000
404.976; -172.200; -856.000; -783.000
405.103;   23.600;  -14.000;  -82.000
405.230;   35.100;  190.000;  226.000
405.357;   91.000;  117.000;   44.000
405.484;  382.700;  -49.000;    5.000
405.612;   88.400; -548.000; -563.000
405.739; -126.200; -488.000; -243.000
405.866;  190.600;  669.000;  385.000
405.993;  -78.900; -398.000; -102.000
406.120; -223.000; -801.000; -887.000
406.247;  -66.000; -323.000; -342.000
406.374;  821.900;  540.000;  629.000
406.501;  134.400; -632.000; -702.000
406.628; -135.900; -621.000; -589.000
406.755; -142.100; -803.000; -620.000
406.882;  -45.500; -228.000; -277.000
407.009; -195.600; -719.000; -628.000
407.136;  148.600; -480.000; -401.000
407.263;  164.900; -939.000; -829.000
407.390; -115.500; -692.000; -614.000
407.517; -341.000;-1139.000;-1187.000
407.644;  -74.300; -332.000; -256.000
407.771; -190.500; -249.000; -287.000
407.898;   63.800;  168.000;  328.000
408.025;  -89.600; -421.000; -313.000
408.151;   23.500;   82.000;  153.000
408.278; -116.300; -267.000; -216.000
408.405; -211.600; -931.000; -899.000
408.532; -117.400; -549.000; -542.000
408.659; -195.000; -677.000; -648.000
408.785; -362.300;-1298.000;-1170.000
408.912;  -53.100; -412.000; -296.000
409.039; -173.400; -610.000; -686.000
409.166; -142.700; -591.000; -555.000
409.292; -192.000; -571.000; -534.000
409.419; -212.200; -665.000; -649.000
409.546; -123.800; -431.000; -192.000
409.672; -180.400; -713.000; -545.000
409.799;    9.500;  -36.000;   34.000
409.926;  -25.400; -180.000; -179.000
410.052; -335.600;-1127.000;-1091.000
410.179;  -69.400; -368.000; -392.000
410.305; -137.200; -375.000; -493.000
410.432;  -58.100; -220.000; -333.000
410.558; -164.400; -305.000; -380.000
410.685; -187.300; -688.000; -431.000
410.812; -159.300; -409.000; -588.000
410.938; -261.300; -964.000; -808.000
411.065; -183.900; -671.000; -645.000
411.191;  -10.900; -189.000; -174.000
411.317; -194.700; -823.000; -742.000
411.444; -101.400; -317.000; -246.000
411.570;  -95.700; -339.000; -294.000
411.697; -180.200; -758.000; -752.000
411.823; -296.800; -989.000; -999.000
411.949;   -6.700;  -56.000;   17.000
412.076; -189.700; -539.000; -519.000
412.202; -204.700; -758.000; -757.000
412.329; -195.100; -798.000; -752.000
412.455; -203.100; -821.000; -657.000
412.581;   -7.700;  -15.000;  172.000
412.707;  -92.500; -540.000; -457.000
412.834;   97.800;  156.000;  219.000
412.960; -138.600; -785.000; -784.000
413.086; -195.800; -743.000; -701.000
413.212;  344.800;  604.000;  578.000
413.339; -122.800; -685.000; -701.000
413.465;   43.600; -364.000; -310.000
413.591; -180.400; -757.000; -474.000
413.717;  -54.800; -358.000; -366.000
413.843; -243.800; -839.000; -861.000
413.969;  -61.100;  -47.000; -292.000
414.096; -178.000; -679.000; -679.000
414.222;   32.800;  -33.000;   85.000
414.348;  -25.000; -652.000; -385.000
414.474;  200.000;   38.000;  -52.000
414.600;  -12.200; -126.000; -144.000
414.726;   -8.700;  -96.000;  -55.000
414.852;  -82.900; -365.000; -342.000
414.978;  106.200;  104.000;  -18.000
415.104;  134.400;   38.000;   80.000
415.230;   66.300; -329.000; -330.000
415.356;   83.200; -409.000; -514.000
415.482;  347.300;   13.000;  -35.000
415.608;  439.500; -247.000; -323.000
415.734; 1509.000;   67.000;   38.000
415.860;31674.100; -875.000; -767.000
415.986;20626.300; -685.000; -607.000
416.111; 1597.200; -798.000; -652.000
416.237;  358.500; -424.000; -571.000
416.363; 1842.800; -765.000; -733.000
416.489; 6245.700; -324.000; -251.000
416.615;  564.400; -707.000; -742.000
416.741;  -66.800; -677.000; -784.000
416.866; -178.200; -673.000; -736.000
416.992; -211.900; -801.000; -818.000
417.118;  -49.500;  -41.000;  -80.000
417.244; -111.700; -798.000; -531.000
417.369; -171.000; -801.000; -612.000
417.495;   32.800; -325.000; -254.000
417.621; -188.900;-1015.000; -803.000
417.746;    0.100; -579.000; -572.000
417.872;  126.900; -254.000; -144.000
417.998;  112.700; -515.000; -530.000
418.123; 1759.000;-1073.000; -845.000
418.249; 8034.600; -512.000; -601.000
418.374;  918.800; -916.000; -824.000
418.500;  182.700; -383.000; -482.000
418.626;  196.200;   70.000;  -59.000
418.751;  192.300; -549.000; -448.000
418.877;  244.000; -637.000; -643.000
419.002; 3085.100; -688.000; -560.000
419.128;18889.900; -930.000; -721.000
419.253; 4093.400; -967.000; -837.000
419.379;  574.300; -391.000; -338.000
419.504;  681.300;  325.000;  415.000
419.629;  739.500; -393.000; -212.000
419.755; 5872.600; -317.000; -254.000
419.880;31304.900;  -98.000;   67.000
420.006;17675.800; -280.000; -221.000
420.131;43269.100; -662.000; -775.000
420.256; 5666.600; -315.000; -316.000
420.382;  700.600; -665.000; -687.000
420.507;   81.200; -649.000; -778.000
420.632;  241.900; -337.000; -339.000
420.758;  425.100; -251.000; -425.000
420.883; -111.100; -876.000; -672.000
421.008; -166.200; -775.000; -619.000
421.133; -135.900; -509.000; -467.000
421.259;  -74.800; -325.000; -259.000
421.384; -193.600; -834.000; -693.000
421.509;  -41.400;-1052.000; -862.000
421.634; 2019.100; -936.000; -820.000
421.759;  782.000; -359.000; -327.000
421.885;  -70.400; -717.000; -656.000
422.010; -127.500; -673.000; -542.000
422.135; -240.600; -695.000; -727.000
422.260;  115.700;  340.000;  280.000
422.385;  -39.700;   12.000;  -98.000
422.510;   80.400;  151.000;  -26.000
422.635;   63.200;  -87.000;  -43.000
422.760;  152.400; -766.000; -791.000
422.885;  131.300;  -57.000;  -80.000
423.010;   -6.600; -112.000; -169.000
423.135; -140.200; -481.000; -561.000
423.260;   -1.400; -150.000; -245.000
423.385;  196.100;  476.000;  222.000
423.510;  130.200;   71.000;  -22.000
423.635;  144.100;  133.000;   45.000
423.760;  166.400;  383.000;  328.000
423.885;  155.600;  336.000;  391.000
424.010;   63.600;  -68.000;  -13.000
424.135;   23.000;    5.000;  -33.000
424.259; -111.200; -654.000; -457.000
424.384;  -76.500; -279.000; -272.000
424.509;    2.900; -260.000; -186.000
424.634; -174.400; -761.000; -623.000
424.759;   -3.100; -688.000; -544.000
424.883;  -14.600; -506.000; -527.000
425.008;  244.800; -502.000; -410.000
425.133; 3091.000; -679.000; -653.000
425.258; 1235.300; -517.000; -381.000
425.382; 1795.900; -867.000; -774.000
425.507; 4139.000; -487.000; -543.000
425.632;  612.700; -802.000; -663.000
425.756;  721.700; -256.000; -146.000
425.881;10657.800; -831.000; -857.000
426.006;25684.600; -604.000; -355.000
426.130; 3597.700; -696.000; -508.000
426.255;  508.500; -611.000; -491.000
426.379;  253.900; -189.000; -577.000
426.504;  696.400;  660.000;  544.000
426.629; 6361.400; -519.000; -466.000
426.753; 4008.800;   64.000;  -46.000
426.878;  452.000; -252.000; -288.000
427.002;  302.100; -651.000; -668.000
427.127; 2693.300;  -35.000; -158.000
427.251;17454.600;  372.000;  401.000
427.375; 4443.400; -191.000; -173.000
427.500; 3833.300; -616.000; -610.000
427.624; 1155.300; -234.000; -400.000
427.749;  189.500; -216.000; -225.000
427.873;  -34.900; -499.000; -412.000
427.997;  -47.000; -222.000; -230.000
428.122;  227.300;  795.000;  703.000
428.246;  216.900;  433.000;  434.000
428.371; -225.800; -869.000; -773.000
428.495; -183.900; -624.000; -646.000
428.619;  -15.000; -186.000; -117.000
428.743;  117.400;   65.000;  132.000
428.868;   35.800; -732.000; -643.000
428.992; 2403.400; -219.000; -326.000
429.116;  871.300; -329.000; -357.000
429.240;  504.000;  419.000;  426.000
429.365;  -31.900; -454.000; -574.000
429.489;  -36.000; -638.000; -647.000
429.613;   78.200; -236.000; -177.000
429.737;   59.800; -563.000; -432.000
429.861;  436.300; -247.000; -133.000
429.985; 9000.900; -425.000; -305.000
430.109; 8763.500; -770.000; -908.000
430.234;  985.700;   76.000;  -50.000
430.358;  110.100; -250.000; -160.000
430.482; -100.000; -672.000; -564.000
430.606;  -99.600; -655.000; -375.000
430.730;   47.200; -437.000; -388.000
430.854;  162.400; -909.000; -835.000
430.978;  -87.300; -795.000; -764.000
431.102; -143.400; -499.000; -422.000
431.226; -182.900; -874.000; -815.000
431.350;  126.100;  345.000;  422.000
431.474; -101.700; -661.000; -373.000
431.597; -287.900;-1060.000; -848.000
431.721; -103.900; -276.000; -267.000
431.845; -216.300; -704.000; -472.000
431.969; -100.100; -304.000; -349.000
432.093; -125.700; -395.000; -317.000
432.217;   53.600;   32.000;   82.000
432.341; -142.800; -523.000; -518.000
432.464;   54.400;   96.000;   40.000
432.588;  340.700; -401.000; -329.000
432.712;  162.200;  -52.000;  -52.000
432.836;   93.500;  213.000;  263.000
432.959;   -7.500; -372.000; -311.000
433.083;  159.800;   11.000;    2.000
433.207;  645.000;  285.000;  930.000
433.330; 8140.700; -391.000; -200.000
433.454; 8896.200; -654.000; -638.000
433.578; 5289.200;  583.000;  278.000
433.701;  839.000; -623.000; -675.000
433.825;  215.800; -292.000; -299.000
433.949;  334.800;   28.000;  -72.000
434.072;   73.600; -410.000; -323.000
434.196;    6.000; -309.000; -117.000
434.319; 8061.800;25482.000;25124.000
434.443; 1212.500; -656.000; -603.000
434.566; 4006.200;  281.000;   62.000
434.690;  548.700; -637.000; -383.000
434.813;  100.400; -251.000; -173.000
434.937; -160.600; -569.000; -696.000
435.060;  -92.900; -423.000; -332.000
435.184;  563.400; -492.000; -217.000
435.307;  290.700;  159.000;  102.000
435.431;   -3.300;  -40.000;   24.000
435.554;  -97.900; -399.000; -240.000
435.677; -105.100; -350.000; -258.000
435.801;   -4.000;  -25.000;   49.000
435.924;   -0.800;    1.000;  -67.000
436.048; -228.200;-1019.000; -732.000
436.171;  -65.900; -240.000;  -66.000
436.294;  -14.400; -248.000; -229.000
436.417;  117.200; -963.000; -849.000
436.541; -186.800; -814.000; -840.000
436.664;  -48.300; -242.000; -316.000
436.787;   31.800;   13.000;  113.000
436.910; -191.300; -792.000; -422.000
437.034;   67.800;  142.000;  143.000
437.157;  122.000;  -11.000;    0.000
437.280;  -65.800; -392.000; -292.000
437.403; -156.200; -982.000; -869.000
437.526; 1134.300; -903.000; -865.000
437.649; 3792.700; -505.000; -332.000
437.772;  471.000; -692.000; -540.000
437.896;  285.300;  700.000;  544.000
438.019; -156.500; -758.000; -503.000
438.142; -114.700; -596.000; -506.000
438.265;    5.500; -639.000; -670.000
438.388;  921.500; -520.000; -410.000
438.511;  121.300; -597.000; -394.000
438.634;  -50.200; -247.000; -125.000
438.757; -244.900; -693.000; -619.000
438.880;   31.800;  -34.000;  -57.000
439.003; -102.600; -417.000; -437.000
439.126;  -40.900; -287.000; -167.000
439.248;  -96.300;  -98.000; -139.000
439.371;  -13.400;    9.000;  -53.000
439.494;  106.800;  510.000;  439.000
439.617;  -38.800;   65.000;  -88.000
439.740; -330.300; -968.000; -816.000
439.863; -241.900; -755.000; -595.000
439.986; -191.500; -476.000; -431.000
440.108;  -37.500; -161.000; -112.000
440.231; -300.500; -950.000; -836.000
440.354;  -25.800;  -64.000; -150.000
440.477;   65.200; -566.000; -542.000
440.599;  -28.500; -200.000; -225.000
440.722; -190.800; -709.000; -586.000
440.845;  197.600;  751.000;  928.000
440.968; -167.800; -415.000; -311.000
441.090;  -85.500; -199.000;  -33.000
441.213; -302.800;-1021.000; -825.000
441.336;  -18.800; -159.000;   -5.000
441.458; -152.600; -549.000; -396.000
441.581; -134.800; -628.000; -629.000
441.703; -102.200; -152.000;   13.000
441.826; -180.300; -557.000; -400.000
441.948;  -52.300;   56.000;   51.000
442.071;  112.300;  555.000;  424.000
442.193; -180.700; -531.000; -485.000
442.316;   97.200;  152.000;   97.000
442.438;   73.100; -233.000;  -10.000
442.561;  205.800;  272.000;  262.000
442.683; 1027.300; -809.000; -522.000
442.806; 1900.500;   -8.000;   74.000
442.928;  -32.800; -859.000; -604.000
443.051;  -94.600; -577.000; -373.000
443.173; -144.100; -341.000; -339.000
443.295; -110.700; -263.000; -371.000
443.418;  -89.800; -321.000;  -29.000
443.540;   57.100; -106.000;   -4.000
443.662; -185.300; -563.000; -465.000
443.785;   25.000;  335.000;  199.000
443.907; -180.800; -362.000; -208.000
444.029; -206.500; -767.000; -494.000
444.152; -231.500; -644.000; -554.000
444.274;   -8.900;  -18.000;  -24.000
444.396; -175.800; -461.000; -221.000
444.518; -219.200; -691.000; -454.000
444.640; -178.900; -268.000; -111.000
444.763;   37.400;  388.000;  249.000
444.885; -238.600; -432.000; -392.000
445.007;   13.400;   35.000;   86.000
445.129; -205.200; -610.000; -515.000
445.251; -185.200; -372.000; -439.000
445.373; -205.100; -537.000; -386.000
445.495;   81.100;  242.000;  350.000
445.617;  183.600;  853.000;  753.000
445.739;  -71.000; -215.000;  -97.000
445.861;   -6.600; -245.000; -112.000
445.984;  -33.800; -267.000; -101.000
446.105;  403.200; -418.000; -251.000
446.227; 1053.900; -176.000;  -19.000
446.349;    4.400; -358.000; -249.000
446.471; -161.700; -615.000; -448.000
446.593;  -90.100; -316.000;   19.000
446.715;    7.500;  -67.000;   41.000
446.837;  172.700;  697.000;  832.000
446.959; -155.200; -457.000; -478.000
447.081; -206.100; -628.000; -518.000
447.203;  163.600;  862.000;  834.000
447.325; -113.600; -270.000;   42.000
447.446;   74.500;  286.000;  530.000
447.568; -278.600; -921.000; -803.000
447.690;  -90.800; -236.000; -245.000
447.812; -242.400; -798.000; -519.000
447.933;   22.300;  155.000;  127.000
448.055; -106.100; -306.000; -261.000
448.177;  330.400;   31.000;   79.000
448.299;  133.800; -935.000; -727.000
448.420;   95.200;  -25.000;  159.000
448.542;  -76.500;   -3.000;   33.000
448.664;    8.300;  109.000;  322.000
448.785;  -21.000;  265.000;   83.000
448.907; -108.200; -614.000; -353.000
449.028;  -77.200; -771.000; -471.000
449.150;  169.800;  492.000;  589.000
449.272; -317.400;-1044.000; -913.000
449.393;  146.000;  612.000;  694.000
449.515; -227.600; -634.000; -581.000
449.636;  -49.000; -264.000; -155.000
449.758;  154.000;  763.000;  622.000
449.879; -150.000; -498.000; -396.000
450.001; -106.400; -149.000;  -49.000
450.122;  -24.900;  -95.000;  162.000
450.244;  -10.400;   37.000;  364.000
450.365; -134.100; -495.000; -301.000
450.486;  -21.900;   80.000;  268.000
450.608;   84.800;  393.000;  326.000
450.729;  167.500;  578.000;  645.000
450.850;  -33.100; -574.000; -466.000
450.972; 1244.100; -552.000; -389.000
451.093; 7796.800;  190.000;  588.000
451.214; 2770.900; -516.000; -337.000
451.336;  659.400;  773.000;  579.000
451.457;  147.400;  264.000;  393.000
451.578;  -25.200; -118.000;  -74.000
451.699; -193.700; -546.000; -540.000
451.821;  -70.900; -284.000;  -50.000
451.942;   40.400;  278.000;  285.000
452.063;  156.300;  228.000;  419.000
452.184;  947.200;  -54.000;  -49.000
452.305; 1692.900;  103.000;  170.000
452.427;  139.800; -549.000; -301.000
452.548;  -14.300;   23.000;   79.000
452.669;  -48.600; -257.000;  -89.000
452.790;  -51.600;    3.000;  -18.000
452.911;   46.400;  195.000;  259.000
453.032;  -86.200; -289.000;  -60.000
453.153;  -68.000;  -29.000;   81.000
453.274;  213.100;  737.000;  868.000
453.395;  -40.600;  -51.000;  175.000
453.516;  338.700; 1317.000; 1388.000
453.637;  -76.500; -205.000; -150.000
453.758;  -54.000;   15.000;   69.000
453.879; -185.800; -462.000; -250.000
454.000;  231.000; 1086.000;  948.000
454.121; -178.200; -554.000; -326.000
454.242; -158.400; -599.000; -383.000
454.362;  -49.100;  -99.000;  114.000
454.483;  -45.400; -309.000; -229.000
454.604;  148.200;  512.000;  580.000
454.725; -195.100; -627.000; -555.000
454.846; -188.300; -474.000; -406.000
454.967;   35.800;  230.000;  539.000
455.087;  -37.300;  179.000;  153.000
455.208;  100.600;  554.000;  856.000
455.329;  -75.900;  -22.000;   82.000
455.450;  134.500;  473.000;  633.000
455.570; -135.900; -234.000; -211.000
455.691;  -28.700;  201.000;  407.000
455.812; -165.200; -270.000;  -92.000
455.932;  -48.000;  107.000;  -97.000
456.053; -103.600;   36.000;   24.000
456.173; -184.000; -433.000; -355.000
456.294; -215.600; -476.000; -303.000
456.415;  -46.900;  -73.000;   70.000
456.535;   13.500;  297.000;  273.000
456.656;   -6.200;  132.000;  240.000
456.776;  -74.000;    3.000;  298.000
456.897;   53.300;  308.000;  513.000
457.017;  -92.700; -153.000;   -3.000
457.138; -133.300; -402.000; -249.000
457.258;  -30.800;  263.000;  224.000
457.379;   46.900;  509.000;  521.000
457.499;   21.100;  443.000;  432.000
457.620; -198.500; -407.000; -231.000
457.740; -179.600; -132.000;  -11.000
457.860;  -33.200;   87.000;   44.000
457.981;  -72.500;  132.000;  124.000
458.101;  -82.300;  -89.000;   40.000
458.221;   -9.100;  336.000;  402.000
458.342;  -65.500;   -4.000;  -37.000
458.462;  121.500;  617.000;  352.000
458.582;  -21.800; -302.000; -294.000
458.703;   29.700;  303.000;  154.000
458.823;  -23.500;   22.000;  163.000
458.943;   90.800;  341.000;  467.000
459.063;   -7.200; 1124.000;  192.000
459.183;   -1.300;  328.000;  313.000
459.304;   90.500;  315.000;  517.000
459.424; -103.900; -246.000;  -89.000
459.544;  624.500;  388.000;  764.000
459.664; 1358.100;  499.000;  506.000
459.784;  528.800; 1004.000; 1175.000
459.904;  167.500;  867.000;  744.000
460.024;  225.500;  867.000;  684.000
460.144;   50.400;  449.000;  554.000
460.264;   67.800;  515.000;  327.000
460.385; -123.500; -145.000; -119.000
460.505;  157.600;  905.000;  858.000
460.625; -149.400;  -17.000;  -68.000
460.745;    9.600;  396.000;  541.000
460.864;  -18.100;  153.000;  469.000
460.984;   95.300;  499.000;  573.000
461.104;  312.400; 1656.000; 1775.000
461.224;   92.800;  657.000;  650.000
461.344;   -3.600;  431.000;  360.000
461.464;   13.300;  258.000;  513.000
461.584;   43.000;  283.000;  466.000
461.704;  -29.400;   58.000;  108.000
461.824;  -74.600;  238.000;  259.000
461.943;  -26.800;  191.000;  130.000
462.063; -124.500;    2.000;  324.000
462.183;  119.700;  639.000;  717.000
462.303;  279.000; 1678.000; 1230.000
462.422;  131.400;  781.000;  840.000
462.542;  -24.400;  271.000;  391.000
462.662;  111.700;  353.000;  380.000
462.782;  454.000;  833.000;  572.000
462.901;  775.200;  545.000;  717.000
463.021;  511.000; 1702.000; 1638.000
463.141;   15.700;  337.000;  770.000
463.260;   30.600;  614.000;  474.000
463.380;   98.200;  902.000;  884.000
463.499;  -35.700;  342.000;  332.000
463.619;    0.600;  581.000;  559.000
463.738;  271.400; 1644.000;  903.000
463.858;   79.000;  657.000;  811.000
463.978;    3.900;  542.000;  396.000
464.097;  184.600;  921.000; 1114.000
464.217;  292.200; 1196.000; 1143.000
464.336;  294.900; 1068.000; 1130.000
464.455;  -37.100;  328.000;  659.000
464.575;  173.100;  597.000;  602.000
464.694;  379.500; 1204.000; 1179.000
464.814;  275.800; 1190.000; 1138.000
464.933;  173.400; 1095.000; 1027.000
465.052;  239.800; 1412.000; 1054.000
465.172;  232.100;  922.000;  799.000
465.291;  345.800; 1376.000; 1320.000
465.410;   91.600;  462.000;  735.000
465.530;  208.100; 1355.000; 1310.000
465.649;  205.700; 1209.000; 1273.000
465.768;  380.000; 1673.000; 1508.000
465.888;  187.000;  941.000; 1174.000
466.007;  269.100; 1335.000; 1440.000
466.126;   46.000;  721.000;  641.000
466.245;  151.700; 1176.000; 1187.000
466.364;  101.200;  950.000; 1060.000
466.484;  176.200; 1024.000; 1213.000
466.603;  118.300; 1101.000; 1222.000
466.722;  318.100; 1490.000; 1769.000
466.841;  196.600; 1151.000; 1401.000
466.960;  181.700; 1069.000;  972.000
467.079;  343.900; 1971.000; 1786.000
467.198;  209.800; 1238.000; 1181.000
467.317;  199.800; 1768.000; 1162.000
467.436;  206.400; 1709.000; 1261.000
467.555;  283.500; 1796.000; 1746.000
467.674;  196.800; 1227.000; 1329.000
467.793;  166.300; 1376.000; 1374.000
467.912;  268.300; 1658.000; 1539.000
468.031;  334.000; 2038.000; 1930.000
468.150;  365.500; 1842.000; 1837.000
468.269;  461.900; 2313.000; 2090.000
468.388;  476.700; 2168.000; 2339.000
468.507;  596.900; 2884.000; 2903.000
468.626;  635.700; 2555.000; 2541.000
468.744;  373.800; 2018.000; 2174.000
468.863;  452.800; 2312.000; 2523.000
468.982;  262.300; 1503.000; 1555.000
469.101;  543.300; 2788.000; 2692.000
469.220;  380.400; 2333.000; 2176.000
469.338;  564.600; 2935.000; 3051.000
469.457;  476.600; 2719.000; 2545.000
469.576;  792.700; 3953.000; 3784.000
469.695;  585.800; 2877.000; 3066.000
469.813;  904.300; 4148.000; 4192.000
469.932;  885.900; 4255.000; 4485.000
470.051;  935.000; 4075.000; 4161.000
470.169; 1654.900; 4470.000; 4338.000
470.288; 2552.700; 4700.000; 4809.000
470.406; 1586.900; 5059.000; 5194.000
470.525; 1242.900; 6101.000; 5787.000
470.644; 1421.800; 6847.000; 6794.000
470.762; 1744.700; 8397.000; 7873.000
470.881; 1844.000; 8651.000; 8464.000
470.999; 2222.200; 9685.000; 9151.000
471.118; 2317.000;11174.000;10711.000

