
Integration time [ms]: 100.000
Averaging Nr. [scans]: 40
Smoothing Nr. [pixels]: 0
Data measured with spectrometer [name]: 2101012U2
Wave   ;Sample   ;Dark     ;Reference
[nm]   ;[counts] ;[counts] ;[counts] 

197.733;   56.950;  516.000;  404.000
197.879;  -88.700; -610.000; -634.000
198.025;  -55.675; -475.000; -420.000
198.171;  -78.400; -602.000; -612.000
198.317;  -29.125; -401.000; -316.000
198.463;  -56.425; -655.000; -404.000
198.609;   17.750;  181.000; -137.000
198.755;  -79.275; -644.000; -410.000
198.901;  -69.975; -505.000; -424.000
199.047;  -62.050; -615.000; -488.000
199.193;  -32.075; -230.000; -468.000
199.339;  -66.275; -222.000; -369.000
199.485;   40.775;  330.000;  271.000
199.631;    8.175;  227.000;  310.000
199.777;  -37.825; -466.000; -398.000
199.923;  -61.325; -610.000; -424.000
200.069;  -13.500; -141.000;  -58.000
200.215;   49.475;  128.000;  453.000
200.361;   30.400;  243.000;  477.000
200.507;  -70.075; -600.000; -373.000
200.653;  -14.700; -371.000; -194.000
200.798;  -34.600; -215.000; -125.000
200.944;  -12.175; -146.000;  -41.000
201.090;   45.875;   61.000;  222.000
201.236;    4.650; -116.000; -158.000
201.382;  120.100;  874.000;  903.000
201.528;   10.025;  -58.000;  -48.000
201.674;  -51.550; -386.000; -293.000
201.819;  -67.900; -540.000; -439.000
201.965;  -72.300; -699.000; -447.000
202.111;  -30.600; -273.000; -226.000
202.257;  -52.250; -250.000; -238.000
202.402;    1.600;   13.000;  -36.000
202.548;  -34.050; -169.000; -116.000
202.694;   83.025;  410.000; -183.000
202.840;  -63.850; -603.000; -531.000
202.985;  -61.950; -681.000; -639.000
203.131;  -99.150; -832.000; -666.000
203.277;  -13.775; -199.000; -262.000
203.423;  -47.750; -434.000; -520.000
203.568;  -36.575; -462.000; -237.000
203.714;  -48.975; -535.000; -542.000
203.860;  -78.425; -682.000; -641.000
204.005;    7.100;  112.000;  167.000
204.151;   61.100;  561.000;  556.000
204.296;  -47.025; -354.000; -221.000
204.442;  -78.850; -600.000; -547.000
204.588;  -91.425; -592.000; -579.000
204.733;   23.050;  178.000;  168.000
204.879; -145.900;-1018.000; -822.000
205.025;    4.900;  -99.000;  126.000
205.170;    8.775;  -17.000;   94.000
205.316;   70.350;  438.000;  661.000
205.461;  -85.050; -698.000; -554.000
205.607;   79.650;  609.000;  665.000
205.752;  -94.050; -626.000; -551.000
205.898;  -43.475; -501.000; -391.000
206.043;  -52.900; -578.000; -506.000
206.189;  -37.050; -243.000; -285.000
206.334;   70.825;  554.000;  606.000
206.480;   56.325;  409.000;  239.000
206.625;  -93.100; -529.000; -552.000
206.771;  -38.225; -451.000; -373.000
206.916;  -27.600; -210.000; -537.000
207.062;  -57.475; -545.000; -591.000
207.207;  -58.775; -546.000; -443.000
207.353;   43.125;  185.000;  460.000
207.498;    8.550;  196.000;   85.000
207.643;  -40.750; -501.000; -370.000
207.789; -124.175;-1069.000; -910.000
207.934;  -83.775; -665.000; -713.000
208.080;  -28.100; -154.000;   66.000
208.225;   -9.175;  -22.000;  -57.000
208.370;  -79.825; -727.000; -619.000
208.516;  -75.900; -741.000; -487.000
208.661;  -34.950; -127.000;  -69.000
208.806;  -23.675; -165.000; -171.000
208.952; -124.300;-1044.000; -731.000
209.097;   52.925;  378.000;  349.000
209.242;  -56.000; -307.000; -382.000
209.387;   53.500;  392.000;  350.000
209.533;  -59.700; -321.000; -350.000
209.678;   80.475;  472.000;  543.000
209.823;  -56.000; -408.000; -310.000
209.969;  -94.750; -860.000; -757.000
210.114;  -99.275; -907.000; -719.000
210.259; -102.725; -939.000; -889.000
210.404;  -10.500; -171.000;  103.000
210.549;   16.375;  108.000;    3.000
210.695;  -25.575;   -3.000;  -95.000
210.840;   34.175;   94.000;   67.000
210.985;  -78.850; -484.000; -303.000
211.130;   81.075;  268.000;  406.000
211.275;   11.000;  207.000;  199.000
211.420;  -65.250; -300.000; -289.000
211.566;  -75.250; -536.000; -489.000
211.711;   23.200;  218.000;  157.000
211.856;  -58.125; -545.000; -519.000
212.001;    9.650;  151.000;   44.000
212.146;   16.100;  153.000;   49.000
212.291;  -23.575; -210.000; -186.000
212.436;  -28.375; -280.000;   -6.000
212.581;  -82.100; -685.000; -653.000
212.726;  -86.075; -487.000; -538.000
212.871;  -49.925; -552.000; -217.000
213.016; -146.400;-1172.000;-1029.000
213.161;   65.550;  406.000;  291.000
213.306;  -68.750; -435.000; -577.000
213.451;  -88.175; -778.000; -689.000
213.596;  -54.250; -455.000; -347.000
213.741;  -43.100; -448.000; -538.000
213.886;  -74.750; -498.000; -517.000
214.031;  -21.725; -294.000; -124.000
214.176;  -53.625; -408.000; -341.000
214.321;   -9.300; -296.000; -157.000
214.466;  -36.525; -163.000;  -43.000
214.611;    1.700;  -61.000;  -10.000
214.756; -115.825; -948.000; -858.000
214.901;  -26.100; -388.000; -226.000
215.046; -125.575; -797.000; -825.000
215.191;   17.050;  128.000;   35.000
215.336;    3.700; -157.000;  -19.000
215.480;  -64.750; -684.000; -505.000
215.625;  -14.875; -175.000;  -19.000
215.770;  -82.550; -757.000; -662.000
215.915;  -11.100;   -5.000;  -97.000
216.060;   -6.550; -113.000;  -21.000
216.205; -115.300; -731.000; -779.000
216.349;  -73.625; -470.000; -533.000
216.494; -136.425; -939.000; -867.000
216.639; -107.925; -823.000; -888.000
216.784;  -99.550; -577.000; -525.000
216.929;   49.150;  392.000;  281.000
217.073;  -11.325; -244.000;  -31.000
217.218;   12.975;   78.000;  -47.000
217.363;  -91.175; -656.000; -618.000
217.507;  -77.750; -623.000; -588.000
217.652; -127.100; -845.000; -874.000
217.797;  -90.075; -708.000; -659.000
217.942; -114.275; -856.000; -720.000
218.086;   68.075;  608.000;  539.000
218.231;  -29.675; -174.000;  -26.000
218.376;  -35.925; -337.000; -229.000
218.520;  -14.000;  -41.000;   96.000
218.665;  -27.725; -338.000; -204.000
218.810;  -48.575; -275.000; -233.000
218.954;   11.350;  201.000;   35.000
219.099; -107.700; -713.000; -963.000
219.243;  -61.975; -589.000; -554.000
219.388;  -31.050; -264.000; -136.000
219.532;    3.725; -116.000; -116.000
219.677;  -73.275; -564.000; -521.000
219.822;   12.075;   33.000;   89.000
219.966;   -2.075;   17.000;  -99.000
220.111;  -40.175; -328.000;  -40.000
220.255;  -91.550; -797.000; -750.000
220.400;  -26.425; -180.000; -146.000
220.544;  -63.275; -516.000; -450.000
220.689;  -46.775; -422.000; -451.000
220.833;  -22.425; -123.000;  -58.000
220.978;  -47.200; -393.000; -563.000
221.122;   13.925;  319.000;  307.000
221.267; -115.575; -906.000; -837.000
221.411;  -73.600; -478.000; -394.000
221.555;   -4.750; -104.000;  -23.000
221.700;  -58.975; -329.000; -222.000
221.844;   44.100;  255.000;  272.000
221.989;  -43.150; -328.000; -311.000
222.133;  -37.850; -289.000; -307.000
222.277;  -15.125;    5.000;   78.000
222.422;   18.850;  227.000;  113.000
222.566;  -47.000; -381.000; -214.000
222.711;  -54.825; -414.000; -479.000
222.855;  -80.250; -643.000; -586.000
222.999;  -77.825; -642.000; -717.000
223.144;  -32.700; -195.000; -194.000
223.288;   57.200;  423.000;  251.000
223.432;   24.475;  184.000;  230.000
223.576;   15.750;  152.000;  -21.000
223.721;   37.400;  364.000;  273.000
223.865;  -49.325; -472.000; -475.000
224.009;  209.700; 1673.000; 1631.000
224.153;  -81.525; -660.000; -671.000
224.298;  -70.300; -531.000; -489.000
224.442;   -5.300;  -74.000;  -33.000
224.586;   -2.450; -169.000; -106.000
224.730;  -93.525; -858.000; -670.000
224.875; -109.650; -739.000; -688.000
225.019;   10.150;  102.000;  188.000
225.163;   38.950;  208.000;  341.000
225.307;    5.775;   97.000;  -91.000
225.451;   39.275;  360.000;  481.000
225.595;   29.050;  264.000;  176.000
225.739;  -23.350; -170.000;  -94.000
225.884;    6.700;   86.000;    5.000
226.028; -100.000; -760.000; -626.000
226.172;  -41.325; -260.000; -273.000
226.316; -131.725; -941.000; -902.000
226.460;  -71.450; -645.000; -493.000
226.604;  -51.000; -406.000; -400.000
226.748;  -93.000; -836.000; -733.000
226.892;  -31.300; -227.000; -181.000
227.036;  -34.900; -537.000; -447.000
227.180;  -63.500; -551.000; -375.000
227.324;  -65.575; -561.000; -580.000
227.468; -114.825; -819.000; -717.000
227.612;   24.550;  242.000;  -28.000
227.756;  -95.625; -845.000; -698.000
227.900;   43.925;  342.000;  441.000
228.044;  -52.200; -509.000; -290.000
228.188;   51.650;  448.000;  568.000
228.332;  -82.075; -546.000; -472.000
228.476;  -31.575; -223.000; -149.000
228.620;  -36.725; -210.000; -150.000
228.764;   51.050;  431.000;  349.000
228.908;  -25.975; -155.000;   30.000
229.052;  -64.375; -615.000; -528.000
229.195;  -23.900; -172.000;   13.000
229.339;  -30.775; -235.000; -305.000
229.483;  -25.725;    5.000; -162.000
229.627;   -6.500; -156.000;  139.000
229.771;  -52.575; -218.000; -294.000
229.915;    9.025;  230.000;   79.000
230.059;  -73.700; -648.000; -663.000
230.202;  -31.250; -370.000; -317.000
230.346;  -18.150; -107.000;  107.000
230.490;  -61.625; -489.000; -521.000
230.634; -115.725; -736.000; -553.000
230.777;   69.850;  478.000;  509.000
230.921;  -66.900; -450.000; -359.000
231.065;  -37.750; -246.000; -286.000
231.209;   17.500;  261.000;  265.000
231.352;   22.125;   54.000;   40.000
231.496;   23.400;  568.000;  188.000
231.640;  -81.575; -693.000; -621.000
231.783;   51.825;  546.000;  525.000
231.927;  -46.075; -294.000; -365.000
232.071; -125.850; -962.000; -736.000
232.214; -111.500; -980.000; -764.000
232.358; -106.700; -683.000; -599.000
232.502;    7.450;  -19.000;    7.000
232.645; -133.550;-1090.000; -927.000
232.789;  -11.050; -257.000; -218.000
232.933;  -45.200; -407.000; -224.000
233.076; -129.150;-1038.000; -897.000
233.220; -104.850; -752.000; -777.000
233.363;  -71.025; -669.000; -477.000
233.507;   57.625;  371.000;  129.000
233.650;  -99.575; -764.000; -834.000
233.794;   39.875;  438.000;  461.000
233.938;  -70.000; -530.000; -362.000
234.081;  -26.525;  -93.000;   31.000
234.225;  -65.625; -631.000; -539.000
234.368; -106.150; -773.000; -723.000
234.512;  -46.875; -385.000; -299.000
234.655;  -80.850; -582.000; -555.000
234.798;  -67.175; -493.000; -466.000
234.942; -137.300; -884.000;-1002.000
235.085;  -84.225; -651.000; -443.000
235.229;  -74.325; -405.000; -410.000
235.372;  -44.375; -247.000; -191.000
235.516;  -58.325; -397.000; -321.000
235.659;   15.100;   92.000;  121.000
235.802;  -18.000;  -38.000;  -22.000
235.946;   14.850;  335.000;  215.000
236.089;   28.500;  126.000;  250.000
236.233;   48.050;  275.000;  298.000
236.376;  -47.250; -235.000; -378.000
236.519;  -43.425; -297.000; -319.000
236.663;  -30.775; -215.000; -117.000
236.806; -120.925;-1029.000; -999.000
236.949;   40.950;  543.000;  431.000
237.092;   55.875;  412.000;  391.000
237.236;  -80.200; -589.000; -502.000
237.379;   56.000;  352.000;  428.000
237.522; -124.500; -879.000; -768.000
237.666;  -14.850; -271.000;   18.000
237.809; -124.375; -851.000; -823.000
237.952;   26.975;  469.000;  271.000
238.095;  -71.725; -447.000; -442.000
238.238;   75.275;  688.000;  700.000
238.382;   -4.400;  166.000;  103.000
238.525;  -72.525; -598.000; -511.000
238.668; -147.600;-1060.000; -985.000
238.811;  -68.275; -638.000; -643.000
238.954;  -69.775; -483.000; -334.000
239.097;  100.825;  617.000;  664.000
239.241;   34.300;  394.000;  326.000
239.384;  -27.200; -254.000; -214.000
239.527;  -48.500; -424.000; -224.000
239.670; -142.825; -994.000;-1091.000
239.813; -106.575; -696.000; -658.000
239.956;   68.625;  579.000;  473.000
240.099; -107.325; -778.000; -725.000
240.242;   59.050;  428.000;  432.000
240.385;   29.575;  466.000;  450.000
240.528;  -65.700; -706.000; -473.000
240.671;   20.325;  189.000;  134.000
240.814;  -41.500; -441.000; -158.000
240.957; -107.675; -767.000; -578.000
241.100;  -99.975; -779.000; -755.000
241.243; -141.125;-1234.000; -893.000
241.386;  -68.700; -508.000; -379.000
241.529;  -96.125; -735.000; -547.000
241.672;  -67.600; -566.000; -495.000
241.815; -129.775; -832.000; -808.000
241.958;  -29.475; -125.000; -182.000
242.101;  -83.000; -545.000; -390.000
242.244;  -41.025; -270.000; -325.000
242.387;  -36.525; -304.000; -246.000
242.530;   54.225;  470.000;  134.000
242.673;  -48.625; -381.000; -309.000
242.815; -110.225; -925.000; -899.000
242.958;  -60.575; -482.000; -381.000
243.101;    9.775;  132.000;  187.000
243.244;  -80.350; -564.000; -521.000
243.387;  -50.375; -313.000; -316.000
243.530; -103.900; -657.000; -674.000
243.672;   -4.075;   43.000;  -92.000
243.815;  -61.975; -355.000; -283.000
243.958;    3.825;   98.000;  -26.000
244.101;   -7.225;   59.000;  -16.000
244.243;  -30.650;  -47.000;  101.000
244.386; -113.475; -761.000; -630.000
244.529;  -26.025; -132.000; -139.000
244.672; -158.600;-1154.000; -951.000
244.814;  -96.325; -621.000; -794.000
244.957;  -60.175; -380.000; -304.000
245.100;  -66.150; -489.000; -489.000
245.242;  -62.100; -387.000; -374.000
245.385;  -17.000;  -59.000;  -39.000
245.528; -121.650; -871.000; -705.000
245.670;   91.875;  612.000;  634.000
245.813;  -87.250; -599.000; -547.000
245.956;  -32.000; -324.000; -275.000
246.098;  -81.950; -508.000; -650.000
246.241;    8.550;  194.000;   48.000
246.383;  -25.375; -119.000;  -73.000
246.526;  -88.300; -454.000; -525.000
246.669; -114.675; -889.000; -780.000
246.811;    4.375;  172.000;   -1.000
246.954;  -59.400; -512.000; -426.000
247.096;  -21.025;  -84.000;   -6.000
247.239;  -79.850; -482.000; -445.000
247.381;  -71.675; -647.000; -488.000
247.524;   61.800;  645.000;  679.000
247.666;    6.300;   58.000;   11.000
247.809; -124.800; -887.000; -691.000
247.951;   -2.250;  -75.000;  138.000
248.094;   26.150;  432.000;  308.000
248.236; -167.450;-1262.000;-1238.000
248.378;   -1.225; -356.000;  -81.000
248.521;  -28.575; -334.000; -337.000
248.663;  -32.250; -236.000; -267.000
248.806;  -22.375; -300.000; -266.000
248.948; -103.300; -886.000; -763.000
249.090;  -51.900; -428.000; -398.000
249.233;  -64.275; -344.000; -381.000
249.375;  -61.900; -474.000; -451.000
249.518;  -15.025;  -83.000; -133.000
249.660;  -16.050; -103.000;    3.000
249.802; -167.325;-1303.000;-1189.000
249.945;  -69.350; -612.000; -540.000
250.087; -116.700; -834.000; -768.000
250.229;  -49.450; -362.000; -480.000
250.371;  -81.275; -494.000; -439.000
250.514;  -55.775; -310.000; -244.000
250.656;   -7.875;   69.000;  102.000
250.798; -118.900; -849.000; -800.000
250.940;  -68.125; -322.000; -322.000
251.083;  -17.500; -335.000; -111.000
251.225;   52.350;  338.000;  310.000
251.367;  -49.700; -274.000; -373.000
251.509;  -35.975; -265.000; -210.000
251.651;  -92.525; -731.000; -671.000
251.794;   43.100;  538.000;  632.000
251.936; -110.350; -821.000; -747.000
252.078;  -80.375; -540.000; -461.000
252.220;  -68.750; -645.000; -477.000
252.362;   75.300;  344.000;  462.000
252.504;  -74.650; -677.000; -584.000
252.646; -122.875; -875.000; -722.000
252.788;    1.225;   14.000; -128.000
252.931;  -41.975; -257.000; -253.000
253.073;  -39.825; -376.000; -317.000
253.215;  -19.900;  141.000;  122.000
253.357;  -19.175;   82.000; -153.000
253.499;  -57.725; -374.000; -234.000
253.641;  -91.775; -749.000; -594.000
253.783;  -95.625; -609.000; -527.000
253.925;  -98.375; -586.000; -591.000
254.067; -121.700; -744.000; -667.000
254.209;  -28.175; -391.000; -259.000
254.351; -126.800; -865.000; -883.000
254.493;  -61.075; -441.000; -417.000
254.635; -122.475; -936.000; -818.000
254.777;  -90.875; -752.000; -687.000
254.918;  -71.300; -512.000; -430.000
255.060;  -51.375; -551.000; -395.000
255.202;  -66.050; -473.000; -261.000
255.344;  -77.050; -658.000; -455.000
255.486;  -82.800; -471.000; -406.000
255.628;  -98.725; -780.000; -781.000
255.770;  -83.775; -676.000; -536.000
255.912;  -62.975; -559.000; -468.000
256.053;  -90.875; -730.000; -508.000
256.195;  144.300; 1008.000;  903.000
256.337; -105.725; -861.000; -595.000
256.479;   57.150;  532.000;  416.000
256.621;  -59.200; -394.000; -212.000
256.762; -100.575; -789.000; -742.000
256.904;   56.100;  485.000;  487.000
257.046;  -45.300; -381.000; -271.000
257.188;  -48.075; -351.000; -264.000
257.329;  -67.900; -525.000; -464.000
257.471; -117.575; -939.000; -807.000
257.613;  -68.775; -584.000; -498.000
257.755; -146.150;-1073.000; -982.000
257.896;   17.225;  286.000;  392.000
258.038;  -78.525; -403.000; -352.000
258.180;  -54.600; -354.000; -279.000
258.321;  -91.075; -581.000; -457.000
258.463;  -17.800;  -71.000;  133.000
258.605;  -98.075; -562.000; -570.000
258.746; -101.725; -886.000; -772.000
258.888; -146.125;-1026.000;-1020.000
259.029;   15.475;  121.000;   -8.000
259.171;  -88.600; -614.000; -550.000
259.313;   -3.275;  -49.000;  -47.000
259.454;  -74.450; -536.000; -414.000
259.596;  -52.775; -483.000; -390.000
259.737;  -79.300; -590.000; -474.000
259.879;   30.750;  217.000;  311.000
260.020;   78.350;  901.000;  636.000
260.162;  -24.950; -146.000; -253.000
260.303; -123.200; -768.000; -687.000
260.445;  -80.300; -609.000; -613.000
260.586;    3.475;  392.000;  157.000
260.728;  -38.550; -360.000; -248.000
260.869; -120.050; -350.000; -343.000
261.011;   74.750;  706.000;  537.000
261.152;  -82.600; -479.000; -319.000
261.293;  -85.800; -576.000; -595.000
261.435;  -35.600; -219.000; -184.000
261.576;  -54.325; -455.000; -325.000
261.718;   48.875;  420.000;  470.000
261.859; -115.150; -940.000; -949.000
262.000; -138.925; -951.000;-1016.000
262.142;  -27.600;  -52.000;  -60.000
262.283; -104.625; -808.000; -691.000
262.424;  -91.300; -666.000; -625.000
262.566; -158.925;-1161.000; -983.000
262.707; -112.775; -840.000; -830.000
262.848; -124.975; -769.000; -726.000
262.990;  -44.000; -362.000; -345.000
263.131;   73.525;  650.000;  681.000
263.272;   -1.350;  -61.000;  -41.000
263.413;  -99.600; -589.000; -561.000
263.555;  -73.850; -669.000; -143.000
263.696; -105.275; -550.000; -641.000
263.837;  -56.350; -449.000; -551.000
263.978;   -7.650;   -5.000;  -77.000
264.119;  -40.975; -283.000; -264.000
264.261; -114.350; -847.000; -630.000
264.402;  -11.500;   33.000;   40.000
264.543;  -89.350; -509.000; -524.000
264.684;  -16.525;   61.000;  -50.000
264.825;  -78.475; -816.000; -538.000
264.966;   -9.750;  -84.000;  -67.000
265.107; -130.150; -646.000; -670.000
265.248; -130.425; -825.000; -812.000
265.390;  -12.025;  152.000;   -9.000
265.531;  -30.625; -238.000; -107.000
265.672;  -90.225; -557.000; -630.000
265.813;   51.600;  563.000;  439.000
265.954; -148.175; -959.000; -940.000
266.095;  -22.675; -372.000; -322.000
266.236; -103.250; -686.000; -548.000
266.377;  -43.625; -243.000; -297.000
266.518;  -75.700; -619.000; -547.000
266.659;   14.025;  170.000;  268.000
266.800;    2.275;   83.000;   85.000
266.941;  -74.300; -487.000; -478.000
267.082;    3.100;  354.000;   99.000
267.223;  -56.800; -344.000; -273.000
267.364; -118.600; -892.000; -686.000
267.504;   -9.800;    3.000;  135.000
267.645;    5.375;  160.000;   67.000
267.786;  -27.525; -147.000;  -86.000
267.927;  -70.075; -473.000; -379.000
268.068;  -14.950; -186.000;  -61.000
268.209;  -51.475; -175.000; -413.000
268.350;  -64.250; -388.000; -532.000
268.490;  -86.325; -648.000; -521.000
268.631;   33.525;  127.000;  225.000
268.772; -107.600; -874.000; -647.000
268.913;  -53.675; -328.000; -476.000
269.054;  -22.400; -117.000;   12.000
269.194;  -47.900; -418.000; -402.000
269.335; -163.350;-1137.000;-1074.000
269.476;  -15.000;   33.000;  -35.000
269.617;  -54.675; -347.000; -392.000
269.757;  -87.375; -713.000; -646.000
269.898;  -98.750; -856.000; -613.000
270.039;  -59.900; -415.000; -405.000
270.180; -137.825; -952.000; -816.000
270.320;  -26.525; -190.000; -250.000
270.461;  -39.350; -277.000; -249.000
270.602;  -26.450; -186.000; -156.000
270.742; -120.325; -868.000; -943.000
270.883;  -59.325; -442.000; -390.000
271.023;  -67.025; -358.000; -357.000
271.164;  -76.875; -607.000; -528.000
271.305;  -96.150; -666.000; -654.000
271.445;  -85.125; -722.000; -683.000
271.586;  -67.175; -462.000; -283.000
271.726;  -49.050; -397.000; -322.000
271.867;  -59.450; -594.000; -534.000
272.008;  166.100; -473.000; -285.000
272.148;  105.225;  462.000;  468.000
272.289;   19.500; -113.000; -181.000
272.429;   -6.825;   19.000;  185.000
272.570;  -85.100; -633.000; -737.000
272.710; -113.225; -825.000; -775.000
272.851;  -27.125;  113.000; -130.000
272.991; -166.200;-1173.000;-1077.000
273.131;  -75.075; -419.000; -459.000
273.272;  -97.300; -683.000; -723.000
273.412;  -13.625; -143.000;  -31.000
273.553;  -64.950; -488.000; -507.000
273.693;  114.175;  913.000;  858.000
273.834; -100.550; -894.000; -692.000
273.974;  -82.525; -664.000; -615.000
274.114;  -87.325; -772.000; -560.000
274.255;   73.300;  414.000;  373.000
274.395;   -9.625; -180.000; -125.000
274.535;   48.500;  199.000;  350.000
274.676;    3.400;  225.000;   94.000
274.816;    2.550;  110.000;   34.000
274.956;  -73.675; -624.000; -690.000
275.097;  -71.075;-1014.000; -922.000
275.237; -112.375; -913.000; -803.000
275.377; -106.850; -778.000; -689.000
275.517; -151.825; -878.000; -937.000
275.658;  -68.075; -590.000; -555.000
275.798;  -83.575; -606.000; -413.000
275.938;   19.600;  215.000;  323.000
276.078; -108.900; -626.000; -395.000
276.218;    5.600;   99.000;  104.000
276.359; -137.625;-1026.000;-1024.000
276.499;  -73.225; -605.000; -446.000
276.639;  -43.825; -305.000; -151.000
276.779;  -55.925; -475.000; -357.000
276.919; -100.625; -783.000; -624.000
277.059;  -23.825; -261.000; -212.000
277.199;  -61.700; -357.000; -259.000
277.340;   33.650;  287.000;  175.000
277.480; -119.050; -840.000; -693.000
277.620;   17.275;  192.000;   16.000
277.760; -219.450;-1533.000;-1294.000
277.900;    3.925;  113.000;   33.000
278.040;   -1.275;  137.000;  159.000
278.180;   32.725;  270.000;  170.000
278.320;    6.675;   21.000;   56.000
278.460;  -62.125; -443.000; -469.000
278.600;  -89.650; -708.000; -598.000
278.740;   36.300;  448.000;  224.000
278.880;  -65.925; -768.000; -791.000
279.020;  -18.975; -194.000; -144.000
279.160;  -97.825; -672.000; -595.000
279.300; -127.825; -926.000; -873.000
279.440; -106.975; -709.000; -622.000
279.579;  -24.425;-1014.000; -929.000
279.719;  -47.725; -410.000; -394.000
279.859;   69.750;   -4.000;   41.000
279.999;   14.450; -208.000;  101.000
280.139;  -19.800; -435.000; -387.000
280.279;  -82.225; -708.000; -745.000
280.419;  -20.325; -229.000; -147.000
280.559;  -42.875; -259.000; -180.000
280.698;  -75.125; -790.000; -639.000
280.838; -100.400; -778.000; -800.000
280.978; -101.925; -846.000; -790.000
281.118; -101.400; -811.000; -704.000
281.257;    5.175;   24.000;    6.000
281.397; -129.750;-1094.000; -960.000
281.537;  -94.550; -599.000; -712.000
281.677;  -29.925; -150.000; -101.000
281.816;  -87.875; -700.000; -630.000
281.956;  -33.950; -193.000; -257.000
282.096;  -64.025; -539.000; -396.000
282.235; -112.325; -672.000; -638.000
282.375;  -17.700; -243.000;  -98.000
282.515; -105.050; -715.000; -707.000
282.654;    9.500;   29.000;  106.000
282.794;   13.600;  388.000;  244.000
282.934;  -51.425; -530.000; -491.000
283.073; -141.475;-1030.000; -857.000
283.213;  -63.525; -460.000; -467.000
283.353;  -42.475; -408.000; -349.000
283.492;  -22.525; -264.000; -296.000
283.632;  -50.575; -254.000; -168.000
283.771;  -88.750; -859.000; -730.000
283.911;  -64.275; -369.000; -260.000
284.050; -110.900; -794.000; -748.000
284.190; -163.975;-1229.000;-1096.000
284.329; -144.275;-1055.000; -964.000
284.469;  -76.675; -516.000; -591.000
284.608;  -58.450; -559.000; -598.000
284.748;  -89.700; -614.000; -570.000
284.887;  -14.825;  -87.000;  -20.000
285.027; -119.000; -844.000; -892.000
285.166;  -45.600; -192.000; -249.000
285.306;    9.500; -116.000;  -33.000
285.445;  -30.750; -229.000; -343.000
285.584;  -91.575; -630.000; -494.000
285.724;  -27.675; -282.000; -322.000
285.863; -120.600; -857.000; -507.000
286.002;  -42.825; -366.000; -276.000
286.142; -117.925; -715.000; -622.000
286.281;  -75.425; -525.000; -493.000
286.420;  -89.600; -554.000; -417.000
286.560;   93.300;  653.000;  623.000
286.699; -138.550; -958.000; -912.000
286.838;  -86.175; -590.000; -591.000
286.978; -100.850; -533.000; -537.000
287.117; -138.325;-1085.000; -950.000
287.256;  -48.025; -228.000; -211.000
287.395;  -44.300; -197.000; -378.000
287.535;  -62.675; -370.000; -298.000
287.674;  -77.275; -509.000; -484.000
287.813;   43.175;  661.000;  533.000
287.952; -128.100;-1010.000; -871.000
288.091; -148.600;-1049.000; -915.000
288.231;    9.550;   13.000;   15.000
288.370; -170.425;-1217.000;-1200.000
288.509;  -88.950; -728.000; -645.000
288.648;  -86.925; -770.000; -548.000
288.787;  -33.275; -243.000;  -87.000
288.926;  -60.450; -454.000; -475.000
289.065;   99.550;  859.000;  672.000
289.204;  -59.800; -377.000; -217.000
289.344;  -85.275; -791.000; -690.000
289.483;   -4.825;  416.000;  304.000
289.622;  -32.925; -291.000; -149.000
289.761;  -27.425; -309.000; -166.000
289.900; -100.475; -785.000; -626.000
290.039;  -29.150;  -12.000;  -95.000
290.178;  -50.525; -274.000; -180.000
290.317;  -82.650; -618.000; -479.000
290.456;  -72.450; -463.000; -451.000
290.595; -123.600; -961.000; -833.000
290.734; -140.000; -904.000; -891.000
290.873;  -72.725; -456.000; -420.000
291.011;  -97.575; -833.000; -843.000
291.150; -107.075; -770.000; -682.000
291.289;  -32.725; -343.000; -110.000
291.428; -104.575; -599.000; -480.000
291.567;  -63.200; -370.000; -442.000
291.706;  -15.575;  109.000;  154.000
291.845;  -94.150; -597.000; -505.000
291.984; -178.650;-1234.000;-1061.000
292.122;   74.075;  602.000;  582.000
292.261;   34.925;  620.000;  463.000
292.400;   -2.725; -144.000;  211.000
292.539; -131.475; -959.000; -813.000
292.678;  -26.875; -325.000; -300.000
292.816; -157.000;-1136.000; -965.000
292.955;  -90.900; -844.000; -684.000
293.094;  -35.025; -173.000; -337.000
293.233;  -64.000; -556.000; -400.000
293.371;  -48.125; -225.000;  -84.000
293.510; -111.900; -866.000; -780.000
293.649; -144.825; -959.000; -924.000
293.787;  -84.400;-1083.000;-1012.000
293.926;  -15.025; -113.000;  -32.000
294.065;  -53.525; -379.000; -290.000
294.203;   37.725;  298.000;  406.000
294.342;   19.450;   74.000;  156.000
294.481; 5169.750;51180.000; -836.000
294.619;  -42.075; -425.000; -582.000
294.758; -155.600;-1230.000;-1137.000
294.896;   49.775; -125.000;    5.000
295.035; -136.800;-1040.000;-1006.000
295.174; -117.550;-1082.000; -954.000
295.312;  -56.775; -323.000; -203.000
295.451;  -19.325; -307.000; -428.000
295.589;  -54.800; -389.000; -518.000
295.728;   14.550; -292.000; -165.000
295.866;  -13.675;  -36.000;  -51.000
296.005;  -59.775; -584.000; -341.000
296.143;  -89.200; -558.000; -596.000
296.282; -114.250; -957.000; -881.000
296.420;  -98.675; -657.000; -557.000
296.559;  -99.375; -892.000; -633.000
296.697;    2.325; -847.000; -665.000
296.835;   30.875;-1141.000;-1002.000
296.974;   25.525;  -23.000;   39.000
297.112;    8.400; -443.000; -504.000
297.251;  -84.825; -815.000; -755.000
297.389;   67.825; -576.000; -438.000
297.527;    8.625; -145.000;  -83.000
297.666;  -64.000; -486.000; -438.000
297.804;  -62.750; -404.000; -264.000
297.942;  -14.275; -136.000; -161.000
298.081;  -21.275; -183.000;   63.000
298.219;   72.050;  -17.000;  -19.000
298.357;   26.500; -144.000;  -71.000
298.495;    1.575; -810.000; -812.000
298.634;   59.950;  245.000;  219.000
298.772;   30.725; -220.000; -338.000
298.910;  -41.550; -309.000; -182.000
299.048;  -34.925; -130.000; -153.000
299.187;  -43.400; -350.000; -250.000
299.325;    7.575;   52.000;  122.000
299.463;   35.250; -389.000; -299.000
299.601;   92.675; -327.000; -271.000
299.739; -119.375; -908.000; -883.000
299.877;  -83.000; -791.000; -703.000
300.016;  -46.050;-1095.000; -935.000
300.154;  144.625;  -19.000; -161.000
300.292;   38.550; -428.000; -348.000
300.430;   16.150; -408.000; -291.000
300.568; -121.225; -940.000; -874.000
300.706;  -54.925; -366.000; -469.000
300.844;  -92.425;-1108.000; -979.000
300.982;  109.400;  246.000;  282.000
301.120; -105.425; -965.000; -866.000
301.258;  -73.100; -812.000; -705.000
301.396;   24.625;  104.000;  -41.000
301.534;   55.750; -218.000; -293.000
301.672;  -27.200; -664.000; -521.000
301.810;    5.775; -613.000; -545.000
301.948;   89.125;   53.000;  149.000
302.086;  587.475; -250.000;  -32.000
302.224;  836.525; -610.000; -585.000
302.362;   15.675; -558.000; -622.000
302.500;  -39.775; -923.000; -893.000
302.638;   83.925;  128.000;  245.000
302.776;  -21.850; -352.000; -408.000
302.913;   44.900;  447.000;  236.000
303.051;  -22.275;  -86.000;  -23.000
303.189;   44.350;   90.000;  118.000
303.327;  -37.050; -341.000; -256.000
303.465;  -83.500; -832.000; -588.000
303.603; -104.900; -805.000; -604.000
303.740;   83.225;  417.000;  241.000
303.878;    1.275; -800.000; -759.000
304.016;  -83.375; -915.000; -790.000
304.154; -128.400;-1123.000;-1152.000
304.291;  -47.725; -505.000; -554.000
304.429;    7.325;  102.000;   74.000
304.567; -128.725; -908.000; -893.000
304.705;  -33.700; -408.000; -515.000
304.842;   79.100; -616.000; -540.000
304.980;   33.025;  215.000;   35.000
305.118;   22.725; -367.000; -365.000
305.255;  -84.300; -945.000; -927.000
305.393;   40.750;  178.000;  239.000
305.531;  -99.950;-1173.000; -956.000
305.668;  -61.300; -663.000; -582.000
305.806;   92.125; -358.000; -439.000
305.943;   99.225; -629.000; -637.000
306.081;   44.000; -378.000; -267.000
306.219; -107.500; -863.000; -748.000
306.356;    3.200;  158.000;   27.000
306.494;   98.325;  981.000;  761.000
306.631;  -17.600;  -11.000;  -55.000
306.769;    1.075; -613.000; -485.000
306.906;  -27.825; -284.000; -258.000
307.044;  -55.975; -473.000; -488.000
307.181;  -60.675; -410.000; -332.000
307.319;   -2.350;  112.000;   87.000
307.456; -179.650;-1191.000;-1153.000
307.594;  -97.225; -980.000; -727.000
307.731;  -25.725; -371.000; -164.000
307.868;   -3.825;  -15.000;   20.000
308.006; -128.650; -961.000; -847.000
308.143;  -72.525; -618.000; -330.000
308.281;  156.200;  -37.000; -254.000
308.418;  -16.175; -748.000; -640.000
308.555;  -72.775; -400.000; -250.000
308.693;  -70.650; -577.000; -573.000
308.830; -116.925; -712.000; -657.000
308.967;  -29.525; -215.000;  -95.000
309.105;  -52.500; -507.000; -396.000
309.242;   40.775; -468.000; -367.000
309.379;  286.275; -577.000; -655.000
309.517;  -79.325; -936.000; -948.000
309.654; -104.300; -910.000; -734.000
309.791;  -79.475; -662.000; -580.000
309.928; -119.750; -977.000; -914.000
310.065;  174.075;  819.000;  697.000
310.203;   -8.050; -825.000; -850.000
310.340;  -23.925; -465.000; -321.000
310.477;  -77.425; -412.000; -516.000
310.614;  -60.250; -383.000; -473.000
310.751;  -85.325; -427.000; -518.000
310.889;  -19.975;    1.000;   11.000
311.026; -142.025;-1161.000; -939.000
311.163;  -60.000; -386.000; -380.000
311.300;  -83.775; -512.000; -479.000
311.437;  -71.625; -658.000; -619.000
311.574; -159.650;-1226.000; -985.000
311.711;  -75.150; -595.000; -433.000
311.848;  -53.850; -380.000; -388.000
311.985;    1.450;  270.000;   93.000
312.122; -118.100; -932.000; -762.000
312.259; -115.800; -941.000; -994.000
312.396;  -94.800; -508.000; -551.000
312.533;  -82.575; -812.000; -790.000
312.670; -145.175;-1070.000; -898.000
312.807;  -51.000; -352.000; -367.000
312.944;  -95.775; -513.000; -611.000
313.081;  -34.675; -150.000; -415.000
313.218; -127.975;-1111.000; -867.000
313.355;  -14.625; -531.000; -449.000
313.492;  -23.500; -455.000; -292.000
313.629;  120.150;  815.000;  735.000
313.766; -170.650;-1176.000;-1008.000
313.902;  -27.650; -186.000;   21.000
314.039;  -60.925; -372.000; -289.000
314.176;   23.675;  286.000;  192.000
314.313;  -86.200; -569.000; -473.000
314.450;  -76.600; -788.000; -684.000
314.587;  -60.550; -468.000; -480.000
314.723;   -2.675;  -78.000;  130.000
314.860;   31.475;  318.000;  332.000
314.997;   14.500;  223.000;  142.000
315.134;  -44.900; -385.000; -368.000
315.270;  -31.400; -480.000; -496.000
315.407; -132.000;-1094.000; -967.000
315.544;  -51.625; -657.000; -538.000
315.681;  -71.075; -681.000; -565.000
315.817;   14.750; -133.000; -176.000
315.954;   -1.550; -613.000; -392.000
316.091; -123.000;-1045.000;-1023.000
316.227;  -30.275;  -71.000; -179.000
316.364;   -6.850;   23.000;    6.000
316.500;  -45.775; -113.000; -300.000
316.637;  -50.525; -181.000; -302.000
316.774;  -91.875; -625.000; -358.000
316.910; -105.250; -598.000; -629.000
317.047;  -78.275; -487.000; -351.000
317.183;  -57.375; -435.000; -566.000
317.320;  -21.650; -367.000; -321.000
317.456;  -77.325; -733.000; -805.000
317.593; -103.375; -598.000; -641.000
317.729;    4.225;  168.000;  -67.000
317.866; -200.775;-1434.000;-1285.000
318.002;  -91.850; -708.000; -948.000
318.139;  -91.575; -883.000; -867.000
318.275; -104.675;-1003.000; -738.000
318.412;  -86.300; -517.000; -336.000
318.548;  -34.025; -751.000; -720.000
318.685; -106.425; -985.000; -888.000
318.821;  -96.450; -762.000; -735.000
318.957;  -24.325;   34.000;  -23.000
319.094;   37.275;  297.000;  154.000
319.230;  -66.775; -756.000; -742.000
319.367;   99.400; -471.000; -520.000
319.503;   29.375; -538.000; -436.000
319.639; -106.250; -877.000; -793.000
319.775;  -76.875; -750.000; -685.000
319.912;  -55.125; -424.000; -519.000
320.048;  -97.250;-1184.000;-1184.000
320.184;   77.250;   59.000;   70.000
320.321;  -64.050; -497.000; -467.000
320.457;   66.450;  475.000;  662.000
320.593;  -77.400; -375.000; -382.000
320.729; -103.775; -732.000; -734.000
320.866;  -80.350; -577.000; -635.000
321.002;  -79.875; -759.000; -809.000
321.138;  -31.400; -135.000; -211.000
321.274;   70.100; -148.000; -115.000
321.410;  -46.750; -585.000; -353.000
321.546;  -49.800;-1011.000; -911.000
321.683;   40.100;  400.000;  185.000
321.819;   -2.900;  -48.000; -117.000
321.955; -110.100; -743.000; -722.000
322.091;  -49.500; -585.000; -540.000
322.227;  -20.575; -382.000; -202.000
322.363;  -15.225; -320.000; -215.000
322.499;  -64.500; -343.000; -331.000
322.635;  155.475;  636.000;  443.000
322.771;    4.625; -139.000;   12.000
322.907;   71.600;  129.000;  327.000
323.043;  -33.100; -115.000; -206.000
323.179;  -53.275; -394.000; -363.000
323.315;  -10.475; -401.000; -371.000
323.451;   65.900; -328.000; -236.000
323.587;   53.350;  -60.000;  -77.000
323.723;    9.775; -682.000; -601.000
323.859;  -24.800; -258.000;  -76.000
323.995;  -36.575; -467.000; -409.000
324.131; -123.775; -967.000; -892.000
324.267;  -35.900; -254.000; -276.000
324.402; -133.725; -960.000; -983.000
324.538;  -14.850; -279.000; -104.000
324.674;    1.150;  164.000;   77.000
324.810;  110.500;  226.000;  308.000
324.946;  -27.450; -810.000; -658.000
325.082;  -74.350; -568.000; -475.000
325.217;  -18.675;  -62.000;   16.000
325.353; -112.475; -764.000; -659.000
325.489;  -98.000; -540.000; -506.000
325.625;  -69.200; -579.000; -525.000
325.760;   59.300;  517.000;  376.000
325.896;  -20.700; -515.000; -702.000
326.032;  -66.325; -403.000; -352.000
326.168;  -76.750; -462.000; -369.000
326.303;  -73.875; -352.000; -461.000
326.439;  -28.650; -336.000; -276.000
326.575;    1.975; -190.000;  -29.000
326.710;  -15.850; -156.000;  -30.000
326.846;  -18.900;  146.000;  103.000
326.982;  -75.525; -530.000; -548.000
327.117;  -77.600; -481.000; -442.000
327.253;  -75.000; -745.000; -742.000
327.388; -169.150;-1137.000;-1153.000
327.524;  -57.125; -811.000; -578.000
327.659;  -32.850;  -58.000;  -22.000
327.795;  -17.775;   69.000;   45.000
327.931;  -83.600; -723.000; -499.000
328.066;  -38.950; -417.000; -276.000
328.202;  -29.575;   12.000; -129.000
328.337;   93.625;  957.000;  713.000
328.473;   25.000;  -12.000;  -74.000
328.608;  -32.725; -256.000; -267.000
328.743;  -95.775; -799.000; -664.000
328.879;    8.750;  214.000;  114.000
329.014;  -51.475; -102.000; -122.000
329.150;  -96.600; -358.000; -483.000
329.285;  -81.675; -465.000; -466.000
329.421;  -58.325; -548.000; -246.000
329.556;  -35.625;  -36.000;   85.000
329.691;  -94.625; -633.000; -615.000
329.827;  -96.350; -626.000; -480.000
329.962;  -50.050;  131.000; -301.000
330.097;  -95.050; -673.000; -585.000
330.233;  -50.300; -410.000; -223.000
330.368; -136.225; -839.000; -628.000
330.503;  -21.475;    3.000;   98.000
330.638;   13.750;  -93.000; -125.000
330.774;  -68.175; -609.000; -530.000
330.909;  -58.075; -434.000; -244.000
331.044;  -94.750; -714.000; -708.000
331.179; -176.600;-1217.000;-1109.000
331.315;    2.275;   77.000;   20.000
331.450;    7.750;  157.000;  285.000
331.585;  -89.700; -805.000; -706.000
331.720;  -97.400; -510.000; -460.000
331.855;    3.250;  -35.000; -102.000
331.990;  261.000;   62.000;  138.000
332.126;  139.475; -110.000;   71.000
332.261;  -12.925; -379.000; -265.000
332.396;   -2.550; -135.000; -242.000
332.531; -106.225;-1074.000;-1031.000
332.666;   31.050; -519.000; -363.000
332.801; -110.275; -726.000; -807.000
332.936;  -29.025; -192.000; -122.000
333.071; -157.375; -870.000; -817.000
333.206;    9.000;  307.000;  379.000
333.341;    8.425;  344.000;  418.000
333.476;  -94.725; -627.000; -623.000
333.611;  -38.050; -251.000; -173.000
333.746;  -50.750; -381.000; -464.000
333.881; -131.100; -973.000; -935.000
334.016; -127.900; -936.000; -917.000
334.151; -125.775; -746.000; -702.000
334.286;   14.250;  152.000;  186.000
334.421;  -41.400; -125.000; -178.000
334.556;  -97.650; -611.000; -567.000
334.690;  -89.375; -631.000; -577.000
334.825;   36.350;  381.000;   83.000
334.960;  -71.550; -285.000; -413.000
335.095;    6.025;  135.000;  -91.000
335.230; -105.625; -722.000; -738.000
335.365; -138.400;-1084.000; -990.000
335.499; -144.500;-1108.000;-1037.000
335.634;    0.825;    9.000;  534.000
335.769; -115.025; -755.000; -720.000
335.904;  -65.700; -603.000; -561.000
336.038;  -84.625; -735.000; -657.000
336.173; -134.325;-1206.000;-1194.000
336.308;   -5.150; -116.000; -189.000
336.443;   -0.200; -544.000; -634.000
336.577;  -76.700; -936.000; -787.000
336.712;   53.575;   -4.000;  -12.000
336.847;  -59.825; -724.000; -607.000
336.981;   50.950; -272.000; -208.000
337.116;  247.175;  615.000;  501.000
337.250;  123.900; -434.000; -421.000
337.385;  254.650; -297.000; -208.000
337.520;  102.125; -632.000; -603.000
337.654;  -47.325; -215.000; -126.000
337.789; -126.000; -989.000; -933.000
337.923;  -47.600; -104.000; -205.000
338.058;  -89.600; -673.000; -738.000
338.192;  -48.875; -611.000; -488.000
338.327;  -10.250;  -18.000; -155.000
338.461;  -72.875; -299.000; -469.000
338.596;  -94.200; -780.000; -638.000
338.730; -106.475; -767.000; -803.000
338.865;  101.550;  -46.000; -140.000
338.999;  -61.500; -846.000; -702.000
339.134;  -27.900; -634.000; -536.000
339.268;   14.600; -741.000; -603.000
339.403;  367.725; -740.000; -775.000
339.537;  122.575; -894.000; -820.000
339.671; -112.025; -829.000; -813.000
339.806;  -54.225; -556.000; -512.000
339.940;   21.950; -261.000; -235.000
340.074; -105.000; -685.000; -510.000
340.209;  -45.175; -351.000; -230.000
340.343;  -97.500; -517.000; -573.000
340.477;  137.050;  998.000; 1036.000
340.612;  -52.675;-1033.000; -900.000
340.746;  154.500; -199.000; -243.000
340.880;  -86.325; -924.000; -785.000
341.014;  -17.625;  -45.000; -154.000
341.149; -113.925; -756.000; -718.000
341.283; -116.300; -839.000; -754.000
341.417; -105.775;-1124.000; -938.000
341.551;  111.825; -768.000; -708.000
341.685;  -52.375; -633.000; -611.000
341.820;  -60.925; -562.000; -493.000
341.954;  -63.450; -218.000; -349.000
342.088; -158.625;-1102.000;-1019.000
342.222;   36.750;  565.000;  618.000
342.356;  -62.975; -395.000; -335.000
342.490; -112.125; -880.000; -841.000
342.624;  -50.575; -339.000; -242.000
342.758;  -27.050; -364.000; -312.000
342.892;  -77.225; -710.000; -585.000
343.026;  -44.825;  -58.000; -116.000
343.160;  -64.550; -426.000; -376.000
343.294;  -89.600; -474.000; -337.000
343.428;  -36.100; -488.000; -448.000
343.562;  -32.150; -172.000;  -23.000
343.696;  -52.500; -385.000; -314.000
343.830;  -12.275; -362.000; -356.000
343.964;   -2.150; -231.000; -168.000
344.098;  810.975;  199.000;   70.000
344.232;  684.125; -266.000; -127.000
344.366;   77.750; -567.000; -453.000
344.500;   26.450; -665.000; -744.000
344.634;   22.575; -324.000; -164.000
344.768;  -28.750; -531.000; -341.000
344.902;   14.675;  278.000;  256.000
345.035;  -81.000; -556.000; -496.000
345.169; -139.575; -933.000; -656.000
345.303;  -46.575; -308.000; -482.000
345.437;  -76.650; -826.000; -717.000
345.571;  -70.825; -675.000; -594.000
345.704;  -70.475; -309.000; -532.000
345.838;  -13.150; -331.000; -284.000
345.972;  -40.500; -543.000; -495.000
346.106;  161.600; -179.000; -190.000
346.239;  416.125; -312.000; -243.000
346.373;   -8.825; -343.000; -302.000
346.507; -148.350; -950.000; -962.000
346.640;  108.150;  -30.000;   13.000
346.774;  -59.075; -650.000; -797.000
346.908;  -29.600; -138.000;  -11.000
347.041;  -94.375; -646.000; -593.000
347.175;   10.550;  259.000;   27.000
347.309;  -87.400; -698.000; -628.000
347.442; -104.325; -883.000; -732.000
347.576;  240.200;  670.000;  668.000
347.709;  163.000; -123.000;  -52.000
347.843;  -96.525; -933.000; -825.000
347.976;   28.125;  235.000;  294.000
348.110; -170.375;-1268.000;-1186.000
348.243;  -98.450; -679.000; -772.000
348.377;   -8.050;  -26.000;   60.000
348.510;   56.000;  403.000;  540.000
348.644;  -46.150;  -37.000; -159.000
348.777;  -16.950;  180.000;  191.000
348.911;  -67.275; -142.000; -112.000
349.044;  145.775;  471.000;  448.000
349.178;  109.675;-1069.000;-1006.000
349.311;  111.475;  141.000;  255.000
349.444;  -11.300; -927.000; -813.000
349.578;  -23.325; -347.000; -200.000
349.711; -111.500; -959.000; -862.000
349.845;  -20.400; -661.000; -591.000
349.978; -140.775;-1224.000;-1137.000
350.111;  -75.475; -546.000; -612.000
350.244;  -92.550; -596.000; -700.000
350.378;   -4.750; -392.000; -393.000
350.511;  -79.900; -393.000; -426.000
350.644; -110.050; -808.000; -806.000
350.778;   -4.950;  168.000;  104.000
350.911;   -7.725;  134.000;  140.000
351.044;  -96.125; -685.000; -615.000
351.177;  -43.075; -321.000; -281.000
351.310;  -33.475;    3.000; -131.000
351.444;  -83.825; -888.000; -788.000
351.577;   83.050;  140.000;   90.000
351.710;   94.950;  593.000;  417.000
351.843;  -44.025; -165.000;  -77.000
351.976;  -10.725;  149.000;  -79.000
352.109;  -99.575; -621.000; -612.000
352.242;  -43.350; -464.000; -419.000
352.376;  -67.325; -580.000; -636.000
352.509;  140.000; -437.000; -356.000
352.642;   -4.975; -654.000; -604.000
352.775;   49.100; -141.000;  -98.000
352.908; -124.000; -933.000; -904.000
353.041; -112.825; -814.000; -824.000
353.174;  -89.200; -551.000; -424.000
353.307;  -76.425; -753.000; -764.000
353.440;   68.575;  541.000;  453.000
353.573; -114.100; -957.000;-1008.000
353.706;  -53.050; -384.000; -558.000
353.839;  -40.025; -264.000; -220.000
353.971;  -88.725; -657.000; -512.000
354.104;  -97.275; -896.000; -835.000
354.237;  -47.400; -627.000; -662.000
354.370;  -86.050; -846.000; -879.000
354.503; -183.925;-1231.000;-1308.000
354.636;  -45.125; -529.000; -348.000
354.769; -131.450; -937.000; -860.000
354.902;  -24.675; -230.000; -139.000
355.034;  -26.575; -164.000; -220.000
355.167;  -14.675; -262.000; -162.000
355.300; -104.250;-1061.000; -880.000
355.433; 1026.025;  -71.000;  -14.000
355.565; 1594.825; -402.000; -384.000
355.698;  417.175; -356.000; -296.000
355.831;    5.050; -882.000; -801.000
355.964;   60.050; -285.000; -170.000
356.096; -100.700; -856.000; -843.000
356.229;  -11.475; -523.000; -530.000
356.362;  325.500; -373.000; -266.000
356.494;  630.900; -229.000; -162.000
356.627;  420.875;  269.000;  377.000
356.760;  655.000;  120.000;   53.000
356.892; 1029.275; -286.000; -601.000
357.025;  573.025;  403.000;  389.000
357.157;  525.225; -167.000; -179.000
357.290;  732.725; -856.000; -713.000
357.423;  204.350; -667.000; -556.000
357.555;   90.675; -217.000; -228.000
357.688;  108.350; -483.000; -364.000
357.820;  408.650; -870.000; -877.000
357.953; 3453.300; -563.000; -589.000
358.085;  727.075; -632.000; -612.000
358.218;  932.525;-1131.000; -932.000
358.350;  164.650;  -58.000;  312.000
358.483; -119.900;-1300.000;-1187.000
358.615;  -43.125;-1182.000;-1078.000
358.747;  -90.925;-1187.000;-1058.000
358.880;   -0.325; -810.000; -744.000
359.012;   -9.475; -376.000; -202.000
359.145;  -44.475; -480.000; -511.000
359.277;   44.950; -962.000; -913.000
359.409; 2814.600;  536.000;  231.000
359.542;  742.100; -738.000; -688.000
359.674;   61.650;   46.000;   13.000
359.806;  -73.775; -565.000; -438.000
359.939;  -47.850; -617.000; -516.000
360.071;  -18.525; -583.000; -579.000
360.203;  -15.400; -411.000; -364.000
360.335;   26.925;  164.000;  -16.000
360.468;  186.850; -249.000; -307.000
360.600; 2299.225; -547.000; -454.000
360.732; 3063.600; -546.000; -423.000
360.864;  425.925;-1216.000;-1044.000
360.996;  224.475; -516.000; -554.000
361.129;   18.775; -389.000; -598.000
361.261;   29.550;  110.000; -113.000
361.393;  -45.775; -252.000; -214.000
361.525;   22.450;   94.000;  244.000
361.657;  -59.525; -821.000; -703.000
361.789;   -4.775; -139.000; -155.000
361.921;  170.350; -642.000; -593.000
362.053;  232.650;  524.000;  541.000
362.185;   28.775;  288.000;   72.000
362.318;  -79.375; -709.000; -705.000
362.450;   90.625;  294.000;  444.000
362.582;   42.500; -913.000; -870.000
362.714;  -45.525; -353.000; -332.000
362.846;  -87.500; -606.000; -490.000
362.978; -150.225; -941.000; -811.000
363.109;   18.275; -161.000; -260.000
363.241;  357.825; -739.000; -749.000
363.373;  444.125; -649.000; -564.000
363.505;  719.325; -186.000;  -91.000
363.637;  178.425; -787.000; -601.000
363.769; -128.625;-1067.000;-1080.000
363.901;  -68.750; -596.000; -654.000
364.033; -136.925;-1103.000;-1062.000
364.165;  -14.875; -283.000; -283.000
364.296;   52.300; -316.000; -177.000
364.428;   76.175;-1344.000;-1220.000
364.560;  -74.825; -679.000; -661.000
364.692;  -68.000; -738.000; -835.000
364.824;  216.100; -588.000; -456.000
364.955;  435.725; -402.000; -564.000
365.087; 1027.300;-1097.000; -852.000
365.219;   47.525; -686.000; -816.000
365.351;  -76.575; -526.000; -572.000
365.482;   44.775;  300.000;  240.000
365.614;  -61.500; -402.000; -314.000
365.746;  -99.275; -729.000; -752.000
365.877;  -99.925; -706.000; -672.000
366.009;  285.500;  -35.000;  -62.000
366.141;  -81.875;-1249.000;-1134.000
366.272;  -92.200; -803.000; -719.000
366.404; -117.600;-1005.000; -874.000
366.535;  -19.800; -139.000;  -12.000
366.667; -109.350; -644.000; -649.000
366.799;   30.825;  353.000;  203.000
366.930; -138.050; -862.000; -996.000
367.062;  121.750; -639.000; -613.000
367.193;  161.100; -872.000; -842.000
367.325;  -59.650; -580.000; -684.000
367.456;   22.300; -246.000;   31.000
367.588;  172.100; -371.000; -318.000
367.719;    8.775;  -44.000;  -45.000
367.851;  -34.300; -222.000; -241.000
367.982;  -65.000; -875.000; -732.000
368.113;   91.475; -475.000; -358.000
368.245; -129.550; -960.000; -841.000
368.376;  -22.275; -254.000; -302.000
368.508;  -52.475; -188.000; -263.000
368.639; -143.600;-1166.000;-1034.000
368.770;  -32.100; -670.000; -589.000
368.902;  -61.550; -836.000; -926.000
369.033; -116.800; -906.000; -855.000
369.164;  -53.075; -720.000; -653.000
369.296; -111.050; -452.000; -601.000
369.427;  -15.725; -209.000; -144.000
369.558;  -72.300; -593.000; -377.000
369.689; -101.475; -721.000; -569.000
369.821; -141.800; -951.000; -845.000
369.952;  -14.400;   42.000; -108.000
370.083;  -42.025; -229.000; -108.000
370.214;  -92.350; -735.000; -650.000
370.345;  -16.500;   65.000;   81.000
370.477;  -91.150; -810.000; -790.000
370.608;  181.775; -328.000; -264.000
370.739;  -74.100;-1233.000;-1292.000
370.870;  -54.500;-1102.000; -923.000
371.001;   77.250; -378.000; -467.000
371.132;  -80.850; -754.000; -735.000
371.263;  -30.175;  -42.000; -148.000
371.394; -141.600; -841.000; -748.000
371.525;   21.750;  345.000;  225.000
371.657;  -86.475; -808.000; -670.000
371.788;   64.675;  103.000;  199.000
371.919;  123.900; -384.000; -304.000
372.050; 3259.625;  -91.000; -156.000
372.181; 1003.200; -188.000; -294.000
372.311;  304.925;   42.000; -127.000
372.442;    7.525; -457.000; -451.000
372.573;  -32.875; -444.000; -340.000
372.704; -123.525;-1008.000; -980.000
372.835;   62.200; -228.000; -289.000
372.966;  -61.850; -646.000; -554.000
373.097;  -68.550; -575.000; -711.000
373.228;  -62.600; -717.000; -542.000
373.359;   75.475; -824.000; -536.000
373.490;  789.275; -881.000; -727.000
373.620; 1034.000;-1001.000; -803.000
373.751; 1536.850; -332.000; -396.000
373.882;  725.575; -663.000; -733.000
374.013;   40.700; -449.000; -262.000
374.143;  -59.175; -581.000; -659.000
374.274; -112.500; -987.000; -908.000
374.405;  162.800; -388.000; -276.000
374.536;  352.900; -526.000; -387.000
374.666;  979.925; -759.000; -807.000
374.797;  174.000; -817.000; -868.000
374.928;  711.300; -710.000; -560.000
375.058;  768.825; -535.000; -500.000
375.189;   69.025;  -59.000;  -93.000
375.320; -113.050; -928.000;-1034.000
375.450;  -46.225; -625.000; -616.000
375.581;  -55.250; -526.000; -436.000
375.712;  -25.825; -574.000; -250.000
375.842;  228.275; -438.000; -415.000
375.973;  177.925; -554.000; -513.000
376.103;  -62.000; -665.000; -648.000
376.234;  -91.325; -531.000; -552.000
376.364;  -48.275; -944.000; -867.000
376.495;  292.800;  925.000;  529.000
376.625;  -32.575; -472.000; -485.000
376.756;   39.750; -709.000; -678.000
376.886;  -88.300;-1178.000;-1026.000
377.017;   53.375;-1048.000;-1061.000
377.147;  385.125; -786.000; -782.000
377.278;   56.800;  174.000;  228.000
377.408; -133.025; -801.000; -815.000
377.538; -108.475; -707.000; -693.000
377.669;  -93.350; -537.000; -613.000
377.799;  -97.900; -645.000; -635.000
377.929;  -71.250; -610.000; -428.000
378.060; -133.675; -781.000; -847.000
378.190;  -64.300; -726.000; -531.000
378.320;  -61.850; -401.000; -406.000
378.451;  -27.075; -131.000;  -22.000
378.581;  -13.625;  -67.000; -110.000
378.711;  130.350; 1035.000;  866.000
378.841;  -27.175; -533.000; -675.000
378.972;  -91.075; -871.000; -751.000
379.102;  -38.950; -652.000; -579.000
379.232;  -30.300; -126.000;  -73.000
379.362; -124.600;-1001.000; -885.000
379.492;  -10.800; -373.000; -424.000
379.623;   86.075;    0.000;  111.000
379.753; -116.650;-1107.000; -974.000
379.883;  167.250;   59.000;  156.000
380.013;  -18.025;-1081.000;-1017.000
380.143; -106.650;-1097.000;-1056.000
380.273; -109.500; -985.000; -861.000
380.403;   -7.250; -344.000; -257.000
380.533;  -46.050; -651.000; -664.000
380.663;   58.475;  173.000;  128.000
380.793; -110.275;-1027.000;-1074.000
380.923;  -32.875; -103.000;  -34.000
381.053;  -93.600; -613.000; -623.000
381.183;  -41.600; -106.000; -248.000
381.313;    2.550; -656.000; -470.000
381.443;   25.625; -692.000; -473.000
381.573;  131.200; -402.000; -409.000
381.703;  217.300;-1249.000;-1095.000
381.833; -139.500;-1454.000;-1336.000
381.963;   85.150; -134.000;  -87.000
382.093; 1257.175; -925.000; -909.000
382.223;  415.375; -713.000; -602.000
382.353;  -40.500; -801.000; -608.000
382.482;  301.925;-1091.000; -964.000
382.612;  675.600; -872.000; -644.000
382.742;  406.350; -695.000; -622.000
382.872;  209.900; -565.000; -551.000
383.002;   50.000;  347.000; -132.000
383.131;  -18.700; -226.000; -160.000
383.261;  -45.475; -706.000; -768.000
383.391;  278.600; -552.000; -377.000
383.521; 3478.625;  451.000;  263.000
383.650;  872.425; -947.000; -904.000
383.780;   -5.325; -783.000; -656.000
383.910;   93.975;  880.000;  802.000
384.039;   -0.575; -794.000; -656.000
384.169;  154.025;-1205.000;-1017.000
384.299;  -46.125; -650.000; -662.000
384.428; -106.300; -764.000; -680.000
384.558;  -50.000; -308.000; -275.000
384.687;  -63.525; -414.000; -334.000
384.817;    6.700;   75.000;   -2.000
384.947;   -5.275; -234.000; -141.000
385.076;  253.325;  982.000;  912.000
385.206;   76.900;  369.000;  480.000
385.335;  -44.200; -549.000; -417.000
385.465;  -99.925; -655.000; -663.000
385.594;   98.950;  -53.000;  -44.000
385.724;  329.125; -868.000; -838.000
385.853;   98.100; -296.000; -270.000
385.982; 1179.350; -743.000; -787.000
386.112; 1924.475;-1052.000; -871.000
386.241;  120.600; -307.000; -312.000
386.371;    9.675; -174.000;  -87.000
386.500;  -26.050; -825.000; -789.000
386.629;   14.525; -874.000; -817.000
386.759;   47.950;  -43.000;   68.000
386.888;  -20.250; -170.000; -250.000
387.017;  -88.800; -648.000; -620.000
387.147;  -98.050; -771.000; -798.000
387.276;  -20.075; -410.000; -397.000
387.405;   -2.525; -398.000; -342.000
387.535;  -60.200; -452.000; -361.000
387.664;  -69.950; -692.000; -620.000
387.793;   41.775; -198.000; -113.000
387.922;  428.800;  255.000;  200.000
388.052;   -3.900; -576.000; -423.000
388.181;  -16.725; -342.000; -472.000
388.310;  -37.900; -889.000; -710.000
388.439;  -70.150; -749.000; -742.000
388.568;  133.625;  365.000;  244.000
388.697;  915.475; -756.000; -653.000
388.826;  173.400; -768.000; -666.000
388.956;   26.700; -285.000; -307.000
389.085;  -50.200; -347.000; -287.000
389.214; -119.725; -842.000; -872.000
389.343;  -81.425; -645.000; -413.000
389.472;  413.975;  126.000;  149.000
389.601;  534.975;   91.000;    0.000
389.730;   11.250; -568.000; -687.000
389.859;   40.875;  226.000;   46.000
389.988;  151.150; -423.000; -408.000
390.117;  112.275; -168.000; -146.000
390.246;  -16.675; -331.000; -320.000
390.375;   71.100; -673.000; -626.000
390.504;  -79.075; -703.000; -621.000
390.633; -110.350; -672.000; -726.000
390.761;  -84.850; -732.000; -645.000
390.890;    0.650;   -4.000; -130.000
391.019;  -42.500; -421.000; -441.000
391.148; -126.100; -826.000; -855.000
391.277;  -82.150; -576.000; -493.000
391.406; -103.050; -821.000; -805.000
391.534;   19.775;  574.000; -301.000
391.663;  -75.800; -583.000; -645.000
391.792;  -93.325; -673.000; -701.000
391.921;   52.825;   -3.000;   15.000
392.050;  133.725; -287.000; -228.000
392.178;  -70.975;-1206.000;-1061.000
392.307;  104.725; -758.000; -712.000
392.436;   37.300; -427.000; -641.000
392.564;   18.325;  166.000;   -6.000
392.693;  -99.350; -860.000; -682.000
392.822;  150.925; -529.000; -534.000
392.950;   61.525; -880.000; -714.000
393.079;  289.000; -188.000; -328.000
393.208;    1.200; -488.000; -511.000
393.336;  -11.600; -170.000; -145.000
393.465;  -66.475; -317.000; -199.000
393.593;   -6.100;   62.000;   79.000
393.722; -158.675;-1121.000; -916.000
393.850;  -28.350; -188.000;  -61.000
393.979; -163.200; -926.000; -805.000
394.107;  -74.800; -517.000; -537.000
394.236;  -32.850; -570.000; -507.000
394.364;  197.825;  383.000;  206.000
394.493;  326.300; -911.000; -767.000
394.621;   -6.375; -955.000; -916.000
394.750;  742.700; -873.000; -923.000
394.878; 3099.875; -247.000; -149.000
395.007; 4379.900; -721.000; -807.000
395.135;  355.300; -790.000; -721.000
395.263; -101.675;-1038.000;-1040.000
395.392;    0.450;  -25.000; -107.000
395.520; -141.175; -818.000; -679.000
395.648; -110.325; -865.000; -915.000
395.777;  -33.450; -366.000; -405.000
395.905;  -46.450; -449.000; -564.000
396.033;   -7.425;  217.000;  172.000
396.162;  520.675; -399.000; -453.000
396.290;  497.875;  -17.000;   -2.000
396.418;   76.300; -555.000; -514.000
396.546;  -84.575; -571.000; -466.000
396.674; -107.725; -850.000; -878.000
396.803;   -0.550;  -72.000;  -23.000
396.931;   53.025; -179.000; -199.000
397.059;    8.400;-1026.000; -989.000
397.187; -109.175;-1026.000; -975.000
397.315; -134.950; -884.000; -649.000
397.443;  -98.775; -592.000; -443.000
397.572;  -96.875; -578.000; -424.000
397.700;  -34.125; -607.000; -614.000
397.828;  -11.625;  120.000;  -90.000
397.956;  -38.850; -508.000; -478.000
398.084;  -66.500; -767.000; -626.000
398.212;   23.150;  137.000;  124.000
398.340;   -4.975;  -56.000;  159.000
398.468;   13.250; -390.000; -169.000
398.596; -160.900; -993.000; -953.000
398.724; -131.125; -762.000; -767.000
398.852; -160.400;-1024.000; -976.000
398.980;  -81.775; -560.000; -560.000
399.108;  -68.475; -982.000; -735.000
399.236;   19.475;   13.000;    8.000
399.363;    8.200;  222.000;  196.000
399.491;  -72.150; -404.000; -398.000
399.619; -129.500; -829.000; -800.000
399.747; -103.200; -859.000; -771.000
399.875;   60.825;  220.000;  234.000
400.003;  -50.225; -359.000; -284.000
400.130;  -98.225; -421.000; -341.000
400.258;  -40.275;  -83.000;   38.000
400.386;  -69.800; -352.000; -168.000
400.514;  -51.375; -526.000; -587.000
400.641;  -97.800; -928.000; -802.000
400.769; -142.575; -979.000; -888.000
400.897; -128.075; -838.000; -793.000
401.025;  -33.025; -166.000; -152.000
401.152;  -14.525;  220.000;   38.000
401.280;  -85.500; -430.000; -429.000
401.408; -119.000; -712.000; -576.000
401.535; -116.250; -735.000; -758.000
401.663; -191.800;-1134.000;-1054.000
401.790;  -87.125; -514.000; -525.000
401.918;   36.000;  436.000;  405.000
402.046;  -17.975;  134.000;  122.000
402.173;  -53.425;  -18.000;    7.000
402.301;  -85.975; -519.000; -397.000
402.428;   25.425;  528.000;  383.000
402.556; -139.050;-1188.000; -913.000
402.683;  -48.875;  -20.000;   -1.000
402.811;  -32.075;  -37.000; -206.000
402.938;  -24.875;   20.000;   27.000
403.066;  150.400; -574.000; -558.000
403.193;  293.775;  299.000;  239.000
403.321;  207.500; -396.000; -574.000
403.448;  270.275;   83.000;   27.000
403.575;  132.325;  -90.000;  -46.000
403.703; -109.300; -732.000; -557.000
403.830;  -73.025; -531.000; -496.000
403.957; -147.700;-1117.000;-1023.000
404.085;    3.225;  -61.000; -172.000
404.212;   88.875;  -50.000;   63.000
404.339;  261.775; -566.000; -306.000
404.467; 6120.000; -612.000; -524.000
404.594; 4098.025; -287.000; -227.000
404.721;  905.700; -869.000; -764.000
404.848;   73.875; -113.000; -202.000
404.976; -116.750; -856.000; -783.000
405.103;  -22.375;  -14.000;  -82.000
405.230;   -3.300;  190.000;  226.000
405.357;   24.675;  117.000;   44.000
405.484;  277.700;  -49.000;    5.000
405.612;   56.550; -548.000; -563.000
405.739;  -73.325; -488.000; -243.000
405.866;   69.475;  669.000;  385.000
405.993;  -66.000; -398.000; -102.000
406.120; -141.725; -801.000; -887.000
406.247;  -68.575; -323.000; -342.000
406.374;  367.200;  540.000;  629.000
406.501;   63.700; -632.000; -702.000
406.628;  -83.250; -621.000; -589.000
406.755; -111.875; -803.000; -620.000
406.882;  -45.225; -228.000; -277.000
407.009; -119.600; -719.000; -628.000
407.136;   15.725; -480.000; -401.000
407.263;   92.375; -939.000; -829.000
407.390;  -76.700; -692.000; -614.000
407.517; -184.925;-1139.000;-1187.000
407.644;  -77.675; -332.000; -256.000
407.771;  -75.625; -249.000; -287.000
407.898;  -18.375;  168.000;  328.000
408.025;  -78.125; -421.000; -313.000
408.151;  -16.225;   82.000;  153.000
408.278;  -78.025; -267.000; -216.000
408.405; -114.450; -931.000; -899.000
408.532;  -78.350; -549.000; -542.000
408.659; -106.725; -677.000; -648.000
408.785; -196.350;-1298.000;-1170.000
408.912;  -74.500; -412.000; -296.000
409.039; -115.250; -610.000; -686.000
409.166; -111.750; -591.000; -555.000
409.292; -119.575; -571.000; -534.000
409.419; -119.275; -665.000; -649.000
409.546;  -81.025; -431.000; -192.000
409.672; -117.525; -713.000; -545.000
409.799;  -30.800;  -36.000;   34.000
409.926;  -34.250; -180.000; -179.000
410.052; -180.850;-1127.000;-1091.000
410.179;  -67.800; -368.000; -392.000
410.305;  -79.950; -375.000; -493.000
410.432;  -54.650; -220.000; -333.000
410.558; -103.925; -305.000; -380.000
410.685; -103.600; -688.000; -431.000
410.812; -105.200; -409.000; -588.000
410.938; -145.850; -964.000; -808.000
411.065; -111.200; -671.000; -645.000
411.191;  -44.775; -189.000; -174.000
411.317; -116.825; -823.000; -742.000
411.444;  -69.000; -317.000; -246.000
411.570;  -73.100; -339.000; -294.000
411.697; -135.350; -758.000; -752.000
411.823; -184.875; -989.000; -999.000
411.949;  -39.200;  -56.000;   17.000
412.076; -121.925; -539.000; -519.000
412.202; -124.825; -758.000; -757.000
412.329; -133.225; -798.000; -752.000
412.455; -111.450; -821.000; -657.000
412.581;  -25.075;  -15.000;  172.000
412.707;  -60.225; -540.000; -457.000
412.834;   -5.425;  156.000;  219.000
412.960;  -86.550; -785.000; -784.000
413.086; -108.950; -743.000; -701.000
413.212;  126.800;  604.000;  578.000
413.339;  -83.475; -685.000; -701.000
413.465;   -9.000; -364.000; -310.000
413.591;  -97.350; -757.000; -474.000
413.717;  -67.425; -358.000; -366.000
413.843; -143.900; -839.000; -861.000
413.969;  -79.075;  -47.000; -292.000
414.096; -114.375; -679.000; -679.000
414.222;   -7.700;  -33.000;   85.000
414.348;  -54.425; -652.000; -385.000
414.474;   61.925;   38.000;  -52.000
414.600;  -14.725; -126.000; -144.000
414.726;  -32.000;  -96.000;  -55.000
414.852;  -67.625; -365.000; -342.000
414.978;   33.800;  104.000;  -18.000
415.104;   36.325;   38.000;   80.000
415.230;   29.775; -329.000; -330.000
415.356;   23.150; -409.000; -514.000
415.482;  196.200;   13.000;  -35.000
415.608;  291.775; -247.000; -323.000
415.734;  997.325;   67.000;   38.000
415.860;20593.625; -875.000; -767.000
415.986;16146.325; -685.000; -607.000
416.111; 1424.075; -798.000; -652.000
416.237;  283.700; -424.000; -571.000
416.363; 1159.200; -765.000; -733.000
416.489; 4591.600; -324.000; -251.000
416.615;  539.850; -707.000; -742.000
416.741;    0.175; -677.000; -784.000
416.866; -103.250; -673.000; -736.000
416.992; -121.400; -801.000; -818.000
417.118;  -22.700;  -41.000;  -80.000
417.244;  -64.400; -798.000; -531.000
417.369;  -80.425; -801.000; -612.000
417.495;  -26.175; -325.000; -254.000
417.621;  -93.100;-1015.000; -803.000
417.746;   -2.225; -579.000; -572.000
417.872;   49.075; -254.000; -144.000
417.998;   62.000; -515.000; -530.000
418.123; 1041.150;-1073.000; -845.000
418.249; 5828.175; -512.000; -601.000
418.374;  895.000; -916.000; -824.000
418.500;  125.575; -383.000; -482.000
418.626;  114.475;   70.000;  -59.000
418.751;  110.650; -549.000; -448.000
418.877;  226.700; -637.000; -643.000
419.002; 1819.975; -688.000; -560.000
419.128;13526.825; -930.000; -721.000
419.253; 3604.375; -967.000; -837.000
419.379;  478.100; -391.000; -338.000
419.504;  420.875;  325.000;  415.000
419.629;  546.400; -393.000; -212.000
419.755; 3695.550; -317.000; -254.000
419.880;23112.875;  -98.000;   67.000
420.006;12316.600; -280.000; -221.000
420.131;32103.225; -662.000; -775.000
420.256; 4955.575; -315.000; -316.000
420.382;  631.250; -665.000; -687.000
420.507;   92.400; -649.000; -778.000
420.632;   77.300; -337.000; -339.000
420.758;  198.800; -251.000; -425.000
420.883;  -91.675; -876.000; -672.000
421.008; -112.750; -775.000; -619.000
421.133;  -86.800; -509.000; -467.000
421.259;  -49.525; -325.000; -259.000
421.384; -122.000; -834.000; -693.000
421.509;  -63.800;-1052.000; -862.000
421.634;  871.825; -936.000; -820.000
421.759;  412.500; -359.000; -327.000
421.885;  -57.575; -717.000; -656.000
422.010; -104.275; -673.000; -542.000
422.135; -133.975; -695.000; -727.000
422.260;   20.850;  340.000;  280.000
422.385;  -53.825;   12.000;  -98.000
422.510;    6.050;  151.000;  -26.000
422.635;   -6.000;  -87.000;  -43.000
422.760;   95.700; -766.000; -791.000
422.885;   44.925;  -57.000;  -80.000
423.010;  -35.650; -112.000; -169.000
423.135; -100.250; -481.000; -561.000
423.260;  -19.275; -150.000; -245.000
423.385;   47.525;  476.000;  222.000
423.510;   17.600;   71.000;  -22.000
423.635;   45.025;  133.000;   45.000
423.760;   51.350;  383.000;  328.000
423.885;   39.600;  336.000;  391.000
424.010;    1.600;  -68.000;  -13.000
424.135;  -37.700;    5.000;  -33.000
424.259;  -87.800; -654.000; -457.000
424.384;  -75.050; -279.000; -272.000
424.509;  -24.500; -260.000; -186.000
424.634;  -91.125; -761.000; -623.000
424.759;  -31.600; -688.000; -544.000
424.883;  -17.325; -506.000; -527.000
425.008;  163.125; -502.000; -410.000
425.133; 2097.300; -679.000; -653.000
425.258; 1046.825; -517.000; -381.000
425.382;  901.950; -867.000; -774.000
425.507; 2429.875; -487.000; -543.000
425.632;  437.275; -802.000; -663.000
425.756;  483.900; -256.000; -146.000
425.881; 6838.750; -831.000; -857.000
426.006;20087.300; -604.000; -355.000
426.130; 3310.775; -696.000; -508.000
426.255;  431.100; -611.000; -491.000
426.379;  187.150; -189.000; -577.000
426.504;  381.875;  660.000;  544.000
426.629; 4113.350; -519.000; -466.000
426.753; 3115.075;   64.000;  -46.000
426.878;  353.600; -252.000; -288.000
427.002;  156.150; -651.000; -668.000
427.127; 1584.350;  -35.000; -158.000
427.251;12143.100;  372.000;  401.000
427.375; 3735.975; -191.000; -173.000
427.500; 2135.100; -616.000; -610.000
427.624;  752.475; -234.000; -400.000
427.749;   96.250; -216.000; -225.000
427.873;  -47.750; -499.000; -412.000
427.997;  -48.400; -222.000; -230.000
428.122;   66.275;  795.000;  703.000
428.246;   49.975;  433.000;  434.000
428.371; -131.500; -869.000; -773.000
428.495; -114.100; -624.000; -646.000
428.619;  -35.225; -186.000; -117.000
428.743;   22.975;   65.000;  132.000
428.868;  -14.575; -732.000; -643.000
428.992; 1245.450; -219.000; -326.000
429.116;  519.250; -329.000; -357.000
429.240;  223.450;  419.000;  426.000
429.365;  -43.350; -454.000; -574.000
429.489;  -46.775; -638.000; -647.000
429.613;    3.075; -236.000; -177.000
429.737;   40.850; -563.000; -432.000
429.861;  272.375; -247.000; -133.000
429.985; 5708.600; -425.000; -305.000
430.109; 6812.675; -770.000; -908.000
430.234;  826.350;   76.000;  -50.000
430.358;   67.325; -250.000; -160.000
430.482;  -64.875; -672.000; -564.000
430.606;  -78.500; -655.000; -375.000
430.730;  -13.125; -437.000; -388.000
430.854;   84.275; -909.000; -835.000
430.978;  -64.625; -795.000; -764.000
431.102;  -87.600; -499.000; -422.000
431.226; -120.125; -874.000; -815.000
431.350;    2.450;  345.000;  422.000
431.474;  -81.625; -661.000; -373.000
431.597; -154.775;-1060.000; -848.000
431.721;  -70.875; -276.000; -267.000
431.845; -132.175; -704.000; -472.000
431.969;  -79.525; -304.000; -349.000
432.093; -100.600; -395.000; -317.000
432.217;  -10.425;   32.000;   82.000
432.341; -105.175; -523.000; -518.000
432.464;  -10.800;   96.000;   40.000
432.588;  143.300; -401.000; -329.000
432.712;   84.575;  -52.000;  -52.000
432.836;   38.075;  213.000;  263.000
432.959;  -26.625; -372.000; -311.000
433.083;   91.025;   11.000;    2.000
433.207;  387.000;  285.000;  930.000
433.330; 5235.600; -391.000; -200.000
433.454; 7017.550; -654.000; -638.000
433.578; 3931.150;  583.000;  278.000
433.701;  787.625; -623.000; -675.000
433.825;  128.725; -292.000; -299.000
433.949;  119.550;   28.000;  -72.000
434.072;   37.125; -410.000; -323.000
434.196;  -26.375; -309.000; -117.000
434.319; 3554.050;25482.000;25124.000
434.443;  686.925; -656.000; -603.000
434.566; 2875.300;  281.000;   62.000
434.690;  534.450; -637.000; -383.000
434.813;   43.775; -251.000; -173.000
434.937;  -81.300; -569.000; -696.000
435.060;  -80.250; -423.000; -332.000
435.184;  193.300; -492.000; -217.000
435.307;  118.625;  159.000;  102.000
435.431;  -12.650;  -40.000;   24.000
435.554;  -77.125; -399.000; -240.000
435.677;  -84.075; -350.000; -258.000
435.801;  -51.300;  -25.000;   49.000
435.924;  -23.025;    1.000;  -67.000
436.048; -137.125;-1019.000; -732.000
436.171;  -70.375; -240.000;  -66.000
436.294;  -38.000; -248.000; -229.000
436.417;   95.375; -963.000; -849.000
436.541;  -87.175; -814.000; -840.000
436.664;  -60.150; -242.000; -316.000
436.787;  -26.650;   13.000;  113.000
436.910; -113.850; -792.000; -422.000
437.034;  -11.600;  142.000;  143.000
437.157;   28.100;  -11.000;    0.000
437.280;  -70.775; -392.000; -292.000
437.403; -108.650; -982.000; -869.000
437.526;  405.050; -903.000; -865.000
437.649; 1711.950; -505.000; -332.000
437.772;  266.300; -692.000; -540.000
437.896;  106.725;  700.000;  544.000
438.019; -111.375; -758.000; -503.000
438.142; -109.350; -596.000; -506.000
438.265;  -48.675; -639.000; -670.000
438.388;  445.000; -520.000; -410.000
438.511;   58.300; -597.000; -394.000
438.634;  -59.650; -247.000; -125.000
438.757; -141.850; -693.000; -619.000
438.880;  -46.775;  -34.000;  -57.000
439.003;  -95.775; -417.000; -437.000
439.126;  -69.100; -287.000; -167.000
439.248;  -56.250;  -98.000; -139.000
439.371;  -44.900;    9.000;  -53.000
439.494;   29.425;  510.000;  439.000
439.617;  -45.675;   65.000;  -88.000
439.740; -193.400; -968.000; -816.000
439.863; -151.500; -755.000; -595.000
439.986; -128.625; -476.000; -431.000
440.108;  -51.300; -161.000; -112.000
440.231; -173.850; -950.000; -836.000
440.354;  -53.675;  -64.000; -150.000
440.477;  -15.900; -566.000; -542.000
440.599;  -12.425; -200.000; -225.000
440.722; -128.525; -709.000; -586.000
440.845;   54.400;  751.000;  928.000
440.968; -113.650; -415.000; -311.000
441.090;  -71.125; -199.000;  -33.000
441.213; -179.450;-1021.000; -825.000
441.336;  -42.725; -159.000;   -5.000
441.458;  -87.400; -549.000; -396.000
441.581; -100.975; -628.000; -629.000
441.703;  -73.425; -152.000;   13.000
441.826; -110.700; -557.000; -400.000
441.948;  -60.725;   56.000;   51.000
442.071;   13.875;  555.000;  424.000
442.193; -122.875; -531.000; -485.000
442.316;    2.875;  152.000;   97.000
442.438;   38.150; -233.000;  -10.000
442.561;   60.325;  272.000;  262.000
442.683;  366.950; -809.000; -522.000
442.806;  921.500;   -8.000;   74.000
442.928;    4.850; -859.000; -604.000
443.051;  -76.050; -577.000; -373.000
443.173; -105.600; -341.000; -339.000
443.295;  -93.725; -263.000; -371.000
443.418;  -81.100; -321.000;  -29.000
443.540;  -20.600; -106.000;   -4.000
443.662; -120.525; -563.000; -465.000
443.785;   -4.150;  335.000;  199.000
443.907;  -99.400; -362.000; -208.000
444.029; -126.125; -767.000; -494.000
444.152; -150.975; -644.000; -554.000
444.274;  -33.575;  -18.000;  -24.000
444.396; -120.200; -461.000; -221.000
444.518; -141.500; -691.000; -454.000
444.640; -113.050; -268.000; -111.000
444.763;  -19.300;  388.000;  249.000
444.885; -126.175; -432.000; -392.000
445.007;  -33.650;   35.000;   86.000
445.129; -127.325; -610.000; -515.000
445.251; -100.100; -372.000; -439.000
445.373; -147.425; -537.000; -386.000
445.495;    0.650;  242.000;  350.000
445.617;   48.375;  853.000;  753.000
445.739;  -77.350; -215.000;  -97.000
445.861;  -50.350; -245.000; -112.000
445.984;  -39.225; -267.000; -101.000
446.105;  130.150; -418.000; -251.000
446.227;  492.150; -176.000;  -19.000
446.349;  -18.250; -358.000; -249.000
446.471; -106.100; -615.000; -448.000
446.593;  -84.450; -316.000;   19.000
446.715;  -29.050;  -67.000;   41.000
446.837;   50.975;  697.000;  832.000
446.959; -109.625; -457.000; -478.000
447.081; -132.975; -628.000; -518.000
447.203;   39.525;  862.000;  834.000
447.325;  -89.225; -270.000;   42.000
447.446;  -10.500;  286.000;  530.000
447.568; -160.275; -921.000; -803.000
447.690;  -74.450; -236.000; -245.000
447.812; -152.025; -798.000; -519.000
447.933;  -38.525;  155.000;  127.000
448.055;  -68.575; -306.000; -261.000
448.177;  107.075;   31.000;   79.000
448.299;   40.525; -935.000; -727.000
448.420;   12.275;  -25.000;  159.000
448.542;  -45.150;   -3.000;   33.000
448.664;  -11.650;  109.000;  322.000
448.785;  -38.250;  265.000;   83.000
448.907;  -90.250; -614.000; -353.000
449.028;  -49.625; -771.000; -471.000
449.150;   43.800;  492.000;  589.000
449.272; -174.550;-1044.000; -913.000
449.393;   14.800;  612.000;  694.000
449.515; -141.675; -634.000; -581.000
449.636;  -74.925; -264.000; -155.000
449.758;   49.075;  763.000;  622.000
449.879;  -88.100; -498.000; -396.000
450.001;  -70.150; -149.000;  -49.000
450.122;  -39.875;  -95.000;  162.000
450.244;  -22.550;   37.000;  364.000
450.365;  -80.025; -495.000; -301.000
450.486;  -50.725;   80.000;  268.000
450.608;   17.650;  393.000;  326.000
450.729;   56.675;  578.000;  645.000
450.850;    9.800; -574.000; -466.000
450.972;  782.150; -552.000; -389.000
451.093; 5335.400;  190.000;  588.000
451.214; 2549.475; -516.000; -337.000
451.336;  436.275;  773.000;  579.000
451.457;   60.975;  264.000;  393.000
451.578;  -35.900; -118.000;  -74.000
451.699; -124.725; -546.000; -540.000
451.821;  -59.200; -284.000;  -50.000
451.942;  -10.000;  278.000;  285.000
452.063;   11.425;  228.000;  419.000
452.184;  571.925;  -54.000;  -49.000
452.305; 1229.475;  103.000;  170.000
452.427;  175.825; -549.000; -301.000
452.548;  -12.575;   23.000;   79.000
452.669;  -61.975; -257.000;  -89.000
452.790;  -52.950;    3.000;  -18.000
452.911;  -15.250;  195.000;  259.000
453.032;  -75.375; -289.000;  -60.000
453.153;  -41.750;  -29.000;   81.000
453.274;   61.150;  737.000;  868.000
453.395;  -67.750;  -51.000;  175.000
453.516;  111.675; 1317.000; 1388.000
453.637;  -84.850; -205.000; -150.000
453.758;  -57.925;   15.000;   69.000
453.879; -120.125; -462.000; -250.000
454.000;   67.875; 1086.000;  948.000
454.121; -133.025; -554.000; -326.000
454.242; -113.775; -599.000; -383.000
454.362;  -56.200;  -99.000;  114.000
454.483;  -52.925; -309.000; -229.000
454.604;   44.850;  512.000;  580.000
454.725; -133.850; -627.000; -555.000
454.846; -116.225; -474.000; -406.000
454.967;  -38.925;  230.000;  539.000
455.087;  -52.550;  179.000;  153.000
455.208;   14.550;  554.000;  856.000
455.329;  -67.900;  -22.000;   82.000
455.450;   41.775;  473.000;  633.000
455.570;  -80.525; -234.000; -211.000
455.691;  -51.900;  201.000;  407.000
455.812; -109.000; -270.000;  -92.000
455.932;  -73.100;  107.000;  -97.000
456.053;  -96.075;   36.000;   24.000
456.173; -109.025; -433.000; -355.000
456.294; -142.300; -476.000; -303.000
456.415;  -57.125;  -73.000;   70.000
456.535;  -43.250;  297.000;  273.000
456.656;  -41.275;  132.000;  240.000
456.776;  -65.850;    3.000;  298.000
456.897;  -14.900;  308.000;  513.000
457.017;  -76.625; -153.000;   -3.000
457.138;  -96.700; -402.000; -249.000
457.258;  -31.275;  263.000;  224.000
457.379;  -14.850;  509.000;  521.000
457.499;  -32.300;  443.000;  432.000
457.620; -110.575; -407.000; -231.000
457.740;  -90.800; -132.000;  -11.000
457.860;  -64.725;   87.000;   44.000
457.981;  -55.775;  132.000;  124.000
458.101;  -83.675;  -89.000;   40.000
458.221;  -22.225;  336.000;  402.000
458.342;  -60.500;   -4.000;  -37.000
458.462;   24.025;  617.000;  352.000
458.582;  -35.225; -302.000; -294.000
458.703;    0.575;  303.000;  154.000
458.823;  -14.325;   22.000;  163.000
458.943;   26.100;  341.000;  467.000
459.063;  -25.800; 1124.000;  192.000
459.183;  -32.775;  328.000;  313.000
459.304;    9.675;  315.000;  517.000
459.424;  -65.825; -246.000;  -89.000
459.544;  317.950;  388.000;  764.000
459.664;  895.400;  499.000;  506.000
459.784;  352.000; 1004.000; 1175.000
459.904;   55.375;  867.000;  744.000
460.024;   62.475;  867.000;  684.000
460.144;    1.100;  449.000;  554.000
460.264;  -18.600;  515.000;  327.000
460.385;  -90.850; -145.000; -119.000
460.505;   27.975;  905.000;  858.000
460.625; -102.750;  -17.000;  -68.000
460.745;  -19.275;  396.000;  541.000
460.864;  -59.500;  153.000;  469.000
460.984;   16.325;  499.000;  573.000
461.104;  109.300; 1656.000; 1775.000
461.224;   27.500;  657.000;  650.000
461.344;  -31.425;  431.000;  360.000
461.464;  -40.600;  258.000;  513.000
461.584;  -32.025;  283.000;  466.000
461.704;  -57.125;   58.000;  108.000
461.824;  -66.700;  238.000;  259.000
461.943;  -45.025;  191.000;  130.000
462.063;  -76.375;    2.000;  324.000
462.183;   11.925;  639.000;  717.000
462.303;   73.775; 1678.000; 1230.000
462.422;   29.425;  781.000;  840.000
462.542;  -39.775;  271.000;  391.000
462.662;   37.475;  353.000;  380.000
462.782;  229.000;  833.000;  572.000
462.901;  512.675;  545.000;  717.000
463.021;  301.675; 1702.000; 1638.000
463.141;  -19.325;  337.000;  770.000
463.260;  -22.650;  614.000;  474.000
463.380;   17.525;  902.000;  884.000
463.499;  -45.875;  342.000;  332.000
463.619;  -40.125;  581.000;  559.000
463.738;  101.625; 1644.000;  903.000
463.858;   12.700;  657.000;  811.000
463.978;  -34.850;  542.000;  396.000
464.097;   50.100;  921.000; 1114.000
464.217;  118.175; 1196.000; 1143.000
464.336;  104.600; 1068.000; 1130.000
464.455;  -33.150;  328.000;  659.000
464.575;   19.800;  597.000;  602.000
464.694;  132.750; 1204.000; 1179.000
464.814;  141.275; 1190.000; 1138.000
464.933;   65.900; 1095.000; 1027.000
465.052;   94.200; 1412.000; 1054.000
465.172;   66.050;  922.000;  799.000
465.291;  147.550; 1376.000; 1320.000
465.410;   11.725;  462.000;  735.000
465.530;   67.350; 1355.000; 1310.000
465.649;   65.300; 1209.000; 1273.000
465.768;  135.275; 1673.000; 1508.000
465.888;   44.925;  941.000; 1174.000
466.007;  101.450; 1335.000; 1440.000
466.126;   -8.150;  721.000;  641.000
466.245;   45.875; 1176.000; 1187.000
466.364;   10.850;  950.000; 1060.000
466.484;   48.925; 1024.000; 1213.000
466.603;   30.575; 1101.000; 1222.000
466.722;  115.475; 1490.000; 1769.000
466.841;   70.075; 1151.000; 1401.000
466.960;   37.500; 1069.000;  972.000
467.079;  103.050; 1971.000; 1786.000
467.198;   48.825; 1238.000; 1181.000
467.317;   80.900; 1768.000; 1162.000
467.436;   52.775; 1709.000; 1261.000
467.555;  125.250; 1796.000; 1746.000
467.674;   59.400; 1227.000; 1329.000
467.793;   44.125; 1376.000; 1374.000
467.912;   79.200; 1658.000; 1539.000
468.031;  107.675; 2038.000; 1930.000
468.150;  139.850; 1842.000; 1837.000
468.269;  187.150; 2313.000; 2090.000
468.388;  186.800; 2168.000; 2339.000
468.507;  239.075; 2884.000; 2903.000
468.626;  273.200; 2555.000; 2541.000
468.744;  121.075; 2018.000; 2174.000
468.863;  200.800; 2312.000; 2523.000
468.982;   94.600; 1503.000; 1555.000
469.101;  215.525; 2788.000; 2692.000
469.220;  141.150; 2333.000; 2176.000
469.338;  243.175; 2935.000; 3051.000
469.457;  198.750; 2719.000; 2545.000
469.576;  362.975; 3953.000; 3784.000
469.695;  238.325; 2877.000; 3066.000
469.813;  424.100; 4148.000; 4192.000
469.932;  412.400; 4255.000; 4485.000
470.051;  420.375; 4075.000; 4161.000
470.169;  884.625; 4470.000; 4338.000
470.288; 1560.550; 4700.000; 4809.000
470.406;  952.600; 5059.000; 5194.000
470.525;  618.500; 6101.000; 5787.000
470.644;  638.975; 6847.000; 6794.000
470.762;  825.825; 8397.000; 7873.000
470.881;  897.700; 8651.000; 8464.000
470.999; 1036.225; 9685.000; 9151.000
471.118; 1077.175;11174.000;10711.000

