
Integration time [ms]: 200.000
Averaging Nr. [scans]: 10
Smoothing Nr. [pixels]: 0
Data measured with spectrometer [name]: 2101012U2
Wave   ;Sample   ;Dark     ;Reference
[nm]   ;[counts] ;[counts] ;[counts] 

197.733;  126.700;  516.000;  404.000
197.879; -185.500; -610.000; -634.000
198.025;  -83.600; -475.000; -420.000
198.171; -122.200; -602.000; -612.000
198.317;  -83.100; -401.000; -316.000
198.463; -126.600; -655.000; -404.000
198.609;   63.300;  181.000; -137.000
198.755; -164.100; -644.000; -410.000
198.901; -135.700; -505.000; -424.000
199.047; -136.200; -615.000; -488.000
199.193;  -91.000; -230.000; -468.000
199.339;  -92.400; -222.000; -369.000
199.485;  104.100;  330.000;  271.000
199.631;   12.400;  227.000;  310.000
199.777; -110.700; -466.000; -398.000
199.923; -134.900; -610.000; -424.000
200.069;  -25.400; -141.000;  -58.000
200.215;  104.700;  128.000;  453.000
200.361;  113.600;  243.000;  477.000
200.507; -146.800; -600.000; -373.000
200.653;  -44.700; -371.000; -194.000
200.798;  -44.700; -215.000; -125.000
200.944;  -11.200; -146.000;  -41.000
201.090;   35.200;   61.000;  222.000
201.236;    5.200; -116.000; -158.000
201.382;  265.500;  874.000;  903.000
201.528;   -4.500;  -58.000;  -48.000
201.674; -126.200; -386.000; -293.000
201.819; -141.800; -540.000; -439.000
201.965; -193.600; -699.000; -447.000
202.111;  -47.800; -273.000; -226.000
202.257;  -90.500; -250.000; -238.000
202.402;    6.800;   13.000;  -36.000
202.548;  -66.900; -169.000; -116.000
202.694;  204.400;  410.000; -183.000
202.840; -147.600; -603.000; -531.000
202.985; -138.800; -681.000; -639.000
203.131; -221.800; -832.000; -666.000
203.277;  -43.300; -199.000; -262.000
203.423; -128.000; -434.000; -520.000
203.568;  -75.200; -462.000; -237.000
203.714; -108.200; -535.000; -542.000
203.860; -168.300; -682.000; -641.000
204.005;   36.700;  112.000;  167.000
204.151;  163.100;  561.000;  556.000
204.296;  -72.300; -354.000; -221.000
204.442; -162.800; -600.000; -547.000
204.588; -187.900; -592.000; -579.000
204.733;   13.600;  178.000;  168.000
204.879; -250.600;-1018.000; -822.000
205.025;   24.800;  -99.000;  126.000
205.170;   26.500;  -17.000;   94.000
205.316;  176.300;  438.000;  661.000
205.461; -177.700; -698.000; -554.000
205.607;  167.500;  609.000;  665.000
205.752; -151.300; -626.000; -551.000
205.898; -110.000; -501.000; -391.000
206.043; -105.800; -578.000; -506.000
206.189; -110.800; -243.000; -285.000
206.334;  174.600;  554.000;  606.000
206.480;  195.800;  409.000;  239.000
206.625; -185.000; -529.000; -552.000
206.771;  -80.300; -451.000; -373.000
206.916;  -84.100; -210.000; -537.000
207.062; -155.600; -545.000; -591.000
207.207; -103.100; -546.000; -443.000
207.353;  111.400;  185.000;  460.000
207.498;   47.800;  196.000;   85.000
207.643;  -68.200; -501.000; -370.000
207.789; -262.400;-1069.000; -910.000
207.934; -180.000; -665.000; -713.000
208.080;  -41.000; -154.000;   66.000
208.225;  -19.800;  -22.000;  -57.000
208.370; -163.100; -727.000; -619.000
208.516; -133.200; -741.000; -487.000
208.661;  -89.100; -127.000;  -69.000
208.806;  -28.500; -165.000; -171.000
208.952; -281.800;-1044.000; -731.000
209.097;  156.800;  378.000;  349.000
209.242;  -98.700; -307.000; -382.000
209.387;  125.600;  392.000;  350.000
209.533;  -90.600; -321.000; -350.000
209.678;  191.900;  472.000;  543.000
209.823; -125.000; -408.000; -310.000
209.969; -212.200; -860.000; -757.000
210.114; -252.900; -907.000; -719.000
210.259; -267.500; -939.000; -889.000
210.404;   17.800; -171.000;  103.000
210.549;   48.800;  108.000;    3.000
210.695;  -30.400;   -3.000;  -95.000
210.840;   64.600;   94.000;   67.000
210.985;  -93.000; -484.000; -303.000
211.130;  157.100;  268.000;  406.000
211.275;   40.600;  207.000;  199.000
211.420; -110.100; -300.000; -289.000
211.566; -146.900; -536.000; -489.000
211.711;   56.900;  218.000;  157.000
211.856; -149.100; -545.000; -519.000
212.001;   59.100;  151.000;   44.000
212.146;   25.400;  153.000;   49.000
212.291;  -63.800; -210.000; -186.000
212.436;  -42.800; -280.000;   -6.000
212.581; -155.700; -685.000; -653.000
212.726; -144.000; -487.000; -538.000
212.871;  -83.900; -552.000; -217.000
213.016; -338.600;-1172.000;-1029.000
213.161;  166.700;  406.000;  291.000
213.306; -157.800; -435.000; -577.000
213.451; -194.000; -778.000; -689.000
213.596; -109.600; -455.000; -347.000
213.741; -104.800; -448.000; -538.000
213.886; -135.700; -498.000; -517.000
214.031;  -13.500; -294.000; -124.000
214.176; -112.400; -408.000; -341.000
214.321;  -16.200; -296.000; -157.000
214.466;  -34.400; -163.000;  -43.000
214.611;   -3.800;  -61.000;  -10.000
214.756; -261.800; -948.000; -858.000
214.901;  -54.600; -388.000; -226.000
215.046; -257.400; -797.000; -825.000
215.191;   75.500;  128.000;   35.000
215.336;   15.300; -157.000;  -19.000
215.480; -136.400; -684.000; -505.000
215.625;   -0.300; -175.000;  -19.000
215.770; -169.200; -757.000; -662.000
215.915;   -1.800;   -5.000;  -97.000
216.060;  -17.600; -113.000;  -21.000
216.205; -233.300; -731.000; -779.000
216.349; -138.600; -470.000; -533.000
216.494; -290.900; -939.000; -867.000
216.639; -243.300; -823.000; -888.000
216.784; -180.500; -577.000; -525.000
216.929;  102.500;  392.000;  281.000
217.073;  -12.700; -244.000;  -31.000
217.218;   43.400;   78.000;  -47.000
217.363; -170.600; -656.000; -618.000
217.507; -144.800; -623.000; -588.000
217.652; -254.100; -845.000; -874.000
217.797; -156.700; -708.000; -659.000
217.942; -203.200; -856.000; -720.000
218.086;  156.100;  608.000;  539.000
218.231;  -36.200; -174.000;  -26.000
218.376;  -46.600; -337.000; -229.000
218.520;   10.100;  -41.000;   96.000
218.665;  -70.700; -338.000; -204.000
218.810;  -60.400; -275.000; -233.000
218.954;   41.000;  201.000;   35.000
219.099; -236.600; -713.000; -963.000
219.243; -130.200; -589.000; -554.000
219.388;  -64.500; -264.000; -136.000
219.532;  -45.300; -116.000; -116.000
219.677; -158.900; -564.000; -521.000
219.822;   -6.500;   33.000;   89.000
219.966;   11.500;   17.000;  -99.000
220.111;  -73.500; -328.000;  -40.000
220.255; -198.200; -797.000; -750.000
220.400;   -5.600; -180.000; -146.000
220.544; -138.100; -516.000; -450.000
220.689; -106.800; -422.000; -451.000
220.833;  -17.100; -123.000;  -58.000
220.978; -100.000; -393.000; -563.000
221.122;   51.400;  319.000;  307.000
221.267; -229.500; -906.000; -837.000
221.411; -122.700; -478.000; -394.000
221.555;   15.300; -104.000;  -23.000
221.700;  -82.200; -329.000; -222.000
221.844;  132.800;  255.000;  272.000
221.989; -100.600; -328.000; -311.000
222.133;  -82.200; -289.000; -307.000
222.277;  -16.500;    5.000;   78.000
222.422;   55.700;  227.000;  113.000
222.566;  -55.900; -381.000; -214.000
222.711;  -84.800; -414.000; -479.000
222.855; -132.900; -643.000; -586.000
222.999; -184.500; -642.000; -717.000
223.144;  -74.000; -195.000; -194.000
223.288;  118.100;  423.000;  251.000
223.432;   26.700;  184.000;  230.000
223.576;   36.600;  152.000;  -21.000
223.721;   84.800;  364.000;  273.000
223.865; -100.700; -472.000; -475.000
224.009;  566.500; 1673.000; 1631.000
224.153; -170.600; -660.000; -671.000
224.298; -148.600; -531.000; -489.000
224.442;  -31.900;  -74.000;  -33.000
224.586;   -3.700; -169.000; -106.000
224.730; -168.000; -858.000; -670.000
224.875; -211.300; -739.000; -688.000
225.019;   39.000;  102.000;  188.000
225.163;  169.300;  208.000;  341.000
225.307;   46.500;   97.000;  -91.000
225.451;   71.900;  360.000;  481.000
225.595;  104.800;  264.000;  176.000
225.739;  -27.700; -170.000;  -94.000
225.884;   47.400;   86.000;    5.000
226.028; -201.800; -760.000; -626.000
226.172;  -76.300; -260.000; -273.000
226.316; -244.600; -941.000; -902.000
226.460; -133.900; -645.000; -493.000
226.604; -109.800; -406.000; -400.000
226.748; -220.900; -836.000; -733.000
226.892;  -78.700; -227.000; -181.000
227.036;  -73.700; -537.000; -447.000
227.180; -123.300; -551.000; -375.000
227.324; -129.500; -561.000; -580.000
227.468; -224.300; -819.000; -717.000
227.612;   45.900;  242.000;  -28.000
227.756; -198.700; -845.000; -698.000
227.900;  115.100;  342.000;  441.000
228.044; -145.400; -509.000; -290.000
228.188;  153.200;  448.000;  568.000
228.332; -178.500; -546.000; -472.000
228.476;  -48.300; -223.000; -149.000
228.620;  -65.500; -210.000; -150.000
228.764;  150.600;  431.000;  349.000
228.908;  -29.000; -155.000;   30.000
229.052; -130.600; -615.000; -528.000
229.195;  -29.600; -172.000;   13.000
229.339;  -31.700; -235.000; -305.000
229.483;  -42.400;    5.000; -162.000
229.627;   -9.400; -156.000;  139.000
229.771; -110.900; -218.000; -294.000
229.915;   28.800;  230.000;   79.000
230.059; -197.600; -648.000; -663.000
230.202;  -65.600; -370.000; -317.000
230.346;  -40.800; -107.000;  107.000
230.490; -122.300; -489.000; -521.000
230.634; -213.000; -736.000; -553.000
230.777;  179.900;  478.000;  509.000
230.921;  -94.400; -450.000; -359.000
231.065;  -74.500; -246.000; -286.000
231.209;   84.100;  261.000;  265.000
231.352;   59.200;   54.000;   40.000
231.496;   66.200;  568.000;  188.000
231.640; -169.800; -693.000; -621.000
231.783;  115.500;  546.000;  525.000
231.927;  -64.000; -294.000; -365.000
232.071; -232.900; -962.000; -736.000
232.214; -227.000; -980.000; -764.000
232.358; -202.400; -683.000; -599.000
232.502;   12.400;  -19.000;    7.000
232.645; -295.400;-1090.000; -927.000
232.789;  -52.700; -257.000; -218.000
232.933;  -86.600; -407.000; -224.000
233.076; -269.500;-1038.000; -897.000
233.220; -203.200; -752.000; -777.000
233.363; -167.600; -669.000; -477.000
233.507;  125.400;  371.000;  129.000
233.650; -200.600; -764.000; -834.000
233.794;  111.000;  438.000;  461.000
233.938;  -84.400; -530.000; -362.000
234.081;  -38.100;  -93.000;   31.000
234.225; -145.200; -631.000; -539.000
234.368; -236.200; -773.000; -723.000
234.512;  -89.100; -385.000; -299.000
234.655; -169.100; -582.000; -555.000
234.798; -132.800; -493.000; -466.000
234.942; -273.100; -884.000;-1002.000
235.085; -172.500; -651.000; -443.000
235.229; -148.500; -405.000; -410.000
235.372;  -78.400; -247.000; -191.000
235.516; -124.800; -397.000; -321.000
235.659;   54.000;   92.000;  121.000
235.802;  -13.800;  -38.000;  -22.000
235.946;   79.000;  335.000;  215.000
236.089;   64.000;  126.000;  250.000
236.233;  122.400;  275.000;  298.000
236.376; -112.100; -235.000; -378.000
236.519;  -70.300; -297.000; -319.000
236.663;  -32.100; -215.000; -117.000
236.806; -284.300;-1029.000; -999.000
236.949;  159.200;  543.000;  431.000
237.092;  137.500;  412.000;  391.000
237.236; -167.500; -589.000; -502.000
237.379;  183.500;  352.000;  428.000
237.522; -230.200; -879.000; -768.000
237.666;   -8.900; -271.000;   18.000
237.809; -264.300; -851.000; -823.000
237.952;   90.700;  469.000;  271.000
238.095; -130.800; -447.000; -442.000
238.238;  188.700;  688.000;  700.000
238.382;    6.300;  166.000;  103.000
238.525; -139.600; -598.000; -511.000
238.668; -291.500;-1060.000; -985.000
238.811; -148.600; -638.000; -643.000
238.954; -104.600; -483.000; -334.000
239.097;  235.100;  617.000;  664.000
239.241;   85.800;  394.000;  326.000
239.384;  -76.900; -254.000; -214.000
239.527; -103.300; -424.000; -224.000
239.670; -309.000; -994.000;-1091.000
239.813; -216.300; -696.000; -658.000
239.956;  197.900;  579.000;  473.000
240.099; -236.300; -778.000; -725.000
240.242;  161.100;  428.000;  432.000
240.385;   75.600;  466.000;  450.000
240.528; -139.200; -706.000; -473.000
240.671;   43.500;  189.000;  134.000
240.814;  -44.500; -441.000; -158.000
240.957; -185.000; -767.000; -578.000
241.100; -178.400; -779.000; -755.000
241.243; -292.500;-1234.000; -893.000
241.386; -117.300; -508.000; -379.000
241.529; -197.000; -735.000; -547.000
241.672; -165.100; -566.000; -495.000
241.815; -216.000; -832.000; -808.000
241.958;  -28.000; -125.000; -182.000
242.101; -163.800; -545.000; -390.000
242.244;  -60.300; -270.000; -325.000
242.387;  -87.000; -304.000; -246.000
242.530;  130.600;  470.000;  134.000
242.673;  -73.000; -381.000; -309.000
242.815; -208.700; -925.000; -899.000
242.958; -142.400; -482.000; -381.000
243.101;   46.700;  132.000;  187.000
243.244; -164.900; -564.000; -521.000
243.387;  -77.900; -313.000; -316.000
243.530; -194.900; -657.000; -674.000
243.672;    1.600;   43.000;  -92.000
243.815;  -74.400; -355.000; -283.000
243.958;   17.600;   98.000;  -26.000
244.101;   31.000;   59.000;  -16.000
244.243;  -20.400;  -47.000;  101.000
244.386; -230.600; -761.000; -630.000
244.529;  -38.400; -132.000; -139.000
244.672; -307.000;-1154.000; -951.000
244.814; -213.100; -621.000; -794.000
244.957;  -98.300; -380.000; -304.000
245.100; -145.500; -489.000; -489.000
245.242; -110.300; -387.000; -374.000
245.385;   21.400;  -59.000;  -39.000
245.528; -232.400; -871.000; -705.000
245.670;  246.300;  612.000;  634.000
245.813; -188.300; -599.000; -547.000
245.956;  -41.000; -324.000; -275.000
246.098; -154.800; -508.000; -650.000
246.241;   68.800;  194.000;   48.000
246.383;   -9.600; -119.000;  -73.000
246.526; -140.400; -454.000; -525.000
246.669; -248.800; -889.000; -780.000
246.811;   24.600;  172.000;   -1.000
246.954; -125.300; -512.000; -426.000
247.096;  -34.200;  -84.000;   -6.000
247.239; -124.200; -482.000; -445.000
247.381; -157.500; -647.000; -488.000
247.524;  180.800;  645.000;  679.000
247.666;    1.300;   58.000;   11.000
247.809; -252.800; -887.000; -691.000
247.951;   -3.000;  -75.000;  138.000
248.094;   66.300;  432.000;  308.000
248.236; -344.200;-1262.000;-1238.000
248.378;    8.800; -356.000;  -81.000
248.521;  -13.800; -334.000; -337.000
248.663;  -75.100; -236.000; -267.000
248.806;  -18.300; -300.000; -266.000
248.948; -196.300; -886.000; -763.000
249.090;  -93.900; -428.000; -398.000
249.233; -105.300; -344.000; -381.000
249.375;  -97.400; -474.000; -451.000
249.518;  -29.000;  -83.000; -133.000
249.660;   44.900; -103.000;    3.000
249.802; -361.600;-1303.000;-1189.000
249.945; -132.700; -612.000; -540.000
250.087; -235.100; -834.000; -768.000
250.229;  -86.900; -362.000; -480.000
250.371; -113.400; -494.000; -439.000
250.514;  -88.700; -310.000; -244.000
250.656;  -16.000;   69.000;  102.000
250.798; -230.400; -849.000; -800.000
250.940;  -91.700; -322.000; -322.000
251.083;  -29.700; -335.000; -111.000
251.225;  163.400;  338.000;  310.000
251.367;  -67.100; -274.000; -373.000
251.509;  -34.400; -265.000; -210.000
251.651; -190.600; -731.000; -671.000
251.794;  116.700;  538.000;  632.000
251.936; -238.000; -821.000; -747.000
252.078; -158.900; -540.000; -461.000
252.220; -115.900; -645.000; -477.000
252.362;  165.400;  344.000;  462.000
252.504; -152.200; -677.000; -584.000
252.646; -241.500; -875.000; -722.000
252.788;   -8.300;   14.000; -128.000
252.931;  -50.400; -257.000; -253.000
253.073;  -84.600; -376.000; -317.000
253.215;   16.200;  141.000;  122.000
253.357;  -15.000;   82.000; -153.000
253.499;  -72.900; -374.000; -234.000
253.641; -158.100; -749.000; -594.000
253.783; -193.900; -609.000; -527.000
253.925; -160.100; -586.000; -591.000
254.067; -213.600; -744.000; -667.000
254.209;  -56.400; -391.000; -259.000
254.351; -320.400; -865.000; -883.000
254.493; -118.700; -441.000; -417.000
254.635; -221.900; -936.000; -818.000
254.777; -172.700; -752.000; -687.000
254.918; -123.600; -512.000; -430.000
255.060; -121.100; -551.000; -395.000
255.202;  -71.900; -473.000; -261.000
255.344; -146.700; -658.000; -455.000
255.486; -118.200; -471.000; -406.000
255.628; -200.800; -780.000; -781.000
255.770; -200.600; -676.000; -536.000
255.912; -145.000; -559.000; -468.000
256.053; -160.800; -730.000; -508.000
256.195;  335.000; 1008.000;  903.000
256.337; -195.700; -861.000; -595.000
256.479;  150.700;  532.000;  416.000
256.621;  -77.700; -394.000; -212.000
256.762; -187.400; -789.000; -742.000
256.904;  130.700;  485.000;  487.000
257.046;  -53.700; -381.000; -271.000
257.188;  -66.900; -351.000; -264.000
257.329; -123.800; -525.000; -464.000
257.471; -233.900; -939.000; -807.000
257.613; -106.400; -584.000; -498.000
257.755; -295.700;-1073.000; -982.000
257.896;  118.600;  286.000;  392.000
258.038; -123.700; -403.000; -352.000
258.180;  -62.700; -354.000; -279.000
258.321; -164.600; -581.000; -457.000
258.463;   46.000;  -71.000;  133.000
258.605; -152.500; -562.000; -570.000
258.746; -207.600; -886.000; -772.000
258.888; -313.500;-1026.000;-1020.000
259.029;   46.900;  121.000;   -8.000
259.171; -153.000; -614.000; -550.000
259.313;   33.300;  -49.000;  -47.000
259.454; -143.100; -536.000; -414.000
259.596;  -98.600; -483.000; -390.000
259.737; -166.300; -590.000; -474.000
259.879;   92.200;  217.000;  311.000
260.020;  200.200;  901.000;  636.000
260.162;  -41.900; -146.000; -253.000
260.303; -236.100; -768.000; -687.000
260.445; -147.400; -609.000; -613.000
260.586;   86.000;  392.000;  157.000
260.728;  -62.600; -360.000; -248.000
260.869; -107.300; -350.000; -343.000
261.011;  219.600;  706.000;  537.000
261.152; -109.300; -479.000; -319.000
261.293; -162.700; -576.000; -595.000
261.435;  -39.400; -219.000; -184.000
261.576;  -80.000; -455.000; -325.000
261.718;  142.600;  420.000;  470.000
261.859; -237.300; -940.000; -949.000
262.000; -263.300; -951.000;-1016.000
262.142;  -15.700;  -52.000;  -60.000
262.283; -232.000; -808.000; -691.000
262.424; -166.500; -666.000; -625.000
262.566; -312.600;-1161.000; -983.000
262.707; -223.900; -840.000; -830.000
262.848; -265.800; -769.000; -726.000
262.990;  -76.200; -362.000; -345.000
263.131;  158.400;  650.000;  681.000
263.272;   17.100;  -61.000;  -41.000
263.413; -183.700; -589.000; -561.000
263.555; -147.500; -669.000; -143.000
263.696; -144.100; -550.000; -641.000
263.837; -108.400; -449.000; -551.000
263.978;   17.500;   -5.000;  -77.000
264.119;  -68.700; -283.000; -264.000
264.261; -220.700; -847.000; -630.000
264.402;  -15.900;   33.000;   40.000
264.543; -123.800; -509.000; -524.000
264.684;    9.800;   61.000;  -50.000
264.825; -161.900; -816.000; -538.000
264.966;   -5.400;  -84.000;  -67.000
265.107; -219.900; -646.000; -670.000
265.248; -228.200; -825.000; -812.000
265.390;  -16.700;  152.000;   -9.000
265.531;  -39.100; -238.000; -107.000
265.672; -162.700; -557.000; -630.000
265.813;  164.600;  563.000;  439.000
265.954; -286.900; -959.000; -940.000
266.095;    7.700; -372.000; -322.000
266.236; -176.500; -686.000; -548.000
266.377;  -87.400; -243.000; -297.000
266.518; -132.900; -619.000; -547.000
266.659;   86.000;  170.000;  268.000
266.800;   46.200;   83.000;   85.000
266.941; -125.600; -487.000; -478.000
267.082;   43.000;  354.000;   99.000
267.223;  -94.100; -344.000; -273.000
267.364; -261.500; -892.000; -686.000
267.504;  -14.700;    3.000;  135.000
267.645;   40.700;  160.000;   67.000
267.786;  -43.400; -147.000;  -86.000
267.927; -117.400; -473.000; -379.000
268.068;  -15.500; -186.000;  -61.000
268.209;  -73.700; -175.000; -413.000
268.350; -120.000; -388.000; -532.000
268.490; -153.100; -648.000; -521.000
268.631;   93.100;  127.000;  225.000
268.772; -205.300; -874.000; -647.000
268.913;  -58.000; -328.000; -476.000
269.054;  -13.200; -117.000;   12.000
269.194;  -58.900; -418.000; -402.000
269.335; -290.700;-1137.000;-1074.000
269.476;   -2.200;   33.000;  -35.000
269.617;  -96.000; -347.000; -392.000
269.757; -157.400; -713.000; -646.000
269.898; -196.600; -856.000; -613.000
270.039; -113.600; -415.000; -405.000
270.180; -268.600; -952.000; -816.000
270.320;  -34.400; -190.000; -250.000
270.461;  -63.900; -277.000; -249.000
270.602;   -6.600; -186.000; -156.000
270.742; -255.600; -868.000; -943.000
270.883; -111.800; -442.000; -390.000
271.023; -118.500; -358.000; -357.000
271.164; -130.900; -607.000; -528.000
271.305; -201.100; -666.000; -654.000
271.445; -172.300; -722.000; -683.000
271.586; -146.600; -462.000; -283.000
271.726;  -87.900; -397.000; -322.000
271.867; -106.700; -594.000; -534.000
272.008;  302.600; -473.000; -285.000
272.148;  249.700;  462.000;  468.000
272.289;   66.900; -113.000; -181.000
272.429;   49.300;   19.000;  185.000
272.570; -165.700; -633.000; -737.000
272.710; -212.900; -825.000; -775.000
272.851;   -6.200;  113.000; -130.000
272.991; -325.800;-1173.000;-1077.000
273.131;  -99.500; -419.000; -459.000
273.272; -181.400; -683.000; -723.000
273.412;   21.700; -143.000;  -31.000
273.553; -102.500; -488.000; -507.000
273.693;  297.700;  913.000;  858.000
273.834; -194.000; -894.000; -692.000
273.974; -139.600; -664.000; -615.000
274.114; -203.700; -772.000; -560.000
274.255;  147.400;  414.000;  373.000
274.395;   20.900; -180.000; -125.000
274.535;  137.100;  199.000;  350.000
274.676;   48.100;  225.000;   94.000
274.816;   16.100;  110.000;   34.000
274.956; -158.200; -624.000; -690.000
275.097; -152.100;-1014.000; -922.000
275.237; -204.000; -913.000; -803.000
275.377; -184.900; -778.000; -689.000
275.517; -290.700; -878.000; -937.000
275.658; -102.700; -590.000; -555.000
275.798; -136.600; -606.000; -413.000
275.938;   40.000;  215.000;  323.000
276.078; -150.100; -626.000; -395.000
276.218;   41.700;   99.000;  104.000
276.359; -259.800;-1026.000;-1024.000
276.499; -128.000; -605.000; -446.000
276.639;  -20.600; -305.000; -151.000
276.779;  -91.800; -475.000; -357.000
276.919; -190.900; -783.000; -624.000
277.059;  -22.800; -261.000; -212.000
277.199;  -84.000; -357.000; -259.000
277.340;  104.500;  287.000;  175.000
277.480; -228.500; -840.000; -693.000
277.620;   72.700;  192.000;   16.000
277.760; -405.100;-1533.000;-1294.000
277.900;   35.100;  113.000;   33.000
278.040;   30.700;  137.000;  159.000
278.180;  130.900;  270.000;  170.000
278.320;   58.300;   21.000;   56.000
278.460; -104.400; -443.000; -469.000
278.600; -164.800; -708.000; -598.000
278.740;  151.200;  448.000;  224.000
278.880; -189.100; -768.000; -791.000
279.020;   63.000; -194.000; -144.000
279.160; -163.400; -672.000; -595.000
279.300; -228.600; -926.000; -873.000
279.440; -184.400; -709.000; -622.000
279.579;  -92.400;-1014.000; -929.000
279.719; -125.300; -410.000; -394.000
279.859;  129.300;   -4.000;   41.000
279.999;   56.700; -208.000;  101.000
280.139;  -38.900; -435.000; -387.000
280.279; -167.600; -708.000; -745.000
280.419;  -15.100; -229.000; -147.000
280.559;  -73.100; -259.000; -180.000
280.698; -154.800; -790.000; -639.000
280.838; -207.600; -778.000; -800.000
280.978; -194.700; -846.000; -790.000
281.118; -204.800; -811.000; -704.000
281.257;   31.500;   24.000;    6.000
281.397; -247.200;-1094.000; -960.000
281.537; -156.000; -599.000; -712.000
281.677;  -27.100; -150.000; -101.000
281.816; -150.800; -700.000; -630.000
281.956;  -41.900; -193.000; -257.000
282.096; -111.100; -539.000; -396.000
282.235; -200.800; -672.000; -638.000
282.375;  -58.400; -243.000;  -98.000
282.515; -167.800; -715.000; -707.000
282.654;   93.300;   29.000;  106.000
282.794;   96.300;  388.000;  244.000
282.934;  -91.400; -530.000; -491.000
283.073; -248.300;-1030.000; -857.000
283.213;  -95.700; -460.000; -467.000
283.353;  -72.300; -408.000; -349.000
283.492;  -48.500; -264.000; -296.000
283.632;  -64.200; -254.000; -168.000
283.771; -176.700; -859.000; -730.000
283.911;  -67.300; -369.000; -260.000
284.050; -208.300; -794.000; -748.000
284.190; -326.000;-1229.000;-1096.000
284.329; -288.400;-1055.000; -964.000
284.469; -157.300; -516.000; -591.000
284.608;  -81.900; -559.000; -598.000
284.748; -167.400; -614.000; -570.000
284.887;    2.700;  -87.000;  -20.000
285.027; -237.700; -844.000; -892.000
285.166;  -45.900; -192.000; -249.000
285.306;  -14.600; -116.000;  -33.000
285.445;  -50.600; -229.000; -343.000
285.584; -165.300; -630.000; -494.000
285.724;  -64.800; -282.000; -322.000
285.863; -203.100; -857.000; -507.000
286.002;  -71.500; -366.000; -276.000
286.142; -205.800; -715.000; -622.000
286.281; -115.700; -525.000; -493.000
286.420; -148.500; -554.000; -417.000
286.560;  185.500;  653.000;  623.000
286.699; -280.300; -958.000; -912.000
286.838; -161.900; -590.000; -591.000
286.978; -166.400; -533.000; -537.000
287.117; -263.600;-1085.000; -950.000
287.256;  -50.900; -228.000; -211.000
287.395;  -60.000; -197.000; -378.000
287.535;  -80.200; -370.000; -298.000
287.674; -126.400; -509.000; -484.000
287.813;  155.400;  661.000;  533.000
287.952; -245.500;-1010.000; -871.000
288.091; -299.000;-1049.000; -915.000
288.231;   75.400;   13.000;   15.000
288.370; -359.100;-1217.000;-1200.000
288.509; -148.000; -728.000; -645.000
288.648; -168.400; -770.000; -548.000
288.787;  -40.100; -243.000;  -87.000
288.926; -119.700; -454.000; -475.000
289.065;  261.700;  859.000;  672.000
289.204;  -94.000; -377.000; -217.000
289.344; -179.300; -791.000; -690.000
289.483;   96.200;  416.000;  304.000
289.622;  -33.200; -291.000; -149.000
289.761;  -43.800; -309.000; -166.000
289.900; -216.500; -785.000; -626.000
290.039;   -8.700;  -12.000;  -95.000
290.178;  -47.200; -274.000; -180.000
290.317; -130.000; -618.000; -479.000
290.456;  -94.500; -463.000; -451.000
290.595; -283.000; -961.000; -833.000
290.734; -263.800; -904.000; -891.000
290.873; -110.600; -456.000; -420.000
291.011; -200.000; -833.000; -843.000
291.150; -200.200; -770.000; -682.000
291.289;  -37.700; -343.000; -110.000
291.428; -172.800; -599.000; -480.000
291.567;  -86.500; -370.000; -442.000
291.706;    4.600;  109.000;  154.000
291.845; -149.900; -597.000; -505.000
291.984; -332.700;-1234.000;-1061.000
292.122;  195.400;  602.000;  582.000
292.261;  144.700;  620.000;  463.000
292.400;   23.500; -144.000;  211.000
292.539; -209.100; -959.000; -813.000
292.678;  -26.500; -325.000; -300.000
292.816; -295.300;-1136.000; -965.000
292.955; -161.600; -844.000; -684.000
293.094;  -27.100; -173.000; -337.000
293.233;  -69.900; -556.000; -400.000
293.371;  -32.300; -225.000;  -84.000
293.510; -188.500; -866.000; -780.000
293.649; -246.800; -959.000; -924.000
293.787; -152.900;-1083.000;-1012.000
293.926;   -2.700; -113.000;  -32.000
294.065;  -96.300; -379.000; -290.000
294.203;  145.600;  298.000;  406.000
294.342;   73.400;   74.000;  156.000
294.481;13950.800;51180.000; -836.000
294.619;  -37.600; -425.000; -582.000
294.758; -287.100;-1230.000;-1137.000
294.896;  138.000; -125.000;    5.000
295.035; -237.600;-1040.000;-1006.000
295.174; -219.900;-1082.000; -954.000
295.312;  -65.000; -323.000; -203.000
295.451;  -21.300; -307.000; -428.000
295.589; -105.900; -389.000; -518.000
295.728;   78.100; -292.000; -165.000
295.866;   17.600;  -36.000;  -51.000
296.005; -118.600; -584.000; -341.000
296.143; -107.200; -558.000; -596.000
296.282; -213.300; -957.000; -881.000
296.420; -155.500; -657.000; -557.000
296.559; -151.900; -892.000; -633.000
296.697;  -42.900; -847.000; -665.000
296.835;   54.900;-1141.000;-1002.000
296.974;   73.400;  -23.000;   39.000
297.112;    6.200; -443.000; -504.000
297.251; -164.900; -815.000; -755.000
297.389;   98.800; -576.000; -438.000
297.527;  111.500; -145.000;  -83.000
297.666;  -75.500; -486.000; -438.000
297.804;  -88.700; -404.000; -264.000
297.942;   23.100; -136.000; -161.000
298.081;   -1.400; -183.000;   63.000
298.219;  112.900;  -17.000;  -19.000
298.357;   73.200; -144.000;  -71.000
298.495;   32.200; -810.000; -812.000
298.634;  139.400;  245.000;  219.000
298.772;   95.200; -220.000; -338.000
298.910;  -55.900; -309.000; -182.000
299.048;  -25.800; -130.000; -153.000
299.187;  -53.500; -350.000; -250.000
299.325;   74.400;   52.000;  122.000
299.463;   45.700; -389.000; -299.000
299.601;  154.200; -327.000; -271.000
299.739; -216.200; -908.000; -883.000
299.877; -119.300; -791.000; -703.000
300.016; -145.500;-1095.000; -935.000
300.154;  267.600;  -19.000; -161.000
300.292;   53.200; -428.000; -348.000
300.430;   42.900; -408.000; -291.000
300.568; -239.300; -940.000; -874.000
300.706;  -88.500; -366.000; -469.000
300.844; -173.300;-1108.000; -979.000
300.982;  285.100;  246.000;  282.000
301.120; -227.700; -965.000; -866.000
301.258; -137.100; -812.000; -705.000
301.396;   65.300;  104.000;  -41.000
301.534;  106.100; -218.000; -293.000
301.672;  -58.100; -664.000; -521.000
301.810;   31.500; -613.000; -545.000
301.948;  246.500;   53.000;  149.000
302.086;  913.500; -250.000;  -32.000
302.224; 1495.500; -610.000; -585.000
302.362;   43.200; -558.000; -622.000
302.500;  -75.900; -923.000; -893.000
302.638;  186.400;  128.000;  245.000
302.776;   22.000; -352.000; -408.000
302.913;  140.100;  447.000;  236.000
303.051;   23.900;  -86.000;  -23.000
303.189;  123.900;   90.000;  118.000
303.327;  -39.700; -341.000; -256.000
303.465; -160.900; -832.000; -588.000
303.603; -171.100; -805.000; -604.000
303.740;  209.200;  417.000;  241.000
303.878;    0.600; -800.000; -759.000
304.016; -150.100; -915.000; -790.000
304.154; -266.400;-1123.000;-1152.000
304.291;  -60.500; -505.000; -554.000
304.429;   61.800;  102.000;   74.000
304.567; -252.500; -908.000; -893.000
304.705;  -76.400; -408.000; -515.000
304.842;  140.300; -616.000; -540.000
304.980;  131.800;  215.000;   35.000
305.118;   60.500; -367.000; -365.000
305.255; -179.400; -945.000; -927.000
305.393;  130.600;  178.000;  239.000
305.531; -193.400;-1173.000; -956.000
305.668; -111.800; -663.000; -582.000
305.806;  163.400; -358.000; -439.000
305.943;  173.100; -629.000; -637.000
306.081;  101.700; -378.000; -267.000
306.219; -179.600; -863.000; -748.000
306.356;   67.400;  158.000;   27.000
306.494;  294.300;  981.000;  761.000
306.631;   13.600;  -11.000;  -55.000
306.769;    8.000; -613.000; -485.000
306.906;  -18.700; -284.000; -258.000
307.044;  -87.700; -473.000; -488.000
307.181;  -58.800; -410.000; -332.000
307.319;  113.000;  112.000;   87.000
307.456; -351.300;-1191.000;-1153.000
307.594; -180.600; -980.000; -727.000
307.731;    3.500; -371.000; -164.000
307.868;   16.000;  -15.000;   20.000
308.006; -257.700; -961.000; -847.000
308.143; -118.400; -618.000; -330.000
308.281;  379.700;  -37.000; -254.000
308.418;   26.300; -748.000; -640.000
308.555; -124.300; -400.000; -250.000
308.693; -113.700; -577.000; -573.000
308.830; -182.200; -712.000; -657.000
308.967;  -11.400; -215.000;  -95.000
309.105;  -83.700; -507.000; -396.000
309.242;   96.500; -468.000; -367.000
309.379;  684.900; -577.000; -655.000
309.517;  -88.500; -936.000; -948.000
309.654; -180.400; -910.000; -734.000
309.791; -149.100; -662.000; -580.000
309.928; -217.400; -977.000; -914.000
310.065;  383.800;  819.000;  697.000
310.203;  -65.400; -825.000; -850.000
310.340;   -3.800; -465.000; -321.000
310.477; -126.000; -412.000; -516.000
310.614; -102.300; -383.000; -473.000
310.751; -141.900; -427.000; -518.000
310.889;   15.600;    1.000;   11.000
311.026; -285.100;-1161.000; -939.000
311.163;  -43.600; -386.000; -380.000
311.300; -126.900; -512.000; -479.000
311.437; -116.100; -658.000; -619.000
311.574; -338.900;-1226.000; -985.000
311.711; -118.100; -595.000; -433.000
311.848;  -52.500; -380.000; -388.000
311.985;   60.800;  270.000;   93.000
312.122; -222.600; -932.000; -762.000
312.259; -225.200; -941.000; -994.000
312.396; -152.900; -508.000; -551.000
312.533; -168.100; -812.000; -790.000
312.670; -242.100;-1070.000; -898.000
312.807;  -29.900; -352.000; -367.000
312.944; -126.500; -513.000; -611.000
313.081;  -24.700; -150.000; -415.000
313.218; -203.900;-1111.000; -867.000
313.355;   15.100; -531.000; -449.000
313.492;  -30.600; -455.000; -292.000
313.629;  312.600;  815.000;  735.000
313.766; -293.300;-1176.000;-1008.000
313.902;   12.900; -186.000;   21.000
314.039;  -71.400; -372.000; -289.000
314.176;   95.400;  286.000;  192.000
314.313; -100.300; -569.000; -473.000
314.450; -139.100; -788.000; -684.000
314.587;  -97.500; -468.000; -480.000
314.723;   14.700;  -78.000;  130.000
314.860;  106.600;  318.000;  332.000
314.997;   91.600;  223.000;  142.000
315.134;  -52.300; -385.000; -368.000
315.270;  -55.800; -480.000; -496.000
315.407; -254.500;-1094.000; -967.000
315.544; -121.600; -657.000; -538.000
315.681; -128.500; -681.000; -565.000
315.817;   67.100; -133.000; -176.000
315.954;   29.800; -613.000; -392.000
316.091; -211.500;-1045.000;-1023.000
316.227;    8.200;  -71.000; -179.000
316.364;   26.100;   23.000;    6.000
316.500;  -88.500; -113.000; -300.000
316.637;  -27.800; -181.000; -302.000
316.774; -173.200; -625.000; -358.000
316.910; -151.200; -598.000; -629.000
317.047; -131.600; -487.000; -351.000
317.183;  -81.800; -435.000; -566.000
317.320;    9.000; -367.000; -321.000
317.456;  -95.000; -733.000; -805.000
317.593; -136.900; -598.000; -641.000
317.729;   49.500;  168.000;  -67.000
317.866; -389.300;-1434.000;-1285.000
318.002; -153.200; -708.000; -948.000
318.139; -187.200; -883.000; -867.000
318.275; -198.900;-1003.000; -738.000
318.412;  -81.500; -517.000; -336.000
318.548;  -69.000; -751.000; -720.000
318.685; -196.700; -985.000; -888.000
318.821; -176.100; -762.000; -735.000
318.957;  -15.400;   34.000;  -23.000
319.094;  122.700;  297.000;  154.000
319.230; -121.300; -756.000; -742.000
319.367;  216.400; -471.000; -520.000
319.503;   98.000; -538.000; -436.000
319.639; -168.900; -877.000; -793.000
319.775; -107.900; -750.000; -685.000
319.912;  -74.400; -424.000; -519.000
320.048; -160.600;-1184.000;-1184.000
320.184;  202.900;   59.000;   70.000
320.321; -106.400; -497.000; -467.000
320.457;  181.100;  475.000;  662.000
320.593; -114.900; -375.000; -382.000
320.729; -165.200; -732.000; -734.000
320.866; -121.900; -577.000; -635.000
321.002; -144.200; -759.000; -809.000
321.138;  -23.500; -135.000; -211.000
321.274;  131.100; -148.000; -115.000
321.410;  -75.700; -585.000; -353.000
321.546;  -95.900;-1011.000; -911.000
321.683;  139.200;  400.000;  185.000
321.819;   34.500;  -48.000; -117.000
321.955; -201.800; -743.000; -722.000
322.091;  -81.500; -585.000; -540.000
322.227;  -32.400; -382.000; -202.000
322.363;  -21.300; -320.000; -215.000
322.499;  -50.700; -343.000; -331.000
322.635;  339.300;  636.000;  443.000
322.771;   61.500; -139.000;   12.000
322.907;  196.900;  129.000;  327.000
323.043;  -47.500; -115.000; -206.000
323.179;  -51.300; -394.000; -363.000
323.315;  -18.200; -401.000; -371.000
323.451;  135.800; -328.000; -236.000
323.587;  154.200;  -60.000;  -77.000
323.723;    7.700; -682.000; -601.000
323.859;  -23.400; -258.000;  -76.000
323.995;  -32.000; -467.000; -409.000
324.131; -211.700; -967.000; -892.000
324.267;  -58.500; -254.000; -276.000
324.402; -242.100; -960.000; -983.000
324.538;    7.900; -279.000; -104.000
324.674;   73.700;  164.000;   77.000
324.810;  241.100;  226.000;  308.000
324.946;   -4.900; -810.000; -658.000
325.082; -134.600; -568.000; -475.000
325.217;  -10.500;  -62.000;   16.000
325.353; -164.400; -764.000; -659.000
325.489; -159.000; -540.000; -506.000
325.625; -139.400; -579.000; -525.000
325.760;  150.800;  517.000;  376.000
325.896;    2.900; -515.000; -702.000
326.032;  -82.000; -403.000; -352.000
326.168;  -79.700; -462.000; -369.000
326.303;  -96.500; -352.000; -461.000
326.439;   31.600; -336.000; -276.000
326.575;  -12.100; -190.000;  -29.000
326.710;  -16.000; -156.000;  -30.000
326.846;   -1.400;  146.000;  103.000
326.982; -133.100; -530.000; -548.000
327.117; -132.600; -481.000; -442.000
327.253; -166.200; -745.000; -742.000
327.388; -296.100;-1137.000;-1153.000
327.524; -106.700; -811.000; -578.000
327.659;  -25.600;  -58.000;  -22.000
327.795;   15.700;   69.000;   45.000
327.931; -155.000; -723.000; -499.000
328.066;   14.800; -417.000; -276.000
328.202;  -18.800;   12.000; -129.000
328.337;  257.400;  957.000;  713.000
328.473;   34.800;  -12.000;  -74.000
328.608;   13.600; -256.000; -267.000
328.743; -146.600; -799.000; -664.000
328.879;   90.600;  214.000;  114.000
329.014; -117.400; -102.000; -122.000
329.150; -128.800; -358.000; -483.000
329.285; -109.600; -465.000; -466.000
329.421;  -65.700; -548.000; -246.000
329.556;   18.400;  -36.000;   85.000
329.691; -145.200; -633.000; -615.000
329.827; -157.600; -626.000; -480.000
329.962;  -34.900;  131.000; -301.000
330.097; -123.800; -673.000; -585.000
330.233;  -74.700; -410.000; -223.000
330.368; -217.200; -839.000; -628.000
330.503;    3.400;    3.000;   98.000
330.638;   45.600;  -93.000; -125.000
330.774; -119.900; -609.000; -530.000
330.909;  -67.700; -434.000; -244.000
331.044; -146.500; -714.000; -708.000
331.179; -338.900;-1217.000;-1109.000
331.315;   58.700;   77.000;   20.000
331.450;   75.000;  157.000;  285.000
331.585; -165.700; -805.000; -706.000
331.720; -156.400; -510.000; -460.000
331.855;   14.900;  -35.000; -102.000
331.990;  558.400;   62.000;  138.000
332.126;  341.300; -110.000;   71.000
332.261;   16.800; -379.000; -265.000
332.396;   55.600; -135.000; -242.000
332.531; -213.200;-1074.000;-1031.000
332.666;   85.900; -519.000; -363.000
332.801; -206.900; -726.000; -807.000
332.936;  -25.000; -192.000; -122.000
333.071; -235.000; -870.000; -817.000
333.206;  105.000;  307.000;  379.000
333.341;  116.700;  344.000;  418.000
333.476; -143.700; -627.000; -623.000
333.611;  -53.500; -251.000; -173.000
333.746;  -50.000; -381.000; -464.000
333.881; -212.900; -973.000; -935.000
334.016; -230.800; -936.000; -917.000
334.151; -220.800; -746.000; -702.000
334.286;   75.500;  152.000;  186.000
334.421;  -24.700; -125.000; -178.000
334.556; -145.500; -611.000; -567.000
334.690; -162.700; -631.000; -577.000
334.825;  146.800;  381.000;   83.000
334.960;  -95.700; -285.000; -413.000
335.095;   45.200;  135.000;  -91.000
335.230; -208.500; -722.000; -738.000
335.365; -248.700;-1084.000; -990.000
335.499; -269.300;-1108.000;-1037.000
335.634;   68.200;    9.000;  534.000
335.769; -190.500; -755.000; -720.000
335.904; -118.700; -603.000; -561.000
336.038; -116.700; -735.000; -657.000
336.173; -219.800;-1206.000;-1194.000
336.308;   39.700; -116.000; -189.000
336.443;   64.600; -544.000; -634.000
336.577; -115.500; -936.000; -787.000
336.712;  125.000;   -4.000;  -12.000
336.847;  -79.600; -724.000; -607.000
336.981;   57.000; -272.000; -208.000
337.116;  521.000;  615.000;  501.000
337.250;  259.700; -434.000; -421.000
337.385;  584.500; -297.000; -208.000
337.520;  258.600; -632.000; -603.000
337.654;  -57.200; -215.000; -126.000
337.789; -256.800; -989.000; -933.000
337.923;  -51.000; -104.000; -205.000
338.058; -155.600; -673.000; -738.000
338.192;  -26.900; -611.000; -488.000
338.327;   12.100;  -18.000; -155.000
338.461; -106.100; -299.000; -469.000
338.596; -131.600; -780.000; -638.000
338.730; -176.800; -767.000; -803.000
338.865;  245.100;  -46.000; -140.000
338.999;  -75.900; -846.000; -702.000
339.134;  -11.800; -634.000; -536.000
339.268;   24.000; -741.000; -603.000
339.403;  756.600; -740.000; -775.000
339.537;  292.300; -894.000; -820.000
339.671; -220.600; -829.000; -813.000
339.806;  -87.000; -556.000; -512.000
339.940;   65.200; -261.000; -235.000
340.074; -164.400; -685.000; -510.000
340.209;  -64.600; -351.000; -230.000
340.343; -164.900; -517.000; -573.000
340.477;  336.700;  998.000; 1036.000
340.612;  -67.100;-1033.000; -900.000
340.746;  332.000; -199.000; -243.000
340.880; -156.600; -924.000; -785.000
341.014;   17.500;  -45.000; -154.000
341.149; -219.100; -756.000; -718.000
341.283; -196.600; -839.000; -754.000
341.417; -189.500;-1124.000; -938.000
341.551;  168.000; -768.000; -708.000
341.685;  -73.700; -633.000; -611.000
341.820;  -92.500; -562.000; -493.000
341.954; -106.700; -218.000; -349.000
342.088; -295.300;-1102.000;-1019.000
342.222;  155.900;  565.000;  618.000
342.356; -106.800; -395.000; -335.000
342.490; -174.900; -880.000; -841.000
342.624;  -59.500; -339.000; -242.000
342.758;  -19.200; -364.000; -312.000
342.892; -102.400; -710.000; -585.000
343.026;  -30.800;  -58.000; -116.000
343.160;  -89.700; -426.000; -376.000
343.294; -144.300; -474.000; -337.000
343.428;  -45.600; -488.000; -448.000
343.562;   -4.100; -172.000;  -23.000
343.696;  -20.600; -385.000; -314.000
343.830;   -6.300; -362.000; -356.000
343.964;   42.700; -231.000; -168.000
344.098; 1414.100;  199.000;   70.000
344.232; 1161.300; -266.000; -127.000
344.366;  177.200; -567.000; -453.000
344.500;   48.600; -665.000; -744.000
344.634;   99.500; -324.000; -164.000
344.768;  -14.700; -531.000; -341.000
344.902;   88.700;  278.000;  256.000
345.035; -109.700; -556.000; -496.000
345.169; -234.000; -933.000; -656.000
345.303;  -12.800; -308.000; -482.000
345.437; -155.200; -826.000; -717.000
345.571; -124.700; -675.000; -594.000
345.704; -115.800; -309.000; -532.000
345.838;  -13.800; -331.000; -284.000
345.972;  -86.700; -543.000; -495.000
346.106;  363.200; -179.000; -190.000
346.239;  869.700; -312.000; -243.000
346.373;    8.900; -343.000; -302.000
346.507; -267.200; -950.000; -962.000
346.640;  255.400;  -30.000;   13.000
346.774;  -69.900; -650.000; -797.000
346.908;   -9.500; -138.000;  -11.000
347.041; -150.700; -646.000; -593.000
347.175;   76.300;  259.000;   27.000
347.309; -153.300; -698.000; -628.000
347.442; -176.800; -883.000; -732.000
347.576;  498.400;  670.000;  668.000
347.709;  331.800; -123.000;  -52.000
347.843; -183.500; -933.000; -825.000
347.976;  127.700;  235.000;  294.000
348.110; -342.900;-1268.000;-1186.000
348.243; -177.600; -679.000; -772.000
348.377;   52.100;  -26.000;   60.000
348.510;  146.200;  403.000;  540.000
348.644;  -44.200;  -37.000; -159.000
348.777;   23.700;  180.000;  191.000
348.911;  -58.600; -142.000; -112.000
349.044;  341.700;  471.000;  448.000
349.178;  170.300;-1069.000;-1006.000
349.311;  232.500;  141.000;  255.000
349.444;   14.200; -927.000; -813.000
349.578;  -20.600; -347.000; -200.000
349.711; -218.400; -959.000; -862.000
349.845;  -24.200; -661.000; -591.000
349.978; -294.300;-1224.000;-1137.000
350.111; -119.100; -546.000; -612.000
350.244; -163.000; -596.000; -700.000
350.378;   39.800; -392.000; -393.000
350.511; -109.100; -393.000; -426.000
350.644; -191.800; -808.000; -806.000
350.778;   40.100;  168.000;  104.000
350.911;   70.800;  134.000;  140.000
351.044; -164.100; -685.000; -615.000
351.177;  -25.400; -321.000; -281.000
351.310;  -19.800;    3.000; -131.000
351.444; -144.000; -888.000; -788.000
351.577;  233.400;  140.000;   90.000
351.710;  244.700;  593.000;  417.000
351.843;  -28.000; -165.000;  -77.000
351.976;   41.400;  149.000;  -79.000
352.109; -170.600; -621.000; -612.000
352.242;  -58.400; -464.000; -419.000
352.376; -140.100; -580.000; -636.000
352.509;  275.200; -437.000; -356.000
352.642;  -58.900; -654.000; -604.000
352.775;   84.300; -141.000;  -98.000
352.908; -181.300; -933.000; -904.000
353.041; -182.200; -814.000; -824.000
353.174; -101.200; -551.000; -424.000
353.307; -136.800; -753.000; -764.000
353.440;  154.600;  541.000;  453.000
353.573; -225.900; -957.000;-1008.000
353.706; -115.900; -384.000; -558.000
353.839;   -3.800; -264.000; -220.000
353.971; -171.300; -657.000; -512.000
354.104; -152.400; -896.000; -835.000
354.237;  -78.200; -627.000; -662.000
354.370; -165.200; -846.000; -879.000
354.503; -349.600;-1231.000;-1308.000
354.636;  -22.200; -529.000; -348.000
354.769; -240.800; -937.000; -860.000
354.902;   -4.900; -230.000; -139.000
355.034;  -13.700; -164.000; -220.000
355.167;   -3.300; -262.000; -162.000
355.300; -153.300;-1061.000; -880.000
355.433; 2079.900;  -71.000;  -14.000
355.565; 3196.100; -402.000; -384.000
355.698;  818.100; -356.000; -296.000
355.831;  -39.300; -882.000; -801.000
355.964;  143.600; -285.000; -170.000
356.096; -155.100; -856.000; -843.000
356.229;   -8.000; -523.000; -530.000
356.362;  742.800; -373.000; -266.000
356.494; 1308.200; -229.000; -162.000
356.627;  837.100;  269.000;  377.000
356.760; 1415.500;  120.000;   53.000
356.892; 2026.800; -286.000; -601.000
357.025; 1087.800;  403.000;  389.000
357.157;  917.600; -167.000; -179.000
357.290; 1484.000; -856.000; -713.000
357.423;  436.800; -667.000; -556.000
357.555;  220.100; -217.000; -228.000
357.688;  237.400; -483.000; -364.000
357.820;  670.000; -870.000; -877.000
357.953; 5814.300; -563.000; -589.000
358.085; 1219.000; -632.000; -612.000
358.218; 1533.600;-1131.000; -932.000
358.350;  354.100;  -58.000;  312.000
358.483; -250.400;-1300.000;-1187.000
358.615; -118.700;-1182.000;-1078.000
358.747; -142.400;-1187.000;-1058.000
358.880;   19.400; -810.000; -744.000
359.012;    2.200; -376.000; -202.000
359.145;  -45.800; -480.000; -511.000
359.277;   37.200; -962.000; -913.000
359.409; 4768.400;  536.000;  231.000
359.542; 1132.700; -738.000; -688.000
359.674;  153.600;   46.000;   13.000
359.806; -126.200; -565.000; -438.000
359.939;  -25.200; -617.000; -516.000
360.071;   35.900; -583.000; -579.000
360.203;    4.100; -411.000; -364.000
360.335;  131.400;  164.000;  -16.000
360.468;  325.800; -249.000; -307.000
360.600; 3917.000; -547.000; -454.000
360.732; 6026.100; -546.000; -423.000
360.864;  833.200;-1216.000;-1044.000
360.996;  430.100; -516.000; -554.000
361.129;   38.400; -389.000; -598.000
361.261;   57.500;  110.000; -113.000
361.393;  -21.400; -252.000; -214.000
361.525;   99.200;   94.000;  244.000
361.657; -125.700; -821.000; -703.000
361.789;   27.300; -139.000; -155.000
361.921;  313.700; -642.000; -593.000
362.053;  466.500;  524.000;  541.000
362.185;  119.400;  288.000;   72.000
362.318; -164.300; -709.000; -705.000
362.450;  241.500;  294.000;  444.000
362.582;   60.700; -913.000; -870.000
362.714;  -35.800; -353.000; -332.000
362.846; -139.600; -606.000; -490.000
362.978; -248.100; -941.000; -811.000
363.109;   87.800; -161.000; -260.000
363.241;  703.400; -739.000; -749.000
363.373;  928.800; -649.000; -564.000
363.505; 1455.900; -186.000;  -91.000
363.637;  333.800; -787.000; -601.000
363.769; -246.800;-1067.000;-1080.000
363.901;  -96.200; -596.000; -654.000
364.033; -236.300;-1103.000;-1062.000
364.165;   26.800; -283.000; -283.000
364.296;  229.300; -316.000; -177.000
364.428;  203.700;-1344.000;-1220.000
364.560; -114.600; -679.000; -661.000
364.692; -120.200; -738.000; -835.000
364.824;  349.100; -588.000; -456.000
364.955;  878.500; -402.000; -564.000
365.087; 2164.100;-1097.000; -852.000
365.219;   96.700; -686.000; -816.000
365.351; -127.000; -526.000; -572.000
365.482;  115.200;  300.000;  240.000
365.614;  -73.100; -402.000; -314.000
365.746; -147.200; -729.000; -752.000
365.877; -163.200; -706.000; -672.000
366.009;  642.500;  -35.000;  -62.000
366.141; -170.000;-1249.000;-1134.000
366.272; -184.600; -803.000; -719.000
366.404; -204.300;-1005.000; -874.000
366.535;   37.500; -139.000;  -12.000
366.667; -152.400; -644.000; -649.000
366.799;  107.800;  353.000;  203.000
366.930; -226.300; -862.000; -996.000
367.062;  274.500; -639.000; -613.000
367.193;  431.700; -872.000; -842.000
367.325;  -62.100; -580.000; -684.000
367.456;   57.800; -246.000;   31.000
367.588;  412.200; -371.000; -318.000
367.719;   99.200;  -44.000;  -45.000
367.851;   12.400; -222.000; -241.000
367.982; -137.500; -875.000; -732.000
368.113;  159.900; -475.000; -358.000
368.245; -201.500; -960.000; -841.000
368.376;  -47.000; -254.000; -302.000
368.508;  -65.000; -188.000; -263.000
368.639; -282.300;-1166.000;-1034.000
368.770;  -25.800; -670.000; -589.000
368.902; -116.700; -836.000; -926.000
369.033; -191.400; -906.000; -855.000
369.164;  -83.300; -720.000; -653.000
369.296; -174.800; -452.000; -601.000
369.427;   28.600; -209.000; -144.000
369.558;  -68.000; -593.000; -377.000
369.689; -150.800; -721.000; -569.000
369.821; -233.400; -951.000; -845.000
369.952;   18.800;   42.000; -108.000
370.083;  -69.900; -229.000; -108.000
370.214; -142.300; -735.000; -650.000
370.345;   36.500;   65.000;   81.000
370.477; -143.000; -810.000; -790.000
370.608;  362.900; -328.000; -264.000
370.739; -159.900;-1233.000;-1292.000
370.870; -110.100;-1102.000; -923.000
371.001;  155.200; -378.000; -467.000
371.132; -150.300; -754.000; -735.000
371.263;   -1.800;  -42.000; -148.000
371.394; -223.500; -841.000; -748.000
371.525;  120.700;  345.000;  225.000
371.657; -167.000; -808.000; -670.000
371.788;  154.000;  103.000;  199.000
371.919;  260.900; -384.000; -304.000
372.050; 5589.200;  -91.000; -156.000
372.181; 1534.100; -188.000; -294.000
372.311;  562.500;   42.000; -127.000
372.442;   24.900; -457.000; -451.000
372.573;  -36.700; -444.000; -340.000
372.704; -242.200;-1008.000; -980.000
372.835;  135.100; -228.000; -289.000
372.966;  -99.300; -646.000; -554.000
373.097; -121.600; -575.000; -711.000
373.228;  -90.300; -717.000; -542.000
373.359;  191.200; -824.000; -536.000
373.490; 1438.200; -881.000; -727.000
373.620; 1678.300;-1001.000; -803.000
373.751; 2615.300; -332.000; -396.000
373.882; 1107.000; -663.000; -733.000
374.013;  110.000; -449.000; -262.000
374.143;  -69.400; -581.000; -659.000
374.274; -177.900; -987.000; -908.000
374.405;  337.900; -388.000; -276.000
374.536;  630.200; -526.000; -387.000
374.666; 1593.000; -759.000; -807.000
374.797;  316.800; -817.000; -868.000
374.928; 1284.700; -710.000; -560.000
375.058; 1368.900; -535.000; -500.000
375.189;  137.700;  -59.000;  -93.000
375.320; -235.300; -928.000;-1034.000
375.450;  -60.300; -625.000; -616.000
375.581;  -68.500; -526.000; -436.000
375.712;  -43.900; -574.000; -250.000
375.842;  444.600; -438.000; -415.000
375.973;  280.500; -554.000; -513.000
376.103;  -84.800; -665.000; -648.000
376.234; -125.800; -531.000; -552.000
376.364;  -87.800; -944.000; -867.000
376.495;  613.500;  925.000;  529.000
376.625;  -26.900; -472.000; -485.000
376.756;  101.100; -709.000; -678.000
376.886; -201.700;-1178.000;-1026.000
377.017;  163.600;-1048.000;-1061.000
377.147;  816.700; -786.000; -782.000
377.278;  165.200;  174.000;  228.000
377.408; -246.000; -801.000; -815.000
377.538; -143.800; -707.000; -693.000
377.669; -128.500; -537.000; -613.000
377.799; -155.800; -645.000; -635.000
377.929; -120.100; -610.000; -428.000
378.060; -210.600; -781.000; -847.000
378.190;  -80.000; -726.000; -531.000
378.320;  -59.700; -401.000; -406.000
378.451;   12.600; -131.000;  -22.000
378.581;   48.300;  -67.000; -110.000
378.711;  319.700; 1035.000;  866.000
378.841;  -33.500; -533.000; -675.000
378.972; -156.100; -871.000; -751.000
379.102;  -64.900; -652.000; -579.000
379.232;  -23.900; -126.000;  -73.000
379.362; -192.000;-1001.000; -885.000
379.492;    8.300; -373.000; -424.000
379.623;  180.800;    0.000;  111.000
379.753; -194.400;-1107.000; -974.000
379.883;  350.800;   59.000;  156.000
380.013;  -23.800;-1081.000;-1017.000
380.143; -194.400;-1097.000;-1056.000
380.273; -206.000; -985.000; -861.000
380.403;   -2.200; -344.000; -257.000
380.533;  -58.900; -651.000; -664.000
380.663;  142.300;  173.000;  128.000
380.793; -182.300;-1027.000;-1074.000
380.923;    9.400; -103.000;  -34.000
381.053; -138.600; -613.000; -623.000
381.183;    0.300; -106.000; -248.000
381.313;   31.600; -656.000; -470.000
381.443;   34.000; -692.000; -473.000
381.573;  272.600; -402.000; -409.000
381.703;  366.400;-1249.000;-1095.000
381.833; -285.200;-1454.000;-1336.000
381.963;  210.500; -134.000;  -87.000
382.093; 2204.800; -925.000; -909.000
382.223;  584.400; -713.000; -602.000
382.353;  -38.200; -801.000; -608.000
382.482;  481.200;-1091.000; -964.000
382.612; 1168.800; -872.000; -644.000
382.742;  629.200; -695.000; -622.000
382.872;  346.800; -565.000; -551.000
383.002;  160.500;  347.000; -132.000
383.131;   22.000; -226.000; -160.000
383.261;  -40.100; -706.000; -768.000
383.391;  604.700; -552.000; -377.000
383.521; 7206.600;  451.000;  263.000
383.650; 1613.100; -947.000; -904.000
383.780;  -11.400; -783.000; -656.000
383.910;  259.900;  880.000;  802.000
384.039;    1.700; -794.000; -656.000
384.169;  281.000;-1205.000;-1017.000
384.299;  -48.300; -650.000; -662.000
384.428; -166.100; -764.000; -680.000
384.558;  -24.500; -308.000; -275.000
384.687;  -74.200; -414.000; -334.000
384.817;   59.000;   75.000;   -2.000
384.947;   51.000; -234.000; -141.000
385.076;  582.100;  982.000;  912.000
385.206;  237.500;  369.000;  480.000
385.335;  -51.300; -549.000; -417.000
385.465; -143.800; -655.000; -663.000
385.594;  246.300;  -53.000;  -44.000
385.724;  575.800; -868.000; -838.000
385.853;  143.800; -296.000; -270.000
385.982; 2089.600; -743.000; -787.000
386.112; 3096.800;-1052.000; -871.000
386.241;  180.600; -307.000; -312.000
386.371;   78.300; -174.000;  -87.000
386.500;   -4.200; -825.000; -789.000
386.629;   42.200; -874.000; -817.000
386.759;  199.100;  -43.000;   68.000
386.888;   26.100; -170.000; -250.000
387.017; -158.000; -648.000; -620.000
387.147; -123.900; -771.000; -798.000
387.276;  -29.400; -410.000; -397.000
387.405;   20.400; -398.000; -342.000
387.535;  -74.500; -452.000; -361.000
387.664; -109.600; -692.000; -620.000
387.793;  107.900; -198.000; -113.000
387.922;  821.800;  255.000;  200.000
388.052;   -3.900; -576.000; -423.000
388.181;   20.200; -342.000; -472.000
388.310;  -51.100; -889.000; -710.000
388.439; -101.900; -749.000; -742.000
388.568;  323.900;  365.000;  244.000
388.697; 1518.100; -756.000; -653.000
388.826;  251.700; -768.000; -666.000
388.956;  108.300; -285.000; -307.000
389.085;  -29.800; -347.000; -287.000
389.214; -173.600; -842.000; -872.000
389.343;  -73.200; -645.000; -413.000
389.472;  914.300;  126.000;  149.000
389.601; 1027.400;   91.000;    0.000
389.730;   24.800; -568.000; -687.000
389.859;  142.000;  226.000;   46.000
389.988;  326.300; -423.000; -408.000
390.117;  232.300; -168.000; -146.000
390.246;    6.500; -331.000; -320.000
390.375;  116.000; -673.000; -626.000
390.504; -106.300; -703.000; -621.000
390.633; -188.500; -672.000; -726.000
390.761; -107.800; -732.000; -645.000
390.890;   76.700;   -4.000; -130.000
391.019;  -53.600; -421.000; -441.000
391.148; -219.700; -826.000; -855.000
391.277; -134.100; -576.000; -493.000
391.406; -156.100; -821.000; -805.000
391.534;  124.500;  574.000; -301.000
391.663;  -76.800; -583.000; -645.000
391.792; -128.100; -673.000; -701.000
391.921;  199.100;   -3.000;   15.000
392.050;  310.800; -287.000; -228.000
392.178; -132.500;-1206.000;-1061.000
392.307;  188.400; -758.000; -712.000
392.436;   77.600; -427.000; -641.000
392.564;  106.900;  166.000;   -6.000
392.693; -181.100; -860.000; -682.000
392.822;  328.600; -529.000; -534.000
392.950;   58.300; -880.000; -714.000
393.079;  502.600; -188.000; -328.000
393.208;   20.700; -488.000; -511.000
393.336;   41.300; -170.000; -145.000
393.465;  -50.000; -317.000; -199.000
393.593;   81.100;   62.000;   79.000
393.722; -251.000;-1121.000; -916.000
393.850;   -2.200; -188.000;  -61.000
393.979; -260.900; -926.000; -805.000
394.107;  -39.300; -517.000; -537.000
394.236;  -16.500; -570.000; -507.000
394.364;  533.100;  383.000;  206.000
394.493;  795.500; -911.000; -767.000
394.621;   15.500; -955.000; -916.000
394.750; 1684.400; -873.000; -923.000
394.878; 6697.500; -247.000; -149.000
395.007; 8475.800; -721.000; -807.000
395.135;  659.600; -790.000; -721.000
395.263; -137.600;-1038.000;-1040.000
395.392;   71.700;  -25.000; -107.000
395.520; -234.300; -818.000; -679.000
395.648; -211.300; -865.000; -915.000
395.777;  -34.600; -366.000; -405.000
395.905;  -59.600; -449.000; -564.000
396.033;   87.700;  217.000;  172.000
396.162; 1299.900; -399.000; -453.000
396.290; 1103.800;  -17.000;   -2.000
396.418;  179.300; -555.000; -514.000
396.546; -156.300; -571.000; -466.000
396.674; -184.100; -850.000; -878.000
396.803;   47.600;  -72.000;  -23.000
396.931;  143.000; -179.000; -199.000
397.059;    9.300;-1026.000; -989.000
397.187; -191.100;-1026.000; -975.000
397.315; -216.000; -884.000; -649.000
397.443; -151.100; -592.000; -443.000
397.572; -159.100; -578.000; -424.000
397.700;  -31.100; -607.000; -614.000
397.828;   13.300;  120.000;  -90.000
397.956;  -38.900; -508.000; -478.000
398.084;  -84.500; -767.000; -626.000
398.212;  112.200;  137.000;  124.000
398.340;   83.100;  -56.000;  159.000
398.468;   84.000; -390.000; -169.000
398.596; -256.700; -993.000; -953.000
398.724; -208.400; -762.000; -767.000
398.852; -303.800;-1024.000; -976.000
398.980;  -87.000; -560.000; -560.000
399.108; -132.000; -982.000; -735.000
399.236;  102.300;   13.000;    8.000
399.363;   73.800;  222.000;  196.000
399.491;  -97.200; -404.000; -398.000
399.619; -239.700; -829.000; -800.000
399.747; -194.400; -859.000; -771.000
399.875;  189.600;  220.000;  234.000
400.003;  -68.200; -359.000; -284.000
400.130; -120.800; -421.000; -341.000
400.258;   17.300;  -83.000;   38.000
400.386;  -91.600; -352.000; -168.000
400.514;  -57.200; -526.000; -587.000
400.641; -191.800; -928.000; -802.000
400.769; -258.700; -979.000; -888.000
400.897; -183.600; -838.000; -793.000
401.025;    4.000; -166.000; -152.000
401.152;   59.600;  220.000;   38.000
401.280; -113.400; -430.000; -429.000
401.408; -215.700; -712.000; -576.000
401.535; -179.800; -735.000; -758.000
401.663; -331.800;-1134.000;-1054.000
401.790; -163.600; -514.000; -525.000
401.918;  118.600;  436.000;  405.000
402.046;   27.400;  134.000;  122.000
402.173;  -27.400;  -18.000;    7.000
402.301;  -61.300; -519.000; -397.000
402.428;  150.200;  528.000;  383.000
402.556; -276.100;-1188.000; -913.000
402.683;   -6.200;  -20.000;   -1.000
402.811;   19.800;  -37.000; -206.000
402.938;    7.600;   20.000;   27.000
403.066;  285.200; -574.000; -558.000
403.193;  519.600;  299.000;  239.000
403.321;  398.700; -396.000; -574.000
403.448;  504.500;   83.000;   27.000
403.575;  256.200;  -90.000;  -46.000
403.703; -149.200; -732.000; -557.000
403.830;  -55.500; -531.000; -496.000
403.957; -213.500;-1117.000;-1023.000
404.085;   63.300;  -61.000; -172.000
404.212;  240.300;  -50.000;   63.000
404.339;  669.700; -566.000; -306.000
404.467;13213.800; -612.000; -524.000
404.594; 7496.600; -287.000; -227.000
404.721; 1556.400; -869.000; -764.000
404.848;  199.700; -113.000; -202.000
404.976; -167.600; -856.000; -783.000
405.103;   50.600;  -14.000;  -82.000
405.230;   22.800;  190.000;  226.000
405.357;  105.400;  117.000;   44.000
405.484;  668.300;  -49.000;    5.000
405.612;  132.100; -548.000; -563.000
405.739; -105.700; -488.000; -243.000
405.866;  231.700;  669.000;  385.000
405.993;  -57.400; -398.000; -102.000
406.120; -218.800; -801.000; -887.000
406.247;  -58.500; -323.000; -342.000
406.374;  756.500;  540.000;  629.000
406.501;  117.700; -632.000; -702.000
406.628; -114.300; -621.000; -589.000
406.755; -159.500; -803.000; -620.000
406.882;  -48.800; -228.000; -277.000
407.009; -155.800; -719.000; -628.000
407.136;   78.100; -480.000; -401.000
407.263;  149.300; -939.000; -829.000
407.390; -132.800; -692.000; -614.000
407.517; -314.300;-1139.000;-1187.000
407.644;  -83.400; -332.000; -256.000
407.771; -103.600; -249.000; -287.000
407.898;   82.100;  168.000;  328.000
408.025;  -90.700; -421.000; -313.000
408.151;   40.500;   82.000;  153.000
408.278;  -83.300; -267.000; -216.000
408.405; -197.800; -931.000; -899.000
408.532; -105.100; -549.000; -542.000
408.659; -199.900; -677.000; -648.000
408.785; -357.100;-1298.000;-1170.000
408.912; -114.000; -412.000; -296.000
409.039; -165.400; -610.000; -686.000
409.166; -159.800; -591.000; -555.000
409.292; -190.900; -571.000; -534.000
409.419; -197.100; -665.000; -649.000
409.546;  -93.000; -431.000; -192.000
409.672; -162.200; -713.000; -545.000
409.799;   21.700;  -36.000;   34.000
409.926;  -73.900; -180.000; -179.000
410.052; -309.300;-1127.000;-1091.000
410.179;  -71.900; -368.000; -392.000
410.305; -112.600; -375.000; -493.000
410.432;  -20.600; -220.000; -333.000
410.558; -152.000; -305.000; -380.000
410.685; -150.100; -688.000; -431.000
410.812; -145.700; -409.000; -588.000
410.938; -227.200; -964.000; -808.000
411.065; -165.600; -671.000; -645.000
411.191;   21.600; -189.000; -174.000
411.317; -183.000; -823.000; -742.000
411.444;  -79.700; -317.000; -246.000
411.570;  -90.900; -339.000; -294.000
411.697; -244.000; -758.000; -752.000
411.823; -295.900; -989.000; -999.000
411.949;  -11.800;  -56.000;   17.000
412.076; -145.100; -539.000; -519.000
412.202; -202.800; -758.000; -757.000
412.329; -221.400; -798.000; -752.000
412.455; -181.200; -821.000; -657.000
412.581;   35.400;  -15.000;  172.000
412.707; -107.000; -540.000; -457.000
412.834;   75.700;  156.000;  219.000
412.960; -157.100; -785.000; -784.000
413.086; -158.700; -743.000; -701.000
413.212;  332.800;  604.000;  578.000
413.339; -116.300; -685.000; -701.000
413.465;   29.000; -364.000; -310.000
413.591; -166.900; -757.000; -474.000
413.717;  -63.900; -358.000; -366.000
413.843; -245.900; -839.000; -861.000
413.969;  -55.600;  -47.000; -292.000
414.096; -151.200; -679.000; -679.000
414.222;   56.400;  -33.000;   85.000
414.348;  -26.700; -652.000; -385.000
414.474;  188.700;   38.000;  -52.000
414.600;   37.200; -126.000; -144.000
414.726;   50.000;  -96.000;  -55.000
414.852;  -80.100; -365.000; -342.000
414.978;  118.200;  104.000;  -18.000
415.104;  138.600;   38.000;   80.000
415.230;  104.000; -329.000; -330.000
415.356;  101.800; -409.000; -514.000
415.482;  479.900;   13.000;  -35.000
415.608;  668.900; -247.000; -323.000
415.734; 2190.400;   67.000;   38.000
415.860;44194.300; -875.000; -767.000
415.986;28777.200; -685.000; -607.000
416.111; 2412.800; -798.000; -652.000
416.237;  565.200; -424.000; -571.000
416.363; 2804.700; -765.000; -733.000
416.489; 8950.500; -324.000; -251.000
416.615;  912.100; -707.000; -742.000
416.741;   13.400; -677.000; -784.000
416.866; -125.900; -673.000; -736.000
416.992; -169.800; -801.000; -818.000
417.118;   -7.500;  -41.000;  -80.000
417.244; -108.600; -798.000; -531.000
417.369; -140.000; -801.000; -612.000
417.495;   79.400; -325.000; -254.000
417.621; -146.400;-1015.000; -803.000
417.746;   80.900; -579.000; -572.000
417.872;  162.200; -254.000; -144.000
417.998;  208.600; -515.000; -530.000
418.123; 2672.400;-1073.000; -845.000
418.249;11849.200; -512.000; -601.000
418.374; 1545.900; -916.000; -824.000
418.500;  318.300; -383.000; -482.000
418.626;  301.200;   70.000;  -59.000
418.751;  264.800; -549.000; -448.000
418.877;  515.400; -637.000; -643.000
419.002; 4443.800; -688.000; -560.000
419.128;27730.100; -930.000; -721.000
419.253; 6042.000; -967.000; -837.000
419.379;  844.500; -391.000; -338.000
419.504;  876.200;  325.000;  415.000
419.629; 1195.000; -393.000; -212.000
419.755; 8862.200; -317.000; -254.000
419.880;46717.900;  -98.000;   67.000
420.006;25813.400; -280.000; -221.000
420.131;60555.800; -662.000; -775.000
420.256; 7790.600; -315.000; -316.000
420.382; 1141.600; -665.000; -687.000
420.507;  160.400; -649.000; -778.000
420.632;  210.600; -337.000; -339.000
420.758;  349.900; -251.000; -425.000
420.883; -176.700; -876.000; -672.000
421.008; -162.300; -775.000; -619.000
421.133; -131.500; -509.000; -467.000
421.259;  -62.000; -325.000; -259.000
421.384; -189.600; -834.000; -693.000
421.509; -116.800;-1052.000; -862.000
421.634; 1544.500; -936.000; -820.000
421.759;  589.100; -359.000; -327.000
421.885;  -97.100; -717.000; -656.000
422.010;  -84.500; -673.000; -542.000
422.135; -218.300; -695.000; -727.000
422.260;  129.000;  340.000;  280.000
422.385;  -43.400;   12.000;  -98.000
422.510;   65.000;  151.000;  -26.000
422.635;   80.900;  -87.000;  -43.000
422.760;  208.500; -766.000; -791.000
422.885;  145.600;  -57.000;  -80.000
423.010;   22.200; -112.000; -169.000
423.135; -152.200; -481.000; -561.000
423.260;   11.900; -150.000; -245.000
423.385;  187.200;  476.000;  222.000
423.510;  127.400;   71.000;  -22.000
423.635;  177.900;  133.000;   45.000
423.760;  174.200;  383.000;  328.000
423.885;  188.600;  336.000;  391.000
424.010;   48.200;  -68.000;  -13.000
424.135;   23.700;    5.000;  -33.000
424.259; -103.200; -654.000; -457.000
424.384;  -70.100; -279.000; -272.000
424.509;   14.400; -260.000; -186.000
424.634; -144.700; -761.000; -623.000
424.759;  -10.700; -688.000; -544.000
424.883;   25.800; -506.000; -527.000
425.008;  408.000; -502.000; -410.000
425.133; 4546.100; -679.000; -653.000
425.258; 1815.200; -517.000; -381.000
425.382; 1790.100; -867.000; -774.000
425.507; 4003.200; -487.000; -543.000
425.632;  741.600; -802.000; -663.000
425.756; 1083.600; -256.000; -146.000
425.881;16480.900; -831.000; -857.000
426.006;39331.400; -604.000; -355.000
426.130; 5426.800; -696.000; -508.000
426.255;  766.700; -611.000; -491.000
426.379;  392.200; -189.000; -577.000
426.504;  894.300;  660.000;  544.000
426.629; 9071.200; -519.000; -466.000
426.753; 5569.800;   64.000;  -46.000
426.878;  773.100; -252.000; -288.000
427.002;  444.300; -651.000; -668.000
427.127; 3753.100;  -35.000; -158.000
427.251;25412.200;  372.000;  401.000
427.375; 6212.700; -191.000; -173.000
427.500; 3670.900; -616.000; -610.000
427.624; 1120.200; -234.000; -400.000
427.749;  218.000; -216.000; -225.000
427.873;  -45.600; -499.000; -412.000
427.997;  -39.900; -222.000; -230.000
428.122;  199.300;  795.000;  703.000
428.246;  191.800;  433.000;  434.000
428.371; -221.200; -869.000; -773.000
428.495; -185.200; -624.000; -646.000
428.619;  -12.500; -186.000; -117.000
428.743;   93.900;   65.000;  132.000
428.868;   50.200; -732.000; -643.000
428.992; 2179.500; -219.000; -326.000
429.116;  795.800; -329.000; -357.000
429.240;  429.600;  419.000;  426.000
429.365;   -4.700; -454.000; -574.000
429.489;  -69.700; -638.000; -647.000
429.613;   83.400; -236.000; -177.000
429.737;  133.200; -563.000; -432.000
429.861;  652.900; -247.000; -133.000
429.985;13011.200; -425.000; -305.000
430.109;12615.600; -770.000; -908.000
430.234; 1377.700;   76.000;  -50.000
430.358;  179.000; -250.000; -160.000
430.482; -109.000; -672.000; -564.000
430.606;  -96.500; -655.000; -375.000
430.730;   51.000; -437.000; -388.000
430.854;  169.300; -909.000; -835.000
430.978; -101.100; -795.000; -764.000
431.102; -139.100; -499.000; -422.000
431.226; -189.800; -874.000; -815.000
431.350;  112.500;  345.000;  422.000
431.474;  -99.600; -661.000; -373.000
431.597; -267.600;-1060.000; -848.000
431.721; -107.900; -276.000; -267.000
431.845; -196.500; -704.000; -472.000
431.969;  -91.100; -304.000; -349.000
432.093; -133.400; -395.000; -317.000
432.217;   35.000;   32.000;   82.000
432.341; -115.600; -523.000; -518.000
432.464;   50.400;   96.000;   40.000
432.588;  289.600; -401.000; -329.000
432.712;  200.900;  -52.000;  -52.000
432.836;  135.000;  213.000;  263.000
432.959;   46.100; -372.000; -311.000
433.083;  287.200;   11.000;    2.000
433.207;  935.700;  285.000;  930.000
433.330;12100.600; -391.000; -200.000
433.454;13240.500; -654.000; -638.000
433.578; 7840.500;  583.000;  278.000
433.701; 1316.500; -623.000; -675.000
433.825;  244.700; -292.000; -299.000
433.949;  289.200;   28.000;  -72.000
434.072;   54.200; -410.000; -323.000
434.196;   31.800; -309.000; -117.000
434.319; 7918.800;25482.000;25124.000
434.443; 1645.700; -656.000; -603.000
434.566; 5810.500;  281.000;   62.000
434.690;  892.400; -637.000; -383.000
434.813;  166.700; -251.000; -173.000
434.937;  -94.800; -569.000; -696.000
435.060;  -41.900; -423.000; -332.000
435.184;  399.100; -492.000; -217.000
435.307;  239.800;  159.000;  102.000
435.431;   53.800;  -40.000;   24.000
435.554; -105.600; -399.000; -240.000
435.677; -104.000; -350.000; -258.000
435.801;  -21.100;  -25.000;   49.000
435.924;   28.400;    1.000;  -67.000
436.048; -234.900;-1019.000; -732.000
436.171;  -71.600; -240.000;  -66.000
436.294;   21.200; -248.000; -229.000
436.417;  255.800; -963.000; -849.000
436.541; -104.000; -814.000; -840.000
436.664;  -62.600; -242.000; -316.000
436.787;   32.300;   13.000;  113.000
436.910; -176.600; -792.000; -422.000
437.034;   73.600;  142.000;  143.000
437.157;  129.200;  -11.000;    0.000
437.280; -105.500; -392.000; -292.000
437.403; -157.900; -982.000; -869.000
437.526;  809.800; -903.000; -865.000
437.649; 2901.200; -505.000; -332.000
437.772;  334.300; -692.000; -540.000
437.896;  237.100;  700.000;  544.000
438.019; -126.600; -758.000; -503.000
438.142; -110.200; -596.000; -506.000
438.265;  -63.700; -639.000; -670.000
438.388;  805.100; -520.000; -410.000
438.511;   92.900; -597.000; -394.000
438.634;  -66.500; -247.000; -125.000
438.757; -215.300; -693.000; -619.000
438.880;    3.200;  -34.000;  -57.000
439.003; -109.200; -417.000; -437.000
439.126;  -88.800; -287.000; -167.000
439.248;  -81.000;  -98.000; -139.000
439.371;  -21.700;    9.000;  -53.000
439.494;  118.100;  510.000;  439.000
439.617;   -9.900;   65.000;  -88.000
439.740; -289.600; -968.000; -816.000
439.863; -233.800; -755.000; -595.000
439.986; -206.300; -476.000; -431.000
440.108;  -24.000; -161.000; -112.000
440.231; -304.400; -950.000; -836.000
440.354;  -17.800;  -64.000; -150.000
440.477;   31.600; -566.000; -542.000
440.599;   19.200; -200.000; -225.000
440.722; -189.800; -709.000; -586.000
440.845;  237.200;  751.000;  928.000
440.968; -154.400; -415.000; -311.000
441.090;  -70.400; -199.000;  -33.000
441.213; -289.300;-1021.000; -825.000
441.336;  -13.100; -159.000;   -5.000
441.458; -120.800; -549.000; -396.000
441.581; -162.600; -628.000; -629.000
441.703;  -85.500; -152.000;   13.000
441.826; -155.400; -557.000; -400.000
441.948;  -42.600;   56.000;   51.000
442.071;  133.000;  555.000;  424.000
442.193; -178.100; -531.000; -485.000
442.316;  104.800;  152.000;   97.000
442.438;  154.500; -233.000;  -10.000
442.561;  154.800;  272.000;  262.000
442.683;  784.400; -809.000; -522.000
442.806; 1440.300;   -8.000;   74.000
442.928;  -76.000; -859.000; -604.000
443.051;  -81.200; -577.000; -373.000
443.173; -157.000; -341.000; -339.000
443.295; -102.100; -263.000; -371.000
443.418;  -73.200; -321.000;  -29.000
443.540;   29.500; -106.000;   -4.000
443.662; -162.800; -563.000; -465.000
443.785;   81.300;  335.000;  199.000
443.907; -192.300; -362.000; -208.000
444.029; -203.000; -767.000; -494.000
444.152; -229.000; -644.000; -554.000
444.274;  -10.400;  -18.000;  -24.000
444.396; -169.600; -461.000; -221.000
444.518; -233.100; -691.000; -454.000
444.640; -118.400; -268.000; -111.000
444.763;   18.000;  388.000;  249.000
444.885; -148.300; -432.000; -392.000
445.007;   -0.700;   35.000;   86.000
445.129; -196.100; -610.000; -515.000
445.251; -147.400; -372.000; -439.000
445.373; -229.600; -537.000; -386.000
445.495;  109.900;  242.000;  350.000
445.617;  178.000;  853.000;  753.000
445.739;  -77.700; -215.000;  -97.000
445.861;  -48.300; -245.000; -112.000
445.984;  -42.600; -267.000; -101.000
446.105;  288.400; -418.000; -251.000
446.227;  819.200; -176.000;  -19.000
446.349;  -43.500; -358.000; -249.000
446.471; -184.400; -615.000; -448.000
446.593;  -73.400; -316.000;   19.000
446.715;    2.500;  -67.000;   41.000
446.837;  199.100;  697.000;  832.000
446.959; -152.400; -457.000; -478.000
447.081; -238.200; -628.000; -518.000
447.203;  199.600;  862.000;  834.000
447.325; -107.000; -270.000;   42.000
447.446;   92.700;  286.000;  530.000
447.568; -286.200; -921.000; -803.000
447.690;  -75.400; -236.000; -245.000
447.812; -254.700; -798.000; -519.000
447.933;   23.400;  155.000;  127.000
448.055;  -58.700; -306.000; -261.000
448.177;  296.700;   31.000;   79.000
448.299;   24.400; -935.000; -727.000
448.420;   89.600;  -25.000;  159.000
448.542;  -35.600;   -3.000;   33.000
448.664;   22.100;  109.000;  322.000
448.785;   -9.700;  265.000;   83.000
448.907; -120.600; -614.000; -353.000
449.028;  -57.900; -771.000; -471.000
449.150;  183.100;  492.000;  589.000
449.272; -310.000;-1044.000; -913.000
449.393;  141.900;  612.000;  694.000
449.515; -228.300; -634.000; -581.000
449.636;  -62.300; -264.000; -155.000
449.758;  202.300;  763.000;  622.000
449.879; -120.400; -498.000; -396.000
450.001;  -92.200; -149.000;  -49.000
450.122;    9.200;  -95.000;  162.000
450.244;   27.400;   37.000;  364.000
450.365; -125.300; -495.000; -301.000
450.486;  -14.800;   80.000;  268.000
450.608;   89.900;  393.000;  326.000
450.729;  247.500;  578.000;  645.000
450.850;  101.100; -574.000; -466.000
450.972; 2001.800; -552.000; -389.000
451.093;11636.800;  190.000;  588.000
451.214; 4394.100; -516.000; -337.000
451.336;  847.400;  773.000;  579.000
451.457;  184.100;  264.000;  393.000
451.578;   -5.100; -118.000;  -74.000
451.699; -198.200; -546.000; -540.000
451.821;  -38.900; -284.000;  -50.000
451.942;   72.000;  278.000;  285.000
452.063;  186.100;  228.000;  419.000
452.184; 1432.600;  -54.000;  -49.000
452.305; 2447.000;  103.000;  170.000
452.427;  288.400; -549.000; -301.000
452.548;   36.200;   23.000;   79.000
452.669;  -50.500; -257.000;  -89.000
452.790;  -15.400;    3.000;  -18.000
452.911;   73.200;  195.000;  259.000
453.032;  -69.000; -289.000;  -60.000
453.153;  -43.200;  -29.000;   81.000
453.274;  187.400;  737.000;  868.000
453.395;  -13.600;  -51.000;  175.000
453.516;  309.800; 1317.000; 1388.000
453.637;  -58.300; -205.000; -150.000
453.758;  -82.200;   15.000;   69.000
453.879; -167.800; -462.000; -250.000
454.000;  226.900; 1086.000;  948.000
454.121; -166.500; -554.000; -326.000
454.242; -183.500; -599.000; -383.000
454.362;  -57.600;  -99.000;  114.000
454.483;   10.500; -309.000; -229.000
454.604;  175.500;  512.000;  580.000
454.725; -209.000; -627.000; -555.000
454.846; -213.100; -474.000; -406.000
454.967;   41.100;  230.000;  539.000
455.087;  -30.300;  179.000;  153.000
455.208;  142.500;  554.000;  856.000
455.329;  -65.700;  -22.000;   82.000
455.450;  182.700;  473.000;  633.000
455.570; -133.200; -234.000; -211.000
455.691;   -6.400;  201.000;  407.000
455.812; -151.000; -270.000;  -92.000
455.932;  -60.300;  107.000;  -97.000
456.053; -147.000;   36.000;   24.000
456.173; -154.900; -433.000; -355.000
456.294; -227.100; -476.000; -303.000
456.415;  -52.500;  -73.000;   70.000
456.535;   -7.200;  297.000;  273.000
456.656;   -4.900;  132.000;  240.000
456.776;  -60.700;    3.000;  298.000
456.897;   77.000;  308.000;  513.000
457.017;  -97.300; -153.000;   -3.000
457.138; -158.900; -402.000; -249.000
457.258;  -18.000;  263.000;  224.000
457.379;   29.700;  509.000;  521.000
457.499;    6.000;  443.000;  432.000
457.620; -194.300; -407.000; -231.000
457.740; -157.100; -132.000;  -11.000
457.860;  -30.300;   87.000;   44.000
457.981;   -7.400;  132.000;  124.000
458.101; -103.900;  -89.000;   40.000
458.221;   27.100;  336.000;  402.000
458.342;  -39.000;   -4.000;  -37.000
458.462;  115.100;  617.000;  352.000
458.582;   22.400; -302.000; -294.000
458.703;  120.800;  303.000;  154.000
458.823;   10.400;   22.000;  163.000
458.943;  138.800;  341.000;  467.000
459.063;   48.600; 1124.000;  192.000
459.183;    8.300;  328.000;  313.000
459.304;   90.700;  315.000;  517.000
459.424;  -43.800; -246.000;  -89.000
459.544;  863.100;  388.000;  764.000
459.664; 1867.600;  499.000;  506.000
459.784;  692.700; 1004.000; 1175.000
459.904;  206.200;  867.000;  744.000
460.024;  220.500;  867.000;  684.000
460.144;   40.100;  449.000;  554.000
460.264;   67.000;  515.000;  327.000
460.385; -156.200; -145.000; -119.000
460.505;  172.200;  905.000;  858.000
460.625; -162.100;  -17.000;  -68.000
460.745;   30.100;  396.000;  541.000
460.864;  -45.400;  153.000;  469.000
460.984;   89.900;  499.000;  573.000
461.104;  369.400; 1656.000; 1775.000
461.224;  123.800;  657.000;  650.000
461.344;    8.000;  431.000;  360.000
461.464;    7.600;  258.000;  513.000
461.584;   15.600;  283.000;  466.000
461.704;  -16.900;   58.000;  108.000
461.824;  -58.900;  238.000;  259.000
461.943;  -29.800;  191.000;  130.000
462.063;  -89.000;    2.000;  324.000
462.183;  122.100;  639.000;  717.000
462.303;  285.700; 1678.000; 1230.000
462.422;  136.400;  781.000;  840.000
462.542;    8.900;  271.000;  391.000
462.662;  140.200;  353.000;  380.000
462.782;  580.400;  833.000;  572.000
462.901; 1111.500;  545.000;  717.000
463.021;  616.900; 1702.000; 1638.000
463.141;   62.800;  337.000;  770.000
463.260;   14.500;  614.000;  474.000
463.380;   93.600;  902.000;  884.000
463.499;  -16.400;  342.000;  332.000
463.619;  -11.500;  581.000;  559.000
463.738;  321.900; 1644.000;  903.000
463.858;  107.300;  657.000;  811.000
463.978;   42.700;  542.000;  396.000
464.097;  145.900;  921.000; 1114.000
464.217;  320.800; 1196.000; 1143.000
464.336;  283.400; 1068.000; 1130.000
464.455;   -0.300;  328.000;  659.000
464.575;  147.500;  597.000;  602.000
464.694;  388.100; 1204.000; 1179.000
464.814;  359.100; 1190.000; 1138.000
464.933;  202.900; 1095.000; 1027.000
465.052;  266.100; 1412.000; 1054.000
465.172;  212.000;  922.000;  799.000
465.291;  331.000; 1376.000; 1320.000
465.410;   87.000;  462.000;  735.000
465.530;  256.300; 1355.000; 1310.000
465.649;  187.300; 1209.000; 1273.000
465.768;  376.300; 1673.000; 1508.000
465.888;  142.200;  941.000; 1174.000
466.007;  275.400; 1335.000; 1440.000
466.126;   30.800;  721.000;  641.000
466.245;  196.100; 1176.000; 1187.000
466.364;  113.900;  950.000; 1060.000
466.484;  203.400; 1024.000; 1213.000
466.603;  126.800; 1101.000; 1222.000
466.722;  298.900; 1490.000; 1769.000
466.841;  259.500; 1151.000; 1401.000
466.960;  170.600; 1069.000;  972.000
467.079;  344.600; 1971.000; 1786.000
467.198;  168.200; 1238.000; 1181.000
467.317;  271.300; 1768.000; 1162.000
467.436;  243.100; 1709.000; 1261.000
467.555;  320.000; 1796.000; 1746.000
467.674;  254.500; 1227.000; 1329.000
467.793;  175.900; 1376.000; 1374.000
467.912;  251.200; 1658.000; 1539.000
468.031;  332.700; 2038.000; 1930.000
468.150;  347.200; 1842.000; 1837.000
468.269;  497.900; 2313.000; 2090.000
468.388;  482.600; 2168.000; 2339.000
468.507;  591.900; 2884.000; 2903.000
468.626;  651.400; 2555.000; 2541.000
468.744;  342.100; 2018.000; 2174.000
468.863;  472.200; 2312.000; 2523.000
468.982;  262.300; 1503.000; 1555.000
469.101;  541.100; 2788.000; 2692.000
469.220;  369.700; 2333.000; 2176.000
469.338;  600.500; 2935.000; 3051.000
469.457;  471.300; 2719.000; 2545.000
469.576;  765.900; 3953.000; 3784.000
469.695;  590.100; 2877.000; 3066.000
469.813;  957.000; 4148.000; 4192.000
469.932;  861.700; 4255.000; 4485.000
470.051;  937.000; 4075.000; 4161.000
470.169; 1981.600; 4470.000; 4338.000
470.288; 3278.300; 4700.000; 4809.000
470.406; 1826.400; 5059.000; 5194.000
470.525; 1347.300; 6101.000; 5787.000
470.644; 1377.200; 6847.000; 6794.000
470.762; 1786.000; 8397.000; 7873.000
470.881; 1923.300; 8651.000; 8464.000
470.999; 2247.800; 9685.000; 9151.000
471.118; 2299.100;11174.000;10711.000

