
Integration time [ms]: 200.000
Averaging Nr. [scans]: 10
Smoothing Nr. [pixels]: 0
Data measured with spectrometer [name]: 2101012U2
Wave   ;Sample   ;Dark     ;Reference
[nm]   ;[counts] ;[counts] ;[counts] 

197.733;   83.900;  516.000;  404.000
197.879; -187.100; -610.000; -634.000
198.025;  -93.800; -475.000; -420.000
198.171; -144.700; -602.000; -612.000
198.317;  -84.100; -401.000; -316.000
198.463; -153.200; -655.000; -404.000
198.609;   46.700;  181.000; -137.000
198.755; -172.500; -644.000; -410.000
198.901; -132.200; -505.000; -424.000
199.047; -133.600; -615.000; -488.000
199.193;  -74.000; -230.000; -468.000
199.339;  -81.300; -222.000; -369.000
199.485;   68.600;  330.000;  271.000
199.631;   37.100;  227.000;  310.000
199.777; -127.400; -466.000; -398.000
199.923; -134.800; -610.000; -424.000
200.069;   -6.200; -141.000;  -58.000
200.215;  120.800;  128.000;  453.000
200.361;   49.900;  243.000;  477.000
200.507; -141.700; -600.000; -373.000
200.653;  -64.100; -371.000; -194.000
200.798; -100.700; -215.000; -125.000
200.944;  -19.700; -146.000;  -41.000
201.090;   41.800;   61.000;  222.000
201.236;  -24.400; -116.000; -158.000
201.382;  271.000;  874.000;  903.000
201.528;    7.000;  -58.000;  -48.000
201.674;  -70.600; -386.000; -293.000
201.819; -131.400; -540.000; -439.000
201.965; -164.400; -699.000; -447.000
202.111;  -54.400; -273.000; -226.000
202.257;  -75.300; -250.000; -238.000
202.402;   -1.100;   13.000;  -36.000
202.548;  -75.100; -169.000; -116.000
202.694;  166.400;  410.000; -183.000
202.840; -151.100; -603.000; -531.000
202.985; -178.500; -681.000; -639.000
203.131; -230.000; -832.000; -666.000
203.277;  -43.500; -199.000; -262.000
203.423; -149.600; -434.000; -520.000
203.568;  -82.300; -462.000; -237.000
203.714; -129.300; -535.000; -542.000
203.860; -187.100; -682.000; -641.000
204.005;   29.600;  112.000;  167.000
204.151;  127.000;  561.000;  556.000
204.296; -100.500; -354.000; -221.000
204.442; -132.900; -600.000; -547.000
204.588; -185.500; -592.000; -579.000
204.733;   39.600;  178.000;  168.000
204.879; -276.800;-1018.000; -822.000
205.025;   14.800;  -99.000;  126.000
205.170;    6.000;  -17.000;   94.000
205.316;  146.000;  438.000;  661.000
205.461; -169.300; -698.000; -554.000
205.607;  196.100;  609.000;  665.000
205.752; -193.700; -626.000; -551.000
205.898; -107.100; -501.000; -391.000
206.043; -119.400; -578.000; -506.000
206.189;  -84.800; -243.000; -285.000
206.334;  194.600;  554.000;  606.000
206.480;  144.600;  409.000;  239.000
206.625; -189.500; -529.000; -552.000
206.771; -116.900; -451.000; -373.000
206.916;  -73.200; -210.000; -537.000
207.062; -176.300; -545.000; -591.000
207.207; -119.700; -546.000; -443.000
207.353;   78.900;  185.000;  460.000
207.498;   16.000;  196.000;   85.000
207.643; -114.500; -501.000; -370.000
207.789; -271.300;-1069.000; -910.000
207.934; -208.700; -665.000; -713.000
208.080;  -59.700; -154.000;   66.000
208.225;  -39.300;  -22.000;  -57.000
208.370; -178.000; -727.000; -619.000
208.516; -148.400; -741.000; -487.000
208.661;  -82.500; -127.000;  -69.000
208.806;  -60.900; -165.000; -171.000
208.952; -257.300;-1044.000; -731.000
209.097;  149.200;  378.000;  349.000
209.242; -119.100; -307.000; -382.000
209.387;   83.900;  392.000;  350.000
209.533; -136.300; -321.000; -350.000
209.678;  143.200;  472.000;  543.000
209.823; -115.300; -408.000; -310.000
209.969; -233.700; -860.000; -757.000
210.114; -237.600; -907.000; -719.000
210.259; -225.800; -939.000; -889.000
210.404;  -31.400; -171.000;  103.000
210.549;   23.300;  108.000;    3.000
210.695;  -51.900;   -3.000;  -95.000
210.840;   69.800;   94.000;   67.000
210.985; -124.000; -484.000; -303.000
211.130;  120.900;  268.000;  406.000
211.275;   59.600;  207.000;  199.000
211.420; -100.600; -300.000; -289.000
211.566; -165.700; -536.000; -489.000
211.711;   50.300;  218.000;  157.000
211.856; -112.000; -545.000; -519.000
212.001;   17.300;  151.000;   44.000
212.146;   41.100;  153.000;   49.000
212.291;  -68.500; -210.000; -186.000
212.436;  -64.000; -280.000;   -6.000
212.581; -185.400; -685.000; -653.000
212.726; -142.100; -487.000; -538.000
212.871;  -88.300; -552.000; -217.000
213.016; -297.200;-1172.000;-1029.000
213.161;  137.400;  406.000;  291.000
213.306; -148.200; -435.000; -577.000
213.451; -201.900; -778.000; -689.000
213.596; -103.700; -455.000; -347.000
213.741; -100.700; -448.000; -538.000
213.886; -168.300; -498.000; -517.000
214.031;  -29.800; -294.000; -124.000
214.176; -117.500; -408.000; -341.000
214.321;  -31.000; -296.000; -157.000
214.466;  -36.600; -163.000;  -43.000
214.611;  -53.200;  -61.000;  -10.000
214.756; -254.800; -948.000; -858.000
214.901;  -70.900; -388.000; -226.000
215.046; -253.200; -797.000; -825.000
215.191;   63.800;  128.000;   35.000
215.336;  -59.000; -157.000;  -19.000
215.480; -143.700; -684.000; -505.000
215.625;  -41.500; -175.000;  -19.000
215.770; -178.500; -757.000; -662.000
215.915;    0.600;   -5.000;  -97.000
216.060;  -32.100; -113.000;  -21.000
216.205; -233.200; -731.000; -779.000
216.349; -127.300; -470.000; -533.000
216.494; -270.300; -939.000; -867.000
216.639; -249.300; -823.000; -888.000
216.784; -185.900; -577.000; -525.000
216.929;   83.300;  392.000;  281.000
217.073;    4.000; -244.000;  -31.000
217.218;   -9.700;   78.000;  -47.000
217.363; -196.000; -656.000; -618.000
217.507; -160.100; -623.000; -588.000
217.652; -267.400; -845.000; -874.000
217.797; -171.500; -708.000; -659.000
217.942; -221.200; -856.000; -720.000
218.086;  144.500;  608.000;  539.000
218.231;  -51.400; -174.000;  -26.000
218.376;  -63.200; -337.000; -229.000
218.520;    4.100;  -41.000;   96.000
218.665;  -53.700; -338.000; -204.000
218.810;  -98.300; -275.000; -233.000
218.954;   40.500;  201.000;   35.000
219.099; -226.100; -713.000; -963.000
219.243; -142.200; -589.000; -554.000
219.388;  -46.900; -264.000; -136.000
219.532;   -4.700; -116.000; -116.000
219.677; -123.600; -564.000; -521.000
219.822;    1.100;   33.000;   89.000
219.966;   21.400;   17.000;  -99.000
220.111;  -63.200; -328.000;  -40.000
220.255; -161.300; -797.000; -750.000
220.400;  -36.600; -180.000; -146.000
220.544; -138.900; -516.000; -450.000
220.689; -123.500; -422.000; -451.000
220.833;  -40.500; -123.000;  -58.000
220.978; -113.700; -393.000; -563.000
221.122;   50.500;  319.000;  307.000
221.267; -245.900; -906.000; -837.000
221.411; -148.100; -478.000; -394.000
221.555;  -28.600; -104.000;  -23.000
221.700;  -81.600; -329.000; -222.000
221.844;   54.300;  255.000;  272.000
221.989; -110.900; -328.000; -311.000
222.133;  -83.000; -289.000; -307.000
222.277;  -43.400;    5.000;   78.000
222.422;   51.900;  227.000;  113.000
222.566;  -76.800; -381.000; -214.000
222.711; -110.000; -414.000; -479.000
222.855; -179.600; -643.000; -586.000
222.999; -166.800; -642.000; -717.000
223.144;  -63.500; -195.000; -194.000
223.288;  123.000;  423.000;  251.000
223.432;   43.000;  184.000;  230.000
223.576;   22.000;  152.000;  -21.000
223.721;   86.300;  364.000;  273.000
223.865;  -92.000; -472.000; -475.000
224.009;  457.900; 1673.000; 1631.000
224.153; -165.800; -660.000; -671.000
224.298; -122.400; -531.000; -489.000
224.442;  -16.400;  -74.000;  -33.000
224.586;   -3.400; -169.000; -106.000
224.730; -214.100; -858.000; -670.000
224.875; -232.900; -739.000; -688.000
225.019;   32.600;  102.000;  188.000
225.163;   88.500;  208.000;  341.000
225.307;   25.400;   97.000;  -91.000
225.451;   93.100;  360.000;  481.000
225.595;   85.800;  264.000;  176.000
225.739;  -31.600; -170.000;  -94.000
225.884;   29.800;   86.000;    5.000
226.028; -168.100; -760.000; -626.000
226.172;  -70.000; -260.000; -273.000
226.316; -262.300; -941.000; -902.000
226.460; -124.800; -645.000; -493.000
226.604;  -88.000; -406.000; -400.000
226.748; -219.700; -836.000; -733.000
226.892;  -46.900; -227.000; -181.000
227.036;  -99.200; -537.000; -447.000
227.180; -141.300; -551.000; -375.000
227.324; -137.100; -561.000; -580.000
227.468; -234.200; -819.000; -717.000
227.612;   20.100;  242.000;  -28.000
227.756; -239.000; -845.000; -698.000
227.900;  109.500;  342.000;  441.000
228.044; -121.300; -509.000; -290.000
228.188;  122.200;  448.000;  568.000
228.332; -184.800; -546.000; -472.000
228.476;  -39.100; -223.000; -149.000
228.620;  -62.100; -210.000; -150.000
228.764;  132.900;  431.000;  349.000
228.908;  -18.800; -155.000;   30.000
229.052; -133.300; -615.000; -528.000
229.195;  -45.100; -172.000;   13.000
229.339;  -66.600; -235.000; -305.000
229.483;  -60.900;    5.000; -162.000
229.627;   15.700; -156.000;  139.000
229.771;  -86.600; -218.000; -294.000
229.915;   29.800;  230.000;   79.000
230.059; -195.300; -648.000; -663.000
230.202;  -60.200; -370.000; -317.000
230.346;  -42.200; -107.000;  107.000
230.490; -148.600; -489.000; -521.000
230.634; -202.200; -736.000; -553.000
230.777;  149.200;  478.000;  509.000
230.921;  -87.700; -450.000; -359.000
231.065;  -95.100; -246.000; -286.000
231.209;   81.400;  261.000;  265.000
231.352;   38.200;   54.000;   40.000
231.496;   35.300;  568.000;  188.000
231.640; -182.000; -693.000; -621.000
231.783;  108.700;  546.000;  525.000
231.927;  -75.500; -294.000; -365.000
232.071; -246.700; -962.000; -736.000
232.214; -238.400; -980.000; -764.000
232.358; -227.800; -683.000; -599.000
232.502;    9.000;  -19.000;    7.000
232.645; -274.800;-1090.000; -927.000
232.789;  -30.400; -257.000; -218.000
232.933; -111.000; -407.000; -224.000
233.076; -250.900;-1038.000; -897.000
233.220; -216.200; -752.000; -777.000
233.363; -170.800; -669.000; -477.000
233.507;   95.600;  371.000;  129.000
233.650; -202.300; -764.000; -834.000
233.794;  122.000;  438.000;  461.000
233.938; -133.800; -530.000; -362.000
234.081;  -28.300;  -93.000;   31.000
234.225;  -86.500; -631.000; -539.000
234.368; -227.200; -773.000; -723.000
234.512;  -79.900; -385.000; -299.000
234.655; -173.600; -582.000; -555.000
234.798; -140.400; -493.000; -466.000
234.942; -249.100; -884.000;-1002.000
235.085; -155.000; -651.000; -443.000
235.229; -151.900; -405.000; -410.000
235.372;  -90.300; -247.000; -191.000
235.516; -107.100; -397.000; -321.000
235.659;   68.700;   92.000;  121.000
235.802;  -23.200;  -38.000;  -22.000
235.946;   56.400;  335.000;  215.000
236.089;   47.000;  126.000;  250.000
236.233;  104.100;  275.000;  298.000
236.376;  -95.400; -235.000; -378.000
236.519;  -66.200; -297.000; -319.000
236.663;  -50.700; -215.000; -117.000
236.806; -276.500;-1029.000; -999.000
236.949;  129.800;  543.000;  431.000
237.092;  125.400;  412.000;  391.000
237.236; -183.200; -589.000; -502.000
237.379;  122.700;  352.000;  428.000
237.522; -223.600; -879.000; -768.000
237.666;  -26.400; -271.000;   18.000
237.809; -263.300; -851.000; -823.000
237.952;   48.400;  469.000;  271.000
238.095; -137.000; -447.000; -442.000
238.238;  188.000;  688.000;  700.000
238.382;    7.100;  166.000;  103.000
238.525; -135.600; -598.000; -511.000
238.668; -290.900;-1060.000; -985.000
238.811; -161.600; -638.000; -643.000
238.954; -133.500; -483.000; -334.000
239.097;  202.300;  617.000;  664.000
239.241;   57.700;  394.000;  326.000
239.384;  -58.100; -254.000; -214.000
239.527; -127.400; -424.000; -224.000
239.670; -308.200; -994.000;-1091.000
239.813; -230.800; -696.000; -658.000
239.956;  134.500;  579.000;  473.000
240.099; -215.200; -778.000; -725.000
240.242;  146.700;  428.000;  432.000
240.385;  100.700;  466.000;  450.000
240.528; -182.100; -706.000; -473.000
240.671;   22.200;  189.000;  134.000
240.814;  -88.600; -441.000; -158.000
240.957; -193.600; -767.000; -578.000
241.100; -185.000; -779.000; -755.000
241.243; -285.400;-1234.000; -893.000
241.386; -103.900; -508.000; -379.000
241.529; -193.300; -735.000; -547.000
241.672; -139.000; -566.000; -495.000
241.815; -264.500; -832.000; -808.000
241.958;  -64.300; -125.000; -182.000
242.101; -136.900; -545.000; -390.000
242.244;  -75.400; -270.000; -325.000
242.387;  -73.300; -304.000; -246.000
242.530;  122.000;  470.000;  134.000
242.673;  -89.700; -381.000; -309.000
242.815; -252.100; -925.000; -899.000
242.958; -134.500; -482.000; -381.000
243.101;   26.300;  132.000;  187.000
243.244; -151.000; -564.000; -521.000
243.387;  -70.500; -313.000; -316.000
243.530; -200.800; -657.000; -674.000
243.672;   -2.100;   43.000;  -92.000
243.815; -109.500; -355.000; -283.000
243.958;   22.500;   98.000;  -26.000
244.101;    2.900;   59.000;  -16.000
244.243;    2.600;  -47.000;  101.000
244.386; -246.800; -761.000; -630.000
244.529;  -80.500; -132.000; -139.000
244.672; -308.300;-1154.000; -951.000
244.814; -186.600; -621.000; -794.000
244.957;  -77.000; -380.000; -304.000
245.100; -149.800; -489.000; -489.000
245.242; -107.700; -387.000; -374.000
245.385;  -29.500;  -59.000;  -39.000
245.528; -266.000; -871.000; -705.000
245.670;  199.500;  612.000;  634.000
245.813; -163.700; -599.000; -547.000
245.956;  -78.800; -324.000; -275.000
246.098; -143.500; -508.000; -650.000
246.241;    6.600;  194.000;   48.000
246.383;  -12.300; -119.000;  -73.000
246.526; -164.000; -454.000; -525.000
246.669; -247.700; -889.000; -780.000
246.811;   38.500;  172.000;   -1.000
246.954; -118.400; -512.000; -426.000
247.096;  -36.300;  -84.000;   -6.000
247.239;  -85.000; -482.000; -445.000
247.381; -144.500; -647.000; -488.000
247.524;  146.700;  645.000;  679.000
247.666;    6.600;   58.000;   11.000
247.809; -253.500; -887.000; -691.000
247.951;  -22.200;  -75.000;  138.000
248.094;   71.700;  432.000;  308.000
248.236; -338.900;-1262.000;-1238.000
248.378;  -59.100; -356.000;  -81.000
248.521;  -40.700; -334.000; -337.000
248.663;  -64.800; -236.000; -267.000
248.806;  -47.000; -300.000; -266.000
248.948; -219.600; -886.000; -763.000
249.090; -102.400; -428.000; -398.000
249.233; -115.800; -344.000; -381.000
249.375; -103.700; -474.000; -451.000
249.518;  -14.500;  -83.000; -133.000
249.660;  -18.900; -103.000;    3.000
249.802; -335.100;-1303.000;-1189.000
249.945; -147.200; -612.000; -540.000
250.087; -220.000; -834.000; -768.000
250.229; -108.200; -362.000; -480.000
250.371; -128.500; -494.000; -439.000
250.514; -101.900; -310.000; -244.000
250.656; -138.400;   69.000;  102.000
250.798; -244.200; -849.000; -800.000
250.940; -119.800; -322.000; -322.000
251.083;  -55.300; -335.000; -111.000
251.225;  135.700;  338.000;  310.000
251.367; -104.400; -274.000; -373.000
251.509;  -74.300; -265.000; -210.000
251.651; -199.600; -731.000; -671.000
251.794;  116.900;  538.000;  632.000
251.936; -226.100; -821.000; -747.000
252.078; -143.900; -540.000; -461.000
252.220; -152.800; -645.000; -477.000
252.362;  144.800;  344.000;  462.000
252.504; -161.100; -677.000; -584.000
252.646; -241.900; -875.000; -722.000
252.788;  -17.300;   14.000; -128.000
252.931;  -93.200; -257.000; -253.000
253.073;  -93.300; -376.000; -317.000
253.215;   -9.100;  141.000;  122.000
253.357;  -14.700;   82.000; -153.000
253.499; -116.100; -374.000; -234.000
253.641; -177.100; -749.000; -594.000
253.783; -195.600; -609.000; -527.000
253.925; -171.900; -586.000; -591.000
254.067; -209.100; -744.000; -667.000
254.209;  -73.100; -391.000; -259.000
254.351; -291.500; -865.000; -883.000
254.493; -114.000; -441.000; -417.000
254.635; -231.400; -936.000; -818.000
254.777; -175.500; -752.000; -687.000
254.918; -151.700; -512.000; -430.000
255.060; -124.200; -551.000; -395.000
255.202; -113.500; -473.000; -261.000
255.344; -151.900; -658.000; -455.000
255.486; -143.300; -471.000; -406.000
255.628; -233.400; -780.000; -781.000
255.770; -175.900; -676.000; -536.000
255.912; -138.900; -559.000; -468.000
256.053; -184.300; -730.000; -508.000
256.195;  332.000; 1008.000;  903.000
256.337; -181.400; -861.000; -595.000
256.479;  118.300;  532.000;  416.000
256.621;  -96.200; -394.000; -212.000
256.762; -202.600; -789.000; -742.000
256.904;  118.700;  485.000;  487.000
257.046;  -91.200; -381.000; -271.000
257.188;  -98.200; -351.000; -264.000
257.329; -142.500; -525.000; -464.000
257.471; -245.400; -939.000; -807.000
257.613; -168.500; -584.000; -498.000
257.755; -308.500;-1073.000; -982.000
257.896;   82.000;  286.000;  392.000
258.038; -139.900; -403.000; -352.000
258.180;  -98.800; -354.000; -279.000
258.321; -142.400; -581.000; -457.000
258.463;  -17.400;  -71.000;  133.000
258.605; -176.500; -562.000; -570.000
258.746; -204.100; -886.000; -772.000
258.888; -287.800;-1026.000;-1020.000
259.029;   52.400;  121.000;   -8.000
259.171; -200.700; -614.000; -550.000
259.313;  -16.900;  -49.000;  -47.000
259.454; -170.100; -536.000; -414.000
259.596;  -91.800; -483.000; -390.000
259.737; -144.000; -590.000; -474.000
259.879;   51.600;  217.000;  311.000
260.020;  156.400;  901.000;  636.000
260.162;  -52.200; -146.000; -253.000
260.303; -237.000; -768.000; -687.000
260.445; -150.600; -609.000; -613.000
260.586;   49.200;  392.000;  157.000
260.728;  -79.100; -360.000; -248.000
260.869; -146.400; -350.000; -343.000
261.011;  198.600;  706.000;  537.000
261.152; -142.400; -479.000; -319.000
261.293; -148.300; -576.000; -595.000
261.435;  -67.600; -219.000; -184.000
261.576;  -71.300; -455.000; -325.000
261.718;  116.300;  420.000;  470.000
261.859; -240.900; -940.000; -949.000
262.000; -252.800; -951.000;-1016.000
262.142;  -46.300;  -52.000;  -60.000
262.283; -238.400; -808.000; -691.000
262.424; -177.900; -666.000; -625.000
262.566; -305.300;-1161.000; -983.000
262.707; -221.100; -840.000; -830.000
262.848; -227.700; -769.000; -726.000
262.990; -102.300; -362.000; -345.000
263.131;  148.400;  650.000;  681.000
263.272;   11.600;  -61.000;  -41.000
263.413; -198.000; -589.000; -561.000
263.555; -167.200; -669.000; -143.000
263.696; -196.200; -550.000; -641.000
263.837; -118.100; -449.000; -551.000
263.978;    5.000;   -5.000;  -77.000
264.119;  -90.800; -283.000; -264.000
264.261; -227.500; -847.000; -630.000
264.402;  -29.900;   33.000;   40.000
264.543; -139.000; -509.000; -524.000
264.684;  -12.300;   61.000;  -50.000
264.825; -137.400; -816.000; -538.000
264.966;    1.700;  -84.000;  -67.000
265.107; -231.500; -646.000; -670.000
265.248; -237.000; -825.000; -812.000
265.390;    4.100;  152.000;   -9.000
265.531;  -42.500; -238.000; -107.000
265.672; -176.200; -557.000; -630.000
265.813;  119.700;  563.000;  439.000
265.954; -302.400; -959.000; -940.000
266.095;  -56.400; -372.000; -322.000
266.236; -181.100; -686.000; -548.000
266.377;  -48.900; -243.000; -297.000
266.518; -168.100; -619.000; -547.000
266.659;   59.200;  170.000;  268.000
266.800;   25.000;   83.000;   85.000
266.941; -149.100; -487.000; -478.000
267.082;   34.600;  354.000;   99.000
267.223;  -94.800; -344.000; -273.000
267.364; -221.600; -892.000; -686.000
267.504;  -21.700;    3.000;  135.000
267.645;  -34.400;  160.000;   67.000
267.786;  -64.400; -147.000;  -86.000
267.927; -145.300; -473.000; -379.000
268.068;  -23.100; -186.000;  -61.000
268.209; -105.200; -175.000; -413.000
268.350;  -98.400; -388.000; -532.000
268.490; -144.000; -648.000; -521.000
268.631;   62.600;  127.000;  225.000
268.772; -233.400; -874.000; -647.000
268.913;  -95.800; -328.000; -476.000
269.054;   -1.500; -117.000;   12.000
269.194; -122.600; -418.000; -402.000
269.335; -310.400;-1137.000;-1074.000
269.476;  -34.700;   33.000;  -35.000
269.617;  -89.700; -347.000; -392.000
269.757; -187.300; -713.000; -646.000
269.898; -202.300; -856.000; -613.000
270.039; -125.200; -415.000; -405.000
270.180; -263.800; -952.000; -816.000
270.320;  -49.600; -190.000; -250.000
270.461;  -66.500; -277.000; -249.000
270.602;  -14.300; -186.000; -156.000
270.742; -241.000; -868.000; -943.000
270.883; -112.800; -442.000; -390.000
271.023; -104.000; -358.000; -357.000
271.164; -149.100; -607.000; -528.000
271.305; -177.200; -666.000; -654.000
271.445; -165.500; -722.000; -683.000
271.586; -121.100; -462.000; -283.000
271.726;  -74.200; -397.000; -322.000
271.867; -153.000; -594.000; -534.000
272.008;  135.600; -473.000; -285.000
272.148;  161.500;  462.000;  468.000
272.289;   17.000; -113.000; -181.000
272.429;   26.400;   19.000;  185.000
272.570; -198.200; -633.000; -737.000
272.710; -195.100; -825.000; -775.000
272.851;  -26.900;  113.000; -130.000
272.991; -328.400;-1173.000;-1077.000
273.131; -132.900; -419.000; -459.000
273.272; -224.100; -683.000; -723.000
273.412;  -10.900; -143.000;  -31.000
273.553; -107.700; -488.000; -507.000
273.693;  258.500;  913.000;  858.000
273.834; -231.000; -894.000; -692.000
273.974; -150.500; -664.000; -615.000
274.114; -201.700; -772.000; -560.000
274.255;  100.500;  414.000;  373.000
274.395;  -47.800; -180.000; -125.000
274.535;   79.700;  199.000;  350.000
274.676;   33.600;  225.000;   94.000
274.816;   29.600;  110.000;   34.000
274.956; -154.900; -624.000; -690.000
275.097; -200.700;-1014.000; -922.000
275.237; -250.900; -913.000; -803.000
275.377; -205.400; -778.000; -689.000
275.517; -291.000; -878.000; -937.000
275.658; -164.100; -590.000; -555.000
275.798; -151.700; -606.000; -413.000
275.938;   44.300;  215.000;  323.000
276.078; -201.400; -626.000; -395.000
276.218;   20.800;   99.000;  104.000
276.359; -274.600;-1026.000;-1024.000
276.499; -145.700; -605.000; -446.000
276.639;  -41.800; -305.000; -151.000
276.779; -111.200; -475.000; -357.000
276.919; -204.300; -783.000; -624.000
277.059;  -44.400; -261.000; -212.000
277.199;  -69.400; -357.000; -259.000
277.340;  115.300;  287.000;  175.000
277.480; -231.700; -840.000; -693.000
277.620;   82.000;  192.000;   16.000
277.760; -399.300;-1533.000;-1294.000
277.900;    1.200;  113.000;   33.000
278.040;   40.400;  137.000;  159.000
278.180;   89.500;  270.000;  170.000
278.320;   10.900;   21.000;   56.000
278.460; -153.900; -443.000; -469.000
278.600; -178.500; -708.000; -598.000
278.740;  108.200;  448.000;  224.000
278.880; -186.900; -768.000; -791.000
279.020;   24.700; -194.000; -144.000
279.160; -189.900; -672.000; -595.000
279.300; -237.300; -926.000; -873.000
279.440; -180.700; -709.000; -622.000
279.579; -143.300;-1014.000; -929.000
279.719; -110.000; -410.000; -394.000
279.859;   68.800;   -4.000;   41.000
279.999;    8.600; -208.000;  101.000
280.139;  -69.400; -435.000; -387.000
280.279; -175.000; -708.000; -745.000
280.419;  -18.400; -229.000; -147.000
280.559;  -79.700; -259.000; -180.000
280.698; -211.200; -790.000; -639.000
280.838; -210.400; -778.000; -800.000
280.978; -206.900; -846.000; -790.000
281.118; -218.600; -811.000; -704.000
281.257;   -5.000;   24.000;    6.000
281.397; -276.100;-1094.000; -960.000
281.537; -181.900; -599.000; -712.000
281.677;    5.400; -150.000; -101.000
281.816; -158.300; -700.000; -630.000
281.956;  -48.400; -193.000; -257.000
282.096; -130.800; -539.000; -396.000
282.235; -207.500; -672.000; -638.000
282.375;  -26.200; -243.000;  -98.000
282.515; -178.000; -715.000; -707.000
282.654;   36.200;   29.000;  106.000
282.794;   78.300;  388.000;  244.000
282.934; -126.300; -530.000; -491.000
283.073; -253.100;-1030.000; -857.000
283.213;  -97.600; -460.000; -467.000
283.353; -101.000; -408.000; -349.000
283.492;  -58.600; -264.000; -296.000
283.632;  -72.300; -254.000; -168.000
283.771; -194.800; -859.000; -730.000
283.911; -112.000; -369.000; -260.000
284.050; -206.000; -794.000; -748.000
284.190; -306.600;-1229.000;-1096.000
284.329; -307.200;-1055.000; -964.000
284.469; -124.000; -516.000; -591.000
284.608; -107.500; -559.000; -598.000
284.748; -157.200; -614.000; -570.000
284.887;   25.200;  -87.000;  -20.000
285.027; -221.700; -844.000; -892.000
285.166;  -62.000; -192.000; -249.000
285.306;    5.600; -116.000;  -33.000
285.445;  -39.200; -229.000; -343.000
285.584; -170.400; -630.000; -494.000
285.724;  -81.900; -282.000; -322.000
285.863; -219.700; -857.000; -507.000
286.002;  -86.900; -366.000; -276.000
286.142; -205.300; -715.000; -622.000
286.281; -139.100; -525.000; -493.000
286.420; -159.700; -554.000; -417.000
286.560;  186.900;  653.000;  623.000
286.699; -269.300; -958.000; -912.000
286.838; -180.800; -590.000; -591.000
286.978; -191.200; -533.000; -537.000
287.117; -255.700;-1085.000; -950.000
287.256;  -62.000; -228.000; -211.000
287.395; -105.600; -197.000; -378.000
287.535;  -86.600; -370.000; -298.000
287.674; -171.100; -509.000; -484.000
287.813;  139.800;  661.000;  533.000
287.952; -259.600;-1010.000; -871.000
288.091; -313.600;-1049.000; -915.000
288.231;   21.600;   13.000;   15.000
288.370; -340.800;-1217.000;-1200.000
288.509; -143.300; -728.000; -645.000
288.648; -178.200; -770.000; -548.000
288.787;  -46.100; -243.000;  -87.000
288.926; -133.300; -454.000; -475.000
289.065;  238.900;  859.000;  672.000
289.204; -112.400; -377.000; -217.000
289.344; -190.200; -791.000; -690.000
289.483;   65.400;  416.000;  304.000
289.622;  -40.400; -291.000; -149.000
289.761;  -12.600; -309.000; -166.000
289.900; -218.300; -785.000; -626.000
290.039;  -38.700;  -12.000;  -95.000
290.178;  -47.000; -274.000; -180.000
290.317; -151.400; -618.000; -479.000
290.456; -129.600; -463.000; -451.000
290.595; -277.700; -961.000; -833.000
290.734; -278.700; -904.000; -891.000
290.873; -135.800; -456.000; -420.000
291.011; -237.800; -833.000; -843.000
291.150; -196.900; -770.000; -682.000
291.289;  -36.000; -343.000; -110.000
291.428; -197.000; -599.000; -480.000
291.567;  -90.100; -370.000; -442.000
291.706;   10.400;  109.000;  154.000
291.845; -171.700; -597.000; -505.000
291.984; -340.800;-1234.000;-1061.000
292.122;  136.100;  602.000;  582.000
292.261;   98.300;  620.000;  463.000
292.400;  -24.500; -144.000;  211.000
292.539; -251.500; -959.000; -813.000
292.678;  -66.400; -325.000; -300.000
292.816; -331.400;-1136.000; -965.000
292.955; -187.500; -844.000; -684.000
293.094;  -49.500; -173.000; -337.000
293.233;  -72.400; -556.000; -400.000
293.371;  -78.100; -225.000;  -84.000
293.510; -216.100; -866.000; -780.000
293.649; -250.700; -959.000; -924.000
293.787; -248.300;-1083.000;-1012.000
293.926;  -50.000; -113.000;  -32.000
294.065; -101.900; -379.000; -290.000
294.203;   95.600;  298.000;  406.000
294.342;   40.000;   74.000;  156.000
294.481;11101.400;51180.000; -836.000
294.619;  -90.000; -425.000; -582.000
294.758; -329.600;-1230.000;-1137.000
294.896;   78.700; -125.000;    5.000
295.035; -285.700;-1040.000;-1006.000
295.174; -271.900;-1082.000; -954.000
295.312;  -85.400; -323.000; -203.000
295.451;  -98.700; -307.000; -428.000
295.589; -140.200; -389.000; -518.000
295.728;   40.300; -292.000; -165.000
295.866;   -6.700;  -36.000;  -51.000
296.005; -150.800; -584.000; -341.000
296.143; -155.700; -558.000; -596.000
296.282; -207.400; -957.000; -881.000
296.420; -182.000; -657.000; -557.000
296.559; -174.800; -892.000; -633.000
296.697;  -91.900; -847.000; -665.000
296.835;  -95.400;-1141.000;-1002.000
296.974;   71.700;  -23.000;   39.000
297.112;  -37.000; -443.000; -504.000
297.251; -206.100; -815.000; -755.000
297.389;   20.400; -576.000; -438.000
297.527;   31.700; -145.000;  -83.000
297.666; -101.400; -486.000; -438.000
297.804; -115.000; -404.000; -264.000
297.942;    0.900; -136.000; -161.000
298.081;   -1.500; -183.000;   63.000
298.219;  111.300;  -17.000;  -19.000
298.357;   32.300; -144.000;  -71.000
298.495;  -74.600; -810.000; -812.000
298.634;   83.900;  245.000;  219.000
298.772;   25.700; -220.000; -338.000
298.910; -105.400; -309.000; -182.000
299.048;  -13.200; -130.000; -153.000
299.187;  -31.000; -350.000; -250.000
299.325;   13.900;   52.000;  122.000
299.463;  -29.600; -389.000; -299.000
299.601;   77.900; -327.000; -271.000
299.739; -253.100; -908.000; -883.000
299.877; -179.400; -791.000; -703.000
300.016; -203.700;-1095.000; -935.000
300.154;  143.100;  -19.000; -161.000
300.292;  -26.900; -428.000; -348.000
300.430;  -18.300; -408.000; -291.000
300.568; -250.900; -940.000; -874.000
300.706; -117.500; -366.000; -469.000
300.844; -237.600;-1108.000; -979.000
300.982;  161.200;  246.000;  282.000
301.120; -259.900; -965.000; -866.000
301.258; -162.500; -812.000; -705.000
301.396;   46.600;  104.000;  -41.000
301.534;   61.300; -218.000; -293.000
301.672;  -85.000; -664.000; -521.000
301.810;  -62.800; -613.000; -545.000
301.948;  192.400;   53.000;  149.000
302.086;  541.500; -250.000;  -32.000
302.224;  831.300; -610.000; -585.000
302.362;  -40.100; -558.000; -622.000
302.500; -142.800; -923.000; -893.000
302.638;  121.900;  128.000;  245.000
302.776;  -15.400; -352.000; -408.000
302.913;   99.400;  447.000;  236.000
303.051;  -21.000;  -86.000;  -23.000
303.189;   54.800;   90.000;  118.000
303.327; -104.900; -341.000; -256.000
303.465; -168.000; -832.000; -588.000
303.603; -172.600; -805.000; -604.000
303.740;  134.800;  417.000;  241.000
303.878;  -99.500; -800.000; -759.000
304.016; -174.100; -915.000; -790.000
304.154; -299.000;-1123.000;-1152.000
304.291;  -85.900; -505.000; -554.000
304.429;   26.600;  102.000;   74.000
304.567; -272.000; -908.000; -893.000
304.705; -111.900; -408.000; -515.000
304.842;    3.800; -616.000; -540.000
304.980;   74.500;  215.000;   35.000
305.118;   -1.900; -367.000; -365.000
305.255; -201.500; -945.000; -927.000
305.393;  109.300;  178.000;  239.000
305.531; -221.100;-1173.000; -956.000
305.668; -146.600; -663.000; -582.000
305.806;   61.100; -358.000; -439.000
305.943;    6.600; -629.000; -637.000
306.081;    6.900; -378.000; -267.000
306.219; -199.600; -863.000; -748.000
306.356;   61.300;  158.000;   27.000
306.494;  286.200;  981.000;  761.000
306.631;    6.000;  -11.000;  -55.000
306.769;  -20.900; -613.000; -485.000
306.906;  -32.700; -284.000; -258.000
307.044;  -74.100; -473.000; -488.000
307.181;  -95.600; -410.000; -332.000
307.319;   59.000;  112.000;   87.000
307.456; -326.100;-1191.000;-1153.000
307.594; -229.600; -980.000; -727.000
307.731;    0.800; -371.000; -164.000
307.868;   33.600;  -15.000;   20.000
308.006; -267.500; -961.000; -847.000
308.143; -131.000; -618.000; -330.000
308.281;  170.900;  -37.000; -254.000
308.418;  -77.200; -748.000; -640.000
308.555; -118.600; -400.000; -250.000
308.693; -112.300; -577.000; -573.000
308.830; -214.200; -712.000; -657.000
308.967;   -3.700; -215.000;  -95.000
309.105;  -67.100; -507.000; -396.000
309.242;   26.300; -468.000; -367.000
309.379;  353.100; -577.000; -655.000
309.517; -179.900; -936.000; -948.000
309.654; -193.400; -910.000; -734.000
309.791; -138.400; -662.000; -580.000
309.928; -222.500; -977.000; -914.000
310.065;  300.100;  819.000;  697.000
310.203; -137.100; -825.000; -850.000
310.340;  -40.500; -465.000; -321.000
310.477; -148.600; -412.000; -516.000
310.614; -128.400; -383.000; -473.000
310.751; -114.800; -427.000; -518.000
310.889;  -29.700;    1.000;   11.000
311.026; -300.900;-1161.000; -939.000
311.163;  -97.000; -386.000; -380.000
311.300; -144.500; -512.000; -479.000
311.437; -131.100; -658.000; -619.000
311.574; -292.800;-1226.000; -985.000
311.711; -123.000; -595.000; -433.000
311.848;  -71.800; -380.000; -388.000
311.985;   26.500;  270.000;   93.000
312.122; -253.800; -932.000; -762.000
312.259; -211.700; -941.000; -994.000
312.396; -123.400; -508.000; -551.000
312.533; -178.600; -812.000; -790.000
312.670; -229.100;-1070.000; -898.000
312.807;  -26.300; -352.000; -367.000
312.944; -142.200; -513.000; -611.000
313.081;  -47.100; -150.000; -415.000
313.218; -235.500;-1111.000; -867.000
313.355;  -22.400; -531.000; -449.000
313.492;  -27.700; -455.000; -292.000
313.629;  258.100;  815.000;  735.000
313.766; -332.900;-1176.000;-1008.000
313.902;   17.100; -186.000;   21.000
314.039;  -85.100; -372.000; -289.000
314.176;   68.000;  286.000;  192.000
314.313; -140.000; -569.000; -473.000
314.450; -143.000; -788.000; -684.000
314.587; -123.000; -468.000; -480.000
314.723;   20.300;  -78.000;  130.000
314.860;   65.900;  318.000;  332.000
314.997;   52.700;  223.000;  142.000
315.134;  -64.200; -385.000; -368.000
315.270;  -90.100; -480.000; -496.000
315.407; -257.300;-1094.000; -967.000
315.544; -111.800; -657.000; -538.000
315.681; -150.400; -681.000; -565.000
315.817;   14.500; -133.000; -176.000
315.954;  -82.200; -613.000; -392.000
316.091; -262.800;-1045.000;-1023.000
316.227;  -25.600;  -71.000; -179.000
316.364;   19.400;   23.000;    6.000
316.500;  -11.400; -113.000; -300.000
316.637;  -52.200; -181.000; -302.000
316.774; -149.900; -625.000; -358.000
316.910; -158.200; -598.000; -629.000
317.047; -129.400; -487.000; -351.000
317.183;  -82.300; -435.000; -566.000
317.320;  -66.100; -367.000; -321.000
317.456; -172.100; -733.000; -805.000
317.593; -164.000; -598.000; -641.000
317.729;   14.700;  168.000;  -67.000
317.866; -404.100;-1434.000;-1285.000
318.002; -187.100; -708.000; -948.000
318.139; -214.900; -883.000; -867.000
318.275; -204.000;-1003.000; -738.000
318.412; -138.600; -517.000; -336.000
318.548; -108.800; -751.000; -720.000
318.685; -190.700; -985.000; -888.000
318.821; -171.800; -762.000; -735.000
318.957;  -32.800;   34.000;  -23.000
319.094;   95.200;  297.000;  154.000
319.230; -176.300; -756.000; -742.000
319.367;   84.600; -471.000; -520.000
319.503;   25.800; -538.000; -436.000
319.639; -198.400; -877.000; -793.000
319.775; -163.100; -750.000; -685.000
319.912; -101.600; -424.000; -519.000
320.048; -271.000;-1184.000;-1184.000
320.184;   98.200;   59.000;   70.000
320.321;  -92.700; -497.000; -467.000
320.457;  151.100;  475.000;  662.000
320.593; -116.900; -375.000; -382.000
320.729; -176.000; -732.000; -734.000
320.866; -153.600; -577.000; -635.000
321.002; -177.700; -759.000; -809.000
321.138;  -87.600; -135.000; -211.000
321.274;   68.500; -148.000; -115.000
321.410;  -98.900; -585.000; -353.000
321.546; -149.900;-1011.000; -911.000
321.683;   85.700;  400.000;  185.000
321.819;   10.600;  -48.000; -117.000
321.955; -211.800; -743.000; -722.000
322.091; -114.500; -585.000; -540.000
322.227;  -29.900; -382.000; -202.000
322.363;  -42.600; -320.000; -215.000
322.499;  -77.600; -343.000; -331.000
322.635;  233.100;  636.000;  443.000
322.771;   19.900; -139.000;   12.000
322.907;  150.200;  129.000;  327.000
323.043;  -35.400; -115.000; -206.000
323.179;  -80.700; -394.000; -363.000
323.315;  -58.900; -401.000; -371.000
323.451;   46.500; -328.000; -236.000
323.587;   27.100;  -60.000;  -77.000
323.723;  -47.500; -682.000; -601.000
323.859;  -31.500; -258.000;  -76.000
323.995;  -75.800; -467.000; -409.000
324.131; -230.200; -967.000; -892.000
324.267;  -40.300; -254.000; -276.000
324.402; -281.400; -960.000; -983.000
324.538;  -42.100; -279.000; -104.000
324.674;   68.000;  164.000;   77.000
324.810;  194.700;  226.000;  308.000
324.946;    3.300; -810.000; -658.000
325.082; -126.000; -568.000; -475.000
325.217;    2.900;  -62.000;   16.000
325.353; -175.600; -764.000; -659.000
325.489; -177.500; -540.000; -506.000
325.625; -119.200; -579.000; -525.000
325.760;  117.300;  517.000;  376.000
325.896;  -85.800; -515.000; -702.000
326.032;  -68.100; -403.000; -352.000
326.168; -115.800; -462.000; -369.000
326.303;  -88.500; -352.000; -461.000
326.439;  -50.500; -336.000; -276.000
326.575;  -32.400; -190.000;  -29.000
326.710;   -8.200; -156.000;  -30.000
326.846;  -32.400;  146.000;  103.000
326.982; -160.900; -530.000; -548.000
327.117; -144.300; -481.000; -442.000
327.253; -170.600; -745.000; -742.000
327.388; -349.000;-1137.000;-1153.000
327.524; -116.900; -811.000; -578.000
327.659;  -28.300;  -58.000;  -22.000
327.795;    1.900;   69.000;   45.000
327.931; -136.200; -723.000; -499.000
328.066;  -39.400; -417.000; -276.000
328.202;  -66.800;   12.000; -129.000
328.337;  236.300;  957.000;  713.000
328.473;  -25.100;  -12.000;  -74.000
328.608;  -19.900; -256.000; -267.000
328.743; -174.900; -799.000; -664.000
328.879;   38.700;  214.000;  114.000
329.014; -113.300; -102.000; -122.000
329.150; -169.500; -358.000; -483.000
329.285; -158.900; -465.000; -466.000
329.421;  -86.400; -548.000; -246.000
329.556;  -44.200;  -36.000;   85.000
329.691; -185.300; -633.000; -615.000
329.827; -156.300; -626.000; -480.000
329.962;  -68.300;  131.000; -301.000
330.097; -181.300; -673.000; -585.000
330.233;  -71.600; -410.000; -223.000
330.368; -222.900; -839.000; -628.000
330.503;   -7.600;    3.000;   98.000
330.638;   13.500;  -93.000; -125.000
330.774; -128.500; -609.000; -530.000
330.909;  -59.500; -434.000; -244.000
331.044; -187.100; -714.000; -708.000
331.179; -337.500;-1217.000;-1109.000
331.315;   45.500;   77.000;   20.000
331.450;   22.100;  157.000;  285.000
331.585; -159.100; -805.000; -706.000
331.720; -118.800; -510.000; -460.000
331.855;   -3.000;  -35.000; -102.000
331.990;  172.000;   62.000;  138.000
332.126;   94.000; -110.000;   71.000
332.261;  -99.000; -379.000; -265.000
332.396;  -33.900; -135.000; -242.000
332.531; -259.900;-1074.000;-1031.000
332.666;  -59.600; -519.000; -363.000
332.801; -194.700; -726.000; -807.000
332.936;  -34.300; -192.000; -122.000
333.071; -295.400; -870.000; -817.000
333.206;   24.300;  307.000;  379.000
333.341;  117.000;  344.000;  418.000
333.476; -188.500; -627.000; -623.000
333.611;  -34.100; -251.000; -173.000
333.746; -104.000; -381.000; -464.000
333.881; -232.500; -973.000; -935.000
334.016; -248.200; -936.000; -917.000
334.151; -236.200; -746.000; -702.000
334.286;   53.800;  152.000;  186.000
334.421;  -26.800; -125.000; -178.000
334.556; -126.000; -611.000; -567.000
334.690; -207.500; -631.000; -577.000
334.825;  119.500;  381.000;   83.000
334.960; -129.100; -285.000; -413.000
335.095;   19.600;  135.000;  -91.000
335.230; -230.600; -722.000; -738.000
335.365; -263.900;-1084.000; -990.000
335.499; -292.900;-1108.000;-1037.000
335.634;   30.200;    9.000;  534.000
335.769; -239.400; -755.000; -720.000
335.904; -157.800; -603.000; -561.000
336.038; -172.600; -735.000; -657.000
336.173; -283.600;-1206.000;-1194.000
336.308;  -64.300; -116.000; -189.000
336.443;  -20.500; -544.000; -634.000
336.577; -215.200; -936.000; -787.000
336.712;   47.200;   -4.000;  -12.000
336.847; -176.200; -724.000; -607.000
336.981;    1.700; -272.000; -208.000
337.116;  301.800;  615.000;  501.000
337.250;   89.100; -434.000; -421.000
337.385;  164.800; -297.000; -208.000
337.520;  -21.400; -632.000; -603.000
337.654;  -63.100; -215.000; -126.000
337.789; -248.900; -989.000; -933.000
337.923;  -49.300; -104.000; -205.000
338.058; -200.300; -673.000; -738.000
338.192; -126.500; -611.000; -488.000
338.327;    2.400;  -18.000; -155.000
338.461; -141.300; -299.000; -469.000
338.596; -177.600; -780.000; -638.000
338.730; -197.100; -767.000; -803.000
338.865;   86.100;  -46.000; -140.000
338.999; -171.000; -846.000; -702.000
339.134; -120.600; -634.000; -536.000
339.268;  -90.100; -741.000; -603.000
339.403;  182.300; -740.000; -775.000
339.537;  -26.400; -894.000; -820.000
339.671; -228.500; -829.000; -813.000
339.806; -123.100; -556.000; -512.000
339.940;   -8.900; -261.000; -235.000
340.074; -193.000; -685.000; -510.000
340.209;  -85.900; -351.000; -230.000
340.343; -174.100; -517.000; -573.000
340.477;  305.200;  998.000; 1036.000
340.612; -192.000;-1033.000; -900.000
340.746;   90.100; -199.000; -243.000
340.880; -180.500; -924.000; -785.000
341.014;  -15.800;  -45.000; -154.000
341.149; -209.000; -756.000; -718.000
341.283; -206.300; -839.000; -754.000
341.417; -228.000;-1124.000; -938.000
341.551;   30.700; -768.000; -708.000
341.685; -100.100; -633.000; -611.000
341.820; -115.600; -562.000; -493.000
341.954;  -98.600; -218.000; -349.000
342.088; -322.500;-1102.000;-1019.000
342.222;   99.600;  565.000;  618.000
342.356; -114.700; -395.000; -335.000
342.490; -202.800; -880.000; -841.000
342.624;  -78.400; -339.000; -242.000
342.758;  -61.800; -364.000; -312.000
342.892; -161.100; -710.000; -585.000
343.026;  -41.100;  -58.000; -116.000
343.160; -107.800; -426.000; -376.000
343.294; -139.400; -474.000; -337.000
343.428;  -63.400; -488.000; -448.000
343.562;  -23.900; -172.000;  -23.000
343.696;  -48.200; -385.000; -314.000
343.830;  -70.300; -362.000; -356.000
343.964;   13.800; -231.000; -168.000
344.098;  949.500;  199.000;   70.000
344.232;  825.600; -266.000; -127.000
344.366;  -14.000; -567.000; -453.000
344.500;   -7.500; -665.000; -744.000
344.634;    8.600; -324.000; -164.000
344.768;  -30.200; -531.000; -341.000
344.902;   41.100;  278.000;  256.000
345.035; -131.600; -556.000; -496.000
345.169; -285.600; -933.000; -656.000
345.303;  -92.300; -308.000; -482.000
345.437; -165.900; -826.000; -717.000
345.571; -175.000; -675.000; -594.000
345.704; -133.700; -309.000; -532.000
345.838;  -20.100; -331.000; -284.000
345.972; -122.100; -543.000; -495.000
346.106;  127.000; -179.000; -190.000
346.239;  335.700; -312.000; -243.000
346.373;  -42.100; -343.000; -302.000
346.507; -276.700; -950.000; -962.000
346.640;  157.800;  -30.000;   13.000
346.774; -167.900; -650.000; -797.000
346.908;    8.700; -138.000;  -11.000
347.041; -174.100; -646.000; -593.000
347.175;   42.900;  259.000;   27.000
347.309; -168.800; -698.000; -628.000
347.442; -247.600; -883.000; -732.000
347.576;  375.800;  670.000;  668.000
347.709;  201.000; -123.000;  -52.000
347.843; -219.000; -933.000; -825.000
347.976;   76.000;  235.000;  294.000
348.110; -339.800;-1268.000;-1186.000
348.243; -203.000; -679.000; -772.000
348.377;   40.700;  -26.000;   60.000
348.510;  135.200;  403.000;  540.000
348.644;  -73.200;  -37.000; -159.000
348.777;   17.800;  180.000;  191.000
348.911;  -59.900; -142.000; -112.000
349.044;  236.100;  471.000;  448.000
349.178;   36.200;-1069.000;-1006.000
349.311;  150.200;  141.000;  255.000
349.444; -154.700; -927.000; -813.000
349.578;  -30.900; -347.000; -200.000
349.711; -219.400; -959.000; -862.000
349.845;  -99.400; -661.000; -591.000
349.978; -319.100;-1224.000;-1137.000
350.111; -160.400; -546.000; -612.000
350.244; -154.500; -596.000; -700.000
350.378;  -42.900; -392.000; -393.000
350.511; -139.900; -393.000; -426.000
350.644; -196.600; -808.000; -806.000
350.778;   20.400;  168.000;  104.000
350.911;   11.400;  134.000;  140.000
351.044; -204.800; -685.000; -615.000
351.177;  -70.000; -321.000; -281.000
351.310;   13.900;    3.000; -131.000
351.444; -191.000; -888.000; -788.000
351.577;  154.400;  140.000;   90.000
351.710;  222.100;  593.000;  417.000
351.843;  -27.700; -165.000;  -77.000
351.976;   35.900;  149.000;  -79.000
352.109; -185.000; -621.000; -612.000
352.242;  -92.700; -464.000; -419.000
352.376; -163.600; -580.000; -636.000
352.509;  119.500; -437.000; -356.000
352.642; -153.000; -654.000; -604.000
352.775;   38.900; -141.000;  -98.000
352.908; -248.600; -933.000; -904.000
353.041; -209.400; -814.000; -824.000
353.174; -129.100; -551.000; -424.000
353.307; -191.000; -753.000; -764.000
353.440;  146.500;  541.000;  453.000
353.573; -243.700; -957.000;-1008.000
353.706; -172.700; -384.000; -558.000
353.839;  -44.500; -264.000; -220.000
353.971; -178.000; -657.000; -512.000
354.104; -179.200; -896.000; -835.000
354.237; -137.900; -627.000; -662.000
354.370; -188.800; -846.000; -879.000
354.503; -342.000;-1231.000;-1308.000
354.636;  -81.200; -529.000; -348.000
354.769; -256.100; -937.000; -860.000
354.902;  -59.700; -230.000; -139.000
355.034;  -33.900; -164.000; -220.000
355.167;  -37.000; -262.000; -162.000
355.300; -271.900;-1061.000; -880.000
355.433;  791.900;  -71.000;  -14.000
355.565; 1040.700; -402.000; -384.000
355.698;  266.900; -356.000; -296.000
355.831; -136.700; -882.000; -801.000
355.964;   46.400; -285.000; -170.000
356.096; -198.400; -856.000; -843.000
356.229;  -81.600; -523.000; -530.000
356.362;  213.700; -373.000; -266.000
356.494;  448.200; -229.000; -162.000
356.627;  501.300;  269.000;  377.000
356.760;  544.600;  120.000;   53.000
356.892;  646.700; -286.000; -601.000
357.025;  648.500;  403.000;  389.000
357.157;  544.200; -167.000; -179.000
357.290;  471.000; -856.000; -713.000
357.423;   45.600; -667.000; -556.000
357.555;  109.700; -217.000; -228.000
357.688;   32.500; -483.000; -364.000
357.820;  326.700; -870.000; -877.000
357.953; 3531.900; -563.000; -589.000
358.085;  690.500; -632.000; -612.000
358.218;  947.600;-1131.000; -932.000
358.350;  182.000;  -58.000;  312.000
358.483; -310.100;-1300.000;-1187.000
358.615; -173.400;-1182.000;-1078.000
358.747; -227.800;-1187.000;-1058.000
358.880;  -76.500; -810.000; -744.000
359.012;  -52.300; -376.000; -202.000
359.145; -142.700; -480.000; -511.000
359.277;  -78.700; -962.000; -913.000
359.409; 3081.800;  536.000;  231.000
359.542;  672.700; -738.000; -688.000
359.674;   88.700;   46.000;   13.000
359.806; -123.100; -565.000; -438.000
359.939;  -78.800; -617.000; -516.000
360.071;  -88.000; -583.000; -579.000
360.203;  -63.100; -411.000; -364.000
360.335;   66.500;  164.000;  -16.000
360.468;  141.100; -249.000; -307.000
360.600; 2315.900; -547.000; -454.000
360.732; 2220.700; -546.000; -423.000
360.864;  119.800;-1216.000;-1044.000
360.996;  231.400; -516.000; -554.000
361.129;  -39.100; -389.000; -598.000
361.261;   28.700;  110.000; -113.000
361.393;  -71.200; -252.000; -214.000
361.525;   88.000;   94.000;  244.000
361.657; -113.600; -821.000; -703.000
361.789;   -2.800; -139.000; -155.000
361.921;  143.100; -642.000; -593.000
362.053;  333.500;  524.000;  541.000
362.185;   87.800;  288.000;   72.000
362.318; -173.900; -709.000; -705.000
362.450;  173.000;  294.000;  444.000
362.582;   22.000; -913.000; -870.000
362.714;  -85.300; -353.000; -332.000
362.846; -140.500; -606.000; -490.000
362.978; -268.500; -941.000; -811.000
363.109;   31.400; -161.000; -260.000
363.241;  323.700; -739.000; -749.000
363.373;  244.700; -649.000; -564.000
363.505;  522.800; -186.000;  -91.000
363.637;   42.000; -787.000; -601.000
363.769; -274.300;-1067.000;-1080.000
363.901; -143.500; -596.000; -654.000
364.033; -300.800;-1103.000;-1062.000
364.165;   -7.700; -283.000; -283.000
364.296;   24.000; -316.000; -177.000
364.428; -158.300;-1344.000;-1220.000
364.560; -168.700; -679.000; -661.000
364.692; -141.400; -738.000; -835.000
364.824;  192.900; -588.000; -456.000
364.955;  321.900; -402.000; -564.000
365.087;  562.400;-1097.000; -852.000
365.219;  -83.000; -686.000; -816.000
365.351; -147.300; -526.000; -572.000
365.482;  130.400;  300.000;  240.000
365.614;  -96.400; -402.000; -314.000
365.746; -171.700; -729.000; -752.000
365.877; -180.300; -706.000; -672.000
366.009;  189.100;  -35.000;  -62.000
366.141; -248.200;-1249.000;-1134.000
366.272; -200.400; -803.000; -719.000
366.404; -224.800;-1005.000; -874.000
366.535;  -10.100; -139.000;  -12.000
366.667; -194.000; -644.000; -649.000
366.799;   95.500;  353.000;  203.000
366.930; -238.000; -862.000; -996.000
367.062;   47.800; -639.000; -613.000
367.193;    4.500; -872.000; -842.000
367.325; -124.900; -580.000; -684.000
367.456;    5.000; -246.000;   31.000
367.588;   90.600; -371.000; -318.000
367.719;    1.600;  -44.000;  -45.000
367.851;  -46.200; -222.000; -241.000
367.982; -180.600; -875.000; -732.000
368.113;   74.500; -475.000; -358.000
368.245; -269.000; -960.000; -841.000
368.376;  -49.200; -254.000; -302.000
368.508;  -30.800; -188.000; -263.000
368.639; -291.200;-1166.000;-1034.000
368.770; -134.700; -670.000; -589.000
368.902; -180.700; -836.000; -926.000
369.033; -211.500; -906.000; -855.000
369.164; -144.900; -720.000; -653.000
369.296; -220.500; -452.000; -601.000
369.427;  -21.500; -209.000; -144.000
369.558;  -78.800; -593.000; -377.000
369.689; -151.500; -721.000; -569.000
369.821; -241.500; -951.000; -845.000
369.952;  -10.600;   42.000; -108.000
370.083;  -95.000; -229.000; -108.000
370.214; -172.100; -735.000; -650.000
370.345;    6.600;   65.000;   81.000
370.477; -195.500; -810.000; -790.000
370.608;  213.700; -328.000; -264.000
370.739; -189.600;-1233.000;-1292.000
370.870; -190.600;-1102.000; -923.000
371.001;   30.900; -378.000; -467.000
371.132; -185.200; -754.000; -735.000
371.263;  -58.000;  -42.000; -148.000
371.394; -257.500; -841.000; -748.000
371.525;  100.400;  345.000;  225.000
371.657; -172.100; -808.000; -670.000
371.788;  130.700;  103.000;  199.000
371.919;  120.100; -384.000; -304.000
372.050; 3995.000;  -91.000; -156.000
372.181; 1147.800; -188.000; -294.000
372.311;  403.000;   42.000; -127.000
372.442;    0.300; -457.000; -451.000
372.573;  -40.200; -444.000; -340.000
372.704; -243.600;-1008.000; -980.000
372.835;   50.200; -228.000; -289.000
372.966; -124.900; -646.000; -554.000
373.097; -120.800; -575.000; -711.000
373.228; -113.200; -717.000; -542.000
373.359;   87.100; -824.000; -536.000
373.490;  846.400; -881.000; -727.000
373.620; 1004.600;-1001.000; -803.000
373.751; 1845.300; -332.000; -396.000
373.882;  738.800; -663.000; -733.000
374.013;   30.000; -449.000; -262.000
374.143; -121.000; -581.000; -659.000
374.274; -253.600; -987.000; -908.000
374.405;  132.800; -388.000; -276.000
374.536;  398.700; -526.000; -387.000
374.666; 1113.000; -759.000; -807.000
374.797;  119.300; -817.000; -868.000
374.928;  798.100; -710.000; -560.000
375.058;  747.900; -535.000; -500.000
375.189;   81.300;  -59.000;  -93.000
375.320; -224.300; -928.000;-1034.000
375.450; -108.200; -625.000; -616.000
375.581; -136.600; -526.000; -436.000
375.712;  -52.500; -574.000; -250.000
375.842;  220.300; -438.000; -415.000
375.973;  129.600; -554.000; -513.000
376.103; -120.600; -665.000; -648.000
376.234; -157.400; -531.000; -552.000
376.364; -173.600; -944.000; -867.000
376.495;  396.800;  925.000;  529.000
376.625;  -75.800; -472.000; -485.000
376.756;  -11.400; -709.000; -678.000
376.886; -220.000;-1178.000;-1026.000
377.017; -134.500;-1048.000;-1061.000
377.147;  191.000; -786.000; -782.000
377.278;  109.400;  174.000;  228.000
377.408; -224.500; -801.000; -815.000
377.538; -195.400; -707.000; -693.000
377.669; -161.900; -537.000; -613.000
377.799; -201.400; -645.000; -635.000
377.929; -127.500; -610.000; -428.000
378.060; -233.600; -781.000; -847.000
378.190; -156.400; -726.000; -531.000
378.320; -118.500; -401.000; -406.000
378.451;   26.700; -131.000;  -22.000
378.581;   21.400;  -67.000; -110.000
378.711;  294.300; 1035.000;  866.000
378.841;  -93.000; -533.000; -675.000
378.972; -192.500; -871.000; -751.000
379.102;  -95.700; -652.000; -579.000
379.232;  -48.000; -126.000;  -73.000
379.362; -266.000;-1001.000; -885.000
379.492;  -60.600; -373.000; -424.000
379.623;  129.400;    0.000;  111.000
379.753; -227.200;-1107.000; -974.000
379.883;  196.700;   59.000;  156.000
380.013; -127.400;-1081.000;-1017.000
380.143; -246.000;-1097.000;-1056.000
380.273; -240.000; -985.000; -861.000
380.403;  -34.400; -344.000; -257.000
380.533; -152.700; -651.000; -664.000
380.663;  118.100;  173.000;  128.000
380.793; -243.300;-1027.000;-1074.000
380.923;  -54.900; -103.000;  -34.000
381.053; -161.800; -613.000; -623.000
381.183;  -35.800; -106.000; -248.000
381.313;  -43.100; -656.000; -470.000
381.443;  -20.400; -692.000; -473.000
381.573;   99.800; -402.000; -409.000
381.703;  112.700;-1249.000;-1095.000
381.833; -318.100;-1454.000;-1336.000
381.963;  117.800; -134.000;  -87.000
382.093; 1202.000; -925.000; -909.000
382.223;  330.700; -713.000; -602.000
382.353; -142.300; -801.000; -608.000
382.482;  304.600;-1091.000; -964.000
382.612;  667.800; -872.000; -644.000
382.742;  330.300; -695.000; -622.000
382.872;  169.400; -565.000; -551.000
383.002;  104.800;  347.000; -132.000
383.131;  -19.300; -226.000; -160.000
383.261; -162.200; -706.000; -768.000
383.391;  193.300; -552.000; -377.000
383.521; 2625.500;  451.000;  263.000
383.650;  401.900; -947.000; -904.000
383.780; -123.400; -783.000; -656.000
383.910;  219.100;  880.000;  802.000
384.039;  -92.100; -794.000; -656.000
384.169;    2.600;-1205.000;-1017.000
384.299;  -92.400; -650.000; -662.000
384.428; -213.600; -764.000; -680.000
384.558;  -85.800; -308.000; -275.000
384.687;  -95.900; -414.000; -334.000
384.817;   16.400;   75.000;   -2.000
384.947;   21.300; -234.000; -141.000
385.076;  422.000;  982.000;  912.000
385.206;  190.900;  369.000;  480.000
385.335;  -79.800; -549.000; -417.000
385.465; -175.300; -655.000; -663.000
385.594;  172.200;  -53.000;  -44.000
385.724;  352.600; -868.000; -838.000
385.853;  122.800; -296.000; -270.000
385.982; 1504.000; -743.000; -787.000
386.112; 2153.400;-1052.000; -871.000
386.241;  124.700; -307.000; -312.000
386.371;   20.600; -174.000;  -87.000
386.500;  -58.700; -825.000; -789.000
386.629;  -94.300; -874.000; -817.000
386.759;   59.800;  -43.000;   68.000
386.888;  -27.600; -170.000; -250.000
387.017; -132.600; -648.000; -620.000
387.147; -211.900; -771.000; -798.000
387.276;  -65.700; -410.000; -397.000
387.405;   -5.000; -398.000; -342.000
387.535; -111.500; -452.000; -361.000
387.664; -138.600; -692.000; -620.000
387.793;   42.900; -198.000; -113.000
387.922;  581.100;  255.000;  200.000
388.052;  -28.300; -576.000; -423.000
388.181;  -79.500; -342.000; -472.000
388.310; -107.500; -889.000; -710.000
388.439; -135.100; -749.000; -742.000
388.568;  242.400;  365.000;  244.000
388.697; 1057.300; -756.000; -653.000
388.826;  121.400; -768.000; -666.000
388.956;   36.600; -285.000; -307.000
389.085;  -95.300; -347.000; -287.000
389.214; -213.600; -842.000; -872.000
389.343; -126.700; -645.000; -413.000
389.472;  433.200;  126.000;  149.000
389.601;  491.000;   91.000;    0.000
389.730;  -39.900; -568.000; -687.000
389.859;  107.300;  226.000;   46.000
389.988;  148.500; -423.000; -408.000
390.117;  153.900; -168.000; -146.000
390.246;   -3.200; -331.000; -320.000
390.375;   38.000; -673.000; -626.000
390.504; -136.700; -703.000; -621.000
390.633; -191.100; -672.000; -726.000
390.761; -114.600; -732.000; -645.000
390.890;   32.100;   -4.000; -130.000
391.019;  -62.200; -421.000; -441.000
391.148; -199.800; -826.000; -855.000
391.277; -135.200; -576.000; -493.000
391.406; -183.100; -821.000; -805.000
391.534;   74.400;  574.000; -301.000
391.663; -128.700; -583.000; -645.000
391.792; -176.800; -673.000; -701.000
391.921;  132.000;   -3.000;   15.000
392.050;  172.600; -287.000; -228.000
392.178; -191.700;-1206.000;-1061.000
392.307;  103.700; -758.000; -712.000
392.436;   17.400; -427.000; -641.000
392.564;   24.800;  166.000;   -6.000
392.693; -186.100; -860.000; -682.000
392.822;  162.900; -529.000; -534.000
392.950;   17.000; -880.000; -714.000
393.079;  326.900; -188.000; -328.000
393.208;  -35.900; -488.000; -511.000
393.336;   -8.800; -170.000; -145.000
393.465;  -71.100; -317.000; -199.000
393.593;   35.600;   62.000;   79.000
393.722; -283.800;-1121.000; -916.000
393.850;  -40.900; -188.000;  -61.000
393.979; -300.200; -926.000; -805.000
394.107; -101.900; -517.000; -537.000
394.236; -107.500; -570.000; -507.000
394.364;  312.400;  383.000;  206.000
394.493;  374.900; -911.000; -767.000
394.621; -101.700; -955.000; -916.000
394.750;  400.200; -873.000; -923.000
394.878; 2237.900; -247.000; -149.000
395.007; 2853.500; -721.000; -807.000
395.135;   83.100; -790.000; -721.000
395.263; -245.000;-1038.000;-1040.000
395.392;   27.100;  -25.000; -107.000
395.520; -159.200; -818.000; -679.000
395.648; -220.500; -865.000; -915.000
395.777;  -73.800; -366.000; -405.000
395.905; -127.400; -449.000; -564.000
396.033;   46.800;  217.000;  172.000
396.162;  804.400; -399.000; -453.000
396.290;  706.400;  -17.000;   -2.000
396.418;   24.700; -555.000; -514.000
396.546; -185.600; -571.000; -466.000
396.674; -204.200; -850.000; -878.000
396.803;   15.600;  -72.000;  -23.000
396.931;   65.100; -179.000; -199.000
397.059; -141.800;-1026.000; -989.000
397.187; -225.000;-1026.000; -975.000
397.315; -274.600; -884.000; -649.000
397.443; -177.400; -592.000; -443.000
397.572; -184.800; -578.000; -424.000
397.700;  -97.800; -607.000; -614.000
397.828;   32.600;  120.000;  -90.000
397.956; -128.700; -508.000; -478.000
398.084; -190.500; -767.000; -626.000
398.212;   74.200;  137.000;  124.000
398.340;   28.500;  -56.000;  159.000
398.468;   -2.500; -390.000; -169.000
398.596; -267.700; -993.000; -953.000
398.724; -247.800; -762.000; -767.000
398.852; -298.100;-1024.000; -976.000
398.980; -144.600; -560.000; -560.000
399.108; -157.400; -982.000; -735.000
399.236;   81.700;   13.000;    8.000
399.363;   42.200;  222.000;  196.000
399.491;  -90.400; -404.000; -398.000
399.619; -241.900; -829.000; -800.000
399.747; -232.100; -859.000; -771.000
399.875;  153.800;  220.000;  234.000
400.003;  -90.000; -359.000; -284.000
400.130; -152.300; -421.000; -341.000
400.258;  -15.600;  -83.000;   38.000
400.386; -107.400; -352.000; -168.000
400.514; -119.600; -526.000; -587.000
400.641; -228.800; -928.000; -802.000
400.769; -267.500; -979.000; -888.000
400.897; -197.300; -838.000; -793.000
401.025;  -16.600; -166.000; -152.000
401.152;   14.600;  220.000;   38.000
401.280; -135.600; -430.000; -429.000
401.408; -195.500; -712.000; -576.000
401.535; -167.100; -735.000; -758.000
401.663; -360.200;-1134.000;-1054.000
401.790; -131.900; -514.000; -525.000
401.918;  118.600;  436.000;  405.000
402.046;  -11.800;  134.000;  122.000
402.173;  -45.600;  -18.000;    7.000
402.301; -102.200; -519.000; -397.000
402.428;  115.600;  528.000;  383.000
402.556; -261.900;-1188.000; -913.000
402.683;  -31.800;  -20.000;   -1.000
402.811;  -31.900;  -37.000; -206.000
402.938;   -6.600;   20.000;   27.000
403.066;  155.000; -574.000; -558.000
403.193;  342.000;  299.000;  239.000
403.321;  228.300; -396.000; -574.000
403.448;  309.400;   83.000;   27.000
403.575;  149.100;  -90.000;  -46.000
403.703; -188.300; -732.000; -557.000
403.830;  -98.800; -531.000; -496.000
403.957; -293.500;-1117.000;-1023.000
404.085;   16.300;  -61.000; -172.000
404.212;   82.100;  -50.000;   63.000
404.339;  167.900; -566.000; -306.000
404.467; 4327.800; -612.000; -524.000
404.594; 2848.200; -287.000; -227.000
404.721;  602.300; -869.000; -764.000
404.848;   43.000; -113.000; -202.000
404.976; -218.300; -856.000; -783.000
405.103;  -11.600;  -14.000;  -82.000
405.230;   -7.000;  190.000;  226.000
405.357;   44.500;  117.000;   44.000
405.484;  188.400;  -49.000;    5.000
405.612;  -55.700; -548.000; -563.000
405.739;  -95.500; -488.000; -243.000
405.866;  205.800;  669.000;  385.000
405.993;  -91.300; -398.000; -102.000
406.120; -238.700; -801.000; -887.000
406.247;  -97.600; -323.000; -342.000
406.374;  514.500;  540.000;  629.000
406.501;   -5.200; -632.000; -702.000
406.628; -161.400; -621.000; -589.000
406.755; -180.800; -803.000; -620.000
406.882;  -49.600; -228.000; -277.000
407.009; -180.900; -719.000; -628.000
407.136;    9.400; -480.000; -401.000
407.263;  -13.500; -939.000; -829.000
407.390; -179.900; -692.000; -614.000
407.517; -311.200;-1139.000;-1187.000
407.644;  -84.000; -332.000; -256.000
407.771; -129.500; -249.000; -287.000
407.898;   67.900;  168.000;  328.000
408.025; -118.000; -421.000; -313.000
408.151;   21.800;   82.000;  153.000
408.278; -102.400; -267.000; -216.000
408.405; -215.300; -931.000; -899.000
408.532; -136.800; -549.000; -542.000
408.659; -203.600; -677.000; -648.000
408.785; -355.800;-1298.000;-1170.000
408.912;  -75.800; -412.000; -296.000
409.039; -187.400; -610.000; -686.000
409.166; -159.200; -591.000; -555.000
409.292; -155.900; -571.000; -534.000
409.419; -196.200; -665.000; -649.000
409.546; -135.900; -431.000; -192.000
409.672; -191.200; -713.000; -545.000
409.799;  -24.100;  -36.000;   34.000
409.926;  -25.200; -180.000; -179.000
410.052; -324.100;-1127.000;-1091.000
410.179;  -89.800; -368.000; -392.000
410.305; -151.800; -375.000; -493.000
410.432;  -78.900; -220.000; -333.000
410.558; -149.000; -305.000; -380.000
410.685; -206.700; -688.000; -431.000
410.812; -188.000; -409.000; -588.000
410.938; -244.500; -964.000; -808.000
411.065; -183.900; -671.000; -645.000
411.191;  -18.100; -189.000; -174.000
411.317; -197.400; -823.000; -742.000
411.444;  -93.000; -317.000; -246.000
411.570; -101.500; -339.000; -294.000
411.697; -226.200; -758.000; -752.000
411.823; -315.400; -989.000; -999.000
411.949;  -26.600;  -56.000;   17.000
412.076; -188.900; -539.000; -519.000
412.202; -203.600; -758.000; -757.000
412.329; -269.100; -798.000; -752.000
412.455; -216.500; -821.000; -657.000
412.581;  -35.100;  -15.000;  172.000
412.707; -124.900; -540.000; -457.000
412.834;   35.700;  156.000;  219.000
412.960; -191.100; -785.000; -784.000
413.086; -219.600; -743.000; -701.000
413.212;  218.600;  604.000;  578.000
413.339; -174.200; -685.000; -701.000
413.465;  -60.100; -364.000; -310.000
413.591; -215.300; -757.000; -474.000
413.717;  -95.100; -358.000; -366.000
413.843; -259.200; -839.000; -861.000
413.969; -106.700;  -47.000; -292.000
414.096; -227.900; -679.000; -679.000
414.222;   20.100;  -33.000;   85.000
414.348; -110.200; -652.000; -385.000
414.474;   64.000;   38.000;  -52.000
414.600;  -26.400; -126.000; -144.000
414.726;  -41.300;  -96.000;  -55.000
414.852; -133.300; -365.000; -342.000
414.978;   72.400;  104.000;  -18.000
415.104;   49.300;   38.000;   80.000
415.230;  -21.800; -329.000; -330.000
415.356;  -50.100; -409.000; -514.000
415.482;  146.600;   13.000;  -35.000
415.608;  172.600; -247.000; -323.000
415.734;  798.600;   67.000;   38.000
415.860;16392.900; -875.000; -767.000
415.986;10892.300; -685.000; -607.000
416.111;  743.700; -798.000; -652.000
416.237;  112.500; -424.000; -571.000
416.363;  823.300; -765.000; -733.000
416.489; 3201.900; -324.000; -251.000
416.615;  194.100; -707.000; -742.000
416.741; -135.800; -677.000; -784.000
416.866; -234.000; -673.000; -736.000
416.992; -226.700; -801.000; -818.000
417.118;  -57.100;  -41.000;  -80.000
417.244; -133.700; -798.000; -531.000
417.369; -186.900; -801.000; -612.000
417.495;  -62.300; -325.000; -254.000
417.621; -219.300;-1015.000; -803.000
417.746;  -94.000; -579.000; -572.000
417.872;   45.600; -254.000; -144.000
417.998;  -16.900; -515.000; -530.000
418.123;  692.300;-1073.000; -845.000
418.249; 3947.500; -512.000; -601.000
418.374;  363.800; -916.000; -824.000
418.500;   37.300; -383.000; -482.000
418.626;   64.500;   70.000;  -59.000
418.751;  -17.300; -549.000; -448.000
418.877;   55.500; -637.000; -643.000
419.002; 1489.400; -688.000; -560.000
419.128; 9586.000; -930.000; -721.000
419.253; 1999.400; -967.000; -837.000
419.379;  170.800; -391.000; -338.000
419.504;  351.500;  325.000;  415.000
419.629;  341.500; -393.000; -212.000
419.755; 2826.000; -317.000; -254.000
419.880;15756.900;  -98.000;   67.000
420.006; 9061.100; -280.000; -221.000
420.131;23037.400; -662.000; -775.000
420.256; 3033.800; -315.000; -316.000
420.382;  322.800; -665.000; -687.000
420.507;  -53.700; -649.000; -778.000
420.632;  114.700; -337.000; -339.000
420.758;  219.800; -251.000; -425.000
420.883; -188.900; -876.000; -672.000
421.008; -190.900; -775.000; -619.000
421.133; -157.500; -509.000; -467.000
421.259;  -35.600; -325.000; -259.000
421.384; -241.200; -834.000; -693.000
421.509; -141.900;-1052.000; -862.000
421.634; 1261.400; -936.000; -820.000
421.759;  499.100; -359.000; -327.000
421.885; -132.900; -717.000; -656.000
422.010; -174.100; -673.000; -542.000
422.135; -263.600; -695.000; -727.000
422.260;   94.500;  340.000;  280.000
422.385;  -75.500;   12.000;  -98.000
422.510;   28.000;  151.000;  -26.000
422.635;   22.800;  -87.000;  -43.000
422.760;   16.000; -766.000; -791.000
422.885;   83.000;  -57.000;  -80.000
423.010;  -57.100; -112.000; -169.000
423.135; -168.900; -481.000; -561.000
423.260;  -31.900; -150.000; -245.000
423.385;  107.900;  476.000;  222.000
423.510;   77.800;   71.000;  -22.000
423.635;   93.200;  133.000;   45.000
423.760;  102.000;  383.000;  328.000
423.885;   99.300;  336.000;  391.000
424.010;   32.700;  -68.000;  -13.000
424.135;  -38.100;    5.000;  -33.000
424.259; -174.000; -654.000; -457.000
424.384; -108.200; -279.000; -272.000
424.509;  -34.300; -260.000; -186.000
424.634; -220.200; -761.000; -623.000
424.759; -101.100; -688.000; -544.000
424.883;  -87.100; -506.000; -527.000
425.008;   77.600; -502.000; -410.000
425.133; 1502.800; -679.000; -653.000
425.258;  619.200; -517.000; -381.000
425.382; 1000.100; -867.000; -774.000
425.507; 2512.700; -487.000; -543.000
425.632;  277.000; -802.000; -663.000
425.756;  330.700; -256.000; -146.000
425.881; 5083.500; -831.000; -857.000
426.006;12678.500; -604.000; -355.000
426.130; 1737.600; -696.000; -508.000
426.255;  150.900; -611.000; -491.000
426.379;   95.700; -189.000; -577.000
426.504;  411.500;  660.000;  544.000
426.629; 3184.300; -519.000; -466.000
426.753; 2018.700;   64.000;  -46.000
426.878;  202.500; -252.000; -288.000
427.002;   11.900; -651.000; -668.000
427.127; 1426.300;  -35.000; -158.000
427.251; 9346.600;  372.000;  401.000
427.375; 2371.600; -191.000; -173.000
427.500; 2281.300; -616.000; -610.000
427.624;  686.400; -234.000; -400.000
427.749;   46.400; -216.000; -225.000
427.873; -125.700; -499.000; -412.000
427.997;  -54.100; -222.000; -230.000
428.122;  165.300;  795.000;  703.000
428.246;  140.500;  433.000;  434.000
428.371; -236.800; -869.000; -773.000
428.495; -205.200; -624.000; -646.000
428.619;  -40.600; -186.000; -117.000
428.743;   52.500;   65.000;  132.000
428.868; -117.500; -732.000; -643.000
428.992; 1442.600; -219.000; -326.000
429.116;  533.200; -329.000; -357.000
429.240;  400.100;  419.000;  426.000
429.365;  -88.400; -454.000; -574.000
429.489; -129.400; -638.000; -647.000
429.613;    1.000; -236.000; -177.000
429.737;  -25.600; -563.000; -432.000
429.861;  195.000; -247.000; -133.000
429.985; 4523.500; -425.000; -305.000
430.109; 4460.700; -770.000; -908.000
430.234;  563.200;   76.000;  -50.000
430.358;   17.400; -250.000; -160.000
430.482; -135.800; -672.000; -564.000
430.606; -113.800; -655.000; -375.000
430.730;   -2.300; -437.000; -388.000
430.854;    5.500; -909.000; -835.000
430.978; -156.800; -795.000; -764.000
431.102; -134.500; -499.000; -422.000
431.226; -180.100; -874.000; -815.000
431.350;   67.500;  345.000;  422.000
431.474; -139.900; -661.000; -373.000
431.597; -297.300;-1060.000; -848.000
431.721; -118.600; -276.000; -267.000
431.845; -241.500; -704.000; -472.000
431.969; -123.800; -304.000; -349.000
432.093; -149.200; -395.000; -317.000
432.217;   -8.800;   32.000;   82.000
432.341; -162.900; -523.000; -518.000
432.464;   19.600;   96.000;   40.000
432.588;  105.200; -401.000; -329.000
432.712;   84.500;  -52.000;  -52.000
432.836;  100.900;  213.000;  263.000
432.959;  -66.200; -372.000; -311.000
433.083;   73.900;   11.000;    2.000
433.207;  399.500;  285.000;  930.000
433.330; 3958.400; -391.000; -200.000
433.454; 4378.700; -654.000; -638.000
433.578; 2744.500;  583.000;  278.000
433.701;  323.800; -623.000; -675.000
433.825;   56.800; -292.000; -299.000
433.949;  167.600;   28.000;  -72.000
434.072;    6.500; -410.000; -323.000
434.196;  -30.800; -309.000; -117.000
434.319; 7594.400;25482.000;25124.000
434.443;  547.900; -656.000; -603.000
434.566; 2021.800;  281.000;   62.000
434.690;  183.900; -637.000; -383.000
434.813;   11.000; -251.000; -173.000
434.937; -147.500; -569.000; -696.000
435.060;  -94.900; -423.000; -332.000
435.184;  278.000; -492.000; -217.000
435.307;  182.000;  159.000;  102.000
435.431;  -11.400;  -40.000;   24.000
435.554; -128.900; -399.000; -240.000
435.677; -107.800; -350.000; -258.000
435.801;  -33.800;  -25.000;   49.000
435.924;   -1.000;    1.000;  -67.000
436.048; -228.400;-1019.000; -732.000
436.171; -129.200; -240.000;  -66.000
436.294;  -55.400; -248.000; -229.000
436.417;  -93.200; -963.000; -849.000
436.541; -211.300; -814.000; -840.000
436.664;  -91.700; -242.000; -316.000
436.787;    5.500;   13.000;  113.000
436.910; -196.800; -792.000; -422.000
437.034;    9.600;  142.000;  143.000
437.157;   91.600;  -11.000;    0.000
437.280; -113.800; -392.000; -292.000
437.403; -209.500; -982.000; -869.000
437.526;  704.100; -903.000; -865.000
437.649; 2508.500; -505.000; -332.000
437.772;  248.200; -692.000; -540.000
437.896;  208.400;  700.000;  544.000
438.019; -177.500; -758.000; -503.000
438.142; -120.500; -596.000; -506.000
438.265; -112.100; -639.000; -670.000
438.388;  498.800; -520.000; -410.000
438.511;    9.600; -597.000; -394.000
438.634;  -97.700; -247.000; -125.000
438.757; -239.200; -693.000; -619.000
438.880;  -20.800;  -34.000;  -57.000
439.003; -146.200; -417.000; -437.000
439.126;  -69.400; -287.000; -167.000
439.248;  -61.900;  -98.000; -139.000
439.371;    9.100;    9.000;  -53.000
439.494;  137.300;  510.000;  439.000
439.617;  -55.700;   65.000;  -88.000
439.740; -306.900; -968.000; -816.000
439.863; -201.900; -755.000; -595.000
439.986; -190.400; -476.000; -431.000
440.108;  -76.900; -161.000; -112.000
440.231; -285.700; -950.000; -836.000
440.354;  -68.700;  -64.000; -150.000
440.477;  -61.700; -566.000; -542.000
440.599;  -22.900; -200.000; -225.000
440.722; -215.600; -709.000; -586.000
440.845;  190.700;  751.000;  928.000
440.968; -172.300; -415.000; -311.000
441.090;  -70.900; -199.000;  -33.000
441.213; -280.500;-1021.000; -825.000
441.336;  -46.000; -159.000;   -5.000
441.458; -131.800; -549.000; -396.000
441.581; -176.200; -628.000; -629.000
441.703;  -99.100; -152.000;   13.000
441.826; -164.800; -557.000; -400.000
441.948;  -71.300;   56.000;   51.000
442.071;  107.500;  555.000;  424.000
442.193; -213.300; -531.000; -485.000
442.316;   34.400;  152.000;   97.000
442.438;    7.400; -233.000;  -10.000
442.561;   91.000;  272.000;  262.000
442.683;  610.100; -809.000; -522.000
442.806; 1271.600;   -8.000;   74.000
442.928; -116.400; -859.000; -604.000
443.051; -146.100; -577.000; -373.000
443.173; -145.200; -341.000; -339.000
443.295; -135.400; -263.000; -371.000
443.418;  -92.900; -321.000;  -29.000
443.540;   10.600; -106.000;   -4.000
443.662; -195.600; -563.000; -465.000
443.785;   27.700;  335.000;  199.000
443.907; -158.000; -362.000; -208.000
444.029; -211.500; -767.000; -494.000
444.152; -225.500; -644.000; -554.000
444.274;  -21.100;  -18.000;  -24.000
444.396; -191.900; -461.000; -221.000
444.518; -243.400; -691.000; -454.000
444.640; -195.900; -268.000; -111.000
444.763;   15.600;  388.000;  249.000
444.885; -195.500; -432.000; -392.000
445.007;  -22.300;   35.000;   86.000
445.129; -195.700; -610.000; -515.000
445.251; -166.100; -372.000; -439.000
445.373; -214.500; -537.000; -386.000
445.495;   41.200;  242.000;  350.000
445.617;  137.200;  853.000;  753.000
445.739;  -86.400; -215.000;  -97.000
445.861;  -26.200; -245.000; -112.000
445.984;  -78.600; -267.000; -101.000
446.105;  199.400; -418.000; -251.000
446.227;  642.600; -176.000;  -19.000
446.349;  -59.400; -358.000; -249.000
446.471; -176.600; -615.000; -448.000
446.593; -132.600; -316.000;   19.000
446.715;  -31.100;  -67.000;   41.000
446.837;  162.200;  697.000;  832.000
446.959; -152.700; -457.000; -478.000
447.081; -247.400; -628.000; -518.000
447.203;  163.500;  862.000;  834.000
447.325; -139.600; -270.000;   42.000
447.446;   19.500;  286.000;  530.000
447.568; -283.900; -921.000; -803.000
447.690; -143.800; -236.000; -245.000
447.812; -251.300; -798.000; -519.000
447.933;  -32.800;  155.000;  127.000
448.055; -124.400; -306.000; -261.000
448.177;  178.700;   31.000;   79.000
448.299;  -32.500; -935.000; -727.000
448.420;   58.100;  -25.000;  159.000
448.542;  -71.800;   -3.000;   33.000
448.664;  -11.800;  109.000;  322.000
448.785;  -46.600;  265.000;   83.000
448.907; -156.200; -614.000; -353.000
449.028; -119.400; -771.000; -471.000
449.150;  149.000;  492.000;  589.000
449.272; -351.400;-1044.000; -913.000
449.393;  115.500;  612.000;  694.000
449.515; -254.800; -634.000; -581.000
449.636; -108.900; -264.000; -155.000
449.758;  132.300;  763.000;  622.000
449.879; -155.300; -498.000; -396.000
450.001; -139.500; -149.000;  -49.000
450.122;  -29.300;  -95.000;  162.000
450.244;  -10.600;   37.000;  364.000
450.365; -170.400; -495.000; -301.000
450.486;  -22.200;   80.000;  268.000
450.608;   49.300;  393.000;  326.000
450.729;  179.400;  578.000;  645.000
450.850; -110.200; -574.000; -466.000
450.972;  513.500; -552.000; -389.000
451.093; 3871.500;  190.000;  588.000
451.214; 1310.700; -516.000; -337.000
451.336;  332.500;  773.000;  579.000
451.457;   59.700;  264.000;  393.000
451.578;  -74.200; -118.000;  -74.000
451.699; -176.600; -546.000; -540.000
451.821;  -94.800; -284.000;  -50.000
451.942;   33.400;  278.000;  285.000
452.063;   71.500;  228.000;  419.000
452.184;  453.000;  -54.000;  -49.000
452.305;  875.900;  103.000;  170.000
452.427;   16.000; -549.000; -301.000
452.548;  -36.900;   23.000;   79.000
452.669;  -99.600; -257.000;  -89.000
452.790;  -61.000;    3.000;  -18.000
452.911;   37.500;  195.000;  259.000
453.032; -123.500; -289.000;  -60.000
453.153;  -45.900;  -29.000;   81.000
453.274;  154.500;  737.000;  868.000
453.395;  -49.800;  -51.000;  175.000
453.516;  300.200; 1317.000; 1388.000
453.637; -108.400; -205.000; -150.000
453.758;  -55.900;   15.000;   69.000
453.879; -173.900; -462.000; -250.000
454.000;  198.800; 1086.000;  948.000
454.121; -197.600; -554.000; -326.000
454.242; -194.900; -599.000; -383.000
454.362;  -69.500;  -99.000;  114.000
454.483;  -70.300; -309.000; -229.000
454.604;   99.800;  512.000;  580.000
454.725; -214.300; -627.000; -555.000
454.846; -227.000; -474.000; -406.000
454.967;   21.500;  230.000;  539.000
455.087;  -22.300;  179.000;  153.000
455.208;  109.500;  554.000;  856.000
455.329;  -85.300;  -22.000;   82.000
455.450;  101.200;  473.000;  633.000
455.570; -138.000; -234.000; -211.000
455.691;  -21.900;  201.000;  407.000
455.812; -155.500; -270.000;  -92.000
455.932;  -64.800;  107.000;  -97.000
456.053; -108.700;   36.000;   24.000
456.173; -143.900; -433.000; -355.000
456.294; -197.100; -476.000; -303.000
456.415;  -43.100;  -73.000;   70.000
456.535;   19.900;  297.000;  273.000
456.656;  -43.600;  132.000;  240.000
456.776;  -50.100;    3.000;  298.000
456.897;   40.400;  308.000;  513.000
457.017;  -79.100; -153.000;   -3.000
457.138; -149.300; -402.000; -249.000
457.258;  -35.700;  263.000;  224.000
457.379;   71.800;  509.000;  521.000
457.499;    9.300;  443.000;  432.000
457.620; -207.900; -407.000; -231.000
457.740; -122.400; -132.000;  -11.000
457.860;  -66.900;   87.000;   44.000
457.981;  -20.600;  132.000;  124.000
458.101; -130.500;  -89.000;   40.000
458.221;   32.100;  336.000;  402.000
458.342;  -68.400;   -4.000;  -37.000
458.462;   72.500;  617.000;  352.000
458.582;  -91.400; -302.000; -294.000
458.703;   23.200;  303.000;  154.000
458.823;  -51.800;   22.000;  163.000
458.943;   54.900;  341.000;  467.000
459.063;  -38.600; 1124.000;  192.000
459.183;  -45.000;  328.000;  313.000
459.304;   87.500;  315.000;  517.000
459.424; -113.600; -246.000;  -89.000
459.544;  369.300;  388.000;  764.000
459.664;  719.500;  499.000;  506.000
459.784;  374.800; 1004.000; 1175.000
459.904;  124.900;  867.000;  744.000
460.024;  185.500;  867.000;  684.000
460.144;   17.200;  449.000;  554.000
460.264;   51.000;  515.000;  327.000
460.385; -155.400; -145.000; -119.000
460.505;  146.200;  905.000;  858.000
460.625; -141.700;  -17.000;  -68.000
460.745;    4.500;  396.000;  541.000
460.864;  -46.400;  153.000;  469.000
460.984;   42.200;  499.000;  573.000
461.104;  315.000; 1656.000; 1775.000
461.224;  114.300;  657.000;  650.000
461.344;  -12.000;  431.000;  360.000
461.464;  -28.100;  258.000;  513.000
461.584;   19.300;  283.000;  466.000
461.704;  -74.600;   58.000;  108.000
461.824;  -73.000;  238.000;  259.000
461.943;  -42.200;  191.000;  130.000
462.063; -105.400;    2.000;  324.000
462.183;  130.100;  639.000;  717.000
462.303;  253.400; 1678.000; 1230.000
462.422;   80.400;  781.000;  840.000
462.542;  -55.200;  271.000;  391.000
462.662;   39.200;  353.000;  380.000
462.782;  273.600;  833.000;  572.000
462.901;  423.100;  545.000;  717.000
463.021;  426.500; 1702.000; 1638.000
463.141;  -14.800;  337.000;  770.000
463.260;    2.900;  614.000;  474.000
463.380;   63.700;  902.000;  884.000
463.499;   12.200;  342.000;  332.000
463.619;   -9.700;  581.000;  559.000
463.738;  302.700; 1644.000;  903.000
463.858;   52.900;  657.000;  811.000
463.978;  -22.800;  542.000;  396.000
464.097;  162.100;  921.000; 1114.000
464.217;  230.200; 1196.000; 1143.000
464.336;  243.400; 1068.000; 1130.000
464.455;    4.700;  328.000;  659.000
464.575;  111.500;  597.000;  602.000
464.694;  294.800; 1204.000; 1179.000
464.814;  221.500; 1190.000; 1138.000
464.933;  184.800; 1095.000; 1027.000
465.052;  240.400; 1412.000; 1054.000
465.172;  166.900;  922.000;  799.000
465.291;  301.000; 1376.000; 1320.000
465.410;   71.000;  462.000;  735.000
465.530;  202.100; 1355.000; 1310.000
465.649;  203.900; 1209.000; 1273.000
465.768;  315.800; 1673.000; 1508.000
465.888;  150.600;  941.000; 1174.000
466.007;  250.200; 1335.000; 1440.000
466.126;   58.000;  721.000;  641.000
466.245;  129.600; 1176.000; 1187.000
466.364;  106.800;  950.000; 1060.000
466.484;  190.700; 1024.000; 1213.000
466.603;  112.900; 1101.000; 1222.000
466.722;  266.600; 1490.000; 1769.000
466.841;  194.100; 1151.000; 1401.000
466.960;  131.200; 1069.000;  972.000
467.079;  332.800; 1971.000; 1786.000
467.198;  175.300; 1238.000; 1181.000
467.317;  266.400; 1768.000; 1162.000
467.436;  194.000; 1709.000; 1261.000
467.555;  320.100; 1796.000; 1746.000
467.674;  191.400; 1227.000; 1329.000
467.793;  146.600; 1376.000; 1374.000
467.912;  225.600; 1658.000; 1539.000
468.031;  350.200; 2038.000; 1930.000
468.150;  382.200; 1842.000; 1837.000
468.269;  424.900; 2313.000; 2090.000
468.388;  449.600; 2168.000; 2339.000
468.507;  646.100; 2884.000; 2903.000
468.626;  617.300; 2555.000; 2541.000
468.744;  394.200; 2018.000; 2174.000
468.863;  470.200; 2312.000; 2523.000
468.982;  261.000; 1503.000; 1555.000
469.101;  508.500; 2788.000; 2692.000
469.220;  333.100; 2333.000; 2176.000
469.338;  572.400; 2935.000; 3051.000
469.457;  464.000; 2719.000; 2545.000
469.576;  786.300; 3953.000; 3784.000
469.695;  518.200; 2877.000; 3066.000
469.813;  932.000; 4148.000; 4192.000
469.932;  854.600; 4255.000; 4485.000
470.051;  829.000; 4075.000; 4161.000
470.169; 1259.800; 4470.000; 4338.000
470.288; 1741.200; 4700.000; 4809.000
470.406; 1350.200; 5059.000; 5194.000
470.525; 1235.500; 6101.000; 5787.000
470.644; 1384.000; 6847.000; 6794.000
470.762; 1688.800; 8397.000; 7873.000
470.881; 1837.100; 8651.000; 8464.000
470.999; 2037.000; 9685.000; 9151.000
471.118; 2340.500;11174.000;10711.000

