
Integration time [ms]: 100.000
Averaging Nr. [scans]: 40
Smoothing Nr. [pixels]: 0
Data measured with spectrometer [name]: 2101012U2
Wave   ;Sample   ;Dark     ;Reference
[nm]   ;[counts] ;[counts] ;[counts] 

197.733;   64.300;  516.000;  404.000
197.879;  -79.175; -610.000; -634.000
198.025;  -43.725; -475.000; -420.000
198.171;  -61.100; -602.000; -612.000
198.317;  -36.550; -401.000; -316.000
198.463;  -63.550; -655.000; -404.000
198.609;   36.025;  181.000; -137.000
198.755;  -72.125; -644.000; -410.000
198.901;  -73.175; -505.000; -424.000
199.047;  -60.100; -615.000; -488.000
199.193;  -25.350; -230.000; -468.000
199.339;  -28.075; -222.000; -369.000
199.485;   36.750;  330.000;  271.000
199.631;   17.875;  227.000;  310.000
199.777;  -38.950; -466.000; -398.000
199.923;  -58.625; -610.000; -424.000
200.069;   -9.175; -141.000;  -58.000
200.215;   63.025;  128.000;  453.000
200.361;   58.300;  243.000;  477.000
200.507;  -63.025; -600.000; -373.000
200.653;  -25.225; -371.000; -194.000
200.798;  -39.075; -215.000; -125.000
200.944;    0.550; -146.000;  -41.000
201.090;   35.250;   61.000;  222.000
201.236;   -3.925; -116.000; -158.000
201.382;  122.700;  874.000;  903.000
201.528;    1.675;  -58.000;  -48.000
201.674;  -31.175; -386.000; -293.000
201.819;  -48.425; -540.000; -439.000
201.965;  -76.075; -699.000; -447.000
202.111;  -21.625; -273.000; -226.000
202.257;  -33.325; -250.000; -238.000
202.402;   11.125;   13.000;  -36.000
202.548;  -34.200; -169.000; -116.000
202.694;   82.600;  410.000; -183.000
202.840;  -70.525; -603.000; -531.000
202.985;  -70.825; -681.000; -639.000
203.131; -105.775; -832.000; -666.000
203.277;  -24.850; -199.000; -262.000
203.423;  -40.825; -434.000; -520.000
203.568;  -22.875; -462.000; -237.000
203.714;  -57.900; -535.000; -542.000
203.860;  -77.100; -682.000; -641.000
204.005;   23.475;  112.000;  167.000
204.151;   66.425;  561.000;  556.000
204.296;  -50.425; -354.000; -221.000
204.442;  -81.000; -600.000; -547.000
204.588;  -66.900; -592.000; -579.000
204.733;   17.725;  178.000;  168.000
204.879; -125.100;-1018.000; -822.000
205.025;   15.575;  -99.000;  126.000
205.170;    1.700;  -17.000;   94.000
205.316;   71.450;  438.000;  661.000
205.461;  -79.700; -698.000; -554.000
205.607;   86.200;  609.000;  665.000
205.752;  -78.425; -626.000; -551.000
205.898;  -51.125; -501.000; -391.000
206.043;  -54.700; -578.000; -506.000
206.189;  -40.675; -243.000; -285.000
206.334;   91.925;  554.000;  606.000
206.480;   74.025;  409.000;  239.000
206.625;  -79.750; -529.000; -552.000
206.771;  -38.300; -451.000; -373.000
206.916;  -41.450; -210.000; -537.000
207.062;  -74.775; -545.000; -591.000
207.207;  -54.350; -546.000; -443.000
207.353;   52.925;  185.000;  460.000
207.498;   17.475;  196.000;   85.000
207.643;  -35.575; -501.000; -370.000
207.789; -133.075;-1069.000; -910.000
207.934;  -85.000; -665.000; -713.000
208.080;  -17.950; -154.000;   66.000
208.225;    0.075;  -22.000;  -57.000
208.370;  -78.525; -727.000; -619.000
208.516;  -76.600; -741.000; -487.000
208.661;  -22.975; -127.000;  -69.000
208.806;  -38.900; -165.000; -171.000
208.952; -122.275;-1044.000; -731.000
209.097;   82.625;  378.000;  349.000
209.242;  -28.400; -307.000; -382.000
209.387;   74.100;  392.000;  350.000
209.533;  -37.850; -321.000; -350.000
209.678;   85.275;  472.000;  543.000
209.823;  -45.625; -408.000; -310.000
209.969;  -87.775; -860.000; -757.000
210.114;  -99.425; -907.000; -719.000
210.259; -111.825; -939.000; -889.000
210.404;  -11.750; -171.000;  103.000
210.549;   19.175;  108.000;    3.000
210.695;   -9.900;   -3.000;  -95.000
210.840;   26.175;   94.000;   67.000
210.985;  -47.650; -484.000; -303.000
211.130;   69.875;  268.000;  406.000
211.275;   23.625;  207.000;  199.000
211.420;  -54.350; -300.000; -289.000
211.566;  -74.275; -536.000; -489.000
211.711;   34.700;  218.000;  157.000
211.856;  -61.800; -545.000; -519.000
212.001;   11.375;  151.000;   44.000
212.146;   21.825;  153.000;   49.000
212.291;  -31.000; -210.000; -186.000
212.436;  -34.750; -280.000;   -6.000
212.581;  -86.125; -685.000; -653.000
212.726;  -65.725; -487.000; -538.000
212.871;  -55.825; -552.000; -217.000
213.016; -153.225;-1172.000;-1029.000
213.161;   65.775;  406.000;  291.000
213.306;  -58.100; -435.000; -577.000
213.451;  -93.100; -778.000; -689.000
213.596;  -45.725; -455.000; -347.000
213.741;  -58.100; -448.000; -538.000
213.886;  -65.525; -498.000; -517.000
214.031;  -30.275; -294.000; -124.000
214.176;  -47.575; -408.000; -341.000
214.321;  -15.325; -296.000; -157.000
214.466;  -23.300; -163.000;  -43.000
214.611;    3.200;  -61.000;  -10.000
214.756; -101.500; -948.000; -858.000
214.901;  -18.425; -388.000; -226.000
215.046; -109.350; -797.000; -825.000
215.191;   29.900;  128.000;   35.000
215.336;   -0.775; -157.000;  -19.000
215.480;  -65.400; -684.000; -505.000
215.625;  -13.525; -175.000;  -19.000
215.770;  -74.850; -757.000; -662.000
215.915;    0.475;   -5.000;  -97.000
216.060;   -9.875; -113.000;  -21.000
216.205; -111.150; -731.000; -779.000
216.349;  -66.450; -470.000; -533.000
216.494; -130.025; -939.000; -867.000
216.639;  -98.275; -823.000; -888.000
216.784;  -79.800; -577.000; -525.000
216.929;   50.850;  392.000;  281.000
217.073;  -14.275; -244.000;  -31.000
217.218;    3.750;   78.000;  -47.000
217.363;  -83.125; -656.000; -618.000
217.507;  -83.650; -623.000; -588.000
217.652; -123.825; -845.000; -874.000
217.797;  -90.175; -708.000; -659.000
217.942; -106.375; -856.000; -720.000
218.086;   73.525;  608.000;  539.000
218.231;  -21.250; -174.000;  -26.000
218.376;  -19.000; -337.000; -229.000
218.520;   -7.500;  -41.000;   96.000
218.665;  -18.900; -338.000; -204.000
218.810;  -43.975; -275.000; -233.000
218.954;   21.075;  201.000;   35.000
219.099; -108.025; -713.000; -963.000
219.243;  -71.350; -589.000; -554.000
219.388;  -26.000; -264.000; -136.000
219.532;   -6.125; -116.000; -116.000
219.677;  -61.150; -564.000; -521.000
219.822;    6.275;   33.000;   89.000
219.966;    8.150;   17.000;  -99.000
220.111;  -31.025; -328.000;  -40.000
220.255;  -88.950; -797.000; -750.000
220.400;  -20.250; -180.000; -146.000
220.544;  -58.275; -516.000; -450.000
220.689;  -58.175; -422.000; -451.000
220.833;    1.425; -123.000;  -58.000
220.978;  -49.050; -393.000; -563.000
221.122;   15.275;  319.000;  307.000
221.267; -108.200; -906.000; -837.000
221.411;  -57.425; -478.000; -394.000
221.555;   -8.125; -104.000;  -23.000
221.700;  -51.675; -329.000; -222.000
221.844;   31.500;  255.000;  272.000
221.989;  -36.725; -328.000; -311.000
222.133;  -37.275; -289.000; -307.000
222.277;   -0.625;    5.000;   78.000
222.422;   12.775;  227.000;  113.000
222.566;  -33.125; -381.000; -214.000
222.711;  -48.800; -414.000; -479.000
222.855;  -78.000; -643.000; -586.000
222.999;  -77.425; -642.000; -717.000
223.144;  -37.725; -195.000; -194.000
223.288;   62.825;  423.000;  251.000
223.432;   23.875;  184.000;  230.000
223.576;   25.700;  152.000;  -21.000
223.721;   44.000;  364.000;  273.000
223.865;  -49.875; -472.000; -475.000
224.009;  204.925; 1673.000; 1631.000
224.153;  -83.575; -660.000; -671.000
224.298;  -71.950; -531.000; -489.000
224.442;   -7.125;  -74.000;  -33.000
224.586;   -9.025; -169.000; -106.000
224.730;  -94.550; -858.000; -670.000
224.875;  -93.625; -739.000; -688.000
225.019;   19.925;  102.000;  188.000
225.163;   52.250;  208.000;  341.000
225.307;   15.950;   97.000;  -91.000
225.451;   45.175;  360.000;  481.000
225.595;   29.850;  264.000;  176.000
225.739;  -12.950; -170.000;  -94.000
225.884;    9.325;   86.000;    5.000
226.028;  -92.875; -760.000; -626.000
226.172;  -39.700; -260.000; -273.000
226.316; -110.675; -941.000; -902.000
226.460;  -70.425; -645.000; -493.000
226.604;  -49.500; -406.000; -400.000
226.748; -101.625; -836.000; -733.000
226.892;  -36.125; -227.000; -181.000
227.036;  -36.700; -537.000; -447.000
227.180;  -53.225; -551.000; -375.000
227.324;  -55.575; -561.000; -580.000
227.468;  -98.675; -819.000; -717.000
227.612;   10.050;  242.000;  -28.000
227.756; -104.100; -845.000; -698.000
227.900;   50.950;  342.000;  441.000
228.044;  -62.300; -509.000; -290.000
228.188;   50.950;  448.000;  568.000
228.332;  -94.400; -546.000; -472.000
228.476;  -24.575; -223.000; -149.000
228.620;  -22.800; -210.000; -150.000
228.764;   65.050;  431.000;  349.000
228.908;   -4.500; -155.000;   30.000
229.052;  -64.400; -615.000; -528.000
229.195;  -11.375; -172.000;   13.000
229.339;  -34.250; -235.000; -305.000
229.483;  -32.000;    5.000; -162.000
229.627;   -0.850; -156.000;  139.000
229.771;  -57.850; -218.000; -294.000
229.915;   19.900;  230.000;   79.000
230.059;  -92.800; -648.000; -663.000
230.202;  -36.850; -370.000; -317.000
230.346;  -25.000; -107.000;  107.000
230.490;  -64.300; -489.000; -521.000
230.634; -108.625; -736.000; -553.000
230.777;   68.025;  478.000;  509.000
230.921;  -54.825; -450.000; -359.000
231.065;  -49.625; -246.000; -286.000
231.209;   38.450;  261.000;  265.000
231.352;   17.900;   54.000;   40.000
231.496;   25.100;  568.000;  188.000
231.640;  -80.675; -693.000; -621.000
231.783;   73.000;  546.000;  525.000
231.927;  -46.450; -294.000; -365.000
232.071; -117.425; -962.000; -736.000
232.214; -107.550; -980.000; -764.000
232.358;  -83.375; -683.000; -599.000
232.502;   -3.400;  -19.000;    7.000
232.645; -120.500;-1090.000; -927.000
232.789;  -19.575; -257.000; -218.000
232.933;  -26.400; -407.000; -224.000
233.076; -130.600;-1038.000; -897.000
233.220; -102.550; -752.000; -777.000
233.363;  -85.300; -669.000; -477.000
233.507;   59.400;  371.000;  129.000
233.650;  -92.050; -764.000; -834.000
233.794;   35.075;  438.000;  461.000
233.938;  -62.825; -530.000; -362.000
234.081;   -9.825;  -93.000;   31.000
234.225;  -62.250; -631.000; -539.000
234.368; -107.425; -773.000; -723.000
234.512;  -49.325; -385.000; -299.000
234.655;  -85.725; -582.000; -555.000
234.798;  -61.125; -493.000; -466.000
234.942; -125.350; -884.000;-1002.000
235.085;  -68.850; -651.000; -443.000
235.229;  -70.650; -405.000; -410.000
235.372;  -39.150; -247.000; -191.000
235.516;  -61.975; -397.000; -321.000
235.659;    8.125;   92.000;  121.000
235.802;   -9.500;  -38.000;  -22.000
235.946;   20.550;  335.000;  215.000
236.089;   31.550;  126.000;  250.000
236.233;   36.800;  275.000;  298.000
236.376;  -42.425; -235.000; -378.000
236.519;  -40.550; -297.000; -319.000
236.663;  -25.050; -215.000; -117.000
236.806; -130.750;-1029.000; -999.000
236.949;   62.075;  543.000;  431.000
237.092;   60.625;  412.000;  391.000
237.236;  -78.975; -589.000; -502.000
237.379;   56.275;  352.000;  428.000
237.522; -113.700; -879.000; -768.000
237.666;  -20.000; -271.000;   18.000
237.809; -125.475; -851.000; -823.000
237.952;   42.450;  469.000;  271.000
238.095;  -49.125; -447.000; -442.000
238.238;   88.675;  688.000;  700.000
238.382;    8.625;  166.000;  103.000
238.525;  -75.250; -598.000; -511.000
238.668; -133.725;-1060.000; -985.000
238.811;  -70.275; -638.000; -643.000
238.954;  -62.600; -483.000; -334.000
239.097;   86.825;  617.000;  664.000
239.241;   22.875;  394.000;  326.000
239.384;  -37.450; -254.000; -214.000
239.527;  -60.725; -424.000; -224.000
239.670; -137.350; -994.000;-1091.000
239.813; -100.000; -696.000; -658.000
239.956;   85.875;  579.000;  473.000
240.099; -104.275; -778.000; -725.000
240.242;   58.775;  428.000;  432.000
240.385;   40.425;  466.000;  450.000
240.528;  -74.100; -706.000; -473.000
240.671;   12.675;  189.000;  134.000
240.814;  -53.625; -441.000; -158.000
240.957;  -99.450; -767.000; -578.000
241.100;  -93.400; -779.000; -755.000
241.243; -152.775;-1234.000; -893.000
241.386;  -65.750; -508.000; -379.000
241.529;  -86.275; -735.000; -547.000
241.672;  -58.375; -566.000; -495.000
241.815; -118.300; -832.000; -808.000
241.958;  -27.000; -125.000; -182.000
242.101;  -73.300; -545.000; -390.000
242.244;  -32.900; -270.000; -325.000
242.387;  -44.850; -304.000; -246.000
242.530;   55.650;  470.000;  134.000
242.673;  -49.550; -381.000; -309.000
242.815; -115.775; -925.000; -899.000
242.958;  -67.700; -482.000; -381.000
243.101;    8.250;  132.000;  187.000
243.244;  -79.925; -564.000; -521.000
243.387;  -53.775; -313.000; -316.000
243.530;  -86.800; -657.000; -674.000
243.672;   -1.475;   43.000;  -92.000
243.815;  -51.150; -355.000; -283.000
243.958;   -5.600;   98.000;  -26.000
244.101;   -1.550;   59.000;  -16.000
244.243;  -11.925;  -47.000;  101.000
244.386; -106.400; -761.000; -630.000
244.529;  -26.900; -132.000; -139.000
244.672; -147.925;-1154.000; -951.000
244.814; -108.850; -621.000; -794.000
244.957;  -67.750; -380.000; -304.000
245.100;  -65.125; -489.000; -489.000
245.242;  -57.825; -387.000; -374.000
245.385;    6.950;  -59.000;  -39.000
245.528; -100.350; -871.000; -705.000
245.670;   82.650;  612.000;  634.000
245.813;  -79.100; -599.000; -547.000
245.956;  -31.575; -324.000; -275.000
246.098;  -68.050; -508.000; -650.000
246.241;   15.200;  194.000;   48.000
246.383;  -23.050; -119.000;  -73.000
246.526;  -74.775; -454.000; -525.000
246.669; -128.750; -889.000; -780.000
246.811;    8.550;  172.000;   -1.000
246.954;  -58.875; -512.000; -426.000
247.096;  -22.500;  -84.000;   -6.000
247.239;  -67.575; -482.000; -445.000
247.381;  -73.175; -647.000; -488.000
247.524;   92.400;  645.000;  679.000
247.666;  -12.250;   58.000;   11.000
247.809; -105.250; -887.000; -691.000
247.951;   -9.200;  -75.000;  138.000
248.094;   26.100;  432.000;  308.000
248.236; -158.250;-1262.000;-1238.000
248.378;    8.675; -356.000;  -81.000
248.521;  -31.700; -334.000; -337.000
248.663;  -35.025; -236.000; -267.000
248.806;  -22.525; -300.000; -266.000
248.948;  -91.100; -886.000; -763.000
249.090;  -40.925; -428.000; -398.000
249.233;  -58.550; -344.000; -381.000
249.375;  -65.050; -474.000; -451.000
249.518;  -16.025;  -83.000; -133.000
249.660;   -5.325; -103.000;    3.000
249.802; -164.900;-1303.000;-1189.000
249.945;  -73.450; -612.000; -540.000
250.087; -112.300; -834.000; -768.000
250.229;  -44.250; -362.000; -480.000
250.371;  -73.525; -494.000; -439.000
250.514;  -57.800; -310.000; -244.000
250.656;  -74.650;   69.000;  102.000
250.798; -122.275; -849.000; -800.000
250.940;  -57.675; -322.000; -322.000
251.083;  -34.200; -335.000; -111.000
251.225;   53.450;  338.000;  310.000
251.367;  -36.200; -274.000; -373.000
251.509;  -27.825; -265.000; -210.000
251.651;  -97.450; -731.000; -671.000
251.794;   55.225;  538.000;  632.000
251.936; -110.900; -821.000; -747.000
252.078;  -72.550; -540.000; -461.000
252.220;  -75.350; -645.000; -477.000
252.362;   87.875;  344.000;  462.000
252.504;  -73.700; -677.000; -584.000
252.646; -113.750; -875.000; -722.000
252.788;   -1.425;   14.000; -128.000
252.931;  -35.100; -257.000; -253.000
253.073;  -28.725; -376.000; -317.000
253.215;    6.625;  141.000;  122.000
253.357;  -15.500;   82.000; -153.000
253.499;  -40.875; -374.000; -234.000
253.641;  -78.250; -749.000; -594.000
253.783;  -97.600; -609.000; -527.000
253.925;  -89.750; -586.000; -591.000
254.067; -102.275; -744.000; -667.000
254.209;  -33.600; -391.000; -259.000
254.351; -127.075; -865.000; -883.000
254.493;  -61.925; -441.000; -417.000
254.635; -117.325; -936.000; -818.000
254.777;  -88.050; -752.000; -687.000
254.918;  -66.025; -512.000; -430.000
255.060;  -59.625; -551.000; -395.000
255.202;  -61.450; -473.000; -261.000
255.344;  -76.875; -658.000; -455.000
255.486;  -62.325; -471.000; -406.000
255.628; -105.750; -780.000; -781.000
255.770;  -95.700; -676.000; -536.000
255.912;  -60.900; -559.000; -468.000
256.053;  -90.050; -730.000; -508.000
256.195;  160.775; 1008.000;  903.000
256.337;  -93.300; -861.000; -595.000
256.479;   68.150;  532.000;  416.000
256.621;  -40.400; -394.000; -212.000
256.762;  -92.375; -789.000; -742.000
256.904;   64.200;  485.000;  487.000
257.046;  -43.925; -381.000; -271.000
257.188;  -43.525; -351.000; -264.000
257.329;  -65.800; -525.000; -464.000
257.471; -116.925; -939.000; -807.000
257.613;  -60.650; -584.000; -498.000
257.755; -142.125;-1073.000; -982.000
257.896;   37.275;  286.000;  392.000
258.038;  -63.300; -403.000; -352.000
258.180;  -43.200; -354.000; -279.000
258.321;  -80.100; -581.000; -457.000
258.463;   -3.450;  -71.000;  133.000
258.605;  -84.500; -562.000; -570.000
258.746; -110.450; -886.000; -772.000
258.888; -152.325;-1026.000;-1020.000
259.029;    6.025;  121.000;   -8.000
259.171;  -94.650; -614.000; -550.000
259.313;    1.975;  -49.000;  -47.000
259.454;  -77.250; -536.000; -414.000
259.596;  -72.400; -483.000; -390.000
259.737;  -71.725; -590.000; -474.000
259.879;   27.425;  217.000;  311.000
260.020;   87.650;  901.000;  636.000
260.162;  -27.075; -146.000; -253.000
260.303; -117.400; -768.000; -687.000
260.445;  -85.600; -609.000; -613.000
260.586;   20.600;  392.000;  157.000
260.728;  -47.325; -360.000; -248.000
260.869; -113.375; -350.000; -343.000
261.011;   80.200;  706.000;  537.000
261.152;  -61.250; -479.000; -319.000
261.293;  -79.425; -576.000; -595.000
261.435;  -30.125; -219.000; -184.000
261.576;  -52.700; -455.000; -325.000
261.718;   51.900;  420.000;  470.000
261.859; -125.900; -940.000; -949.000
262.000; -127.775; -951.000;-1016.000
262.142;  -22.575;  -52.000;  -60.000
262.283; -112.350; -808.000; -691.000
262.424;  -80.500; -666.000; -625.000
262.566; -151.075;-1161.000; -983.000
262.707; -107.450; -840.000; -830.000
262.848; -107.100; -769.000; -726.000
262.990;  -49.825; -362.000; -345.000
263.131;   73.750;  650.000;  681.000
263.272;   -9.150;  -61.000;  -41.000
263.413;  -86.525; -589.000; -561.000
263.555;  -69.950; -669.000; -143.000
263.696;  -90.075; -550.000; -641.000
263.837;  -55.575; -449.000; -551.000
263.978;   -0.875;   -5.000;  -77.000
264.119;  -44.150; -283.000; -264.000
264.261; -118.075; -847.000; -630.000
264.402;   -0.650;   33.000;   40.000
264.543;  -66.925; -509.000; -524.000
264.684;   -6.300;   61.000;  -50.000
264.825;  -77.775; -816.000; -538.000
264.966;   -6.125;  -84.000;  -67.000
265.107; -111.575; -646.000; -670.000
265.248; -121.475; -825.000; -812.000
265.390;  -13.650;  152.000;   -9.000
265.531;  -10.025; -238.000; -107.000
265.672;  -87.050; -557.000; -630.000
265.813;   64.950;  563.000;  439.000
265.954; -144.950; -959.000; -940.000
266.095;   -9.150; -372.000; -322.000
266.236; -102.600; -686.000; -548.000
266.377;  -45.300; -243.000; -297.000
266.518;  -68.900; -619.000; -547.000
266.659;   24.750;  170.000;  268.000
266.800;    6.975;   83.000;   85.000
266.941;  -82.700; -487.000; -478.000
267.082;   16.175;  354.000;   99.000
267.223;  -50.275; -344.000; -273.000
267.364; -117.200; -892.000; -686.000
267.504;  -11.225;    3.000;  135.000
267.645;    1.075;  160.000;   67.000
267.786;  -35.925; -147.000;  -86.000
267.927;  -66.275; -473.000; -379.000
268.068;  -17.300; -186.000;  -61.000
268.209;  -45.025; -175.000; -413.000
268.350;  -51.650; -388.000; -532.000
268.490;  -86.325; -648.000; -521.000
268.631;   32.750;  127.000;  225.000
268.772; -115.375; -874.000; -647.000
268.913;  -40.200; -328.000; -476.000
269.054;   -3.175; -117.000;   12.000
269.194;  -51.600; -418.000; -402.000
269.335; -157.650;-1137.000;-1074.000
269.476;  -18.350;   33.000;  -35.000
269.617;  -59.250; -347.000; -392.000
269.757;  -98.150; -713.000; -646.000
269.898; -100.975; -856.000; -613.000
270.039;  -65.900; -415.000; -405.000
270.180; -135.625; -952.000; -816.000
270.320;  -21.450; -190.000; -250.000
270.461;  -28.000; -277.000; -249.000
270.602;  -19.200; -186.000; -156.000
270.742; -122.450; -868.000; -943.000
270.883;  -65.025; -442.000; -390.000
271.023;  -53.150; -358.000; -357.000
271.164;  -70.825; -607.000; -528.000
271.305;  -90.650; -666.000; -654.000
271.445;  -78.825; -722.000; -683.000
271.586;  -64.025; -462.000; -283.000
271.726;  -53.775; -397.000; -322.000
271.867;  -54.675; -594.000; -534.000
272.008;  169.425; -473.000; -285.000
272.148;  129.275;  462.000;  468.000
272.289;   12.325; -113.000; -181.000
272.429;   25.450;   19.000;  185.000
272.570;  -98.225; -633.000; -737.000
272.710;  -92.550; -825.000; -775.000
272.851;  -35.300;  113.000; -130.000
272.991; -149.325;-1173.000;-1077.000
273.131;  -66.300; -419.000; -459.000
273.272;  -93.825; -683.000; -723.000
273.412;    1.525; -143.000;  -31.000
273.553;  -55.900; -488.000; -507.000
273.693;  137.325;  913.000;  858.000
273.834;  -91.250; -894.000; -692.000
273.974;  -82.025; -664.000; -615.000
274.114;  -96.800; -772.000; -560.000
274.255;   82.975;  414.000;  373.000
274.395;   11.825; -180.000; -125.000
274.535;   33.675;  199.000;  350.000
274.676;   22.350;  225.000;   94.000
274.816;   10.425;  110.000;   34.000
274.956;  -89.850; -624.000; -690.000
275.097;  -51.800;-1014.000; -922.000
275.237;  -93.350; -913.000; -803.000
275.377;  -96.600; -778.000; -689.000
275.517; -129.825; -878.000; -937.000
275.658;  -49.600; -590.000; -555.000
275.798;  -75.625; -606.000; -413.000
275.938;   25.150;  215.000;  323.000
276.078;  -95.300; -626.000; -395.000
276.218;   -0.350;   99.000;  104.000
276.359; -129.725;-1026.000;-1024.000
276.499;  -67.700; -605.000; -446.000
276.639;  -29.600; -305.000; -151.000
276.779;  -48.550; -475.000; -357.000
276.919;  -87.675; -783.000; -624.000
277.059;  -19.675; -261.000; -212.000
277.199;  -38.575; -357.000; -259.000
277.340;   45.375;  287.000;  175.000
277.480; -111.000; -840.000; -693.000
277.620;   22.325;  192.000;   16.000
277.760; -203.925;-1533.000;-1294.000
277.900;   18.950;  113.000;   33.000
278.040;   23.225;  137.000;  159.000
278.180;   21.000;  270.000;  170.000
278.320;   -8.825;   21.000;   56.000
278.460;  -65.450; -443.000; -469.000
278.600;  -93.975; -708.000; -598.000
278.740;   43.650;  448.000;  224.000
278.880;  -61.625; -768.000; -791.000
279.020;   -5.025; -194.000; -144.000
279.160;  -88.200; -672.000; -595.000
279.300; -125.825; -926.000; -873.000
279.440;  -76.725; -709.000; -622.000
279.579;  -16.450;-1014.000; -929.000
279.719;  -38.000; -410.000; -394.000
279.859;   64.325;   -4.000;   41.000
279.999;   29.675; -208.000;  101.000
280.139;   -9.925; -435.000; -387.000
280.279;  -74.075; -708.000; -745.000
280.419;  -17.250; -229.000; -147.000
280.559;  -39.425; -259.000; -180.000
280.698;  -89.200; -790.000; -639.000
280.838;  -88.900; -778.000; -800.000
280.978;  -90.350; -846.000; -790.000
281.118; -116.000; -811.000; -704.000
281.257;   -4.325;   24.000;    6.000
281.397; -112.675;-1094.000; -960.000
281.537;  -89.025; -599.000; -712.000
281.677;  -24.025; -150.000; -101.000
281.816;  -89.575; -700.000; -630.000
281.956;  -35.425; -193.000; -257.000
282.096;  -73.000; -539.000; -396.000
282.235; -103.100; -672.000; -638.000
282.375;  -15.200; -243.000;  -98.000
282.515; -104.600; -715.000; -707.000
282.654;   31.300;   29.000;  106.000
282.794;   40.775;  388.000;  244.000
282.934;  -56.750; -530.000; -491.000
283.073; -134.075;-1030.000; -857.000
283.213;  -47.925; -460.000; -467.000
283.353;  -27.200; -408.000; -349.000
283.492;  -32.225; -264.000; -296.000
283.632;  -38.800; -254.000; -168.000
283.771; -108.825; -859.000; -730.000
283.911;  -44.000; -369.000; -260.000
284.050; -104.575; -794.000; -748.000
284.190; -161.500;-1229.000;-1096.000
284.329; -139.925;-1055.000; -964.000
284.469;  -62.825; -516.000; -591.000
284.608;  -51.725; -559.000; -598.000
284.748;  -83.650; -614.000; -570.000
284.887;    3.250;  -87.000;  -20.000
285.027; -110.000; -844.000; -892.000
285.166;  -32.825; -192.000; -249.000
285.306;   14.575; -116.000;  -33.000
285.445;  -43.075; -229.000; -343.000
285.584;  -89.850; -630.000; -494.000
285.724;  -45.300; -282.000; -322.000
285.863; -108.925; -857.000; -507.000
286.002;  -50.400; -366.000; -276.000
286.142; -102.525; -715.000; -622.000
286.281;  -64.950; -525.000; -493.000
286.420;  -87.450; -554.000; -417.000
286.560;   80.850;  653.000;  623.000
286.699; -140.875; -958.000; -912.000
286.838;  -91.425; -590.000; -591.000
286.978;  -82.075; -533.000; -537.000
287.117; -124.425;-1085.000; -950.000
287.256;  -31.825; -228.000; -211.000
287.395;  -50.775; -197.000; -378.000
287.535;  -44.150; -370.000; -298.000
287.674;  -86.025; -509.000; -484.000
287.813;   61.425;  661.000;  533.000
287.952; -135.575;-1010.000; -871.000
288.091; -149.875;-1049.000; -915.000
288.231;    6.575;   13.000;   15.000
288.370; -168.225;-1217.000;-1200.000
288.509;  -90.075; -728.000; -645.000
288.648;  -92.225; -770.000; -548.000
288.787;  -41.925; -243.000;  -87.000
288.926;  -55.400; -454.000; -475.000
289.065;  115.150;  859.000;  672.000
289.204;  -44.375; -377.000; -217.000
289.344;  -88.475; -791.000; -690.000
289.483;   36.000;  416.000;  304.000
289.622;  -20.175; -291.000; -149.000
289.761;  -15.075; -309.000; -166.000
289.900; -110.425; -785.000; -626.000
290.039;   -6.275;  -12.000;  -95.000
290.178;  -49.000; -274.000; -180.000
290.317;  -86.900; -618.000; -479.000
290.456;  -66.350; -463.000; -451.000
290.595; -141.425; -961.000; -833.000
290.734; -141.050; -904.000; -891.000
290.873;  -64.900; -456.000; -420.000
291.011; -106.675; -833.000; -843.000
291.150; -100.100; -770.000; -682.000
291.289;  -30.600; -343.000; -110.000
291.428;  -92.250; -599.000; -480.000
291.567;  -48.650; -370.000; -442.000
291.706;   -1.400;  109.000;  154.000
291.845;  -92.300; -597.000; -505.000
291.984; -158.475;-1234.000;-1061.000
292.122;   67.575;  602.000;  582.000
292.261;   45.950;  620.000;  463.000
292.400;   12.425; -144.000;  211.000
292.539; -130.700; -959.000; -813.000
292.678;  -35.250; -325.000; -300.000
292.816; -146.200;-1136.000; -965.000
292.955;  -85.725; -844.000; -684.000
293.094;   -6.900; -173.000; -337.000
293.233;  -62.125; -556.000; -400.000
293.371;  -31.775; -225.000;  -84.000
293.510; -112.325; -866.000; -780.000
293.649; -124.575; -959.000; -924.000
293.787;  -49.500;-1083.000;-1012.000
293.926;   -3.200; -113.000;  -32.000
294.065;  -55.100; -379.000; -290.000
294.203;   42.100;  298.000;  406.000
294.342;   22.650;   74.000;  156.000
294.481; 5628.475;51180.000; -836.000
294.619;  -30.450; -425.000; -582.000
294.758; -140.800;-1230.000;-1137.000
294.896;   68.250; -125.000;    5.000
295.035; -113.925;-1040.000;-1006.000
295.174; -120.925;-1082.000; -954.000
295.312;  -37.450; -323.000; -203.000
295.451;  -11.900; -307.000; -428.000
295.589;  -42.025; -389.000; -518.000
295.728;   14.000; -292.000; -165.000
295.866;    0.475;  -36.000;  -51.000
296.005;  -57.125; -584.000; -341.000
296.143;  -66.150; -558.000; -596.000
296.282; -107.825; -957.000; -881.000
296.420;  -96.800; -657.000; -557.000
296.559;  -92.425; -892.000; -633.000
296.697;   33.350; -847.000; -665.000
296.835;   44.625;-1141.000;-1002.000
296.974;   47.775;  -23.000;   39.000
297.112;   18.825; -443.000; -504.000
297.251;  -78.750; -815.000; -755.000
297.389;   96.700; -576.000; -438.000
297.527;   46.425; -145.000;  -83.000
297.666;  -46.500; -486.000; -438.000
297.804;  -53.600; -404.000; -264.000
297.942;    1.575; -136.000; -161.000
298.081;   -8.325; -183.000;   63.000
298.219;   57.725;  -17.000;  -19.000
298.357;   53.500; -144.000;  -71.000
298.495;   41.075; -810.000; -812.000
298.634;   68.800;  245.000;  219.000
298.772;   60.700; -220.000; -338.000
298.910;  -35.725; -309.000; -182.000
299.048;   -9.850; -130.000; -153.000
299.187;  -30.500; -350.000; -250.000
299.325;   23.200;   52.000;  122.000
299.463;   64.825; -389.000; -299.000
299.601;  106.675; -327.000; -271.000
299.739; -100.525; -908.000; -883.000
299.877;  -84.725; -791.000; -703.000
300.016;  -57.450;-1095.000; -935.000
300.154;  146.825;  -19.000; -161.000
300.292;   53.625; -428.000; -348.000
300.430;   23.175; -408.000; -291.000
300.568; -103.100; -940.000; -874.000
300.706;  -53.250; -366.000; -469.000
300.844;  -65.650;-1108.000; -979.000
300.982;  113.200;  246.000;  282.000
301.120; -101.525; -965.000; -866.000
301.258;  -76.875; -812.000; -705.000
301.396;   36.575;  104.000;  -41.000
301.534;   66.400; -218.000; -293.000
301.672;   -0.475; -664.000; -521.000
301.810;   34.700; -613.000; -545.000
301.948;  125.100;   53.000;  149.000
302.086;  640.400; -250.000;  -32.000
302.224;  944.100; -610.000; -585.000
302.362;   28.325; -558.000; -622.000
302.500;   -9.125; -923.000; -893.000
302.638;   99.975;  128.000;  245.000
302.776;  -10.675; -352.000; -408.000
302.913;   45.800;  447.000;  236.000
303.051;    0.925;  -86.000;  -23.000
303.189;   46.200;   90.000;  118.000
303.327;  -34.500; -341.000; -256.000
303.465;  -93.275; -832.000; -588.000
303.603;  -88.375; -805.000; -604.000
303.740;  107.525;  417.000;  241.000
303.878;    7.125; -800.000; -759.000
304.016;  -85.350; -915.000; -790.000
304.154; -124.075;-1123.000;-1152.000
304.291;  -36.525; -505.000; -554.000
304.429;   10.975;  102.000;   74.000
304.567; -127.425; -908.000; -893.000
304.705;  -67.800; -408.000; -515.000
304.842;   95.375; -616.000; -540.000
304.980;   51.350;  215.000;   35.000
305.118;   48.375; -367.000; -365.000
305.255;  -72.800; -945.000; -927.000
305.393;   49.175;  178.000;  239.000
305.531; -107.775;-1173.000; -956.000
305.668;  -59.425; -663.000; -582.000
305.806;  112.850; -358.000; -439.000
305.943;  116.775; -629.000; -637.000
306.081;   46.900; -378.000; -267.000
306.219; -106.275; -863.000; -748.000
306.356;    7.100;  158.000;   27.000
306.494;   96.850;  981.000;  761.000
306.631;    4.025;  -11.000;  -55.000
306.769;   -5.075; -613.000; -485.000
306.906;  -18.100; -284.000; -258.000
307.044;  -61.825; -473.000; -488.000
307.181;  -69.050; -410.000; -332.000
307.319;   17.400;  112.000;   87.000
307.456; -169.375;-1191.000;-1153.000
307.594; -101.300; -980.000; -727.000
307.731;  -20.175; -371.000; -164.000
307.868;   -6.650;  -15.000;   20.000
308.006; -129.475; -961.000; -847.000
308.143;  -71.675; -618.000; -330.000
308.281;  174.025;  -37.000; -254.000
308.418;  -19.225; -748.000; -640.000
308.555;  -72.500; -400.000; -250.000
308.693;  -84.125; -577.000; -573.000
308.830; -107.025; -712.000; -657.000
308.967;  -16.550; -215.000;  -95.000
309.105;  -45.575; -507.000; -396.000
309.242;   55.375; -468.000; -367.000
309.379;  315.575; -577.000; -655.000
309.517;  -67.750; -936.000; -948.000
309.654; -108.850; -910.000; -734.000
309.791;  -87.225; -662.000; -580.000
309.928; -115.950; -977.000; -914.000
310.065;  183.100;  819.000;  697.000
310.203;    5.875; -825.000; -850.000
310.340;  -20.200; -465.000; -321.000
310.477;  -70.950; -412.000; -516.000
310.614;  -60.500; -383.000; -473.000
310.751;  -71.175; -427.000; -518.000
310.889;  -32.225;    1.000;   11.000
311.026; -156.675;-1161.000; -939.000
311.163;  -47.050; -386.000; -380.000
311.300;  -70.475; -512.000; -479.000
311.437;  -78.450; -658.000; -619.000
311.574; -150.375;-1226.000; -985.000
311.711;  -51.450; -595.000; -433.000
311.848;  -42.900; -380.000; -388.000
311.985;    7.250;  270.000;   93.000
312.122; -113.000; -932.000; -762.000
312.259; -118.000; -941.000; -994.000
312.396;  -85.825; -508.000; -551.000
312.533;  -92.075; -812.000; -790.000
312.670; -132.375;-1070.000; -898.000
312.807;  -45.450; -352.000; -367.000
312.944;  -75.700; -513.000; -611.000
313.081;  -34.050; -150.000; -415.000
313.218; -113.100;-1111.000; -867.000
313.355;    3.100; -531.000; -449.000
313.492;   -0.950; -455.000; -292.000
313.629;  114.675;  815.000;  735.000
313.766; -157.275;-1176.000;-1008.000
313.902;  -34.575; -186.000;   21.000
314.039;  -38.975; -372.000; -289.000
314.176;   17.075;  286.000;  192.000
314.313;  -73.800; -569.000; -473.000
314.450;  -86.725; -788.000; -684.000
314.587;  -36.725; -468.000; -480.000
314.723;   -2.675;  -78.000;  130.000
314.860;   31.000;  318.000;  332.000
314.997;   35.175;  223.000;  142.000
315.134;  -40.300; -385.000; -368.000
315.270;  -27.350; -480.000; -496.000
315.407; -130.275;-1094.000; -967.000
315.544;  -52.475; -657.000; -538.000
315.681;  -69.975; -681.000; -565.000
315.817;   32.925; -133.000; -176.000
315.954;   20.425; -613.000; -392.000
316.091; -123.975;-1045.000;-1023.000
316.227;  -21.050;  -71.000; -179.000
316.364;  -12.850;   23.000;    6.000
316.500;  -45.100; -113.000; -300.000
316.637;  -39.825; -181.000; -302.000
316.774;  -78.075; -625.000; -358.000
316.910;  -84.425; -598.000; -629.000
317.047;  -51.450; -487.000; -351.000
317.183;  -42.250; -435.000; -566.000
317.320;   -8.275; -367.000; -321.000
317.456;  -74.900; -733.000; -805.000
317.593;  -79.350; -598.000; -641.000
317.729;  -10.175;  168.000;  -67.000
317.866; -194.725;-1434.000;-1285.000
318.002;  -88.900; -708.000; -948.000
318.139;  -84.925; -883.000; -867.000
318.275; -110.800;-1003.000; -738.000
318.412;  -57.550; -517.000; -336.000
318.548;  -33.225; -751.000; -720.000
318.685;  -87.025; -985.000; -888.000
318.821; -103.100; -762.000; -735.000
318.957;  -25.000;   34.000;  -23.000
319.094;   38.200;  297.000;  154.000
319.230;  -68.125; -756.000; -742.000
319.367;  120.125; -471.000; -520.000
319.503;   69.925; -538.000; -436.000
319.639;  -97.725; -877.000; -793.000
319.775;  -63.125; -750.000; -685.000
319.912;  -51.775; -424.000; -519.000
320.048;  -70.675;-1184.000;-1184.000
320.184;   78.625;   59.000;   70.000
320.321;  -54.050; -497.000; -467.000
320.457;   71.600;  475.000;  662.000
320.593;  -72.800; -375.000; -382.000
320.729; -112.200; -732.000; -734.000
320.866;  -81.825; -577.000; -635.000
321.002;  -81.900; -759.000; -809.000
321.138;  -17.350; -135.000; -211.000
321.274;   74.875; -148.000; -115.000
321.410;  -20.550; -585.000; -353.000
321.546;  -33.450;-1011.000; -911.000
321.683;   43.875;  400.000;  185.000
321.819;   17.850;  -48.000; -117.000
321.955;  -92.775; -743.000; -722.000
322.091;  -53.725; -585.000; -540.000
322.227;   -5.375; -382.000; -202.000
322.363;  -13.425; -320.000; -215.000
322.499;  -47.275; -343.000; -331.000
322.635;  152.000;  636.000;  443.000
322.771;   35.900; -139.000;   12.000
322.907;   88.650;  129.000;  327.000
323.043;  -22.650; -115.000; -206.000
323.179;  -35.300; -394.000; -363.000
323.315;   22.325; -401.000; -371.000
323.451;   80.875; -328.000; -236.000
323.587;   63.225;  -60.000;  -77.000
323.723;   18.200; -682.000; -601.000
323.859;  -18.575; -258.000;  -76.000
323.995;  -39.600; -467.000; -409.000
324.131; -117.000; -967.000; -892.000
324.267;  -40.450; -254.000; -276.000
324.402; -123.400; -960.000; -983.000
324.538;    1.200; -279.000; -104.000
324.674;   24.950;  164.000;   77.000
324.810;  116.400;  226.000;  308.000
324.946;   11.675; -810.000; -658.000
325.082;  -76.950; -568.000; -475.000
325.217;  -29.825;  -62.000;   16.000
325.353;  -94.550; -764.000; -659.000
325.489;  -89.250; -540.000; -506.000
325.625;  -74.725; -579.000; -525.000
325.760;   52.175;  517.000;  376.000
325.896;  -21.475; -515.000; -702.000
326.032;  -41.100; -403.000; -352.000
326.168;  -59.750; -462.000; -369.000
326.303;  -55.825; -352.000; -461.000
326.439;  -14.075; -336.000; -276.000
326.575;    5.675; -190.000;  -29.000
326.710;   -5.375; -156.000;  -30.000
326.846;  -10.900;  146.000;  103.000
326.982;  -93.375; -530.000; -548.000
327.117;  -67.400; -481.000; -442.000
327.253;  -83.425; -745.000; -742.000
327.388; -128.650;-1137.000;-1153.000
327.524;  -66.750; -811.000; -578.000
327.659;  -18.700;  -58.000;  -22.000
327.795;  -18.200;   69.000;   45.000
327.931;  -76.325; -723.000; -499.000
328.066;  -18.550; -417.000; -276.000
328.202;  -44.775;   12.000; -129.000
328.337;   85.825;  957.000;  713.000
328.473;   30.700;  -12.000;  -74.000
328.608;  -21.350; -256.000; -267.000
328.743;  -84.925; -799.000; -664.000
328.879;    5.775;  214.000;  114.000
329.014;  -45.825; -102.000; -122.000
329.150;  -90.925; -358.000; -483.000
329.285;  -75.850; -465.000; -466.000
329.421;  -27.725; -548.000; -246.000
329.556;  -25.925;  -36.000;   85.000
329.691;  -95.100; -633.000; -615.000
329.827;  -94.725; -626.000; -480.000
329.962;  -27.050;  131.000; -301.000
330.097;  -83.825; -673.000; -585.000
330.233;  -48.075; -410.000; -223.000
330.368; -115.425; -839.000; -628.000
330.503;  -18.700;    3.000;   98.000
330.638;    0.875;  -93.000; -125.000
330.774;  -56.900; -609.000; -530.000
330.909;  -36.375; -434.000; -244.000
331.044;  -84.850; -714.000; -708.000
331.179; -160.925;-1217.000;-1109.000
331.315;   -4.750;   77.000;   20.000
331.450;    8.700;  157.000;  285.000
331.585;  -96.225; -805.000; -706.000
331.720;  -75.550; -510.000; -460.000
331.855;  -16.325;  -35.000; -102.000
331.990;  243.525;   62.000;  138.000
332.126;  135.500; -110.000;   71.000
332.261;  -14.925; -379.000; -265.000
332.396;   -4.250; -135.000; -242.000
332.531;  -81.600;-1074.000;-1031.000
332.666;   34.650; -519.000; -363.000
332.801;  -91.600; -726.000; -807.000
332.936;  -19.175; -192.000; -122.000
333.071; -135.925; -870.000; -817.000
333.206;   27.950;  307.000;  379.000
333.341;   27.875;  344.000;  418.000
333.476;  -91.925; -627.000; -623.000
333.611;  -55.800; -251.000; -173.000
333.746;  -44.325; -381.000; -464.000
333.881; -116.425; -973.000; -935.000
334.016; -128.425; -936.000; -917.000
334.151; -116.325; -746.000; -702.000
334.286;   19.475;  152.000;  186.000
334.421;   -9.700; -125.000; -178.000
334.556;  -91.500; -611.000; -567.000
334.690;  -83.250; -631.000; -577.000
334.825;   54.275;  381.000;   83.000
334.960;  -65.500; -285.000; -413.000
335.095;    5.050;  135.000;  -91.000
335.230; -106.500; -722.000; -738.000
335.365; -142.375;-1084.000; -990.000
335.499; -123.100;-1108.000;-1037.000
335.634;   23.075;    9.000;  534.000
335.769; -104.300; -755.000; -720.000
335.904;  -71.525; -603.000; -561.000
336.038;  -55.425; -735.000; -657.000
336.173; -113.500;-1206.000;-1194.000
336.308;   -0.900; -116.000; -189.000
336.443;   17.450; -544.000; -634.000
336.577;  -64.950; -936.000; -787.000
336.712;   57.350;   -4.000;  -12.000
336.847;  -34.600; -724.000; -607.000
336.981;   65.025; -272.000; -208.000
337.116;  281.850;  615.000;  501.000
337.250;  152.150; -434.000; -421.000
337.385;  269.775; -297.000; -208.000
337.520;   80.625; -632.000; -603.000
337.654;  -53.025; -215.000; -126.000
337.789; -125.925; -989.000; -933.000
337.923;  -37.200; -104.000; -205.000
338.058;  -97.100; -673.000; -738.000
338.192;  -43.425; -611.000; -488.000
338.327;  -15.475;  -18.000; -155.000
338.461;  -68.100; -299.000; -469.000
338.596;  -80.575; -780.000; -638.000
338.730;  -96.525; -767.000; -803.000
338.865;   85.425;  -46.000; -140.000
338.999;  -51.200; -846.000; -702.000
339.134;  -37.850; -634.000; -536.000
339.268;   11.375; -741.000; -603.000
339.403;  346.025; -740.000; -775.000
339.537;  129.850; -894.000; -820.000
339.671; -110.800; -829.000; -813.000
339.806;  -71.100; -556.000; -512.000
339.940;    6.825; -261.000; -235.000
340.074; -100.000; -685.000; -510.000
340.209;  -40.000; -351.000; -230.000
340.343;  -93.750; -517.000; -573.000
340.477;  139.625;  998.000; 1036.000
340.612;  -54.975;-1033.000; -900.000
340.746;  142.200; -199.000; -243.000
340.880;  -65.675; -924.000; -785.000
341.014;  -21.625;  -45.000; -154.000
341.149; -114.500; -756.000; -718.000
341.283; -103.625; -839.000; -754.000
341.417;  -91.300;-1124.000; -938.000
341.551;  116.150; -768.000; -708.000
341.685;  -29.650; -633.000; -611.000
341.820;  -45.925; -562.000; -493.000
341.954;  -39.025; -218.000; -349.000
342.088; -147.375;-1102.000;-1019.000
342.222;   45.950;  565.000;  618.000
342.356;  -49.425; -395.000; -335.000
342.490;  -85.000; -880.000; -841.000
342.624;  -42.075; -339.000; -242.000
342.758;   -0.075; -364.000; -312.000
342.892;  -69.725; -710.000; -585.000
343.026;  -41.750;  -58.000; -116.000
343.160;  -75.500; -426.000; -376.000
343.294;  -80.375; -474.000; -337.000
343.428;  -23.975; -488.000; -448.000
343.562;   -8.425; -172.000;  -23.000
343.696;  -29.850; -385.000; -314.000
343.830;  -19.250; -362.000; -356.000
343.964;   14.950; -231.000; -168.000
344.098;  898.950;  199.000;   70.000
344.232;  760.000; -266.000; -127.000
344.366;   93.325; -567.000; -453.000
344.500;   64.650; -665.000; -744.000
344.634;   28.725; -324.000; -164.000
344.768;  -20.875; -531.000; -341.000
344.902;   25.225;  278.000;  256.000
345.035;  -76.775; -556.000; -496.000
345.169; -122.025; -933.000; -656.000
345.303;  -37.900; -308.000; -482.000
345.437;  -71.375; -826.000; -717.000
345.571;  -79.075; -675.000; -594.000
345.704;  -70.400; -309.000; -532.000
345.838;  -25.125; -331.000; -284.000
345.972;  -41.375; -543.000; -495.000
346.106;  159.425; -179.000; -190.000
346.239;  419.350; -312.000; -243.000
346.373;   19.125; -343.000; -302.000
346.507; -134.225; -950.000; -962.000
346.640;  150.775;  -30.000;   13.000
346.774;  -43.175; -650.000; -797.000
346.908;  -21.025; -138.000;  -11.000
347.041; -107.100; -646.000; -593.000
347.175;   -3.350;  259.000;   27.000
347.309;  -68.825; -698.000; -628.000
347.442;  -99.200; -883.000; -732.000
347.576;  290.225;  670.000;  668.000
347.709;  189.850; -123.000;  -52.000
347.843;  -83.025; -933.000; -825.000
347.976;   32.900;  235.000;  294.000
348.110; -179.600;-1268.000;-1186.000
348.243;  -97.625; -679.000; -772.000
348.377;    4.200;  -26.000;   60.000
348.510;   59.600;  403.000;  540.000
348.644;  -29.550;  -37.000; -159.000
348.777;   -0.350;  180.000;  191.000
348.911;  -51.900; -142.000; -112.000
349.044;  163.625;  471.000;  448.000
349.178;  147.375;-1069.000;-1006.000
349.311;  111.800;  141.000;  255.000
349.444;    4.700; -927.000; -813.000
349.578;  -24.625; -347.000; -200.000
349.711; -101.950; -959.000; -862.000
349.845;   -7.350; -661.000; -591.000
349.978; -157.075;-1224.000;-1137.000
350.111;  -86.725; -546.000; -612.000
350.244;  -79.750; -596.000; -700.000
350.378;   -3.300; -392.000; -393.000
350.511;  -64.525; -393.000; -426.000
350.644; -101.525; -808.000; -806.000
350.778;   -1.325;  168.000;  104.000
350.911;   10.725;  134.000;  140.000
351.044;  -89.300; -685.000; -615.000
351.177;  -44.750; -321.000; -281.000
351.310;  -25.900;    3.000; -131.000
351.444;  -59.100; -888.000; -788.000
351.577;  112.275;  140.000;   90.000
351.710;  106.800;  593.000;  417.000
351.843;  -21.400; -165.000;  -77.000
351.976;    7.275;  149.000;  -79.000
352.109;  -95.625; -621.000; -612.000
352.242;  -26.600; -464.000; -419.000
352.376;  -57.575; -580.000; -636.000
352.509;  167.350; -437.000; -356.000
352.642;   12.600; -654.000; -604.000
352.775;   58.050; -141.000;  -98.000
352.908; -110.400; -933.000; -904.000
353.041; -103.275; -814.000; -824.000
353.174;  -69.400; -551.000; -424.000
353.307;  -78.675; -753.000; -764.000
353.440;   61.900;  541.000;  453.000
353.573; -114.625; -957.000;-1008.000
353.706;  -41.075; -384.000; -558.000
353.839;  -24.750; -264.000; -220.000
353.971;  -81.575; -657.000; -512.000
354.104;  -74.975; -896.000; -835.000
354.237;  -29.125; -627.000; -662.000
354.370;  -88.950; -846.000; -879.000
354.503; -179.325;-1231.000;-1308.000
354.636;  -39.550; -529.000; -348.000
354.769; -129.050; -937.000; -860.000
354.902;  -11.600; -230.000; -139.000
355.034;  -21.725; -164.000; -220.000
355.167;  -12.300; -262.000; -162.000
355.300;  -90.900;-1061.000; -880.000
355.433;  964.525;  -71.000;  -14.000
355.565; 1504.850; -402.000; -384.000
355.698;  403.275; -356.000; -296.000
355.831;    6.150; -882.000; -801.000
355.964;   80.325; -285.000; -170.000
356.096;  -98.900; -856.000; -843.000
356.229;    1.775; -523.000; -530.000
356.362;  320.475; -373.000; -266.000
356.494;  586.325; -229.000; -162.000
356.627;  467.700;  269.000;  377.000
356.760;  627.100;  120.000;   53.000
356.892;  959.800; -286.000; -601.000
357.025;  646.350;  403.000;  389.000
357.157;  592.725; -167.000; -179.000
357.290;  691.075; -856.000; -713.000
357.423;  212.000; -667.000; -556.000
357.555;  118.825; -217.000; -228.000
357.688;  126.600; -483.000; -364.000
357.820;  471.625; -870.000; -877.000
357.953; 3778.425; -563.000; -589.000
358.085;  810.650; -632.000; -612.000
358.218; 1127.500;-1131.000; -932.000
358.350;  206.300;  -58.000;  312.000
358.483; -118.450;-1300.000;-1187.000
358.615;  -23.425;-1182.000;-1078.000
358.747;  -56.125;-1187.000;-1058.000
358.880;   27.275; -810.000; -744.000
359.012;  -10.725; -376.000; -202.000
359.145;  -37.125; -480.000; -511.000
359.277;   62.650; -962.000; -913.000
359.409; 3096.875;  536.000;  231.000
359.542;  832.525; -738.000; -688.000
359.674;   69.875;   46.000;   13.000
359.806;  -60.725; -565.000; -438.000
359.939;  -46.350; -617.000; -516.000
360.071;   -5.475; -583.000; -579.000
360.203;  -35.225; -411.000; -364.000
360.335;   51.250;  164.000;  -16.000
360.468;  188.000; -249.000; -307.000
360.600; 2496.025; -547.000; -454.000
360.732; 2869.375; -546.000; -423.000
360.864;  404.550;-1216.000;-1044.000
360.996;  281.900; -516.000; -554.000
361.129;   50.475; -389.000; -598.000
361.261;   29.575;  110.000; -113.000
361.393;  -20.250; -252.000; -214.000
361.525;   22.525;   94.000;  244.000
361.657;  -31.525; -821.000; -703.000
361.789;    3.975; -139.000; -155.000
361.921;  228.500; -642.000; -593.000
362.053;  252.100;  524.000;  541.000
362.185;   52.825;  288.000;   72.000
362.318;  -77.950; -709.000; -705.000
362.450;  109.650;  294.000;  444.000
362.582;   93.825; -913.000; -870.000
362.714;  -40.750; -353.000; -332.000
362.846;  -91.775; -606.000; -490.000
362.978; -131.700; -941.000; -811.000
363.109;   50.400; -161.000; -260.000
363.241;  431.550; -739.000; -749.000
363.373;  432.175; -649.000; -564.000
363.505;  670.550; -186.000;  -91.000
363.637;  167.225; -787.000; -601.000
363.769; -116.600;-1067.000;-1080.000
363.901;  -74.425; -596.000; -654.000
364.033; -120.700;-1103.000;-1062.000
364.165;    0.025; -283.000; -283.000
364.296;   88.750; -316.000; -177.000
364.428;   66.500;-1344.000;-1220.000
364.560;  -73.000; -679.000; -661.000
364.692;  -58.025; -738.000; -835.000
364.824;  259.075; -588.000; -456.000
364.955;  439.525; -402.000; -564.000
365.087;  937.500;-1097.000; -852.000
365.219;   34.150; -686.000; -816.000
365.351;  -65.950; -526.000; -572.000
365.482;   55.750;  300.000;  240.000
365.614;  -59.750; -402.000; -314.000
365.746;  -95.325; -729.000; -752.000
365.877; -101.775; -706.000; -672.000
366.009;  239.000;  -35.000;  -62.000
366.141;  -85.825;-1249.000;-1134.000
366.272; -109.375; -803.000; -719.000
366.404; -106.300;-1005.000; -874.000
366.535;  -18.675; -139.000;  -12.000
366.667; -104.175; -644.000; -649.000
366.799;   46.625;  353.000;  203.000
366.930; -124.425; -862.000; -996.000
367.062;  119.125; -639.000; -613.000
367.193;  163.175; -872.000; -842.000
367.325;  -67.400; -580.000; -684.000
367.456;   74.025; -246.000;   31.000
367.588;  148.375; -371.000; -318.000
367.719;   30.925;  -44.000;  -45.000
367.851;  -13.025; -222.000; -241.000
367.982;  -55.925; -875.000; -732.000
368.113;   92.575; -475.000; -358.000
368.245; -122.975; -960.000; -841.000
368.376;  -18.450; -254.000; -302.000
368.508;  -37.550; -188.000; -263.000
368.639; -127.575;-1166.000;-1034.000
368.770;  -14.175; -670.000; -589.000
368.902;  -63.300; -836.000; -926.000
369.033; -110.400; -906.000; -855.000
369.164;  -59.350; -720.000; -653.000
369.296; -106.750; -452.000; -601.000
369.427;   -0.200; -209.000; -144.000
369.558;  -57.550; -593.000; -377.000
369.689;  -80.325; -721.000; -569.000
369.821; -127.550; -951.000; -845.000
369.952;  -18.650;   42.000; -108.000
370.083;  -53.300; -229.000; -108.000
370.214;  -88.825; -735.000; -650.000
370.345;   -4.300;   65.000;   81.000
370.477;  -90.400; -810.000; -790.000
370.608;  224.125; -328.000; -264.000
370.739;  -45.100;-1233.000;-1292.000
370.870;  -32.250;-1102.000; -923.000
371.001;   95.400; -378.000; -467.000
371.132;  -80.100; -754.000; -735.000
371.263;  -28.475;  -42.000; -148.000
371.394; -130.975; -841.000; -748.000
371.525;   30.950;  345.000;  225.000
371.657;  -91.175; -808.000; -670.000
371.788;   64.600;  103.000;  199.000
371.919;  173.925; -384.000; -304.000
372.050; 3605.875;  -91.000; -156.000
372.181; 1123.500; -188.000; -294.000
372.311;  365.800;   42.000; -127.000
372.442;   22.550; -457.000; -451.000
372.573;  -32.375; -444.000; -340.000
372.704; -115.600;-1008.000; -980.000
372.835;   74.950; -228.000; -289.000
372.966;  -66.375; -646.000; -554.000
373.097;  -68.075; -575.000; -711.000
373.228;  -37.500; -717.000; -542.000
373.359;  122.350; -824.000; -536.000
373.490;  924.400; -881.000; -727.000
373.620; 1170.300;-1001.000; -803.000
373.751; 1773.100; -332.000; -396.000
373.882;  794.325; -663.000; -733.000
374.013;   72.550; -449.000; -262.000
374.143;  -29.925; -581.000; -659.000
374.274;  -86.025; -987.000; -908.000
374.405;  164.100; -388.000; -276.000
374.536;  427.150; -526.000; -387.000
374.666; 1135.025; -759.000; -807.000
374.797;  238.875; -817.000; -868.000
374.928;  844.700; -710.000; -560.000
375.058;  902.800; -535.000; -500.000
375.189;   80.975;  -59.000;  -93.000
375.320;  -95.975; -928.000;-1034.000
375.450;  -36.225; -625.000; -616.000
375.581;  -45.150; -526.000; -436.000
375.712;  -56.250; -574.000; -250.000
375.842;  296.200; -438.000; -415.000
375.973;  219.175; -554.000; -513.000
376.103;  -39.950; -665.000; -648.000
376.234;  -82.625; -531.000; -552.000
376.364;  -42.575; -944.000; -867.000
376.495;  321.750;  925.000;  529.000
376.625;  -13.700; -472.000; -485.000
376.756;   70.575; -709.000; -678.000
376.886;  -76.000;-1178.000;-1026.000
377.017;   56.425;-1048.000;-1061.000
377.147;  357.000; -786.000; -782.000
377.278;   55.250;  174.000;  228.000
377.408; -120.175; -801.000; -815.000
377.538; -110.250; -707.000; -693.000
377.669;  -75.525; -537.000; -613.000
377.799;  -86.050; -645.000; -635.000
377.929;  -73.725; -610.000; -428.000
378.060; -127.250; -781.000; -847.000
378.190;  -50.725; -726.000; -531.000
378.320;  -63.175; -401.000; -406.000
378.451;  -14.525; -131.000;  -22.000
378.581;  -13.925;  -67.000; -110.000
378.711;  139.525; 1035.000;  866.000
378.841;  -16.225; -533.000; -675.000
378.972;  -64.550; -871.000; -751.000
379.102;  -12.575; -652.000; -579.000
379.232;  -24.450; -126.000;  -73.000
379.362;  -94.900;-1001.000; -885.000
379.492;   -8.875; -373.000; -424.000
379.623;   88.850;    0.000;  111.000
379.753;  -88.750;-1107.000; -974.000
379.883;  182.575;   59.000;  156.000
380.013;    2.875;-1081.000;-1017.000
380.143; -104.950;-1097.000;-1056.000
380.273;  -95.350; -985.000; -861.000
380.403;   -7.700; -344.000; -257.000
380.533;  -36.625; -651.000; -664.000
380.663;   52.725;  173.000;  128.000
380.793;  -89.575;-1027.000;-1074.000
380.923;  -17.275; -103.000;  -34.000
381.053;  -91.525; -613.000; -623.000
381.183;  -38.850; -106.000; -248.000
381.313;   27.875; -656.000; -470.000
381.443;   34.500; -692.000; -473.000
381.573;  190.650; -402.000; -409.000
381.703;  274.600;-1249.000;-1095.000
381.833; -128.175;-1454.000;-1336.000
381.963;   94.350; -134.000;  -87.000
382.093; 1422.375; -925.000; -909.000
382.223;  447.800; -713.000; -602.000
382.353;  -26.600; -801.000; -608.000
382.482;  370.200;-1091.000; -964.000
382.612;  766.800; -872.000; -644.000
382.742;  428.950; -695.000; -622.000
382.872;  269.275; -565.000; -551.000
383.002;   48.350;  347.000; -132.000
383.131;  -15.475; -226.000; -160.000
383.261;  -32.825; -706.000; -768.000
383.391;  269.725; -552.000; -377.000
383.521; 3248.175;  451.000;  263.000
383.650;  817.775; -947.000; -904.000
383.780;  -20.200; -783.000; -656.000
383.910;  108.050;  880.000;  802.000
384.039;    9.225; -794.000; -656.000
384.169;  190.150;-1205.000;-1017.000
384.299;  -19.125; -650.000; -662.000
384.428;  -93.300; -764.000; -680.000
384.558;  -50.575; -308.000; -275.000
384.687;  -44.775; -414.000; -334.000
384.817;    5.350;   75.000;   -2.000
384.947;   10.375; -234.000; -141.000
385.076;  288.225;  982.000;  912.000
385.206;   97.200;  369.000;  480.000
385.335;  -48.375; -549.000; -417.000
385.465;  -80.900; -655.000; -663.000
385.594;  122.500;  -53.000;  -44.000
385.724;  422.725; -868.000; -838.000
385.853;  108.000; -296.000; -270.000
385.982; 1367.175; -743.000; -787.000
386.112; 2178.050;-1052.000; -871.000
386.241;  151.075; -307.000; -312.000
386.371;   12.300; -174.000;  -87.000
386.500;    3.700; -825.000; -789.000
386.629;   25.975; -874.000; -817.000
386.759;   55.475;  -43.000;   68.000
386.888;  -11.700; -170.000; -250.000
387.017;  -91.400; -648.000; -620.000
387.147;  -97.725; -771.000; -798.000
387.276;   -1.975; -410.000; -397.000
387.405;   14.325; -398.000; -342.000
387.535;  -40.250; -452.000; -361.000
387.664;  -58.150; -692.000; -620.000
387.793;   62.050; -198.000; -113.000
387.922;  518.800;  255.000;  200.000
388.052;   24.200; -576.000; -423.000
388.181;  -10.600; -342.000; -472.000
388.310;  -14.675; -889.000; -710.000
388.439;  -42.200; -749.000; -742.000
388.568;  192.200;  365.000;  244.000
388.697; 1040.600; -756.000; -653.000
388.826;  226.325; -768.000; -666.000
388.956;   55.075; -285.000; -307.000
389.085;  -31.175; -347.000; -287.000
389.214; -109.625; -842.000; -872.000
389.343;  -70.450; -645.000; -413.000
389.472;  388.150;  126.000;  149.000
389.601;  523.875;   91.000;    0.000
389.730;   34.800; -568.000; -687.000
389.859;   65.875;  226.000;   46.000
389.988;  192.200; -423.000; -408.000
390.117;  136.875; -168.000; -146.000
390.246;  -19.425; -331.000; -320.000
390.375;   94.875; -673.000; -626.000
390.504;  -58.325; -703.000; -621.000
390.633; -105.175; -672.000; -726.000
390.761;  -54.950; -732.000; -645.000
390.890;   17.700;   -4.000; -130.000
391.019;  -35.600; -421.000; -441.000
391.148; -128.775; -826.000; -855.000
391.277;  -63.400; -576.000; -493.000
391.406;  -98.250; -821.000; -805.000
391.534;   12.725;  574.000; -301.000
391.663;  -67.725; -583.000; -645.000
391.792;  -82.875; -673.000; -701.000
391.921;  100.375;   -3.000;   15.000
392.050;  181.200; -287.000; -228.000
392.178;  -33.625;-1206.000;-1061.000
392.307;  141.775; -758.000; -712.000
392.436;   71.700; -427.000; -641.000
392.564;   16.000;  166.000;   -6.000
392.693;  -95.225; -860.000; -682.000
392.822;  192.675; -529.000; -534.000
392.950;   89.275; -880.000; -714.000
393.079;  316.600; -188.000; -328.000
393.208;   29.825; -488.000; -511.000
393.336;  -23.550; -170.000; -145.000
393.465;  -42.000; -317.000; -199.000
393.593;  -10.725;   62.000;   79.000
393.722; -152.775;-1121.000; -916.000
393.850;  -35.425; -188.000;  -61.000
393.979; -156.575; -926.000; -805.000
394.107;  -69.650; -517.000; -537.000
394.236;  -19.700; -570.000; -507.000
394.364;  210.050;  383.000;  206.000
394.493;  350.775; -911.000; -767.000
394.621;   -8.975; -955.000; -916.000
394.750;  724.200; -873.000; -923.000
394.878; 2939.375; -247.000; -149.000
395.007; 4071.050; -721.000; -807.000
395.135;  311.550; -790.000; -721.000
395.263;  -76.950;-1038.000;-1040.000
395.392;   -3.375;  -25.000; -107.000
395.520; -145.200; -818.000; -679.000
395.648;  -85.175; -865.000; -915.000
395.777;  -12.725; -366.000; -405.000
395.905;  -46.925; -449.000; -564.000
396.033;   14.500;  217.000;  172.000
396.162;  557.225; -399.000; -453.000
396.290;  531.300;  -17.000;   -2.000
396.418;  100.700; -555.000; -514.000
396.546;  -66.075; -571.000; -466.000
396.674; -100.325; -850.000; -878.000
396.803;    1.850;  -72.000;  -23.000
396.931;   78.475; -179.000; -199.000
397.059;   39.825;-1026.000; -989.000
397.187; -102.575;-1026.000; -975.000
397.315; -137.575; -884.000; -649.000
397.443;  -96.575; -592.000; -443.000
397.572; -102.050; -578.000; -424.000
397.700;  -20.550; -607.000; -614.000
397.828;   17.225;  120.000;  -90.000
397.956;  -47.300; -508.000; -478.000
398.084;  -65.525; -767.000; -626.000
398.212;   18.675;  137.000;  124.000
398.340;    6.050;  -56.000;  159.000
398.468;   37.725; -390.000; -169.000
398.596; -131.700; -993.000; -953.000
398.724; -106.225; -762.000; -767.000
398.852; -162.975;-1024.000; -976.000
398.980;  -72.850; -560.000; -560.000
399.108;  -47.925; -982.000; -735.000
399.236;   32.650;   13.000;    8.000
399.363;   17.050;  222.000;  196.000
399.491;  -62.275; -404.000; -398.000
399.619; -114.650; -829.000; -800.000
399.747; -116.150; -859.000; -771.000
399.875;   70.500;  220.000;  234.000
400.003;  -56.375; -359.000; -284.000
400.130;  -84.500; -421.000; -341.000
400.258;  -39.600;  -83.000;   38.000
400.386;  -67.375; -352.000; -168.000
400.514;  -55.825; -526.000; -587.000
400.641;  -84.250; -928.000; -802.000
400.769; -134.300; -979.000; -888.000
400.897; -124.175; -838.000; -793.000
401.025;  -16.200; -166.000; -152.000
401.152;  -21.150;  220.000;   38.000
401.280;  -81.350; -430.000; -429.000
401.408; -121.525; -712.000; -576.000
401.535; -105.775; -735.000; -758.000
401.663; -190.100;-1134.000;-1054.000
401.790;  -89.050; -514.000; -525.000
401.918;   40.600;  436.000;  405.000
402.046;  -31.475;  134.000;  122.000
402.173;  -27.600;  -18.000;    7.000
402.301;  -63.550; -519.000; -397.000
402.428;   39.450;  528.000;  383.000
402.556; -154.850;-1188.000; -913.000
402.683;  -36.375;  -20.000;   -1.000
402.811;  -17.675;  -37.000; -206.000
402.938;  -29.600;   20.000;   27.000
403.066;  182.650; -574.000; -558.000
403.193;  322.800;  299.000;  239.000
403.321;  246.675; -396.000; -574.000
403.448;  332.450;   83.000;   27.000
403.575;  145.475;  -90.000;  -46.000
403.703;  -86.250; -732.000; -557.000
403.830;  -71.250; -531.000; -496.000
403.957; -143.850;-1117.000;-1023.000
404.085;   12.575;  -61.000; -172.000
404.212;  102.075;  -50.000;   63.000
404.339;  259.325; -566.000; -306.000
404.467; 5806.950; -612.000; -524.000
404.594; 3913.925; -287.000; -227.000
404.721;  909.525; -869.000; -764.000
404.848;   88.875; -113.000; -202.000
404.976;  -99.500; -856.000; -783.000
405.103;  -24.100;  -14.000;  -82.000
405.230;   -8.425;  190.000;  226.000
405.357;   20.400;  117.000;   44.000
405.484;  262.075;  -49.000;    5.000
405.612;   41.225; -548.000; -563.000
405.739;  -69.550; -488.000; -243.000
405.866;   83.525;  669.000;  385.000
405.993;  -55.825; -398.000; -102.000
406.120; -134.475; -801.000; -887.000
406.247;  -53.250; -323.000; -342.000
406.374;  403.225;  540.000;  629.000
406.501;  106.775; -632.000; -702.000
406.628;  -81.550; -621.000; -589.000
406.755;  -94.375; -803.000; -620.000
406.882;  -41.125; -228.000; -277.000
407.009; -106.175; -719.000; -628.000
407.136;   20.275; -480.000; -401.000
407.263;  138.975; -939.000; -829.000
407.390;  -78.150; -692.000; -614.000
407.517; -169.050;-1139.000;-1187.000
407.644;  -63.075; -332.000; -256.000
407.771; -124.925; -249.000; -287.000
407.898;  -10.825;  168.000;  328.000
408.025;  -65.100; -421.000; -313.000
408.151;  -24.250;   82.000;  153.000
408.278;  -71.825; -267.000; -216.000
408.405; -122.900; -931.000; -899.000
408.532;  -83.350; -549.000; -542.000
408.659; -120.100; -677.000; -648.000
408.785; -193.250;-1298.000;-1170.000
408.912;  -67.925; -412.000; -296.000
409.039; -119.775; -610.000; -686.000
409.166;  -99.850; -591.000; -555.000
409.292; -111.450; -571.000; -534.000
409.419; -124.000; -665.000; -649.000
409.546;  -89.900; -431.000; -192.000
409.672; -121.700; -713.000; -545.000
409.799;  -17.575;  -36.000;   34.000
409.926;  -38.900; -180.000; -179.000
410.052; -176.500;-1127.000;-1091.000
410.179;  -65.375; -368.000; -392.000
410.305;  -92.475; -375.000; -493.000
410.432;  -46.500; -220.000; -333.000
410.558;  -94.925; -305.000; -380.000
410.685; -108.875; -688.000; -431.000
410.812; -101.975; -409.000; -588.000
410.938; -158.875; -964.000; -808.000
411.065;  -97.100; -671.000; -645.000
411.191;  -22.850; -189.000; -174.000
411.317; -116.350; -823.000; -742.000
411.444;  -57.075; -317.000; -246.000
411.570;  -65.950; -339.000; -294.000
411.697; -132.225; -758.000; -752.000
411.823; -163.875; -989.000; -999.000
411.949;  -30.000;  -56.000;   17.000
412.076; -125.275; -539.000; -519.000
412.202; -127.675; -758.000; -757.000
412.329; -138.750; -798.000; -752.000
412.455; -118.400; -821.000; -657.000
412.581;  -25.025;  -15.000;  172.000
412.707;  -73.400; -540.000; -457.000
412.834;   10.550;  156.000;  219.000
412.960;  -85.800; -785.000; -784.000
413.086;  -98.875; -743.000; -701.000
413.212;  129.500;  604.000;  578.000
413.339;  -64.200; -685.000; -701.000
413.465;   -9.700; -364.000; -310.000
413.591;  -91.475; -757.000; -474.000
413.717;  -53.700; -358.000; -366.000
413.843; -144.475; -839.000; -861.000
413.969;  -63.075;  -47.000; -292.000
414.096;  -93.925; -679.000; -679.000
414.222;  -22.375;  -33.000;   85.000
414.348;  -17.050; -652.000; -385.000
414.474;   95.925;   38.000;  -52.000
414.600;   -9.850; -126.000; -144.000
414.726;   -9.450;  -96.000;  -55.000
414.852;  -64.350; -365.000; -342.000
414.978;   32.950;  104.000;  -18.000
415.104;   38.200;   38.000;   80.000
415.230;   12.875; -329.000; -330.000
415.356;   36.900; -409.000; -514.000
415.482;  193.000;   13.000;  -35.000
415.608;  277.250; -247.000; -323.000
415.734;  932.475;   67.000;   38.000
415.860;19726.825; -875.000; -767.000
415.986;15002.750; -685.000; -607.000
416.111; 1303.000; -798.000; -652.000
416.237;  260.025; -424.000; -571.000
416.363; 1110.325; -765.000; -733.000
416.489; 4243.350; -324.000; -251.000
416.615;  491.325; -707.000; -742.000
416.741;  -17.550; -677.000; -784.000
416.866;  -92.175; -673.000; -736.000
416.992; -125.350; -801.000; -818.000
417.118;  -27.975;  -41.000;  -80.000
417.244;  -71.400; -798.000; -531.000
417.369;  -90.975; -801.000; -612.000
417.495;   -8.500; -325.000; -254.000
417.621;  -82.825;-1015.000; -803.000
417.746;   -2.000; -579.000; -572.000
417.872;   60.550; -254.000; -144.000
417.998;   49.225; -515.000; -530.000
418.123; 1013.500;-1073.000; -845.000
418.249; 5509.800; -512.000; -601.000
418.374;  783.125; -916.000; -824.000
418.500;  105.875; -383.000; -482.000
418.626;  103.575;   70.000;  -59.000
418.751;  115.600; -549.000; -448.000
418.877;  199.675; -637.000; -643.000
419.002; 1744.800; -688.000; -560.000
419.128;12669.425; -930.000; -721.000
419.253; 3229.800; -967.000; -837.000
419.379;  422.800; -391.000; -338.000
419.504;  389.225;  325.000;  415.000
419.629;  529.875; -393.000; -212.000
419.755; 3503.225; -317.000; -254.000
419.880;21418.675;  -98.000;   67.000
420.006;11508.275; -280.000; -221.000
420.131;29977.825; -662.000; -775.000
420.256; 4492.225; -315.000; -316.000
420.382;  577.875; -665.000; -687.000
420.507;   74.175; -649.000; -778.000
420.632;  128.700; -337.000; -339.000
420.758;  228.350; -251.000; -425.000
420.883;  -84.900; -876.000; -672.000
421.008;  -98.400; -775.000; -619.000
421.133;  -83.550; -509.000; -467.000
421.259;  -48.675; -325.000; -259.000
421.384; -115.175; -834.000; -693.000
421.509;  -50.875;-1052.000; -862.000
421.634; 1086.100; -936.000; -820.000
421.759;  501.275; -359.000; -327.000
421.885;  -45.125; -717.000; -656.000
422.010;  -86.975; -673.000; -542.000
422.135; -142.500; -695.000; -727.000
422.260;   31.850;  340.000;  280.000
422.385;  -40.625;   12.000;  -98.000
422.510;   -4.125;  151.000;  -26.000
422.635;   13.300;  -87.000;  -43.000
422.760;  106.300; -766.000; -791.000
422.885;   66.900;  -57.000;  -80.000
423.010;  -31.200; -112.000; -169.000
423.135;  -86.050; -481.000; -561.000
423.260;   -9.900; -150.000; -245.000
423.385;   61.825;  476.000;  222.000
423.510;   45.125;   71.000;  -22.000
423.635;   70.225;  133.000;   45.000
423.760;   59.050;  383.000;  328.000
423.885;   38.050;  336.000;  391.000
424.010;   15.675;  -68.000;  -13.000
424.135;  -21.075;    5.000;  -33.000
424.259;  -87.775; -654.000; -457.000
424.384;  -54.175; -279.000; -272.000
424.509;  -39.200; -260.000; -186.000
424.634; -102.300; -761.000; -623.000
424.759;  -43.525; -688.000; -544.000
424.883;  -10.925; -506.000; -527.000
425.008;  149.275; -502.000; -410.000
425.133; 2011.900; -679.000; -653.000
425.258;  982.025; -517.000; -381.000
425.382; 1020.000; -867.000; -774.000
425.507; 2675.775; -487.000; -543.000
425.632;  472.425; -802.000; -663.000
425.756;  463.600; -256.000; -146.000
425.881; 6452.850; -831.000; -857.000
426.006;18283.150; -604.000; -355.000
426.130; 2959.075; -696.000; -508.000
426.255;  372.925; -611.000; -491.000
426.379;  171.425; -189.000; -577.000
426.504;  370.675;  660.000;  544.000
426.629; 4009.425; -519.000; -466.000
426.753; 2889.450;   64.000;  -46.000
426.878;  319.575; -252.000; -288.000
427.002;  152.625; -651.000; -668.000
427.127; 1562.250;  -35.000; -158.000
427.251;11482.125;  372.000;  401.000
427.375; 3446.825; -191.000; -173.000
427.500; 2302.600; -616.000; -610.000
427.624;  828.475; -234.000; -400.000
427.749;   92.575; -216.000; -225.000
427.873;  -39.625; -499.000; -412.000
427.997;  -47.450; -222.000; -230.000
428.122;   54.425;  795.000;  703.000
428.246;   51.475;  433.000;  434.000
428.371; -118.500; -869.000; -773.000
428.495; -105.000; -624.000; -646.000
428.619;  -29.125; -186.000; -117.000
428.743;   24.775;   65.000;  132.000
428.868;   10.275; -732.000; -643.000
428.992; 1389.875; -219.000; -326.000
429.116;  575.675; -329.000; -357.000
429.240;  262.200;  419.000;  426.000
429.365;  -23.550; -454.000; -574.000
429.489;  -45.825; -638.000; -647.000
429.613;   18.800; -236.000; -177.000
429.737;   38.400; -563.000; -432.000
429.861;  263.300; -247.000; -133.000
429.985; 5489.150; -425.000; -305.000
430.109; 6314.500; -770.000; -908.000
430.234;  734.250;   76.000;  -50.000
430.358;   64.450; -250.000; -160.000
430.482;  -64.250; -672.000; -564.000
430.606;  -78.625; -655.000; -375.000
430.730;    6.425; -437.000; -388.000
430.854;  123.950; -909.000; -835.000
430.978;  -70.650; -795.000; -764.000
431.102;  -93.500; -499.000; -422.000
431.226; -114.025; -874.000; -815.000
431.350;   10.300;  345.000;  422.000
431.474;  -82.275; -661.000; -373.000
431.597; -158.175;-1060.000; -848.000
431.721;  -97.100; -276.000; -267.000
431.845; -137.100; -704.000; -472.000
431.969;  -83.675; -304.000; -349.000
432.093;  -88.775; -395.000; -317.000
432.217;  -18.450;   32.000;   82.000
432.341;  -88.250; -523.000; -518.000
432.464;    8.450;   96.000;   40.000
432.588;  172.975; -401.000; -329.000
432.712;   94.900;  -52.000;  -52.000
432.836;   35.200;  213.000;  263.000
432.959;  -14.550; -372.000; -311.000
433.083;   73.900;   11.000;    2.000
433.207;  376.750;  285.000;  930.000
433.330; 5027.975; -391.000; -200.000
433.454; 6457.025; -654.000; -638.000
433.578; 3639.300;  583.000;  278.000
433.701;  703.725; -623.000; -675.000
433.825;  127.625; -292.000; -299.000
433.949;  164.225;   28.000;  -72.000
434.072;   54.000; -410.000; -323.000
434.196;  -16.325; -309.000; -117.000
434.319; 3632.500;25482.000;25124.000
434.443;  687.400; -656.000; -603.000
434.566; 2707.875;  281.000;   62.000
434.690;  475.500; -637.000; -383.000
434.813;   55.075; -251.000; -173.000
434.937;  -93.100; -569.000; -696.000
435.060;  -55.175; -423.000; -332.000
435.184;  270.125; -492.000; -217.000
435.307;  164.725;  159.000;  102.000
435.431;  -17.600;  -40.000;   24.000
435.554;  -68.100; -399.000; -240.000
435.677;  -81.925; -350.000; -258.000
435.801;  -34.000;  -25.000;   49.000
435.924;  -24.950;    1.000;  -67.000
436.048; -122.825;-1019.000; -732.000
436.171;  -76.225; -240.000;  -66.000
436.294;  -42.150; -248.000; -229.000
436.417;  100.400; -963.000; -849.000
436.541;  -83.650; -814.000; -840.000
436.664;  -57.625; -242.000; -316.000
436.787;  -28.875;   13.000;  113.000
436.910; -128.700; -792.000; -422.000
437.034;    1.375;  142.000;  143.000
437.157;   45.100;  -11.000;    0.000
437.280;  -54.700; -392.000; -292.000
437.403;  -88.600; -982.000; -869.000
437.526;  561.025; -903.000; -865.000
437.649; 2165.625; -505.000; -332.000
437.772;  342.125; -692.000; -540.000
437.896;  108.350;  700.000;  544.000
438.019;  -97.725; -758.000; -503.000
438.142; -101.175; -596.000; -506.000
438.265;  -27.675; -639.000; -670.000
438.388;  537.000; -520.000; -410.000
438.511;  107.200; -597.000; -394.000
438.634;  -50.050; -247.000; -125.000
438.757; -113.050; -693.000; -619.000
438.880;  -14.225;  -34.000;  -57.000
439.003;  -70.500; -417.000; -437.000
439.126;  -72.475; -287.000; -167.000
439.248;  -59.975;  -98.000; -139.000
439.371;  -44.625;    9.000;  -53.000
439.494;   17.325;  510.000;  439.000
439.617;  -59.400;   65.000;  -88.000
439.740; -182.100; -968.000; -816.000
439.863; -144.125; -755.000; -595.000
439.986; -124.100; -476.000; -431.000
440.108;  -64.125; -161.000; -112.000
440.231; -152.275; -950.000; -836.000
440.354;  -56.325;  -64.000; -150.000
440.477;   30.125; -566.000; -542.000
440.599;   -3.475; -200.000; -225.000
440.722; -127.500; -709.000; -586.000
440.845;   54.750;  751.000;  928.000
440.968; -105.125; -415.000; -311.000
441.090;  -77.425; -199.000;  -33.000
441.213; -170.725;-1021.000; -825.000
441.336;  -53.325; -159.000;   -5.000
441.458;  -67.950; -549.000; -396.000
441.581;  -85.325; -628.000; -629.000
441.703;  -81.900; -152.000;   13.000
441.826; -126.175; -557.000; -400.000
441.948;  -55.800;   56.000;   51.000
442.071;   21.175;  555.000;  424.000
442.193; -112.200; -531.000; -485.000
442.316;    2.075;  152.000;   97.000
442.438;   31.825; -233.000;  -10.000
442.561;   64.250;  272.000;  262.000
442.683;  490.050; -809.000; -522.000
442.806; 1114.725;   -8.000;   74.000
442.928;   29.350; -859.000; -604.000
443.051;  -72.625; -577.000; -373.000
443.173;  -98.450; -341.000; -339.000
443.295;  -95.000; -263.000; -371.000
443.418;  -64.825; -321.000;  -29.000
443.540;  -10.425; -106.000;   -4.000
443.662; -120.400; -563.000; -465.000
443.785;  -25.125;  335.000;  199.000
443.907; -104.625; -362.000; -208.000
444.029; -134.750; -767.000; -494.000
444.152; -147.275; -644.000; -554.000
444.274;  -42.950;  -18.000;  -24.000
444.396; -108.375; -461.000; -221.000
444.518; -137.675; -691.000; -454.000
444.640; -115.675; -268.000; -111.000
444.763;  -28.975;  388.000;  249.000
444.885; -121.225; -432.000; -392.000
445.007;  -35.875;   35.000;   86.000
445.129; -117.800; -610.000; -515.000
445.251;  -97.450; -372.000; -439.000
445.373; -131.825; -537.000; -386.000
445.495;    9.150;  242.000;  350.000
445.617;   58.400;  853.000;  753.000
445.739;  -62.475; -215.000;  -97.000
445.861;  -37.725; -245.000; -112.000
445.984;  -43.400; -267.000; -101.000
446.105;  188.450; -418.000; -251.000
446.227;  581.725; -176.000;  -19.000
446.349;   12.050; -358.000; -249.000
446.471;  -92.150; -615.000; -448.000
446.593;  -61.700; -316.000;   19.000
446.715;   -1.600;  -67.000;   41.000
446.837;   51.100;  697.000;  832.000
446.959;  -95.075; -457.000; -478.000
447.081; -133.575; -628.000; -518.000
447.203;   58.750;  862.000;  834.000
447.325;  -87.875; -270.000;   42.000
447.446;  -18.550;  286.000;  530.000
447.568; -159.400; -921.000; -803.000
447.690;  -76.850; -236.000; -245.000
447.812; -145.925; -798.000; -519.000
447.933;  -31.425;  155.000;  127.000
448.055;  -73.200; -306.000; -261.000
448.177;  127.850;   31.000;   79.000
448.299;   87.300; -935.000; -727.000
448.420;    9.600;  -25.000;  159.000
448.542;  -48.825;   -3.000;   33.000
448.664;  -29.700;  109.000;  322.000
448.785;  -37.775;  265.000;   83.000
448.907;  -74.000; -614.000; -353.000
449.028;  -23.300; -771.000; -471.000
449.150;   59.050;  492.000;  589.000
449.272; -169.725;-1044.000; -913.000
449.393;   25.100;  612.000;  694.000
449.515; -142.050; -634.000; -581.000
449.636;  -63.225; -264.000; -155.000
449.758;   61.775;  763.000;  622.000
449.879;  -93.650; -498.000; -396.000
450.001;  -85.700; -149.000;  -49.000
450.122;  -41.575;  -95.000;  162.000
450.244;  -12.200;   37.000;  364.000
450.365; -104.175; -495.000; -301.000
450.486;  -25.525;   80.000;  268.000
450.608;    8.425;  393.000;  326.000
450.729;   52.350;  578.000;  645.000
450.850;    1.725; -574.000; -466.000
450.972;  744.975; -552.000; -389.000
451.093; 4938.500;  190.000;  588.000
451.214; 2275.825; -516.000; -337.000
451.336;  390.900;  773.000;  579.000
451.457;   71.175;  264.000;  393.000
451.578;  -48.825; -118.000;  -74.000
451.699; -120.950; -546.000; -540.000
451.821;  -75.575; -284.000;  -50.000
451.942;  -18.225;  278.000;  285.000
452.063;   43.450;  228.000;  419.000
452.184;  547.450;  -54.000;  -49.000
452.305; 1104.500;  103.000;  170.000
452.427;  154.475; -549.000; -301.000
452.548;  -27.600;   23.000;   79.000
452.669;  -52.125; -257.000;  -89.000
452.790;  -48.600;    3.000;  -18.000
452.911;  -10.400;  195.000;  259.000
453.032;  -75.025; -289.000;  -60.000
453.153;  -42.150;  -29.000;   81.000
453.274;   55.975;  737.000;  868.000
453.395;  -51.625;  -51.000;  175.000
453.516;  122.400; 1317.000; 1388.000
453.637;  -56.100; -205.000; -150.000
453.758;  -57.250;   15.000;   69.000
453.879; -120.050; -462.000; -250.000
454.000;   74.725; 1086.000;  948.000
454.121; -124.625; -554.000; -326.000
454.242; -125.750; -599.000; -383.000
454.362;  -58.800;  -99.000;  114.000
454.483;  -42.450; -309.000; -229.000
454.604;   45.950;  512.000;  580.000
454.725; -127.200; -627.000; -555.000
454.846; -113.375; -474.000; -406.000
454.967;  -28.025;  230.000;  539.000
455.087;  -61.325;  179.000;  153.000
455.208;   -3.250;  554.000;  856.000
455.329;  -61.675;  -22.000;   82.000
455.450;   15.825;  473.000;  633.000
455.570;  -92.750; -234.000; -211.000
455.691;  -57.700;  201.000;  407.000
455.812;  -98.950; -270.000;  -92.000
455.932;  -57.275;  107.000;  -97.000
456.053;  -80.800;   36.000;   24.000
456.173;  -98.700; -433.000; -355.000
456.294; -134.425; -476.000; -303.000
456.415;  -76.375;  -73.000;   70.000
456.535;  -47.500;  297.000;  273.000
456.656;  -57.275;  132.000;  240.000
456.776;  -87.775;    3.000;  298.000
456.897;   -6.500;  308.000;  513.000
457.017;  -75.075; -153.000;   -3.000
457.138;  -87.325; -402.000; -249.000
457.258;  -48.550;  263.000;  224.000
457.379;  -14.950;  509.000;  521.000
457.499;  -30.475;  443.000;  432.000
457.620; -127.625; -407.000; -231.000
457.740;  -96.275; -132.000;  -11.000
457.860;  -60.975;   87.000;   44.000
457.981;  -49.300;  132.000;  124.000
458.101;  -78.550;  -89.000;   40.000
458.221;  -16.800;  336.000;  402.000
458.342;  -73.775;   -4.000;  -37.000
458.462;   11.725;  617.000;  352.000
458.582;  -35.975; -302.000; -294.000
458.703;   18.700;  303.000;  154.000
458.823;  -39.500;   22.000;  163.000
458.943;   24.450;  341.000;  467.000
459.063;   -7.975; 1124.000;  192.000
459.183;  -20.700;  328.000;  313.000
459.304;   -7.300;  315.000;  517.000
459.424;  -63.900; -246.000;  -89.000
459.544;  319.050;  388.000;  764.000
459.664;  837.750;  499.000;  506.000
459.784;  324.000; 1004.000; 1175.000
459.904;   51.400;  867.000;  744.000
460.024;   63.475;  867.000;  684.000
460.144;    6.900;  449.000;  554.000
460.264;  -14.675;  515.000;  327.000
460.385;  -91.425; -145.000; -119.000
460.505;   36.750;  905.000;  858.000
460.625;  -92.975;  -17.000;  -68.000
460.745;  -22.075;  396.000;  541.000
460.864;  -64.675;  153.000;  469.000
460.984;   11.525;  499.000;  573.000
461.104;  121.325; 1656.000; 1775.000
461.224;   -0.425;  657.000;  650.000
461.344;  -25.875;  431.000;  360.000
461.464;  -38.525;  258.000;  513.000
461.584;  -17.925;  283.000;  466.000
461.704;  -56.775;   58.000;  108.000
461.824;  -51.500;  238.000;  259.000
461.943;  -44.100;  191.000;  130.000
462.063;  -74.975;    2.000;  324.000
462.183;   17.700;  639.000;  717.000
462.303;   90.450; 1678.000; 1230.000
462.422;   29.350;  781.000;  840.000
462.542;  -46.600;  271.000;  391.000
462.662;   34.925;  353.000;  380.000
462.782;  237.950;  833.000;  572.000
462.901;  483.175;  545.000;  717.000
463.021;  280.000; 1702.000; 1638.000
463.141;   -7.000;  337.000;  770.000
463.260;  -16.400;  614.000;  474.000
463.380;    0.650;  902.000;  884.000
463.499;  -45.775;  342.000;  332.000
463.619;  -29.650;  581.000;  559.000
463.738;  124.200; 1644.000;  903.000
463.858;   14.450;  657.000;  811.000
463.978;  -22.300;  542.000;  396.000
464.097;   44.550;  921.000; 1114.000
464.217;  111.600; 1196.000; 1143.000
464.336;  122.550; 1068.000; 1130.000
464.455;  -26.675;  328.000;  659.000
464.575;   37.425;  597.000;  602.000
464.694;  165.800; 1204.000; 1179.000
464.814;  147.100; 1190.000; 1138.000
464.933;   76.150; 1095.000; 1027.000
465.052;   99.625; 1412.000; 1054.000
465.172;   77.400;  922.000;  799.000
465.291;  131.425; 1376.000; 1320.000
465.410;    9.900;  462.000;  735.000
465.530;   76.975; 1355.000; 1310.000
465.649;   72.175; 1209.000; 1273.000
465.768;  142.300; 1673.000; 1508.000
465.888;   34.625;  941.000; 1174.000
466.007;   92.300; 1335.000; 1440.000
466.126;   -6.075;  721.000;  641.000
466.245;   61.800; 1176.000; 1187.000
466.364;   17.550;  950.000; 1060.000
466.484;   55.475; 1024.000; 1213.000
466.603;   27.400; 1101.000; 1222.000
466.722;  125.650; 1490.000; 1769.000
466.841;   79.500; 1151.000; 1401.000
466.960;   42.100; 1069.000;  972.000
467.079;  124.975; 1971.000; 1786.000
467.198;   51.425; 1238.000; 1181.000
467.317;   94.900; 1768.000; 1162.000
467.436;   56.325; 1709.000; 1261.000
467.555;  117.725; 1796.000; 1746.000
467.674;   60.975; 1227.000; 1329.000
467.793;   57.100; 1376.000; 1374.000
467.912;   85.475; 1658.000; 1539.000
468.031;  137.625; 2038.000; 1930.000
468.150;  146.575; 1842.000; 1837.000
468.269;  191.450; 2313.000; 2090.000
468.388;  173.600; 2168.000; 2339.000
468.507;  247.500; 2884.000; 2903.000
468.626;  273.375; 2555.000; 2541.000
468.744;  126.325; 2018.000; 2174.000
468.863;  205.925; 2312.000; 2523.000
468.982;   85.800; 1503.000; 1555.000
469.101;  220.200; 2788.000; 2692.000
469.220;  146.400; 2333.000; 2176.000
469.338;  253.350; 2935.000; 3051.000
469.457;  211.575; 2719.000; 2545.000
469.576;  352.250; 3953.000; 3784.000
469.695;  237.025; 2877.000; 3066.000
469.813;  430.325; 4148.000; 4192.000
469.932;  409.750; 4255.000; 4485.000
470.051;  412.150; 4075.000; 4161.000
470.169;  860.200; 4470.000; 4338.000
470.288; 1477.875; 4700.000; 4809.000
470.406;  909.025; 5059.000; 5194.000
470.525;  630.100; 6101.000; 5787.000
470.644;  657.250; 6847.000; 6794.000
470.762;  811.075; 8397.000; 7873.000
470.881;  901.475; 8651.000; 8464.000
470.999; 1046.375; 9685.000; 9151.000
471.118; 1130.675;11174.000;10711.000

