
Integration time [ms]: 100.000
Averaging Nr. [scans]: 40
Smoothing Nr. [pixels]: 0
Data measured with spectrometer [name]: 2101012U2
Wave   ;Sample   ;Dark     ;Reference
[nm]   ;[counts] ;[counts] ;[counts] 

197.733;   52.550;  516.000;  404.000
197.879;  -64.650; -610.000; -634.000
198.025;  -57.700; -475.000; -420.000
198.171;  -71.250; -602.000; -612.000
198.317;  -35.450; -401.000; -316.000
198.463;  -52.600; -655.000; -404.000
198.609;   20.600;  181.000; -137.000
198.755;  -87.525; -644.000; -410.000
198.901;  -67.900; -505.000; -424.000
199.047;  -70.200; -615.000; -488.000
199.193;  -48.775; -230.000; -468.000
199.339;  -28.300; -222.000; -369.000
199.485;   31.000;  330.000;  271.000
199.631;   29.850;  227.000;  310.000
199.777;  -66.650; -466.000; -398.000
199.923;  -59.725; -610.000; -424.000
200.069;   -6.750; -141.000;  -58.000
200.215;   67.925;  128.000;  453.000
200.361;   24.875;  243.000;  477.000
200.507;  -57.050; -600.000; -373.000
200.653;  -29.500; -371.000; -194.000
200.798;  -41.475; -215.000; -125.000
200.944;  -22.250; -146.000;  -41.000
201.090;   41.475;   61.000;  222.000
201.236;    5.250; -116.000; -158.000
201.382;  137.700;  874.000;  903.000
201.528;    4.750;  -58.000;  -48.000
201.674;  -48.500; -386.000; -293.000
201.819;  -73.850; -540.000; -439.000
201.965;  -71.725; -699.000; -447.000
202.111;  -28.050; -273.000; -226.000
202.257;  -39.600; -250.000; -238.000
202.402;   10.800;   13.000;  -36.000
202.548;  -21.100; -169.000; -116.000
202.694;   73.000;  410.000; -183.000
202.840;  -69.775; -603.000; -531.000
202.985;  -81.200; -681.000; -639.000
203.131;  -95.125; -832.000; -666.000
203.277;  -23.150; -199.000; -262.000
203.423;  -55.575; -434.000; -520.000
203.568;  -46.450; -462.000; -237.000
203.714;  -59.950; -535.000; -542.000
203.860;  -77.825; -682.000; -641.000
204.005;   34.850;  112.000;  167.000
204.151;   68.600;  561.000;  556.000
204.296;  -47.125; -354.000; -221.000
204.442;  -76.975; -600.000; -547.000
204.588;  -82.700; -592.000; -579.000
204.733;    6.425;  178.000;  168.000
204.879; -112.500;-1018.000; -822.000
205.025;   -1.500;  -99.000;  126.000
205.170;    1.625;  -17.000;   94.000
205.316;   80.900;  438.000;  661.000
205.461;  -65.800; -698.000; -554.000
205.607;   98.275;  609.000;  665.000
205.752;  -75.000; -626.000; -551.000
205.898;  -66.950; -501.000; -391.000
206.043;  -63.075; -578.000; -506.000
206.189;  -58.050; -243.000; -285.000
206.334;   82.375;  554.000;  606.000
206.480;   82.775;  409.000;  239.000
206.625;  -78.325; -529.000; -552.000
206.771;  -50.875; -451.000; -373.000
206.916;  -21.950; -210.000; -537.000
207.062;  -84.950; -545.000; -591.000
207.207;  -61.800; -546.000; -443.000
207.353;   41.900;  185.000;  460.000
207.498;   16.700;  196.000;   85.000
207.643;  -45.825; -501.000; -370.000
207.789; -129.500;-1069.000; -910.000
207.934; -103.650; -665.000; -713.000
208.080;  -31.975; -154.000;   66.000
208.225;  -11.750;  -22.000;  -57.000
208.370;  -84.700; -727.000; -619.000
208.516;  -94.800; -741.000; -487.000
208.661;  -40.550; -127.000;  -69.000
208.806;  -27.500; -165.000; -171.000
208.952; -126.100;-1044.000; -731.000
209.097;   70.900;  378.000;  349.000
209.242;  -51.050; -307.000; -382.000
209.387;   64.050;  392.000;  350.000
209.533;  -42.675; -321.000; -350.000
209.678;   72.200;  472.000;  543.000
209.823;  -51.925; -408.000; -310.000
209.969; -111.150; -860.000; -757.000
210.114; -119.175; -907.000; -719.000
210.259; -124.675; -939.000; -889.000
210.404;   -0.575; -171.000;  103.000
210.549;   -3.700;  108.000;    3.000
210.695;   -4.900;   -3.000;  -95.000
210.840;   30.525;   94.000;   67.000
210.985;  -63.250; -484.000; -303.000
211.130;   62.900;  268.000;  406.000
211.275;   36.600;  207.000;  199.000
211.420;  -65.100; -300.000; -289.000
211.566;  -69.150; -536.000; -489.000
211.711;   13.525;  218.000;  157.000
211.856;  -70.450; -545.000; -519.000
212.001;    3.650;  151.000;   44.000
212.146;   32.350;  153.000;   49.000
212.291;  -25.100; -210.000; -186.000
212.436;  -36.900; -280.000;   -6.000
212.581; -101.050; -685.000; -653.000
212.726;  -63.525; -487.000; -538.000
212.871;  -67.100; -552.000; -217.000
213.016; -152.625;-1172.000;-1029.000
213.161;   59.475;  406.000;  291.000
213.306;  -70.975; -435.000; -577.000
213.451;  -95.650; -778.000; -689.000
213.596;  -47.575; -455.000; -347.000
213.741;  -59.775; -448.000; -538.000
213.886;  -69.275; -498.000; -517.000
214.031;  -21.650; -294.000; -124.000
214.176;  -44.850; -408.000; -341.000
214.321;  -26.550; -296.000; -157.000
214.466;  -18.325; -163.000;  -43.000
214.611;  -12.600;  -61.000;  -10.000
214.756; -115.600; -948.000; -858.000
214.901;  -38.125; -388.000; -226.000
215.046; -123.800; -797.000; -825.000
215.191;   -3.050;  128.000;   35.000
215.336;  -23.075; -157.000;  -19.000
215.480;  -76.750; -684.000; -505.000
215.625;  -15.250; -175.000;  -19.000
215.770;  -83.850; -757.000; -662.000
215.915;   -6.275;   -5.000;  -97.000
216.060;   -0.650; -113.000;  -21.000
216.205; -111.075; -731.000; -779.000
216.349;  -75.850; -470.000; -533.000
216.494; -130.375; -939.000; -867.000
216.639; -117.975; -823.000; -888.000
216.784;  -79.100; -577.000; -525.000
216.929;   45.650;  392.000;  281.000
217.073;  -16.975; -244.000;  -31.000
217.218;    6.725;   78.000;  -47.000
217.363;  -88.625; -656.000; -618.000
217.507;  -95.175; -623.000; -588.000
217.652; -123.575; -845.000; -874.000
217.797;  -98.050; -708.000; -659.000
217.942; -112.900; -856.000; -720.000
218.086;   78.700;  608.000;  539.000
218.231;  -13.100; -174.000;  -26.000
218.376;  -42.250; -337.000; -229.000
218.520;   14.800;  -41.000;   96.000
218.665;  -32.650; -338.000; -204.000
218.810;  -36.550; -275.000; -233.000
218.954;   15.075;  201.000;   35.000
219.099; -107.925; -713.000; -963.000
219.243;  -87.250; -589.000; -554.000
219.388;  -33.275; -264.000; -136.000
219.532;  -11.225; -116.000; -116.000
219.677;  -69.325; -564.000; -521.000
219.822;   -5.750;   33.000;   89.000
219.966;   -3.600;   17.000;  -99.000
220.111;  -25.075; -328.000;  -40.000
220.255;  -86.150; -797.000; -750.000
220.400;  -24.875; -180.000; -146.000
220.544;  -66.125; -516.000; -450.000
220.689;  -57.250; -422.000; -451.000
220.833;   -7.450; -123.000;  -58.000
220.978;  -52.975; -393.000; -563.000
221.122;   32.125;  319.000;  307.000
221.267; -123.775; -906.000; -837.000
221.411;  -69.150; -478.000; -394.000
221.555;  -24.950; -104.000;  -23.000
221.700;  -49.050; -329.000; -222.000
221.844;   23.250;  255.000;  272.000
221.989;  -33.200; -328.000; -311.000
222.133;  -34.925; -289.000; -307.000
222.277;   -9.475;    5.000;   78.000
222.422;    6.600;  227.000;  113.000
222.566;  -43.050; -381.000; -214.000
222.711;  -67.050; -414.000; -479.000
222.855;  -74.675; -643.000; -586.000
222.999;  -92.575; -642.000; -717.000
223.144;  -19.225; -195.000; -194.000
223.288;   46.900;  423.000;  251.000
223.432;   43.100;  184.000;  230.000
223.576;   12.175;  152.000;  -21.000
223.721;   47.950;  364.000;  273.000
223.865;  -70.800; -472.000; -475.000
224.009;  286.025; 1673.000; 1631.000
224.153;  -87.700; -660.000; -671.000
224.298;  -68.075; -531.000; -489.000
224.442;  -10.975;  -74.000;  -33.000
224.586;  -12.875; -169.000; -106.000
224.730; -106.925; -858.000; -670.000
224.875; -112.025; -739.000; -688.000
225.019;    7.750;  102.000;  188.000
225.163;   53.150;  208.000;  341.000
225.307;    1.325;   97.000;  -91.000
225.451;   56.825;  360.000;  481.000
225.595;   25.400;  264.000;  176.000
225.739;  -19.725; -170.000;  -94.000
225.884;   -1.975;   86.000;    5.000
226.028; -101.675; -760.000; -626.000
226.172;  -40.975; -260.000; -273.000
226.316; -117.025; -941.000; -902.000
226.460;  -79.875; -645.000; -493.000
226.604;  -46.275; -406.000; -400.000
226.748;  -98.500; -836.000; -733.000
226.892;  -24.950; -227.000; -181.000
227.036;  -61.200; -537.000; -447.000
227.180;  -70.500; -551.000; -375.000
227.324;  -65.700; -561.000; -580.000
227.468; -109.225; -819.000; -717.000
227.612;   12.000;  242.000;  -28.000
227.756; -108.975; -845.000; -698.000
227.900;   49.100;  342.000;  441.000
228.044;  -45.650; -509.000; -290.000
228.188;   46.675;  448.000;  568.000
228.332;  -72.375; -546.000; -472.000
228.476;  -42.100; -223.000; -149.000
228.620;  -31.175; -210.000; -150.000
228.764;   60.350;  431.000;  349.000
228.908;  -14.100; -155.000;   30.000
229.052;  -67.700; -615.000; -528.000
229.195;  -17.025; -172.000;   13.000
229.339;  -34.900; -235.000; -305.000
229.483;  -21.150;    5.000; -162.000
229.627;   -2.200; -156.000;  139.000
229.771;  -45.550; -218.000; -294.000
229.915;    4.725;  230.000;   79.000
230.059;  -92.175; -648.000; -663.000
230.202;  -49.475; -370.000; -317.000
230.346;  -24.700; -107.000;  107.000
230.490;  -74.450; -489.000; -521.000
230.634; -106.025; -736.000; -553.000
230.777;   75.250;  478.000;  509.000
230.921;  -56.475; -450.000; -359.000
231.065;  -46.875; -246.000; -286.000
231.209;   34.950;  261.000;  265.000
231.352;   18.500;   54.000;   40.000
231.496;   16.975;  568.000;  188.000
231.640;  -94.450; -693.000; -621.000
231.783;   75.450;  546.000;  525.000
231.927;  -47.475; -294.000; -365.000
232.071; -124.600; -962.000; -736.000
232.214; -116.225; -980.000; -764.000
232.358;  -97.625; -683.000; -599.000
232.502;    0.850;  -19.000;    7.000
232.645; -131.500;-1090.000; -927.000
232.789;  -26.175; -257.000; -218.000
232.933;  -47.750; -407.000; -224.000
233.076; -128.075;-1038.000; -897.000
233.220; -103.725; -752.000; -777.000
233.363;  -83.725; -669.000; -477.000
233.507;   46.925;  371.000;  129.000
233.650; -109.175; -764.000; -834.000
233.794;   57.450;  438.000;  461.000
233.938;  -73.500; -530.000; -362.000
234.081;   -7.825;  -93.000;   31.000
234.225;  -74.150; -631.000; -539.000
234.368; -104.750; -773.000; -723.000
234.512;  -51.425; -385.000; -299.000
234.655;  -89.300; -582.000; -555.000
234.798;  -69.250; -493.000; -466.000
234.942; -133.750; -884.000;-1002.000
235.085;  -78.650; -651.000; -443.000
235.229;  -76.150; -405.000; -410.000
235.372;  -56.575; -247.000; -191.000
235.516;  -51.550; -397.000; -321.000
235.659;   -4.250;   92.000;  121.000
235.802;   -9.825;  -38.000;  -22.000
235.946;   32.300;  335.000;  215.000
236.089;   31.150;  126.000;  250.000
236.233;   38.925;  275.000;  298.000
236.376;  -42.750; -235.000; -378.000
236.519;  -50.575; -297.000; -319.000
236.663;  -21.850; -215.000; -117.000
236.806; -144.450;-1029.000; -999.000
236.949;   46.825;  543.000;  431.000
237.092;   50.075;  412.000;  391.000
237.236;  -81.500; -589.000; -502.000
237.379;   59.050;  352.000;  428.000
237.522; -110.700; -879.000; -768.000
237.666;  -17.450; -271.000;   18.000
237.809; -110.850; -851.000; -823.000
237.952;   21.800;  469.000;  271.000
238.095;  -68.175; -447.000; -442.000
238.238;   84.600;  688.000;  700.000
238.382;   11.900;  166.000;  103.000
238.525;  -71.125; -598.000; -511.000
238.668; -135.750;-1060.000; -985.000
238.811;  -87.750; -638.000; -643.000
238.954;  -58.400; -483.000; -334.000
239.097;   82.150;  617.000;  664.000
239.241;   20.900;  394.000;  326.000
239.384;  -33.900; -254.000; -214.000
239.527;  -63.350; -424.000; -224.000
239.670; -164.625; -994.000;-1091.000
239.813; -107.425; -696.000; -658.000
239.956;   60.700;  579.000;  473.000
240.099; -109.500; -778.000; -725.000
240.242;   58.125;  428.000;  432.000
240.385;   33.700;  466.000;  450.000
240.528;  -85.275; -706.000; -473.000
240.671;    6.875;  189.000;  134.000
240.814;  -53.900; -441.000; -158.000
240.957;  -97.800; -767.000; -578.000
241.100; -109.450; -779.000; -755.000
241.243; -128.925;-1234.000; -893.000
241.386;  -82.350; -508.000; -379.000
241.529;  -94.600; -735.000; -547.000
241.672;  -69.600; -566.000; -495.000
241.815; -125.650; -832.000; -808.000
241.958;  -31.600; -125.000; -182.000
242.101;  -67.725; -545.000; -390.000
242.244;  -45.900; -270.000; -325.000
242.387;  -27.050; -304.000; -246.000
242.530;   59.500;  470.000;  134.000
242.673;  -38.150; -381.000; -309.000
242.815; -133.525; -925.000; -899.000
242.958;  -56.575; -482.000; -381.000
243.101;    2.650;  132.000;  187.000
243.244;  -77.575; -564.000; -521.000
243.387;  -52.950; -313.000; -316.000
243.530;  -88.650; -657.000; -674.000
243.672;  -15.575;   43.000;  -92.000
243.815;  -41.250; -355.000; -283.000
243.958;  -22.150;   98.000;  -26.000
244.101;    3.775;   59.000;  -16.000
244.243;  -11.375;  -47.000;  101.000
244.386; -113.775; -761.000; -630.000
244.529;  -27.450; -132.000; -139.000
244.672; -164.500;-1154.000; -951.000
244.814; -107.825; -621.000; -794.000
244.957;  -38.250; -380.000; -304.000
245.100;  -73.100; -489.000; -489.000
245.242;  -66.125; -387.000; -374.000
245.385;   -8.900;  -59.000;  -39.000
245.528; -120.050; -871.000; -705.000
245.670;   79.575;  612.000;  634.000
245.813;  -72.750; -599.000; -547.000
245.956;  -45.775; -324.000; -275.000
246.098;  -73.075; -508.000; -650.000
246.241;    0.200;  194.000;   48.000
246.383;  -18.050; -119.000;  -73.000
246.526;  -80.975; -454.000; -525.000
246.669; -106.900; -889.000; -780.000
246.811;    3.350;  172.000;   -1.000
246.954;  -59.700; -512.000; -426.000
247.096;  -21.700;  -84.000;   -6.000
247.239;  -68.250; -482.000; -445.000
247.381;  -72.425; -647.000; -488.000
247.524;   98.675;  645.000;  679.000
247.666;    4.725;   58.000;   11.000
247.809; -117.075; -887.000; -691.000
247.951;  -13.850;  -75.000;  138.000
248.094;   39.600;  432.000;  308.000
248.236; -170.450;-1262.000;-1238.000
248.378;    2.500; -356.000;  -81.000
248.521;  -27.000; -334.000; -337.000
248.663;  -35.600; -236.000; -267.000
248.806;  -23.450; -300.000; -266.000
248.948;  -99.000; -886.000; -763.000
249.090;  -44.425; -428.000; -398.000
249.233;  -39.400; -344.000; -381.000
249.375;  -69.500; -474.000; -451.000
249.518;  -19.675;  -83.000; -133.000
249.660;  -25.100; -103.000;    3.000
249.802; -179.900;-1303.000;-1189.000
249.945;  -86.150; -612.000; -540.000
250.087; -115.775; -834.000; -768.000
250.229;  -61.500; -362.000; -480.000
250.371;  -73.300; -494.000; -439.000
250.514;  -50.675; -310.000; -244.000
250.656;  -66.225;   69.000;  102.000
250.798; -125.425; -849.000; -800.000
250.940;  -70.250; -322.000; -322.000
251.083;  -42.275; -335.000; -111.000
251.225;   53.675;  338.000;  310.000
251.367;  -40.875; -274.000; -373.000
251.509;  -37.600; -265.000; -210.000
251.651; -105.300; -731.000; -671.000
251.794;   81.650;  538.000;  632.000
251.936; -122.200; -821.000; -747.000
252.078;  -82.300; -540.000; -461.000
252.220;  -73.875; -645.000; -477.000
252.362;   87.550;  344.000;  462.000
252.504;  -78.900; -677.000; -584.000
252.646; -105.000; -875.000; -722.000
252.788;   -3.650;   14.000; -128.000
252.931;  -32.100; -257.000; -253.000
253.073;  -48.675; -376.000; -317.000
253.215;   -3.075;  141.000;  122.000
253.357;  -18.300;   82.000; -153.000
253.499;  -53.800; -374.000; -234.000
253.641;  -84.600; -749.000; -594.000
253.783;  -95.675; -609.000; -527.000
253.925;  -99.675; -586.000; -591.000
254.067;  -99.275; -744.000; -667.000
254.209;  -38.750; -391.000; -259.000
254.351; -136.100; -865.000; -883.000
254.493;  -67.175; -441.000; -417.000
254.635; -123.025; -936.000; -818.000
254.777;  -87.575; -752.000; -687.000
254.918;  -57.125; -512.000; -430.000
255.060;  -67.950; -551.000; -395.000
255.202;  -57.200; -473.000; -261.000
255.344;  -91.775; -658.000; -455.000
255.486;  -69.100; -471.000; -406.000
255.628; -112.500; -780.000; -781.000
255.770;  -84.325; -676.000; -536.000
255.912;  -81.750; -559.000; -468.000
256.053;  -91.550; -730.000; -508.000
256.195;  156.675; 1008.000;  903.000
256.337; -109.825; -861.000; -595.000
256.479;   42.150;  532.000;  416.000
256.621;  -53.975; -394.000; -212.000
256.762;  -96.375; -789.000; -742.000
256.904;   52.625;  485.000;  487.000
257.046;  -52.075; -381.000; -271.000
257.188;  -27.225; -351.000; -264.000
257.329;  -85.725; -525.000; -464.000
257.471; -114.775; -939.000; -807.000
257.613;  -75.800; -584.000; -498.000
257.755; -139.425;-1073.000; -982.000
257.896;   29.875;  286.000;  392.000
258.038;  -71.100; -403.000; -352.000
258.180;  -45.025; -354.000; -279.000
258.321;  -97.125; -581.000; -457.000
258.463;  -14.050;  -71.000;  133.000
258.605;  -80.100; -562.000; -570.000
258.746; -117.950; -886.000; -772.000
258.888; -141.000;-1026.000;-1020.000
259.029;    1.300;  121.000;   -8.000
259.171;  -87.500; -614.000; -550.000
259.313;  -10.000;  -49.000;  -47.000
259.454;  -83.125; -536.000; -414.000
259.596;  -76.450; -483.000; -390.000
259.737;  -68.700; -590.000; -474.000
259.879;   39.050;  217.000;  311.000
260.020;   86.975;  901.000;  636.000
260.162;  -39.250; -146.000; -253.000
260.303; -107.150; -768.000; -687.000
260.445;  -89.250; -609.000; -613.000
260.586;   23.450;  392.000;  157.000
260.728;  -44.225; -360.000; -248.000
260.869;  -72.300; -350.000; -343.000
261.011;   82.600;  706.000;  537.000
261.152;  -50.050; -479.000; -319.000
261.293;  -86.550; -576.000; -595.000
261.435;  -21.950; -219.000; -184.000
261.576;  -53.000; -455.000; -325.000
261.718;   60.525;  420.000;  470.000
261.859; -134.575; -940.000; -949.000
262.000; -139.150; -951.000;-1016.000
262.142;  -25.850;  -52.000;  -60.000
262.283; -116.100; -808.000; -691.000
262.424;  -88.200; -666.000; -625.000
262.566; -154.875;-1161.000; -983.000
262.707; -116.750; -840.000; -830.000
262.848; -125.000; -769.000; -726.000
262.990;  -50.775; -362.000; -345.000
263.131;   73.575;  650.000;  681.000
263.272;  -18.800;  -61.000;  -41.000
263.413;  -90.200; -589.000; -561.000
263.555;  -79.875; -669.000; -143.000
263.696;  -91.100; -550.000; -641.000
263.837;  -62.875; -449.000; -551.000
263.978;   -4.400;   -5.000;  -77.000
264.119;  -52.650; -283.000; -264.000
264.261; -104.475; -847.000; -630.000
264.402;   -1.300;   33.000;   40.000
264.543;  -74.050; -509.000; -524.000
264.684;  -26.900;   61.000;  -50.000
264.825;  -85.425; -816.000; -538.000
264.966;   -4.675;  -84.000;  -67.000
265.107; -111.200; -646.000; -670.000
265.248; -117.025; -825.000; -812.000
265.390;   -9.925;  152.000;   -9.000
265.531;  -38.500; -238.000; -107.000
265.672;  -91.675; -557.000; -630.000
265.813;   56.700;  563.000;  439.000
265.954; -149.700; -959.000; -940.000
266.095;   -8.450; -372.000; -322.000
266.236; -103.325; -686.000; -548.000
266.377;  -33.800; -243.000; -297.000
266.518;  -84.875; -619.000; -547.000
266.659;   34.650;  170.000;  268.000
266.800;   -3.100;   83.000;   85.000
266.941;  -84.225; -487.000; -478.000
267.082;   19.475;  354.000;   99.000
267.223;  -46.350; -344.000; -273.000
267.364; -110.500; -892.000; -686.000
267.504;  -21.400;    3.000;  135.000
267.645;   -6.950;  160.000;   67.000
267.786;  -47.275; -147.000;  -86.000
267.927;  -73.325; -473.000; -379.000
268.068;  -14.225; -186.000;  -61.000
268.209;  -46.250; -175.000; -413.000
268.350;  -70.900; -388.000; -532.000
268.490;  -86.400; -648.000; -521.000
268.631;   13.600;  127.000;  225.000
268.772; -125.100; -874.000; -647.000
268.913;  -57.225; -328.000; -476.000
269.054;  -16.100; -117.000;   12.000
269.194;  -47.925; -418.000; -402.000
269.335; -155.875;-1137.000;-1074.000
269.476;  -32.950;   33.000;  -35.000
269.617;  -52.175; -347.000; -392.000
269.757;  -96.175; -713.000; -646.000
269.898; -113.300; -856.000; -613.000
270.039;  -72.500; -415.000; -405.000
270.180; -141.175; -952.000; -816.000
270.320;  -29.750; -190.000; -250.000
270.461;  -48.375; -277.000; -249.000
270.602;  -25.725; -186.000; -156.000
270.742; -127.100; -868.000; -943.000
270.883;  -71.475; -442.000; -390.000
271.023;  -52.875; -358.000; -357.000
271.164;  -90.775; -607.000; -528.000
271.305;  -86.375; -666.000; -654.000
271.445; -100.425; -722.000; -683.000
271.586;  -67.275; -462.000; -283.000
271.726;  -51.750; -397.000; -322.000
271.867;  -46.050; -594.000; -534.000
272.008;  191.075; -473.000; -285.000
272.148;  125.450;  462.000;  468.000
272.289;   -0.775; -113.000; -181.000
272.429;   13.800;   19.000;  185.000
272.570;  -98.000; -633.000; -737.000
272.710; -104.750; -825.000; -775.000
272.851;  -28.750;  113.000; -130.000
272.991; -151.950;-1173.000;-1077.000
273.131;  -76.525; -419.000; -459.000
273.272;  -95.150; -683.000; -723.000
273.412;    5.350; -143.000;  -31.000
273.553;  -46.725; -488.000; -507.000
273.693;  129.150;  913.000;  858.000
273.834;  -80.600; -894.000; -692.000
273.974;  -70.550; -664.000; -615.000
274.114;  -99.000; -772.000; -560.000
274.255;   76.425;  414.000;  373.000
274.395;   11.400; -180.000; -125.000
274.535;   36.550;  199.000;  350.000
274.676;   29.100;  225.000;   94.000
274.816;   -1.475;  110.000;   34.000
274.956;  -67.925; -624.000; -690.000
275.097;  -75.850;-1014.000; -922.000
275.237;  -90.050; -913.000; -803.000
275.377; -107.375; -778.000; -689.000
275.517; -152.625; -878.000; -937.000
275.658;  -67.000; -590.000; -555.000
275.798;  -65.725; -606.000; -413.000
275.938;   19.100;  215.000;  323.000
276.078;  -96.300; -626.000; -395.000
276.218;    1.975;   99.000;  104.000
276.359; -119.000;-1026.000;-1024.000
276.499;  -75.950; -605.000; -446.000
276.639;  -31.650; -305.000; -151.000
276.779;  -46.700; -475.000; -357.000
276.919;  -99.400; -783.000; -624.000
277.059;  -39.175; -261.000; -212.000
277.199;  -44.150; -357.000; -259.000
277.340;   42.575;  287.000;  175.000
277.480; -120.450; -840.000; -693.000
277.620;   22.450;  192.000;   16.000
277.760; -191.725;-1533.000;-1294.000
277.900;   12.275;  113.000;   33.000
278.040;   26.125;  137.000;  159.000
278.180;   30.950;  270.000;  170.000
278.320;    7.425;   21.000;   56.000
278.460;  -70.550; -443.000; -469.000
278.600;  -95.725; -708.000; -598.000
278.740;   45.650;  448.000;  224.000
278.880;  -49.600; -768.000; -791.000
279.020;    1.075; -194.000; -144.000
279.160;  -80.050; -672.000; -595.000
279.300; -135.850; -926.000; -873.000
279.440;  -90.850; -709.000; -622.000
279.579;  -18.750;-1014.000; -929.000
279.719;  -34.275; -410.000; -394.000
279.859;   75.950;   -4.000;   41.000
279.999;   39.900; -208.000;  101.000
280.139;  -21.475; -435.000; -387.000
280.279;  -66.600; -708.000; -745.000
280.419;  -31.575; -229.000; -147.000
280.559;  -32.475; -259.000; -180.000
280.698;  -89.150; -790.000; -639.000
280.838;  -80.350; -778.000; -800.000
280.978; -114.175; -846.000; -790.000
281.118; -116.425; -811.000; -704.000
281.257;    8.175;   24.000;    6.000
281.397;  -86.300;-1094.000; -960.000
281.537;  -86.275; -599.000; -712.000
281.677;  -29.175; -150.000; -101.000
281.816; -105.075; -700.000; -630.000
281.956;  -32.150; -193.000; -257.000
282.096;  -62.250; -539.000; -396.000
282.235;  -98.000; -672.000; -638.000
282.375;  -27.400; -243.000;  -98.000
282.515;  -84.775; -715.000; -707.000
282.654;   27.750;   29.000;  106.000
282.794;   30.875;  388.000;  244.000
282.934;  -58.800; -530.000; -491.000
283.073; -142.050;-1030.000; -857.000
283.213;  -57.000; -460.000; -467.000
283.353;  -21.450; -408.000; -349.000
283.492;  -30.775; -264.000; -296.000
283.632;  -36.900; -254.000; -168.000
283.771; -104.100; -859.000; -730.000
283.911;  -56.675; -369.000; -260.000
284.050; -118.850; -794.000; -748.000
284.190; -154.825;-1229.000;-1096.000
284.329; -149.225;-1055.000; -964.000
284.469;  -61.375; -516.000; -591.000
284.608;  -60.300; -559.000; -598.000
284.748;  -76.200; -614.000; -570.000
284.887;   -9.425;  -87.000;  -20.000
285.027; -115.275; -844.000; -892.000
285.166;  -37.375; -192.000; -249.000
285.306;    0.275; -116.000;  -33.000
285.445;  -37.950; -229.000; -343.000
285.584;  -91.525; -630.000; -494.000
285.724;  -36.350; -282.000; -322.000
285.863; -110.125; -857.000; -507.000
286.002;  -57.375; -366.000; -276.000
286.142; -108.300; -715.000; -622.000
286.281;  -68.625; -525.000; -493.000
286.420;  -70.550; -554.000; -417.000
286.560;   82.975;  653.000;  623.000
286.699; -139.650; -958.000; -912.000
286.838;  -76.950; -590.000; -591.000
286.978;  -93.050; -533.000; -537.000
287.117; -143.700;-1085.000; -950.000
287.256;  -34.625; -228.000; -211.000
287.395;  -49.050; -197.000; -378.000
287.535;  -52.775; -370.000; -298.000
287.674;  -89.625; -509.000; -484.000
287.813;   61.925;  661.000;  533.000
287.952; -131.900;-1010.000; -871.000
288.091; -143.025;-1049.000; -915.000
288.231;    6.075;   13.000;   15.000
288.370; -170.550;-1217.000;-1200.000
288.509;  -97.825; -728.000; -645.000
288.648;  -90.650; -770.000; -548.000
288.787;  -38.825; -243.000;  -87.000
288.926;  -52.475; -454.000; -475.000
289.065;  136.050;  859.000;  672.000
289.204;  -59.100; -377.000; -217.000
289.344;  -94.200; -791.000; -690.000
289.483;   36.025;  416.000;  304.000
289.622;  -24.775; -291.000; -149.000
289.761;  -20.325; -309.000; -166.000
289.900; -122.250; -785.000; -626.000
290.039;   -4.575;  -12.000;  -95.000
290.178;  -37.500; -274.000; -180.000
290.317;  -73.825; -618.000; -479.000
290.456;  -59.000; -463.000; -451.000
290.595; -128.325; -961.000; -833.000
290.734; -144.650; -904.000; -891.000
290.873;  -59.175; -456.000; -420.000
291.011; -124.675; -833.000; -843.000
291.150;  -98.850; -770.000; -682.000
291.289;  -21.700; -343.000; -110.000
291.428;  -89.700; -599.000; -480.000
291.567;  -65.750; -370.000; -442.000
291.706;   -1.675;  109.000;  154.000
291.845;  -86.025; -597.000; -505.000
291.984; -161.550;-1234.000;-1061.000
292.122;   61.500;  602.000;  582.000
292.261;   55.525;  620.000;  463.000
292.400;   19.375; -144.000;  211.000
292.539; -116.175; -959.000; -813.000
292.678;  -44.975; -325.000; -300.000
292.816; -156.475;-1136.000; -965.000
292.955;  -84.225; -844.000; -684.000
293.094;  -24.650; -173.000; -337.000
293.233;  -66.575; -556.000; -400.000
293.371;  -30.125; -225.000;  -84.000
293.510; -120.575; -866.000; -780.000
293.649; -122.075; -959.000; -924.000
293.787;  -61.325;-1083.000;-1012.000
293.926;   -5.125; -113.000;  -32.000
294.065;  -51.100; -379.000; -290.000
294.203;   57.050;  298.000;  406.000
294.342;   16.425;   74.000;  156.000
294.481; 6426.625;51180.000; -836.000
294.619;  -40.800; -425.000; -582.000
294.758; -140.825;-1230.000;-1137.000
294.896;   76.125; -125.000;    5.000
295.035; -124.700;-1040.000;-1006.000
295.174; -125.975;-1082.000; -954.000
295.312;  -43.150; -323.000; -203.000
295.451;   -8.925; -307.000; -428.000
295.589;  -44.525; -389.000; -518.000
295.728;   10.350; -292.000; -165.000
295.866;    9.250;  -36.000;  -51.000
296.005;  -65.850; -584.000; -341.000
296.143;  -68.425; -558.000; -596.000
296.282; -112.850; -957.000; -881.000
296.420;  -67.100; -657.000; -557.000
296.559;  -88.375; -892.000; -633.000
296.697;   36.200; -847.000; -665.000
296.835;   86.350;-1141.000;-1002.000
296.974;   56.700;  -23.000;   39.000
297.112;    7.125; -443.000; -504.000
297.251;  -61.125; -815.000; -755.000
297.389;   89.000; -576.000; -438.000
297.527;   53.225; -145.000;  -83.000
297.666;  -54.700; -486.000; -438.000
297.804;  -50.350; -404.000; -264.000
297.942;  -11.950; -136.000; -161.000
298.081;    4.000; -183.000;   63.000
298.219;   95.000;  -17.000;  -19.000
298.357;   60.425; -144.000;  -71.000
298.495;   36.125; -810.000; -812.000
298.634;  109.500;  245.000;  219.000
298.772;   78.500; -220.000; -338.000
298.910;  -23.125; -309.000; -182.000
299.048;   -9.625; -130.000; -153.000
299.187;  -22.475; -350.000; -250.000
299.325;   26.850;   52.000;  122.000
299.463;   77.850; -389.000; -299.000
299.601;  135.400; -327.000; -271.000
299.739;  -98.500; -908.000; -883.000
299.877;  -79.550; -791.000; -703.000
300.016;  -46.925;-1095.000; -935.000
300.154;  175.425;  -19.000; -161.000
300.292;   77.075; -428.000; -348.000
300.430;   33.150; -408.000; -291.000
300.568;  -98.000; -940.000; -874.000
300.706;  -58.575; -366.000; -469.000
300.844;  -60.650;-1108.000; -979.000
300.982;  103.075;  246.000;  282.000
301.120; -103.000; -965.000; -866.000
301.258;  -72.000; -812.000; -705.000
301.396;   46.525;  104.000;  -41.000
301.534;  105.275; -218.000; -293.000
301.672;   18.500; -664.000; -521.000
301.810;   35.425; -613.000; -545.000
301.948;  146.550;   53.000;  149.000
302.086;  667.025; -250.000;  -32.000
302.224; 1051.525; -610.000; -585.000
302.362;   68.025; -558.000; -622.000
302.500;    2.325; -923.000; -893.000
302.638;  123.825;  128.000;  245.000
302.776;    1.250; -352.000; -408.000
302.913;   43.700;  447.000;  236.000
303.051;    1.575;  -86.000;  -23.000
303.189;   63.425;   90.000;  118.000
303.327;  -28.225; -341.000; -256.000
303.465;  -87.375; -832.000; -588.000
303.603;  -99.675; -805.000; -604.000
303.740;  115.050;  417.000;  241.000
303.878;   45.000; -800.000; -759.000
304.016;  -92.875; -915.000; -790.000
304.154; -126.975;-1123.000;-1152.000
304.291;  -36.700; -505.000; -554.000
304.429;   11.050;  102.000;   74.000
304.567; -127.725; -908.000; -893.000
304.705;  -52.500; -408.000; -515.000
304.842;   86.100; -616.000; -540.000
304.980;   68.175;  215.000;   35.000
305.118;   48.725; -367.000; -365.000
305.255;  -73.450; -945.000; -927.000
305.393;   57.825;  178.000;  239.000
305.531; -103.100;-1173.000; -956.000
305.668;  -72.200; -663.000; -582.000
305.806;  103.925; -358.000; -439.000
305.943;  104.725; -629.000; -637.000
306.081;   67.050; -378.000; -267.000
306.219; -106.225; -863.000; -748.000
306.356;    8.325;  158.000;   27.000
306.494;  110.600;  981.000;  761.000
306.631;    3.550;  -11.000;  -55.000
306.769;   -2.875; -613.000; -485.000
306.906;   -6.525; -284.000; -258.000
307.044;  -67.000; -473.000; -488.000
307.181;  -67.275; -410.000; -332.000
307.319;   11.500;  112.000;   87.000
307.456; -171.625;-1191.000;-1153.000
307.594; -102.100; -980.000; -727.000
307.731;    5.350; -371.000; -164.000
307.868;   -6.150;  -15.000;   20.000
308.006; -131.700; -961.000; -847.000
308.143;  -74.225; -618.000; -330.000
308.281;  155.600;  -37.000; -254.000
308.418;  -10.450; -748.000; -640.000
308.555;  -61.375; -400.000; -250.000
308.693;  -79.700; -577.000; -573.000
308.830; -111.900; -712.000; -657.000
308.967;   -7.875; -215.000;  -95.000
309.105;  -34.450; -507.000; -396.000
309.242;   11.050; -468.000; -367.000
309.379;  265.200; -577.000; -655.000
309.517;  -66.700; -936.000; -948.000
309.654;  -89.475; -910.000; -734.000
309.791;  -75.450; -662.000; -580.000
309.928; -130.275; -977.000; -914.000
310.065;  184.200;  819.000;  697.000
310.203;   13.050; -825.000; -850.000
310.340;    6.125; -465.000; -321.000
310.477;  -72.825; -412.000; -516.000
310.614;  -72.775; -383.000; -473.000
310.751;  -77.000; -427.000; -518.000
310.889;  -18.175;    1.000;   11.000
311.026; -134.300;-1161.000; -939.000
311.163;  -39.475; -386.000; -380.000
311.300;  -74.050; -512.000; -479.000
311.437;  -81.850; -658.000; -619.000
311.574; -150.550;-1226.000; -985.000
311.711;  -62.200; -595.000; -433.000
311.848;  -38.750; -380.000; -388.000
311.985;   19.650;  270.000;   93.000
312.122; -112.600; -932.000; -762.000
312.259; -125.550; -941.000; -994.000
312.396;  -71.925; -508.000; -551.000
312.533;  -91.900; -812.000; -790.000
312.670; -127.725;-1070.000; -898.000
312.807;  -35.250; -352.000; -367.000
312.944;  -73.725; -513.000; -611.000
313.081;  -36.525; -150.000; -415.000
313.218;  -89.300;-1111.000; -867.000
313.355;   16.950; -531.000; -449.000
313.492;   10.925; -455.000; -292.000
313.629;  119.975;  815.000;  735.000
313.766; -152.375;-1176.000;-1008.000
313.902;  -11.350; -186.000;   21.000
314.039;  -42.075; -372.000; -289.000
314.176;   30.425;  286.000;  192.000
314.313;  -67.025; -569.000; -473.000
314.450;  -74.750; -788.000; -684.000
314.587;  -57.025; -468.000; -480.000
314.723;   -3.950;  -78.000;  130.000
314.860;   36.200;  318.000;  332.000
314.997;   37.050;  223.000;  142.000
315.134;  -34.550; -385.000; -368.000
315.270;  -29.250; -480.000; -496.000
315.407; -124.975;-1094.000; -967.000
315.544;  -51.700; -657.000; -538.000
315.681;  -52.175; -681.000; -565.000
315.817;   21.725; -133.000; -176.000
315.954;   31.625; -613.000; -392.000
316.091; -123.800;-1045.000;-1023.000
316.227;  -35.250;  -71.000; -179.000
316.364;  -15.275;   23.000;    6.000
316.500;  -31.850; -113.000; -300.000
316.637;  -54.625; -181.000; -302.000
316.774;  -82.075; -625.000; -358.000
316.910; -108.525; -598.000; -629.000
317.047;  -73.550; -487.000; -351.000
317.183;  -58.700; -435.000; -566.000
317.320;  -24.675; -367.000; -321.000
317.456;  -96.875; -733.000; -805.000
317.593;  -92.600; -598.000; -641.000
317.729;   -7.975;  168.000;  -67.000
317.866; -196.050;-1434.000;-1285.000
318.002;  -87.225; -708.000; -948.000
318.139;  -88.500; -883.000; -867.000
318.275;  -99.650;-1003.000; -738.000
318.412;  -66.975; -517.000; -336.000
318.548;  -32.350; -751.000; -720.000
318.685;  -87.575; -985.000; -888.000
318.821; -119.850; -762.000; -735.000
318.957;  -10.875;   34.000;  -23.000
319.094;   35.525;  297.000;  154.000
319.230;  -50.625; -756.000; -742.000
319.367;  145.900; -471.000; -520.000
319.503;   63.200; -538.000; -436.000
319.639;  -92.725; -877.000; -793.000
319.775;  -51.250; -750.000; -685.000
319.912;  -58.425; -424.000; -519.000
320.048;  -73.375;-1184.000;-1184.000
320.184;   67.475;   59.000;   70.000
320.321;  -58.400; -497.000; -467.000
320.457;   60.325;  475.000;  662.000
320.593;  -57.050; -375.000; -382.000
320.729; -108.500; -732.000; -734.000
320.866;  -84.725; -577.000; -635.000
321.002;  -83.275; -759.000; -809.000
321.138;  -11.325; -135.000; -211.000
321.274;   55.450; -148.000; -115.000
321.410;  -13.600; -585.000; -353.000
321.546;  -19.700;-1011.000; -911.000
321.683;   64.975;  400.000;  185.000
321.819;  -13.225;  -48.000; -117.000
321.955; -109.275; -743.000; -722.000
322.091;  -58.050; -585.000; -540.000
322.227;  -13.975; -382.000; -202.000
322.363;  -13.925; -320.000; -215.000
322.499;  -44.725; -343.000; -331.000
322.635;  159.050;  636.000;  443.000
322.771;   28.600; -139.000;   12.000
322.907;   90.775;  129.000;  327.000
323.043;  -22.900; -115.000; -206.000
323.179;  -29.525; -394.000; -363.000
323.315;   50.175; -401.000; -371.000
323.451;  114.800; -328.000; -236.000
323.587;   80.425;  -60.000;  -77.000
323.723;   31.350; -682.000; -601.000
323.859;  -11.900; -258.000;  -76.000
323.995;  -39.825; -467.000; -409.000
324.131; -123.675; -967.000; -892.000
324.267;  -47.975; -254.000; -276.000
324.402; -129.525; -960.000; -983.000
324.538;  -11.075; -279.000; -104.000
324.674;   30.875;  164.000;   77.000
324.810;  139.125;  226.000;  308.000
324.946;   18.325; -810.000; -658.000
325.082;  -78.025; -568.000; -475.000
325.217;  -15.500;  -62.000;   16.000
325.353; -106.600; -764.000; -659.000
325.489;  -75.075; -540.000; -506.000
325.625;  -80.775; -579.000; -525.000
325.760;   60.625;  517.000;  376.000
325.896;  -58.000; -515.000; -702.000
326.032;  -61.800; -403.000; -352.000
326.168;  -70.075; -462.000; -369.000
326.303;  -48.250; -352.000; -461.000
326.439;  -31.750; -336.000; -276.000
326.575;   11.300; -190.000;  -29.000
326.710;   -3.225; -156.000;  -30.000
326.846;   -9.550;  146.000;  103.000
326.982; -113.350; -530.000; -548.000
327.117;  -79.325; -481.000; -442.000
327.253;  -90.825; -745.000; -742.000
327.388; -162.850;-1137.000;-1153.000
327.524;  -42.300; -811.000; -578.000
327.659;  -29.550;  -58.000;  -22.000
327.795;  -18.100;   69.000;   45.000
327.931;  -94.600; -723.000; -499.000
328.066;  -22.900; -417.000; -276.000
328.202;   -5.075;   12.000; -129.000
328.337;   95.375;  957.000;  713.000
328.473;   54.150;  -12.000;  -74.000
328.608;   -7.425; -256.000; -267.000
328.743;  -74.425; -799.000; -664.000
328.879;   14.575;  214.000;  114.000
329.014;  -31.425; -102.000; -122.000
329.150;  -87.100; -358.000; -483.000
329.285;  -69.450; -465.000; -466.000
329.421;  -67.850; -548.000; -246.000
329.556;  -17.675;  -36.000;   85.000
329.691; -112.175; -633.000; -615.000
329.827;  -78.950; -626.000; -480.000
329.962;  -54.550;  131.000; -301.000
330.097;  -86.500; -673.000; -585.000
330.233;  -69.825; -410.000; -223.000
330.368; -115.000; -839.000; -628.000
330.503;  -18.275;    3.000;   98.000
330.638;   14.075;  -93.000; -125.000
330.774;  -51.500; -609.000; -530.000
330.909;  -44.250; -434.000; -244.000
331.044;  -98.500; -714.000; -708.000
331.179; -172.575;-1217.000;-1109.000
331.315;    9.375;   77.000;   20.000
331.450;    6.900;  157.000;  285.000
331.585; -102.500; -805.000; -706.000
331.720;  -82.800; -510.000; -460.000
331.855;  -12.075;  -35.000; -102.000
331.990;  233.900;   62.000;  138.000
332.126;  105.325; -110.000;   71.000
332.261;  -22.825; -379.000; -265.000
332.396;  -10.925; -135.000; -242.000
332.531;  -99.425;-1074.000;-1031.000
332.666;   11.375; -519.000; -363.000
332.801;  -95.300; -726.000; -807.000
332.936;  -32.625; -192.000; -122.000
333.071; -134.425; -870.000; -817.000
333.206;   30.625;  307.000;  379.000
333.341;   29.700;  344.000;  418.000
333.476;  -85.075; -627.000; -623.000
333.611;  -39.850; -251.000; -173.000
333.746;  -47.150; -381.000; -464.000
333.881; -109.775; -973.000; -935.000
334.016; -144.225; -936.000; -917.000
334.151; -124.175; -746.000; -702.000
334.286;   20.025;  152.000;  186.000
334.421;   -7.900; -125.000; -178.000
334.556;  -85.025; -611.000; -567.000
334.690;  -70.075; -631.000; -577.000
334.825;   54.175;  381.000;   83.000
334.960;  -53.050; -285.000; -413.000
335.095;   -5.525;  135.000;  -91.000
335.230;  -88.400; -722.000; -738.000
335.365; -130.325;-1084.000; -990.000
335.499; -124.950;-1108.000;-1037.000
335.634;   26.000;    9.000;  534.000
335.769;  -90.725; -755.000; -720.000
335.904;  -44.300; -603.000; -561.000
336.038;  -38.450; -735.000; -657.000
336.173; -118.925;-1206.000;-1194.000
336.308;   20.725; -116.000; -189.000
336.443;   20.950; -544.000; -634.000
336.577;  -59.025; -936.000; -787.000
336.712;   68.650;   -4.000;  -12.000
336.847;  -21.650; -724.000; -607.000
336.981;   82.275; -272.000; -208.000
337.116;  308.425;  615.000;  501.000
337.250;  180.750; -434.000; -421.000
337.385;  214.375; -297.000; -208.000
337.520;   47.800; -632.000; -603.000
337.654;  -49.450; -215.000; -126.000
337.789; -136.425; -989.000; -933.000
337.923;  -21.475; -104.000; -205.000
338.058;  -97.000; -673.000; -738.000
338.192;  -29.725; -611.000; -488.000
338.327;   -4.325;  -18.000; -155.000
338.461;  -63.925; -299.000; -469.000
338.596;  -99.750; -780.000; -638.000
338.730;  -88.800; -767.000; -803.000
338.865;   71.400;  -46.000; -140.000
338.999;  -49.050; -846.000; -702.000
339.134;  -34.200; -634.000; -536.000
339.268;    9.375; -741.000; -603.000
339.403;  300.750; -740.000; -775.000
339.537;   81.100; -894.000; -820.000
339.671; -114.725; -829.000; -813.000
339.806;  -64.600; -556.000; -512.000
339.940;    0.850; -261.000; -235.000
340.074;  -99.425; -685.000; -510.000
340.209;  -52.950; -351.000; -230.000
340.343;  -69.750; -517.000; -573.000
340.477;  156.025;  998.000; 1036.000
340.612;  -72.000;-1033.000; -900.000
340.746;  103.350; -199.000; -243.000
340.880;  -68.375; -924.000; -785.000
341.014;  -14.250;  -45.000; -154.000
341.149; -111.950; -756.000; -718.000
341.283; -114.100; -839.000; -754.000
341.417;  -84.075;-1124.000; -938.000
341.551;  160.225; -768.000; -708.000
341.685;  -29.075; -633.000; -611.000
341.820;  -60.225; -562.000; -493.000
341.954;  -52.600; -218.000; -349.000
342.088; -158.550;-1102.000;-1019.000
342.222;   77.925;  565.000;  618.000
342.356;  -60.650; -395.000; -335.000
342.490;  -87.350; -880.000; -841.000
342.624;  -51.500; -339.000; -242.000
342.758;    9.800; -364.000; -312.000
342.892;  -75.200; -710.000; -585.000
343.026;  -23.250;  -58.000; -116.000
343.160;  -67.300; -426.000; -376.000
343.294;  -70.200; -474.000; -337.000
343.428;  -11.500; -488.000; -448.000
343.562;  -16.800; -172.000;  -23.000
343.696;  -34.650; -385.000; -314.000
343.830;  -28.800; -362.000; -356.000
343.964;    5.250; -231.000; -168.000
344.098; 1028.550;  199.000;   70.000
344.232;  856.225; -266.000; -127.000
344.366;   81.825; -567.000; -453.000
344.500;   76.675; -665.000; -744.000
344.634;   48.075; -324.000; -164.000
344.768;   -9.900; -531.000; -341.000
344.902;   15.225;  278.000;  256.000
345.035;  -87.175; -556.000; -496.000
345.169; -117.600; -933.000; -656.000
345.303;  -63.700; -308.000; -482.000
345.437;  -53.250; -826.000; -717.000
345.571;  -85.125; -675.000; -594.000
345.704;  -68.200; -309.000; -532.000
345.838;  -18.150; -331.000; -284.000
345.972;  -35.450; -543.000; -495.000
346.106;  136.400; -179.000; -190.000
346.239;  402.950; -312.000; -243.000
346.373;   12.350; -343.000; -302.000
346.507; -131.200; -950.000; -962.000
346.640;  163.050;  -30.000;   13.000
346.774;  -37.850; -650.000; -797.000
346.908;  -10.650; -138.000;  -11.000
347.041;  -89.500; -646.000; -593.000
347.175;    1.425;  259.000;   27.000
347.309;  -58.375; -698.000; -628.000
347.442; -105.125; -883.000; -732.000
347.576;  312.650;  670.000;  668.000
347.709;  229.475; -123.000;  -52.000
347.843;  -67.600; -933.000; -825.000
347.976;   24.500;  235.000;  294.000
348.110; -175.400;-1268.000;-1186.000
348.243; -111.025; -679.000; -772.000
348.377;    0.675;  -26.000;   60.000
348.510;   47.075;  403.000;  540.000
348.644;  -41.200;  -37.000; -159.000
348.777;    2.600;  180.000;  191.000
348.911;  -52.825; -142.000; -112.000
349.044;  174.900;  471.000;  448.000
349.178;  188.300;-1069.000;-1006.000
349.311;  116.200;  141.000;  255.000
349.444;  -17.250; -927.000; -813.000
349.578;  -16.900; -347.000; -200.000
349.711; -107.650; -959.000; -862.000
349.845;   12.400; -661.000; -591.000
349.978; -146.600;-1224.000;-1137.000
350.111;  -92.425; -546.000; -612.000
350.244;  -70.275; -596.000; -700.000
350.378;   10.825; -392.000; -393.000
350.511;  -68.775; -393.000; -426.000
350.644;  -98.450; -808.000; -806.000
350.778;    8.375;  168.000;  104.000
350.911;   -8.350;  134.000;  140.000
351.044;  -84.575; -685.000; -615.000
351.177;  -34.375; -321.000; -281.000
351.310;  -15.575;    3.000; -131.000
351.444;  -77.075; -888.000; -788.000
351.577;  153.275;  140.000;   90.000
351.710;  104.175;  593.000;  417.000
351.843;  -27.150; -165.000;  -77.000
351.976;   -3.900;  149.000;  -79.000
352.109;  -87.150; -621.000; -612.000
352.242;  -28.875; -464.000; -419.000
352.376;  -38.850; -580.000; -636.000
352.509;  215.650; -437.000; -356.000
352.642;   39.850; -654.000; -604.000
352.775;   70.350; -141.000;  -98.000
352.908; -116.700; -933.000; -904.000
353.041; -110.925; -814.000; -824.000
353.174;  -58.925; -551.000; -424.000
353.307;  -93.375; -753.000; -764.000
353.440;   67.550;  541.000;  453.000
353.573; -124.875; -957.000;-1008.000
353.706;  -43.150; -384.000; -558.000
353.839;  -20.025; -264.000; -220.000
353.971;  -90.275; -657.000; -512.000
354.104;  -81.600; -896.000; -835.000
354.237;  -26.525; -627.000; -662.000
354.370;  -89.200; -846.000; -879.000
354.503; -175.050;-1231.000;-1308.000
354.636;  -42.400; -529.000; -348.000
354.769; -127.025; -937.000; -860.000
354.902;  -17.425; -230.000; -139.000
355.034;  -14.425; -164.000; -220.000
355.167;  -23.975; -262.000; -162.000
355.300;  -84.000;-1061.000; -880.000
355.433;  878.900;  -71.000;  -14.000
355.565; 1360.725; -402.000; -384.000
355.698;  316.000; -356.000; -296.000
355.831;   10.600; -882.000; -801.000
355.964;  107.725; -285.000; -170.000
356.096;  -74.625; -856.000; -843.000
356.229;   13.025; -523.000; -530.000
356.362;  281.125; -373.000; -266.000
356.494;  541.300; -229.000; -162.000
356.627;  531.575;  269.000;  377.000
356.760;  615.825;  120.000;   53.000
356.892;  853.100; -286.000; -601.000
357.025;  722.650;  403.000;  389.000
357.157;  702.300; -167.000; -179.000
357.290;  568.425; -856.000; -713.000
357.423;  169.550; -667.000; -556.000
357.555;  129.425; -217.000; -228.000
357.688;  143.625; -483.000; -364.000
357.820;  488.475; -870.000; -877.000
357.953; 3945.775; -563.000; -589.000
358.085;  893.350; -632.000; -612.000
358.218; 1396.325;-1131.000; -932.000
358.350;  256.975;  -58.000;  312.000
358.483; -119.600;-1300.000;-1187.000
358.615;    0.400;-1182.000;-1078.000
358.747;  -31.150;-1187.000;-1058.000
358.880;   34.300; -810.000; -744.000
359.012;   -3.575; -376.000; -202.000
359.145;  -48.875; -480.000; -511.000
359.277;   77.350; -962.000; -913.000
359.409; 3261.225;  536.000;  231.000
359.542;  862.400; -738.000; -688.000
359.674;   57.850;   46.000;   13.000
359.806;  -64.550; -565.000; -438.000
359.939;  -51.575; -617.000; -516.000
360.071;  -20.775; -583.000; -579.000
360.203;  -34.075; -411.000; -364.000
360.335;   47.650;  164.000;  -16.000
360.468;  182.075; -249.000; -307.000
360.600; 2578.250; -547.000; -454.000
360.732; 2504.475; -546.000; -423.000
360.864;  343.700;-1216.000;-1044.000
360.996;  338.225; -516.000; -554.000
361.129;   79.650; -389.000; -598.000
361.261;   13.700;  110.000; -113.000
361.393;  -28.550; -252.000; -214.000
361.525;   38.775;   94.000;  244.000
361.657;  -29.775; -821.000; -703.000
361.789;    7.750; -139.000; -155.000
361.921;  277.575; -642.000; -593.000
362.053;  294.175;  524.000;  541.000
362.185;   61.300;  288.000;   72.000
362.318;  -79.850; -709.000; -705.000
362.450;  142.025;  294.000;  444.000
362.582;  187.200; -913.000; -870.000
362.714;  -31.925; -353.000; -332.000
362.846;  -93.975; -606.000; -490.000
362.978; -122.675; -941.000; -811.000
363.109;   63.825; -161.000; -260.000
363.241;  513.675; -739.000; -749.000
363.373;  410.250; -649.000; -564.000
363.505;  573.875; -186.000;  -91.000
363.637;  129.875; -787.000; -601.000
363.769; -112.675;-1067.000;-1080.000
363.901;  -73.525; -596.000; -654.000
364.033; -103.525;-1103.000;-1062.000
364.165;    5.400; -283.000; -283.000
364.296;   79.325; -316.000; -177.000
364.428;   49.125;-1344.000;-1220.000
364.560;  -86.075; -679.000; -661.000
364.692;  -62.650; -738.000; -835.000
364.824;  336.050; -588.000; -456.000
364.955;  425.750; -402.000; -564.000
365.087;  758.950;-1097.000; -852.000
365.219;   12.125; -686.000; -816.000
365.351;  -57.050; -526.000; -572.000
365.482;   38.450;  300.000;  240.000
365.614;  -54.825; -402.000; -314.000
365.746;  -94.500; -729.000; -752.000
365.877; -103.625; -706.000; -672.000
366.009;  219.750;  -35.000;  -62.000
366.141;  -98.250;-1249.000;-1134.000
366.272; -116.375; -803.000; -719.000
366.404; -111.500;-1005.000; -874.000
366.535;   -3.500; -139.000;  -12.000
366.667; -104.575; -644.000; -649.000
366.799;   31.550;  353.000;  203.000
366.930; -101.650; -862.000; -996.000
367.062;  120.275; -639.000; -613.000
367.193;  122.600; -872.000; -842.000
367.325;  -64.900; -580.000; -684.000
367.456;   96.275; -246.000;   31.000
367.588;  151.675; -371.000; -318.000
367.719;   26.325;  -44.000;  -45.000
367.851;  -23.675; -222.000; -241.000
367.982;  -28.450; -875.000; -732.000
368.113;  123.875; -475.000; -358.000
368.245; -105.300; -960.000; -841.000
368.376;  -31.750; -254.000; -302.000
368.508;  -29.250; -188.000; -263.000
368.639; -142.300;-1166.000;-1034.000
368.770;   -2.025; -670.000; -589.000
368.902;  -50.825; -836.000; -926.000
369.033;  -94.200; -906.000; -855.000
369.164;  -59.150; -720.000; -653.000
369.296; -100.750; -452.000; -601.000
369.427;   -3.700; -209.000; -144.000
369.558;  -39.250; -593.000; -377.000
369.689;  -88.350; -721.000; -569.000
369.821; -129.700; -951.000; -845.000
369.952;  -30.850;   42.000; -108.000
370.083;  -34.650; -229.000; -108.000
370.214;  -95.300; -735.000; -650.000
370.345;   -7.350;   65.000;   81.000
370.477;  -91.175; -810.000; -790.000
370.608;  276.775; -328.000; -264.000
370.739;  -41.600;-1233.000;-1292.000
370.870;  -13.925;-1102.000; -923.000
371.001;  107.300; -378.000; -467.000
371.132;  -80.975; -754.000; -735.000
371.263;  -21.850;  -42.000; -148.000
371.394; -124.475; -841.000; -748.000
371.525;   27.300;  345.000;  225.000
371.657;  -90.175; -808.000; -670.000
371.788;   79.725;  103.000;  199.000
371.919;  206.650; -384.000; -304.000
372.050; 4025.675;  -91.000; -156.000
372.181; 1181.975; -188.000; -294.000
372.311;  427.350;   42.000; -127.000
372.442;   63.000; -457.000; -451.000
372.573;  -21.000; -444.000; -340.000
372.704; -113.050;-1008.000; -980.000
372.835;   92.300; -228.000; -289.000
372.966;  -51.100; -646.000; -554.000
373.097;  -59.550; -575.000; -711.000
373.228;  -23.150; -717.000; -542.000
373.359;  173.725; -824.000; -536.000
373.490; 1081.125; -881.000; -727.000
373.620; 1313.200;-1001.000; -803.000
373.751; 2068.350; -332.000; -396.000
373.882;  911.575; -663.000; -733.000
374.013;   92.225; -449.000; -262.000
374.143;  -39.175; -581.000; -659.000
374.274;  -95.575; -987.000; -908.000
374.405;  190.525; -388.000; -276.000
374.536;  519.575; -526.000; -387.000
374.666; 1297.900; -759.000; -807.000
374.797;  282.750; -817.000; -868.000
374.928; 1011.400; -710.000; -560.000
375.058; 1028.200; -535.000; -500.000
375.189;   90.150;  -59.000;  -93.000
375.320;  -93.375; -928.000;-1034.000
375.450;  -37.825; -625.000; -616.000
375.581;  -44.000; -526.000; -436.000
375.712;  -41.050; -574.000; -250.000
375.842;  368.600; -438.000; -415.000
375.973;  263.100; -554.000; -513.000
376.103;  -21.250; -665.000; -648.000
376.234;  -78.025; -531.000; -552.000
376.364;  -15.075; -944.000; -867.000
376.495;  353.600;  925.000;  529.000
376.625;   26.825; -472.000; -485.000
376.756;   82.050; -709.000; -678.000
376.886;  -65.725;-1178.000;-1026.000
377.017;   35.575;-1048.000;-1061.000
377.147;  298.500; -786.000; -782.000
377.278;   34.800;  174.000;  228.000
377.408; -121.950; -801.000; -815.000
377.538; -114.725; -707.000; -693.000
377.669;  -74.775; -537.000; -613.000
377.799;  -87.275; -645.000; -635.000
377.929;  -43.550; -610.000; -428.000
378.060; -131.450; -781.000; -847.000
378.190;  -64.475; -726.000; -531.000
378.320;  -51.025; -401.000; -406.000
378.451;    0.200; -131.000;  -22.000
378.581;    3.825;  -67.000; -110.000
378.711;  164.975; 1035.000;  866.000
378.841;  -19.000; -533.000; -675.000
378.972;  -61.250; -871.000; -751.000
379.102;    6.925; -652.000; -579.000
379.232;   -6.525; -126.000;  -73.000
379.362; -109.100;-1001.000; -885.000
379.492;   29.800; -373.000; -424.000
379.623;  119.675;    0.000;  111.000
379.753;  -88.925;-1107.000; -974.000
379.883;  226.750;   59.000;  156.000
380.013;   43.050;-1081.000;-1017.000
380.143; -102.275;-1097.000;-1056.000
380.273; -100.825; -985.000; -861.000
380.403;    3.475; -344.000; -257.000
380.533;   -4.175; -651.000; -664.000
380.663;   85.575;  173.000;  128.000
380.793;  -88.225;-1027.000;-1074.000
380.923;  -21.975; -103.000;  -34.000
381.053;  -83.550; -613.000; -623.000
381.183;  -19.275; -106.000; -248.000
381.313;   63.850; -656.000; -470.000
381.443;   48.900; -692.000; -473.000
381.573;  251.950; -402.000; -409.000
381.703;  338.250;-1249.000;-1095.000
381.833; -129.025;-1454.000;-1336.000
381.963;  118.200; -134.000;  -87.000
382.093; 1543.425; -925.000; -909.000
382.223;  454.650; -713.000; -602.000
382.353;   10.875; -801.000; -608.000
382.482;  458.700;-1091.000; -964.000
382.612;  875.325; -872.000; -644.000
382.742;  483.200; -695.000; -622.000
382.872;  319.325; -565.000; -551.000
383.002;   70.950;  347.000; -132.000
383.131;  -12.725; -226.000; -160.000
383.261;  -53.675; -706.000; -768.000
383.391;  276.850; -552.000; -377.000
383.521; 2816.400;  451.000;  263.000
383.650;  642.550; -947.000; -904.000
383.780;  -19.550; -783.000; -656.000
383.910;  113.275;  880.000;  802.000
384.039;   28.050; -794.000; -656.000
384.169;  268.225;-1205.000;-1017.000
384.299;  -20.800; -650.000; -662.000
384.428;  -90.675; -764.000; -680.000
384.558;  -37.050; -308.000; -275.000
384.687;  -21.225; -414.000; -334.000
384.817;   11.150;   75.000;   -2.000
384.947;   52.375; -234.000; -141.000
385.076;  320.225;  982.000;  912.000
385.206;  112.675;  369.000;  480.000
385.335;  -21.375; -549.000; -417.000
385.465;  -68.975; -655.000; -663.000
385.594;  159.975;  -53.000;  -44.000
385.724;  547.925; -868.000; -838.000
385.853;  146.325; -296.000; -270.000
385.982; 1592.625; -743.000; -787.000
386.112; 2454.100;-1052.000; -871.000
386.241;  180.150; -307.000; -312.000
386.371;   41.175; -174.000;  -87.000
386.500;   20.175; -825.000; -789.000
386.629;   26.950; -874.000; -817.000
386.759;   72.175;  -43.000;   68.000
386.888;   13.650; -170.000; -250.000
387.017;  -62.225; -648.000; -620.000
387.147;  -69.275; -771.000; -798.000
387.276;   17.525; -410.000; -397.000
387.405;   25.775; -398.000; -342.000
387.535;  -29.825; -452.000; -361.000
387.664;  -72.875; -692.000; -620.000
387.793;   91.275; -198.000; -113.000
387.922;  580.100;  255.000;  200.000
388.052;   46.625; -576.000; -423.000
388.181;   46.750; -342.000; -472.000
388.310;   48.100; -889.000; -710.000
388.439;  -25.850; -749.000; -742.000
388.568;  226.600;  365.000;  244.000
388.697; 1228.500; -756.000; -653.000
388.826;  248.450; -768.000; -666.000
388.956;   73.125; -285.000; -307.000
389.085;  -29.225; -347.000; -287.000
389.214; -110.950; -842.000; -872.000
389.343;  -43.025; -645.000; -413.000
389.472;  376.500;  126.000;  149.000
389.601;  511.500;   91.000;    0.000
389.730;   31.075; -568.000; -687.000
389.859;   92.475;  226.000;   46.000
389.988;  215.850; -423.000; -408.000
390.117;  165.075; -168.000; -146.000
390.246;   -1.450; -331.000; -320.000
390.375;  133.050; -673.000; -626.000
390.504;  -67.850; -703.000; -621.000
390.633;  -92.650; -672.000; -726.000
390.761;  -63.525; -732.000; -645.000
390.890;   31.250;   -4.000; -130.000
391.019;  -17.475; -421.000; -441.000
391.148; -114.850; -826.000; -855.000
391.277;  -70.625; -576.000; -493.000
391.406;  -68.400; -821.000; -805.000
391.534;   25.950;  574.000; -301.000
391.663;  -39.850; -583.000; -645.000
391.792;  -76.175; -673.000; -701.000
391.921;  138.475;   -3.000;   15.000
392.050;  228.600; -287.000; -228.000
392.178;   -3.700;-1206.000;-1061.000
392.307;  163.075; -758.000; -712.000
392.436;  100.700; -427.000; -641.000
392.564;   20.850;  166.000;   -6.000
392.693;  -83.925; -860.000; -682.000
392.822;  229.900; -529.000; -534.000
392.950;  115.500; -880.000; -714.000
393.079;  364.175; -188.000; -328.000
393.208;   53.150; -488.000; -511.000
393.336;  -20.575; -170.000; -145.000
393.465;  -41.800; -317.000; -199.000
393.593;    9.725;   62.000;   79.000
393.722; -149.150;-1121.000; -916.000
393.850;  -33.075; -188.000;  -61.000
393.979; -160.375; -926.000; -805.000
394.107;  -80.975; -517.000; -537.000
394.236;  -28.525; -570.000; -507.000
394.364;  201.300;  383.000;  206.000
394.493;  292.725; -911.000; -767.000
394.621;  -21.375; -955.000; -916.000
394.750;  646.575; -873.000; -923.000
394.878; 2684.100; -247.000; -149.000
395.007; 3644.325; -721.000; -807.000
395.135;  259.750; -790.000; -721.000
395.263;  -91.550;-1038.000;-1040.000
395.392;   -3.900;  -25.000; -107.000
395.520; -142.350; -818.000; -679.000
395.648;  -96.900; -865.000; -915.000
395.777;  -10.550; -366.000; -405.000
395.905;  -63.700; -449.000; -564.000
396.033;   -1.750;  217.000;  172.000
396.162;  501.525; -399.000; -453.000
396.290;  449.175;  -17.000;   -2.000
396.418;  109.725; -555.000; -514.000
396.546;  -62.675; -571.000; -466.000
396.674; -103.125; -850.000; -878.000
396.803;   17.650;  -72.000;  -23.000
396.931;  108.075; -179.000; -199.000
397.059;   96.750;-1026.000; -989.000
397.187; -117.675;-1026.000; -975.000
397.315; -128.800; -884.000; -649.000
397.443; -100.450; -592.000; -443.000
397.572;  -94.825; -578.000; -424.000
397.700;   -3.825; -607.000; -614.000
397.828;   20.050;  120.000;  -90.000
397.956;  -57.925; -508.000; -478.000
398.084;  -84.350; -767.000; -626.000
398.212;   39.825;  137.000;  124.000
398.340;   28.800;  -56.000;  159.000
398.468;   37.550; -390.000; -169.000
398.596; -124.900; -993.000; -953.000
398.724; -124.000; -762.000; -767.000
398.852; -163.150;-1024.000; -976.000
398.980;  -68.525; -560.000; -560.000
399.108;  -41.775; -982.000; -735.000
399.236;   41.825;   13.000;    8.000
399.363;   13.950;  222.000;  196.000
399.491;  -78.750; -404.000; -398.000
399.619; -125.475; -829.000; -800.000
399.747;  -90.400; -859.000; -771.000
399.875;   96.275;  220.000;  234.000
400.003;  -53.025; -359.000; -284.000
400.130;  -94.275; -421.000; -341.000
400.258;  -45.000;  -83.000;   38.000
400.386;  -72.550; -352.000; -168.000
400.514;  -49.375; -526.000; -587.000
400.641;  -66.850; -928.000; -802.000
400.769; -140.550; -979.000; -888.000
400.897; -112.175; -838.000; -793.000
401.025;  -16.025; -166.000; -152.000
401.152;  -16.475;  220.000;   38.000
401.280;  -90.150; -430.000; -429.000
401.408; -118.425; -712.000; -576.000
401.535; -120.300; -735.000; -758.000
401.663; -198.300;-1134.000;-1054.000
401.790;  -86.075; -514.000; -525.000
401.918;   41.675;  436.000;  405.000
402.046;  -29.975;  134.000;  122.000
402.173;  -31.075;  -18.000;    7.000
402.301;  -80.975; -519.000; -397.000
402.428;   37.400;  528.000;  383.000
402.556; -160.000;-1188.000; -913.000
402.683;  -18.025;  -20.000;   -1.000
402.811;  -27.100;  -37.000; -206.000
402.938;   -2.625;   20.000;   27.000
403.066;  257.675; -574.000; -558.000
403.193;  396.625;  299.000;  239.000
403.321;  317.300; -396.000; -574.000
403.448;  385.400;   83.000;   27.000
403.575;  163.850;  -90.000;  -46.000
403.703;  -94.750; -732.000; -557.000
403.830;  -75.425; -531.000; -496.000
403.957; -144.675;-1117.000;-1023.000
404.085;    9.425;  -61.000; -172.000
404.212;  100.400;  -50.000;   63.000
404.339;  250.075; -566.000; -306.000
404.467; 5328.750; -612.000; -524.000
404.594; 3645.150; -287.000; -227.000
404.721;  957.275; -869.000; -764.000
404.848;   71.025; -113.000; -202.000
404.976; -101.050; -856.000; -783.000
405.103;   -6.200;  -14.000;  -82.000
405.230;   10.725;  190.000;  226.000
405.357;   22.125;  117.000;   44.000
405.484;  252.450;  -49.000;    5.000
405.612;   32.900; -548.000; -563.000
405.739;  -68.775; -488.000; -243.000
405.866;   79.250;  669.000;  385.000
405.993;  -49.425; -398.000; -102.000
406.120; -133.725; -801.000; -887.000
406.247;  -39.625; -323.000; -342.000
406.374;  490.425;  540.000;  629.000
406.501;  151.050; -632.000; -702.000
406.628;  -94.675; -621.000; -589.000
406.755;  -91.125; -803.000; -620.000
406.882;  -51.475; -228.000; -277.000
407.009; -106.875; -719.000; -628.000
407.136;   60.450; -480.000; -401.000
407.263;  184.475; -939.000; -829.000
407.390;  -73.800; -692.000; -614.000
407.517; -157.050;-1139.000;-1187.000
407.644;  -64.675; -332.000; -256.000
407.771;  -70.900; -249.000; -287.000
407.898;   -7.275;  168.000;  328.000
408.025;  -66.600; -421.000; -313.000
408.151;  -14.625;   82.000;  153.000
408.278;  -61.150; -267.000; -216.000
408.405; -116.925; -931.000; -899.000
408.532;  -58.300; -549.000; -542.000
408.659; -124.750; -677.000; -648.000
408.785; -200.575;-1298.000;-1170.000
408.912;  -75.250; -412.000; -296.000
409.039; -106.725; -610.000; -686.000
409.166; -117.300; -591.000; -555.000
409.292; -117.625; -571.000; -534.000
409.419; -130.000; -665.000; -649.000
409.546;  -79.650; -431.000; -192.000
409.672; -118.825; -713.000; -545.000
409.799;  -18.550;  -36.000;   34.000
409.926;  -52.225; -180.000; -179.000
410.052; -171.600;-1127.000;-1091.000
410.179;  -63.525; -368.000; -392.000
410.305;  -92.750; -375.000; -493.000
410.432;  -50.900; -220.000; -333.000
410.558;  -90.250; -305.000; -380.000
410.685; -106.875; -688.000; -431.000
410.812;  -99.925; -409.000; -588.000
410.938; -140.425; -964.000; -808.000
411.065;  -95.025; -671.000; -645.000
411.191;  -29.425; -189.000; -174.000
411.317; -119.775; -823.000; -742.000
411.444;  -67.300; -317.000; -246.000
411.570;  -66.000; -339.000; -294.000
411.697; -135.050; -758.000; -752.000
411.823; -166.175; -989.000; -999.000
411.949;  -36.425;  -56.000;   17.000
412.076; -113.725; -539.000; -519.000
412.202; -121.475; -758.000; -757.000
412.329; -126.400; -798.000; -752.000
412.455; -124.600; -821.000; -657.000
412.581;  -17.600;  -15.000;  172.000
412.707;  -62.325; -540.000; -457.000
412.834;   30.875;  156.000;  219.000
412.960; -101.375; -785.000; -784.000
413.086;  -98.075; -743.000; -701.000
413.212;  165.250;  604.000;  578.000
413.339;  -50.625; -685.000; -701.000
413.465;   20.275; -364.000; -310.000
413.591;  -71.025; -757.000; -474.000
413.717;  -70.175; -358.000; -366.000
413.843; -128.500; -839.000; -861.000
413.969;  -58.300;  -47.000; -292.000
414.096; -105.000; -679.000; -679.000
414.222;  -16.575;  -33.000;   85.000
414.348;  -10.075; -652.000; -385.000
414.474;  103.675;   38.000;  -52.000
414.600;  -12.875; -126.000; -144.000
414.726;  -29.625;  -96.000;  -55.000
414.852;  -64.175; -365.000; -342.000
414.978;    8.750;  104.000;  -18.000
415.104;   31.425;   38.000;   80.000
415.230;   22.425; -329.000; -330.000
415.356;   51.825; -409.000; -514.000
415.482;  200.925;   13.000;  -35.000
415.608;  249.725; -247.000; -323.000
415.734;  916.875;   67.000;   38.000
415.860;18991.800; -875.000; -767.000
415.986;13517.125; -685.000; -607.000
416.111; 1138.500; -798.000; -652.000
416.237;  219.550; -424.000; -571.000
416.363; 1015.975; -765.000; -733.000
416.489; 3797.700; -324.000; -251.000
416.615;  377.175; -707.000; -742.000
416.741;  -38.325; -677.000; -784.000
416.866;  -96.175; -673.000; -736.000
416.992; -143.225; -801.000; -818.000
417.118;  -31.475;  -41.000;  -80.000
417.244;  -72.725; -798.000; -531.000
417.369;  -77.050; -801.000; -612.000
417.495;    4.100; -325.000; -254.000
417.621;  -69.150;-1015.000; -803.000
417.746;   -4.075; -579.000; -572.000
417.872;   49.800; -254.000; -144.000
417.998;   32.400; -515.000; -530.000
418.123;  981.025;-1073.000; -845.000
418.249; 4961.700; -512.000; -601.000
418.374;  662.100; -916.000; -824.000
418.500;   81.550; -383.000; -482.000
418.626;  104.225;   70.000;  -59.000
418.751;  109.800; -549.000; -448.000
418.877;  175.725; -637.000; -643.000
419.002; 1661.000; -688.000; -560.000
419.128;11573.350; -930.000; -721.000
419.253; 2720.150; -967.000; -837.000
419.379;  343.725; -391.000; -338.000
419.504;  331.050;  325.000;  415.000
419.629;  473.225; -393.000; -212.000
419.755; 3261.500; -317.000; -254.000
419.880;18813.350;  -98.000;   67.000
420.006;10581.350; -280.000; -221.000
420.131;27332.775; -662.000; -775.000
420.256; 3900.375; -315.000; -316.000
420.382;  527.125; -665.000; -687.000
420.507;   60.625; -649.000; -778.000
420.632;  162.750; -337.000; -339.000
420.758;  310.100; -251.000; -425.000
420.883;  -78.150; -876.000; -672.000
421.008; -109.300; -775.000; -619.000
421.133;  -89.750; -509.000; -467.000
421.259;  -39.575; -325.000; -259.000
421.384; -106.075; -834.000; -693.000
421.509;  -24.600;-1052.000; -862.000
421.634; 1459.825; -936.000; -820.000
421.759;  616.975; -359.000; -327.000
421.885;  -50.200; -717.000; -656.000
422.010;  -79.475; -673.000; -542.000
422.135; -151.625; -695.000; -727.000
422.260;   20.950;  340.000;  280.000
422.385;  -42.125;   12.000;  -98.000
422.510;    0.775;  151.000;  -26.000
422.635;   29.600;  -87.000;  -43.000
422.760;   95.375; -766.000; -791.000
422.885;   50.075;  -57.000;  -80.000
423.010;  -49.275; -112.000; -169.000
423.135;  -89.625; -481.000; -561.000
423.260;  -14.700; -150.000; -245.000
423.385;   83.375;  476.000;  222.000
423.510;   37.225;   71.000;  -22.000
423.635;   91.275;  133.000;   45.000
423.760;   53.100;  383.000;  328.000
423.885;   55.600;  336.000;  391.000
424.010;    9.875;  -68.000;  -13.000
424.135;  -19.675;    5.000;  -33.000
424.259;  -95.900; -654.000; -457.000
424.384;  -68.400; -279.000; -272.000
424.509;  -19.750; -260.000; -186.000
424.634; -101.300; -761.000; -623.000
424.759;  -39.000; -688.000; -544.000
424.883;  -13.950; -506.000; -527.000
425.008;  147.300; -502.000; -410.000
425.133; 1850.000; -679.000; -653.000
425.258;  837.000; -517.000; -381.000
425.382; 1140.400; -867.000; -774.000
425.507; 2879.700; -487.000; -543.000
425.632;  431.550; -802.000; -663.000
425.756;  409.975; -256.000; -146.000
425.881; 5772.700; -831.000; -857.000
426.006;15294.075; -604.000; -355.000
426.130; 2429.300; -696.000; -508.000
426.255;  288.100; -611.000; -491.000
426.379;  143.925; -189.000; -577.000
426.504;  352.475;  660.000;  544.000
426.629; 3865.275; -519.000; -466.000
426.753; 2587.950;   64.000;  -46.000
426.878;  297.575; -252.000; -288.000
427.002;  126.250; -651.000; -668.000
427.127; 1516.975;  -35.000; -158.000
427.251;10496.925;  372.000;  401.000
427.375; 2970.000; -191.000; -173.000
427.500; 2492.950; -616.000; -610.000
427.624;  843.050; -234.000; -400.000
427.749;  105.550; -216.000; -225.000
427.873;  -29.100; -499.000; -412.000
427.997;  -57.250; -222.000; -230.000
428.122;   83.600;  795.000;  703.000
428.246;   70.800;  433.000;  434.000
428.371; -126.300; -869.000; -773.000
428.495; -115.325; -624.000; -646.000
428.619;  -25.000; -186.000; -117.000
428.743;   24.825;   65.000;  132.000
428.868;   28.925; -732.000; -643.000
428.992; 1567.350; -219.000; -326.000
429.116;  647.400; -329.000; -357.000
429.240;  319.375;  419.000;  426.000
429.365;   -7.725; -454.000; -574.000
429.489;  -37.075; -638.000; -647.000
429.613;   34.400; -236.000; -177.000
429.737;   27.925; -563.000; -432.000
429.861;  261.525; -247.000; -133.000
429.985; 5143.100; -425.000; -305.000
430.109; 5594.650; -770.000; -908.000
430.234;  629.775;   76.000;  -50.000
430.358;   59.775; -250.000; -160.000
430.482;  -73.150; -672.000; -564.000
430.606;  -58.650; -655.000; -375.000
430.730;   30.450; -437.000; -388.000
430.854;  169.600; -909.000; -835.000
430.978;  -68.000; -795.000; -764.000
431.102;  -78.400; -499.000; -422.000
431.226; -123.625; -874.000; -815.000
431.350;   25.300;  345.000;  422.000
431.474;  -88.775; -661.000; -373.000
431.597; -150.900;-1060.000; -848.000
431.721;  -91.600; -276.000; -267.000
431.845; -134.925; -704.000; -472.000
431.969;  -92.000; -304.000; -349.000
432.093;  -78.375; -395.000; -317.000
432.217;   -9.975;   32.000;   82.000
432.341;  -97.625; -523.000; -518.000
432.464;   11.700;   96.000;   40.000
432.588;  247.350; -401.000; -329.000
432.712;  115.200;  -52.000;  -52.000
432.836;   38.575;  213.000;  263.000
432.959;  -28.200; -372.000; -311.000
433.083;   71.425;   11.000;    2.000
433.207;  355.900;  285.000;  930.000
433.330; 4653.575; -391.000; -200.000
433.454; 5622.875; -654.000; -638.000
433.578; 3321.250;  583.000;  278.000
433.701;  599.650; -623.000; -675.000
433.825;  162.650; -292.000; -299.000
433.949;  240.575;   28.000;  -72.000
434.072;   93.500; -410.000; -323.000
434.196;  -15.225; -309.000; -117.000
434.319; 3736.425;25482.000;25124.000
434.443;  716.600; -656.000; -603.000
434.566; 2440.500;  281.000;   62.000
434.690;  381.500; -637.000; -383.000
434.813;   47.125; -251.000; -173.000
434.937;  -79.050; -569.000; -696.000
435.060;  -28.175; -423.000; -332.000
435.184;  413.625; -492.000; -217.000
435.307;  230.275;  159.000;  102.000
435.431;  -13.675;  -40.000;   24.000
435.554;  -72.325; -399.000; -240.000
435.677;  -86.700; -350.000; -258.000
435.801;  -35.525;  -25.000;   49.000
435.924;   -6.175;    1.000;  -67.000
436.048;  -97.825;-1019.000; -732.000
436.171;  -71.300; -240.000;  -66.000
436.294;  -33.300; -248.000; -229.000
436.417;   72.975; -963.000; -849.000
436.541;  -87.875; -814.000; -840.000
436.664;  -60.675; -242.000; -316.000
436.787;  -32.900;   13.000;  113.000
436.910; -123.975; -792.000; -422.000
437.034;    4.200;  142.000;  143.000
437.157;   70.600;  -11.000;    0.000
437.280;  -35.475; -392.000; -292.000
437.403;  -76.425; -982.000; -869.000
437.526;  834.225; -903.000; -865.000
437.649; 2835.950; -505.000; -332.000
437.772;  427.075; -692.000; -540.000
437.896;  138.400;  700.000;  544.000
438.019;  -77.625; -758.000; -503.000
438.142;  -95.650; -596.000; -506.000
438.265;   17.100; -639.000; -670.000
438.388;  686.175; -520.000; -410.000
438.511;  130.250; -597.000; -394.000
438.634;  -48.600; -247.000; -125.000
438.757; -131.275; -693.000; -619.000
438.880;  -24.575;  -34.000;  -57.000
439.003;  -68.175; -417.000; -437.000
439.126;  -74.550; -287.000; -167.000
439.248;  -69.625;  -98.000; -139.000
439.371;  -61.125;    9.000;  -53.000
439.494;   21.925;  510.000;  439.000
439.617;  -52.350;   65.000;  -88.000
439.740; -178.575; -968.000; -816.000
439.863; -160.000; -755.000; -595.000
439.986; -112.950; -476.000; -431.000
440.108;  -56.975; -161.000; -112.000
440.231; -155.575; -950.000; -836.000
440.354;  -43.825;  -64.000; -150.000
440.477;   57.950; -566.000; -542.000
440.599;   12.525; -200.000; -225.000
440.722; -122.025; -709.000; -586.000
440.845;   69.225;  751.000;  928.000
440.968; -106.150; -415.000; -311.000
441.090;  -68.700; -199.000;  -33.000
441.213; -164.850;-1021.000; -825.000
441.336;  -61.650; -159.000;   -5.000
441.458;  -64.950; -549.000; -396.000
441.581;  -90.425; -628.000; -629.000
441.703;  -76.575; -152.000;   13.000
441.826; -117.975; -557.000; -400.000
441.948;  -43.600;   56.000;   51.000
442.071;   25.000;  555.000;  424.000
442.193; -115.075; -531.000; -485.000
442.316;   17.175;  152.000;   97.000
442.438;   30.050; -233.000;  -10.000
442.561;   61.525;  272.000;  262.000
442.683;  704.900; -809.000; -522.000
442.806; 1427.350;   -8.000;   74.000
442.928;   76.925; -859.000; -604.000
443.051;  -61.675; -577.000; -373.000
443.173;  -80.025; -341.000; -339.000
443.295;  -85.700; -263.000; -371.000
443.418;  -64.100; -321.000;  -29.000
443.540;  -27.675; -106.000;   -4.000
443.662; -127.325; -563.000; -465.000
443.785;  -20.775;  335.000;  199.000
443.907; -104.575; -362.000; -208.000
444.029; -142.300; -767.000; -494.000
444.152; -148.250; -644.000; -554.000
444.274;  -44.075;  -18.000;  -24.000
444.396; -126.625; -461.000; -221.000
444.518; -151.825; -691.000; -454.000
444.640; -117.675; -268.000; -111.000
444.763;  -30.225;  388.000;  249.000
444.885; -121.800; -432.000; -392.000
445.007;  -40.475;   35.000;   86.000
445.129; -113.700; -610.000; -515.000
445.251; -103.100; -372.000; -439.000
445.373; -142.425; -537.000; -386.000
445.495;    1.000;  242.000;  350.000
445.617;   57.250;  853.000;  753.000
445.739;  -66.125; -215.000;  -97.000
445.861;  -30.675; -245.000; -112.000
445.984;  -39.325; -267.000; -101.000
446.105;  267.775; -418.000; -251.000
446.227;  733.600; -176.000;  -19.000
446.349;   24.425; -358.000; -249.000
446.471;  -95.825; -615.000; -448.000
446.593;  -48.900; -316.000;   19.000
446.715;   -8.925;  -67.000;   41.000
446.837;   58.025;  697.000;  832.000
446.959;  -94.450; -457.000; -478.000
447.081; -150.725; -628.000; -518.000
447.203;   47.325;  862.000;  834.000
447.325;  -90.450; -270.000;   42.000
447.446;  -15.350;  286.000;  530.000
447.568; -145.575; -921.000; -803.000
447.690;  -80.250; -236.000; -245.000
447.812; -153.325; -798.000; -519.000
447.933;  -32.350;  155.000;  127.000
448.055;  -66.650; -306.000; -261.000
448.177;  167.950;   31.000;   79.000
448.299;  128.150; -935.000; -727.000
448.420;   20.400;  -25.000;  159.000
448.542;  -38.225;   -3.000;   33.000
448.664;  -33.025;  109.000;  322.000
448.785;  -41.650;  265.000;   83.000
448.907;  -80.625; -614.000; -353.000
449.028;  -18.300; -771.000; -471.000
449.150;   59.600;  492.000;  589.000
449.272; -177.150;-1044.000; -913.000
449.393;   18.800;  612.000;  694.000
449.515; -151.000; -634.000; -581.000
449.636;  -56.850; -264.000; -155.000
449.758;   88.900;  763.000;  622.000
449.879; -119.550; -498.000; -396.000
450.001;  -80.050; -149.000;  -49.000
450.122;  -36.925;  -95.000;  162.000
450.244;  -28.900;   37.000;  364.000
450.365; -107.250; -495.000; -301.000
450.486;  -45.875;   80.000;  268.000
450.608;   -0.325;  393.000;  326.000
450.729;   70.100;  578.000;  645.000
450.850;  -16.875; -574.000; -466.000
450.972;  655.900; -552.000; -389.000
451.093; 4386.100;  190.000;  588.000
451.214; 1876.025; -516.000; -337.000
451.336;  339.625;  773.000;  579.000
451.457;   67.950;  264.000;  393.000
451.578;  -58.800; -118.000;  -74.000
451.699; -127.425; -546.000; -540.000
451.821;  -62.150; -284.000;  -50.000
451.942;   -4.225;  278.000;  285.000
452.063;    2.600;  228.000;  419.000
452.184;  499.300;  -54.000;  -49.000
452.305; 1001.250;  103.000;  170.000
452.427;  106.700; -549.000; -301.000
452.548;  -16.400;   23.000;   79.000
452.669;  -45.900; -257.000;  -89.000
452.790;  -56.075;    3.000;  -18.000
452.911;  -14.750;  195.000;  259.000
453.032;  -67.800; -289.000;  -60.000
453.153;  -25.500;  -29.000;   81.000
453.274;   57.025;  737.000;  868.000
453.395;  -36.400;  -51.000;  175.000
453.516;  128.850; 1317.000; 1388.000
453.637;  -60.075; -205.000; -150.000
453.758;  -74.400;   15.000;   69.000
453.879; -118.900; -462.000; -250.000
454.000;   89.725; 1086.000;  948.000
454.121; -117.050; -554.000; -326.000
454.242; -135.375; -599.000; -383.000
454.362;  -49.300;  -99.000;  114.000
454.483;  -40.650; -309.000; -229.000
454.604;   53.375;  512.000;  580.000
454.725; -133.625; -627.000; -555.000
454.846; -120.850; -474.000; -406.000
454.967;  -35.925;  230.000;  539.000
455.087;  -38.000;  179.000;  153.000
455.208;    2.800;  554.000;  856.000
455.329;  -67.700;  -22.000;   82.000
455.450;   15.875;  473.000;  633.000
455.570;  -77.000; -234.000; -211.000
455.691;  -54.750;  201.000;  407.000
455.812; -119.225; -270.000;  -92.000
455.932;  -71.625;  107.000;  -97.000
456.053;  -80.650;   36.000;   24.000
456.173; -109.800; -433.000; -355.000
456.294; -144.750; -476.000; -303.000
456.415;  -69.650;  -73.000;   70.000
456.535;  -47.400;  297.000;  273.000
456.656;  -49.150;  132.000;  240.000
456.776;  -73.400;    3.000;  298.000
456.897;  -10.175;  308.000;  513.000
457.017;  -78.075; -153.000;   -3.000
457.138; -122.950; -402.000; -249.000
457.258;  -15.850;  263.000;  224.000
457.379;  -22.025;  509.000;  521.000
457.499;  -26.150;  443.000;  432.000
457.620; -139.550; -407.000; -231.000
457.740;  -97.425; -132.000;  -11.000
457.860;  -64.050;   87.000;   44.000
457.981;  -52.525;  132.000;  124.000
458.101;  -88.225;  -89.000;   40.000
458.221;  -15.050;  336.000;  402.000
458.342;  -71.800;   -4.000;  -37.000
458.462;   19.500;  617.000;  352.000
458.582;  -56.025; -302.000; -294.000
458.703;   -7.050;  303.000;  154.000
458.823;  -33.575;   22.000;  163.000
458.943;   20.775;  341.000;  467.000
459.063;  -16.650; 1124.000;  192.000
459.183;  -25.950;  328.000;  313.000
459.304;  -16.350;  315.000;  517.000
459.424;  -85.100; -246.000;  -89.000
459.544;  286.125;  388.000;  764.000
459.664;  757.225;  499.000;  506.000
459.784;  279.200; 1004.000; 1175.000
459.904;   62.875;  867.000;  744.000
460.024;   64.300;  867.000;  684.000
460.144;   16.900;  449.000;  554.000
460.264;    3.250;  515.000;  327.000
460.385;  -97.850; -145.000; -119.000
460.505;   22.400;  905.000;  858.000
460.625; -102.625;  -17.000;  -68.000
460.745;  -27.350;  396.000;  541.000
460.864;  -46.250;  153.000;  469.000
460.984;   15.225;  499.000;  573.000
461.104;  143.075; 1656.000; 1775.000
461.224;    5.575;  657.000;  650.000
461.344;  -24.300;  431.000;  360.000
461.464;  -48.675;  258.000;  513.000
461.584;  -12.050;  283.000;  466.000
461.704;  -44.850;   58.000;  108.000
461.824;  -54.325;  238.000;  259.000
461.943;  -44.475;  191.000;  130.000
462.063;  -85.450;    2.000;  324.000
462.183;   33.375;  639.000;  717.000
462.303;  107.925; 1678.000; 1230.000
462.422;   24.050;  781.000;  840.000
462.542;  -33.000;  271.000;  391.000
462.662;   46.825;  353.000;  380.000
462.782;  225.800;  833.000;  572.000
462.901;  448.175;  545.000;  717.000
463.021;  257.900; 1702.000; 1638.000
463.141;  -26.100;  337.000;  770.000
463.260;  -18.275;  614.000;  474.000
463.380;    4.450;  902.000;  884.000
463.499;  -35.050;  342.000;  332.000
463.619;  -36.700;  581.000;  559.000
463.738;  123.575; 1644.000;  903.000
463.858;   18.325;  657.000;  811.000
463.978;  -33.925;  542.000;  396.000
464.097;   41.900;  921.000; 1114.000
464.217;  104.075; 1196.000; 1143.000
464.336;   91.900; 1068.000; 1130.000
464.455;  -31.600;  328.000;  659.000
464.575;   33.425;  597.000;  602.000
464.694;  193.050; 1204.000; 1179.000
464.814;  122.300; 1190.000; 1138.000
464.933;   77.850; 1095.000; 1027.000
465.052;   85.300; 1412.000; 1054.000
465.172;   71.725;  922.000;  799.000
465.291;  136.500; 1376.000; 1320.000
465.410;   21.600;  462.000;  735.000
465.530;   73.675; 1355.000; 1310.000
465.649;   60.025; 1209.000; 1273.000
465.768;  141.700; 1673.000; 1508.000
465.888;   44.850;  941.000; 1174.000
466.007;   87.200; 1335.000; 1440.000
466.126;   -0.700;  721.000;  641.000
466.245;   20.975; 1176.000; 1187.000
466.364;   19.275;  950.000; 1060.000
466.484;   49.525; 1024.000; 1213.000
466.603;   29.375; 1101.000; 1222.000
466.722;  111.925; 1490.000; 1769.000
466.841;   93.450; 1151.000; 1401.000
466.960;   37.225; 1069.000;  972.000
467.079;  117.450; 1971.000; 1786.000
467.198;   28.700; 1238.000; 1181.000
467.317;   81.400; 1768.000; 1162.000
467.436;   62.300; 1709.000; 1261.000
467.555;  124.775; 1796.000; 1746.000
467.674;   61.000; 1227.000; 1329.000
467.793;   44.125; 1376.000; 1374.000
467.912;   62.850; 1658.000; 1539.000
468.031;  136.900; 2038.000; 1930.000
468.150;  133.200; 1842.000; 1837.000
468.269;  190.525; 2313.000; 2090.000
468.388;  194.350; 2168.000; 2339.000
468.507;  267.725; 2884.000; 2903.000
468.626;  215.825; 2555.000; 2541.000
468.744;  131.750; 2018.000; 2174.000
468.863;  199.625; 2312.000; 2523.000
468.982;   85.275; 1503.000; 1555.000
469.101;  209.175; 2788.000; 2692.000
469.220;  157.950; 2333.000; 2176.000
469.338;  245.850; 2935.000; 3051.000
469.457;  207.275; 2719.000; 2545.000
469.576;  347.700; 3953.000; 3784.000
469.695;  245.025; 2877.000; 3066.000
469.813;  419.250; 4148.000; 4192.000
469.932;  421.675; 4255.000; 4485.000
470.051;  419.300; 4075.000; 4161.000
470.169;  836.075; 4470.000; 4338.000
470.288; 1399.050; 4700.000; 4809.000
470.406;  827.875; 5059.000; 5194.000
470.525;  617.725; 6101.000; 5787.000
470.644;  660.200; 6847.000; 6794.000
470.762;  797.475; 8397.000; 7873.000
470.881;  919.925; 8651.000; 8464.000
470.999; 1033.900; 9685.000; 9151.000
471.118; 1108.525;11174.000;10711.000

