
Integration time [ms]: 100.000
Averaging Nr. [scans]: 40
Smoothing Nr. [pixels]: 0
Data measured with spectrometer [name]: 2101012U2
Wave   ;Sample   ;Dark     ;Reference
[nm]   ;[counts] ;[counts] ;[counts] 

197.733;   57.500;  516.000;  404.000
197.879;  -88.075; -610.000; -634.000
198.025;  -59.100; -475.000; -420.000
198.171;  -71.650; -602.000; -612.000
198.317;  -26.725; -401.000; -316.000
198.463;  -65.575; -655.000; -404.000
198.609;   34.800;  181.000; -137.000
198.755;  -78.575; -644.000; -410.000
198.901;  -68.050; -505.000; -424.000
199.047;  -66.275; -615.000; -488.000
199.193;  -53.600; -230.000; -468.000
199.339;  -39.300; -222.000; -369.000
199.485;   38.700;  330.000;  271.000
199.631;   17.200;  227.000;  310.000
199.777;  -44.500; -466.000; -398.000
199.923;  -73.300; -610.000; -424.000
200.069;    3.550; -141.000;  -58.000
200.215;   75.950;  128.000;  453.000
200.361;   47.550;  243.000;  477.000
200.507;  -58.700; -600.000; -373.000
200.653;  -23.725; -371.000; -194.000
200.798;  -40.575; -215.000; -125.000
200.944;   -3.000; -146.000;  -41.000
201.090;   37.225;   61.000;  222.000
201.236;   -1.125; -116.000; -158.000
201.382;  135.975;  874.000;  903.000
201.528;    5.125;  -58.000;  -48.000
201.674;  -52.600; -386.000; -293.000
201.819;  -65.225; -540.000; -439.000
201.965;  -69.975; -699.000; -447.000
202.111;  -32.200; -273.000; -226.000
202.257;  -33.050; -250.000; -238.000
202.402;    2.550;   13.000;  -36.000
202.548;  -32.575; -169.000; -116.000
202.694;   74.550;  410.000; -183.000
202.840;  -71.475; -603.000; -531.000
202.985;  -70.375; -681.000; -639.000
203.131; -110.025; -832.000; -666.000
203.277;  -22.925; -199.000; -262.000
203.423;  -42.675; -434.000; -520.000
203.568;  -41.975; -462.000; -237.000
203.714;  -69.525; -535.000; -542.000
203.860;  -72.550; -682.000; -641.000
204.005;   20.300;  112.000;  167.000
204.151;   62.325;  561.000;  556.000
204.296;  -49.325; -354.000; -221.000
204.442;  -79.225; -600.000; -547.000
204.588;  -80.550; -592.000; -579.000
204.733;   20.975;  178.000;  168.000
204.879; -126.950;-1018.000; -822.000
205.025;   12.225;  -99.000;  126.000
205.170;   -6.475;  -17.000;   94.000
205.316;   78.325;  438.000;  661.000
205.461;  -74.700; -698.000; -554.000
205.607;   99.300;  609.000;  665.000
205.752;  -91.200; -626.000; -551.000
205.898;  -45.225; -501.000; -391.000
206.043;  -64.900; -578.000; -506.000
206.189;  -37.675; -243.000; -285.000
206.334;   81.400;  554.000;  606.000
206.480;   89.925;  409.000;  239.000
206.625;  -88.025; -529.000; -552.000
206.771;  -42.075; -451.000; -373.000
206.916;  -30.175; -210.000; -537.000
207.062;  -72.200; -545.000; -591.000
207.207;  -57.500; -546.000; -443.000
207.353;   66.125;  185.000;  460.000
207.498;   19.650;  196.000;   85.000
207.643;  -54.700; -501.000; -370.000
207.789; -122.050;-1069.000; -910.000
207.934;  -93.275; -665.000; -713.000
208.080;  -25.900; -154.000;   66.000
208.225;  -12.100;  -22.000;  -57.000
208.370;  -92.475; -727.000; -619.000
208.516;  -87.100; -741.000; -487.000
208.661;  -27.850; -127.000;  -69.000
208.806;  -26.700; -165.000; -171.000
208.952; -128.150;-1044.000; -731.000
209.097;   70.650;  378.000;  349.000
209.242;  -35.775; -307.000; -382.000
209.387;   76.550;  392.000;  350.000
209.533;  -52.850; -321.000; -350.000
209.678;   88.050;  472.000;  543.000
209.823;  -46.475; -408.000; -310.000
209.969;  -92.450; -860.000; -757.000
210.114; -121.225; -907.000; -719.000
210.259; -129.300; -939.000; -889.000
210.404;    1.100; -171.000;  103.000
210.549;   19.825;  108.000;    3.000
210.695;  -20.275;   -3.000;  -95.000
210.840;   38.425;   94.000;   67.000
210.985;  -71.550; -484.000; -303.000
211.130;   75.450;  268.000;  406.000
211.275;   24.975;  207.000;  199.000
211.420;  -50.675; -300.000; -289.000
211.566;  -72.175; -536.000; -489.000
211.711;   25.325;  218.000;  157.000
211.856;  -58.675; -545.000; -519.000
212.001;    4.450;  151.000;   44.000
212.146;   30.275;  153.000;   49.000
212.291;  -21.175; -210.000; -186.000
212.436;   -9.350; -280.000;   -6.000
212.581;  -87.875; -685.000; -653.000
212.726;  -61.925; -487.000; -538.000
212.871;  -42.800; -552.000; -217.000
213.016; -140.600;-1172.000;-1029.000
213.161;   60.475;  406.000;  291.000
213.306;  -75.350; -435.000; -577.000
213.451;  -95.200; -778.000; -689.000
213.596;  -49.075; -455.000; -347.000
213.741;  -61.675; -448.000; -538.000
213.886;  -83.000; -498.000; -517.000
214.031;  -21.500; -294.000; -124.000
214.176;  -60.450; -408.000; -341.000
214.321;   -7.250; -296.000; -157.000
214.466;  -23.175; -163.000;  -43.000
214.611;   -1.200;  -61.000;  -10.000
214.756; -117.600; -948.000; -858.000
214.901;  -28.125; -388.000; -226.000
215.046; -119.825; -797.000; -825.000
215.191;   18.650;  128.000;   35.000
215.336;   -7.475; -157.000;  -19.000
215.480;  -66.425; -684.000; -505.000
215.625;  -24.625; -175.000;  -19.000
215.770;  -89.325; -757.000; -662.000
215.915;  -15.825;   -5.000;  -97.000
216.060;    6.875; -113.000;  -21.000
216.205; -114.950; -731.000; -779.000
216.349;  -77.025; -470.000; -533.000
216.494; -118.825; -939.000; -867.000
216.639; -121.875; -823.000; -888.000
216.784;  -90.025; -577.000; -525.000
216.929;   62.300;  392.000;  281.000
217.073;   -1.475; -244.000;  -31.000
217.218;    0.600;   78.000;  -47.000
217.363;  -86.500; -656.000; -618.000
217.507;  -82.075; -623.000; -588.000
217.652; -128.200; -845.000; -874.000
217.797;  -85.925; -708.000; -659.000
217.942; -108.675; -856.000; -720.000
218.086;   71.075;  608.000;  539.000
218.231;  -24.450; -174.000;  -26.000
218.376;  -38.675; -337.000; -229.000
218.520;   20.625;  -41.000;   96.000
218.665;  -33.125; -338.000; -204.000
218.810;  -53.300; -275.000; -233.000
218.954;   22.075;  201.000;   35.000
219.099; -114.125; -713.000; -963.000
219.243;  -62.875; -589.000; -554.000
219.388;  -26.900; -264.000; -136.000
219.532;  -10.775; -116.000; -116.000
219.677;  -80.075; -564.000; -521.000
219.822;   11.500;   33.000;   89.000
219.966;    6.925;   17.000;  -99.000
220.111;  -35.250; -328.000;  -40.000
220.255; -102.775; -797.000; -750.000
220.400;  -15.450; -180.000; -146.000
220.544;  -73.325; -516.000; -450.000
220.689;  -64.025; -422.000; -451.000
220.833;  -19.225; -123.000;  -58.000
220.978;  -38.850; -393.000; -563.000
221.122;   13.275;  319.000;  307.000
221.267; -109.900; -906.000; -837.000
221.411;  -75.550; -478.000; -394.000
221.555;   -2.925; -104.000;  -23.000
221.700;  -53.275; -329.000; -222.000
221.844;   38.350;  255.000;  272.000
221.989;  -54.250; -328.000; -311.000
222.133;  -40.775; -289.000; -307.000
222.277;  -15.425;    5.000;   78.000
222.422;   23.850;  227.000;  113.000
222.566;  -39.850; -381.000; -214.000
222.711;  -53.325; -414.000; -479.000
222.855;  -92.475; -643.000; -586.000
222.999;  -91.775; -642.000; -717.000
223.144;  -24.425; -195.000; -194.000
223.288;   52.500;  423.000;  251.000
223.432;   29.650;  184.000;  230.000
223.576;   13.200;  152.000;  -21.000
223.721;   43.750;  364.000;  273.000
223.865;  -55.525; -472.000; -475.000
224.009;  279.750; 1673.000; 1631.000
224.153;  -70.500; -660.000; -671.000
224.298;  -68.425; -531.000; -489.000
224.442;  -12.850;  -74.000;  -33.000
224.586;   10.875; -169.000; -106.000
224.730; -103.775; -858.000; -670.000
224.875; -115.550; -739.000; -688.000
225.019;   16.375;  102.000;  188.000
225.163;   60.100;  208.000;  341.000
225.307;   13.225;   97.000;  -91.000
225.451;   46.700;  360.000;  481.000
225.595;   33.575;  264.000;  176.000
225.739;  -24.800; -170.000;  -94.000
225.884;   -6.225;   86.000;    5.000
226.028;  -86.650; -760.000; -626.000
226.172;  -36.050; -260.000; -273.000
226.316; -115.475; -941.000; -902.000
226.460;  -64.750; -645.000; -493.000
226.604;  -51.200; -406.000; -400.000
226.748;  -92.950; -836.000; -733.000
226.892;  -34.975; -227.000; -181.000
227.036;  -42.150; -537.000; -447.000
227.180;  -60.225; -551.000; -375.000
227.324;  -66.925; -561.000; -580.000
227.468; -113.325; -819.000; -717.000
227.612;   26.875;  242.000;  -28.000
227.756;  -98.000; -845.000; -698.000
227.900;   63.375;  342.000;  441.000
228.044;  -70.175; -509.000; -290.000
228.188;   55.825;  448.000;  568.000
228.332;  -92.600; -546.000; -472.000
228.476;  -24.850; -223.000; -149.000
228.620;  -25.050; -210.000; -150.000
228.764;   64.200;  431.000;  349.000
228.908;  -14.800; -155.000;   30.000
229.052;  -61.450; -615.000; -528.000
229.195;    2.200; -172.000;   13.000
229.339;  -15.975; -235.000; -305.000
229.483;  -19.525;    5.000; -162.000
229.627;   -1.975; -156.000;  139.000
229.771;  -52.625; -218.000; -294.000
229.915;    8.800;  230.000;   79.000
230.059;  -96.550; -648.000; -663.000
230.202;  -34.225; -370.000; -317.000
230.346;  -16.850; -107.000;  107.000
230.490;  -65.925; -489.000; -521.000
230.634; -105.950; -736.000; -553.000
230.777;   76.475;  478.000;  509.000
230.921;  -48.800; -450.000; -359.000
231.065;  -40.325; -246.000; -286.000
231.209;   41.175;  261.000;  265.000
231.352;   23.000;   54.000;   40.000
231.496;   23.700;  568.000;  188.000
231.640;  -91.700; -693.000; -621.000
231.783;   61.000;  546.000;  525.000
231.927;  -36.025; -294.000; -365.000
232.071; -134.075; -962.000; -736.000
232.214; -113.875; -980.000; -764.000
232.358; -104.475; -683.000; -599.000
232.502;    7.150;  -19.000;    7.000
232.645; -140.850;-1090.000; -927.000
232.789;  -21.350; -257.000; -218.000
232.933;  -46.575; -407.000; -224.000
233.076; -119.000;-1038.000; -897.000
233.220;  -99.900; -752.000; -777.000
233.363;  -73.625; -669.000; -477.000
233.507;   57.825;  371.000;  129.000
233.650;  -84.600; -764.000; -834.000
233.794;   48.100;  438.000;  461.000
233.938;  -61.200; -530.000; -362.000
234.081;  -21.300;  -93.000;   31.000
234.225;  -68.150; -631.000; -539.000
234.368; -111.675; -773.000; -723.000
234.512;  -43.975; -385.000; -299.000
234.655; -100.900; -582.000; -555.000
234.798;  -73.600; -493.000; -466.000
234.942; -122.225; -884.000;-1002.000
235.085;  -67.450; -651.000; -443.000
235.229;  -75.200; -405.000; -410.000
235.372;  -47.650; -247.000; -191.000
235.516;  -66.475; -397.000; -321.000
235.659;   22.200;   92.000;  121.000
235.802;   -5.700;  -38.000;  -22.000
235.946;   19.150;  335.000;  215.000
236.089;   20.600;  126.000;  250.000
236.233;   50.775;  275.000;  298.000
236.376;  -36.775; -235.000; -378.000
236.519;  -41.475; -297.000; -319.000
236.663;  -18.950; -215.000; -117.000
236.806; -137.725;-1029.000; -999.000
236.949;   64.500;  543.000;  431.000
237.092;   61.200;  412.000;  391.000
237.236;  -80.025; -589.000; -502.000
237.379;   74.625;  352.000;  428.000
237.522; -117.350; -879.000; -768.000
237.666;  -23.350; -271.000;   18.000
237.809; -120.075; -851.000; -823.000
237.952;   37.650;  469.000;  271.000
238.095;  -66.425; -447.000; -442.000
238.238;   91.325;  688.000;  700.000
238.382;   -5.925;  166.000;  103.000
238.525;  -67.150; -598.000; -511.000
238.668; -146.950;-1060.000; -985.000
238.811;  -94.875; -638.000; -643.000
238.954;  -47.175; -483.000; -334.000
239.097;   89.950;  617.000;  664.000
239.241;   39.125;  394.000;  326.000
239.384;  -26.750; -254.000; -214.000
239.527;  -62.650; -424.000; -224.000
239.670; -146.250; -994.000;-1091.000
239.813; -108.900; -696.000; -658.000
239.956;   78.025;  579.000;  473.000
240.099; -114.350; -778.000; -725.000
240.242;   62.225;  428.000;  432.000
240.385;   50.675;  466.000;  450.000
240.528;  -75.300; -706.000; -473.000
240.671;    2.625;  189.000;  134.000
240.814;  -44.950; -441.000; -158.000
240.957;  -99.875; -767.000; -578.000
241.100;  -94.225; -779.000; -755.000
241.243; -148.850;-1234.000; -893.000
241.386;  -59.725; -508.000; -379.000
241.529;  -99.900; -735.000; -547.000
241.672;  -67.700; -566.000; -495.000
241.815; -131.950; -832.000; -808.000
241.958;  -35.625; -125.000; -182.000
242.101;  -66.200; -545.000; -390.000
242.244;  -36.375; -270.000; -325.000
242.387;  -51.225; -304.000; -246.000
242.530;   61.100;  470.000;  134.000
242.673;  -47.875; -381.000; -309.000
242.815; -126.800; -925.000; -899.000
242.958;  -66.225; -482.000; -381.000
243.101;   15.550;  132.000;  187.000
243.244;  -91.875; -564.000; -521.000
243.387;  -47.500; -313.000; -316.000
243.530;  -90.925; -657.000; -674.000
243.672;    2.625;   43.000;  -92.000
243.815;  -60.575; -355.000; -283.000
243.958;   -1.900;   98.000;  -26.000
244.101;  -11.550;   59.000;  -16.000
244.243;  -19.825;  -47.000;  101.000
244.386; -113.175; -761.000; -630.000
244.529;  -21.725; -132.000; -139.000
244.672; -159.500;-1154.000; -951.000
244.814; -116.925; -621.000; -794.000
244.957;  -54.500; -380.000; -304.000
245.100;  -68.100; -489.000; -489.000
245.242;  -63.825; -387.000; -374.000
245.385;   -2.100;  -59.000;  -39.000
245.528; -121.125; -871.000; -705.000
245.670;   90.325;  612.000;  634.000
245.813;  -96.325; -599.000; -547.000
245.956;  -51.100; -324.000; -275.000
246.098;  -72.700; -508.000; -650.000
246.241;    2.550;  194.000;   48.000
246.383;  -28.700; -119.000;  -73.000
246.526;  -89.650; -454.000; -525.000
246.669; -117.800; -889.000; -780.000
246.811;   24.425;  172.000;   -1.000
246.954;  -70.300; -512.000; -426.000
247.096;  -22.650;  -84.000;   -6.000
247.239;  -73.100; -482.000; -445.000
247.381;  -88.725; -647.000; -488.000
247.524;   87.400;  645.000;  679.000
247.666;   -7.200;   58.000;   11.000
247.809; -123.450; -887.000; -691.000
247.951;   -9.875;  -75.000;  138.000
248.094;   18.200;  432.000;  308.000
248.236; -170.775;-1262.000;-1238.000
248.378;  -47.075; -356.000;  -81.000
248.521;  -49.125; -334.000; -337.000
248.663;  -45.700; -236.000; -267.000
248.806;  -34.275; -300.000; -266.000
248.948; -128.850; -886.000; -763.000
249.090;  -56.800; -428.000; -398.000
249.233;  -67.000; -344.000; -381.000
249.375;  -72.000; -474.000; -451.000
249.518;  -18.325;  -83.000; -133.000
249.660;   -7.925; -103.000;    3.000
249.802; -184.025;-1303.000;-1189.000
249.945;  -83.450; -612.000; -540.000
250.087; -125.475; -834.000; -768.000
250.229;  -59.825; -362.000; -480.000
250.371;  -84.600; -494.000; -439.000
250.514;  -52.850; -310.000; -244.000
250.656;  -76.425;   69.000;  102.000
250.798; -126.175; -849.000; -800.000
250.940;  -60.500; -322.000; -322.000
251.083;  -33.550; -335.000; -111.000
251.225;   62.975;  338.000;  310.000
251.367;  -64.550; -274.000; -373.000
251.509;  -27.425; -265.000; -210.000
251.651; -103.550; -731.000; -671.000
251.794;   66.550;  538.000;  632.000
251.936; -117.575; -821.000; -747.000
252.078;  -78.650; -540.000; -461.000
252.220;  -79.675; -645.000; -477.000
252.362;   39.550;  344.000;  462.000
252.504;  -84.175; -677.000; -584.000
252.646; -132.050; -875.000; -722.000
252.788;  -16.550;   14.000; -128.000
252.931;  -54.350; -257.000; -253.000
253.073;  -45.300; -376.000; -317.000
253.215;   -0.575;  141.000;  122.000
253.357;   -8.075;   82.000; -153.000
253.499;  -61.325; -374.000; -234.000
253.641;  -94.900; -749.000; -594.000
253.783;  -96.625; -609.000; -527.000
253.925;  -88.050; -586.000; -591.000
254.067; -116.175; -744.000; -667.000
254.209;  -43.150; -391.000; -259.000
254.351; -134.875; -865.000; -883.000
254.493;  -64.075; -441.000; -417.000
254.635; -142.650; -936.000; -818.000
254.777;  -91.400; -752.000; -687.000
254.918;  -71.825; -512.000; -430.000
255.060;  -52.725; -551.000; -395.000
255.202;  -65.325; -473.000; -261.000
255.344;  -83.850; -658.000; -455.000
255.486;  -71.250; -471.000; -406.000
255.628; -112.400; -780.000; -781.000
255.770;  -90.050; -676.000; -536.000
255.912;  -66.925; -559.000; -468.000
256.053;  -92.550; -730.000; -508.000
256.195;  154.825; 1008.000;  903.000
256.337; -103.400; -861.000; -595.000
256.479;   70.900;  532.000;  416.000
256.621;  -50.350; -394.000; -212.000
256.762;  -93.900; -789.000; -742.000
256.904;   48.125;  485.000;  487.000
257.046;  -58.850; -381.000; -271.000
257.188;  -52.550; -351.000; -264.000
257.329;  -71.100; -525.000; -464.000
257.471; -133.750; -939.000; -807.000
257.613;  -90.375; -584.000; -498.000
257.755; -162.075;-1073.000; -982.000
257.896;   30.300;  286.000;  392.000
258.038;  -81.125; -403.000; -352.000
258.180;  -39.050; -354.000; -279.000
258.321;  -89.400; -581.000; -457.000
258.463;   -2.550;  -71.000;  133.000
258.605; -103.800; -562.000; -570.000
258.746; -110.350; -886.000; -772.000
258.888; -171.625;-1026.000;-1020.000
259.029;   12.050;  121.000;   -8.000
259.171;  -79.525; -614.000; -550.000
259.313;   -6.050;  -49.000;  -47.000
259.454;  -89.050; -536.000; -414.000
259.596;  -60.875; -483.000; -390.000
259.737;  -80.150; -590.000; -474.000
259.879;   34.375;  217.000;  311.000
260.020;   87.350;  901.000;  636.000
260.162;  -32.825; -146.000; -253.000
260.303; -112.725; -768.000; -687.000
260.445;  -99.200; -609.000; -613.000
260.586;   24.775;  392.000;  157.000
260.728;  -57.050; -360.000; -248.000
260.869; -129.050; -350.000; -343.000
261.011;   85.275;  706.000;  537.000
261.152;  -62.725; -479.000; -319.000
261.293;  -85.950; -576.000; -595.000
261.435;  -42.725; -219.000; -184.000
261.576;  -73.800; -455.000; -325.000
261.718;   57.075;  420.000;  470.000
261.859; -134.425; -940.000; -949.000
262.000; -136.000; -951.000;-1016.000
262.142;  -17.175;  -52.000;  -60.000
262.283; -126.600; -808.000; -691.000
262.424; -101.700; -666.000; -625.000
262.566; -163.825;-1161.000; -983.000
262.707; -120.325; -840.000; -830.000
262.848; -125.325; -769.000; -726.000
262.990;  -49.400; -362.000; -345.000
263.131;   83.650;  650.000;  681.000
263.272;  -15.150;  -61.000;  -41.000
263.413; -105.225; -589.000; -561.000
263.555;  -70.975; -669.000; -143.000
263.696;  -98.375; -550.000; -641.000
263.837;  -69.400; -449.000; -551.000
263.978;  -15.475;   -5.000;  -77.000
264.119;  -44.725; -283.000; -264.000
264.261; -123.300; -847.000; -630.000
264.402;  -11.575;   33.000;   40.000
264.543;  -82.025; -509.000; -524.000
264.684;   -6.150;   61.000;  -50.000
264.825;  -75.750; -816.000; -538.000
264.966;   -8.425;  -84.000;  -67.000
265.107; -129.125; -646.000; -670.000
265.248; -126.475; -825.000; -812.000
265.390;  -25.650;  152.000;   -9.000
265.531;  -34.425; -238.000; -107.000
265.672;  -96.975; -557.000; -630.000
265.813;   58.300;  563.000;  439.000
265.954; -157.000; -959.000; -940.000
266.095;  -37.200; -372.000; -322.000
266.236; -105.600; -686.000; -548.000
266.377;  -42.950; -243.000; -297.000
266.518;  -79.350; -619.000; -547.000
266.659;   17.000;  170.000;  268.000
266.800;   14.050;   83.000;   85.000
266.941;  -88.150; -487.000; -478.000
267.082;   18.825;  354.000;   99.000
267.223;  -60.025; -344.000; -273.000
267.364; -128.925; -892.000; -686.000
267.504;  -25.325;    3.000;  135.000
267.645;  -14.325;  160.000;   67.000
267.786;  -44.175; -147.000;  -86.000
267.927;  -79.350; -473.000; -379.000
268.068;  -38.075; -186.000;  -61.000
268.209;  -47.550; -175.000; -413.000
268.350;  -58.850; -388.000; -532.000
268.490;  -91.550; -648.000; -521.000
268.631;   31.775;  127.000;  225.000
268.772; -118.625; -874.000; -647.000
268.913;  -57.775; -328.000; -476.000
269.054;  -27.850; -117.000;   12.000
269.194;  -42.700; -418.000; -402.000
269.335; -162.625;-1137.000;-1074.000
269.476;  -27.175;   33.000;  -35.000
269.617;  -67.525; -347.000; -392.000
269.757; -102.125; -713.000; -646.000
269.898; -105.725; -856.000; -613.000
270.039;  -62.825; -415.000; -405.000
270.180; -143.150; -952.000; -816.000
270.320;  -44.450; -190.000; -250.000
270.461;  -42.100; -277.000; -249.000
270.602;  -24.375; -186.000; -156.000
270.742; -144.625; -868.000; -943.000
270.883;  -69.025; -442.000; -390.000
271.023;  -72.650; -358.000; -357.000
271.164;  -94.175; -607.000; -528.000
271.305; -104.350; -666.000; -654.000
271.445;  -96.075; -722.000; -683.000
271.586;  -77.500; -462.000; -283.000
271.726;  -54.650; -397.000; -322.000
271.867;  -95.200; -594.000; -534.000
272.008;  -33.750; -473.000; -285.000
272.148;   36.700;  462.000;  468.000
272.289;  -23.700; -113.000; -181.000
272.429;   -7.075;   19.000;  185.000
272.570; -116.200; -633.000; -737.000
272.710; -111.200; -825.000; -775.000
272.851;  -42.525;  113.000; -130.000
272.991; -188.325;-1173.000;-1077.000
273.131;  -77.575; -419.000; -459.000
273.272; -112.900; -683.000; -723.000
273.412;  -23.700; -143.000;  -31.000
273.553;  -78.000; -488.000; -507.000
273.693;  106.850;  913.000;  858.000
273.834; -148.900; -894.000; -692.000
273.974;  -96.500; -664.000; -615.000
274.114; -119.300; -772.000; -560.000
274.255;   36.475;  414.000;  373.000
274.395;  -50.900; -180.000; -125.000
274.535;   21.550;  199.000;  350.000
274.676;   15.700;  225.000;   94.000
274.816;  -15.475;  110.000;   34.000
274.956; -105.900; -624.000; -690.000
275.097; -140.775;-1014.000; -922.000
275.237; -141.725; -913.000; -803.000
275.377; -120.425; -778.000; -689.000
275.517; -175.400; -878.000; -937.000
275.658;  -94.725; -590.000; -555.000
275.798;  -87.475; -606.000; -413.000
275.938;   -1.075;  215.000;  323.000
276.078;  -93.200; -626.000; -395.000
276.218;    7.150;   99.000;  104.000
276.359; -152.000;-1026.000;-1024.000
276.499;  -80.350; -605.000; -446.000
276.639;  -32.400; -305.000; -151.000
276.779;  -63.975; -475.000; -357.000
276.919; -120.325; -783.000; -624.000
277.059;  -37.025; -261.000; -212.000
277.199;  -54.675; -357.000; -259.000
277.340;   36.900;  287.000;  175.000
277.480; -121.725; -840.000; -693.000
277.620;   12.975;  192.000;   16.000
277.760; -213.500;-1533.000;-1294.000
277.900;   -9.200;  113.000;   33.000
278.040;   -6.675;  137.000;  159.000
278.180;   22.100;  270.000;  170.000
278.320;   -9.275;   21.000;   56.000
278.460;  -68.900; -443.000; -469.000
278.600; -107.950; -708.000; -598.000
278.740;   44.225;  448.000;  224.000
278.880; -131.025; -768.000; -791.000
279.020;  -41.550; -194.000; -144.000
279.160;  -97.400; -672.000; -595.000
279.300; -141.650; -926.000; -873.000
279.440; -101.700; -709.000; -622.000
279.579; -152.675;-1014.000; -929.000
279.719;  -75.325; -410.000; -394.000
279.859;    0.100;   -4.000;   41.000
279.999;  -35.150; -208.000;  101.000
280.139;  -61.700; -435.000; -387.000
280.279; -118.675; -708.000; -745.000
280.419;  -20.400; -229.000; -147.000
280.559;  -49.775; -259.000; -180.000
280.698; -104.275; -790.000; -639.000
280.838; -125.325; -778.000; -800.000
280.978; -117.100; -846.000; -790.000
281.118; -119.675; -811.000; -704.000
281.257;   -3.125;   24.000;    6.000
281.397; -163.350;-1094.000; -960.000
281.537; -114.850; -599.000; -712.000
281.677;  -39.225; -150.000; -101.000
281.816; -111.125; -700.000; -630.000
281.956;  -32.550; -193.000; -257.000
282.096;  -70.775; -539.000; -396.000
282.235; -116.600; -672.000; -638.000
282.375;  -38.600; -243.000;  -98.000
282.515; -122.225; -715.000; -707.000
282.654;   -7.050;   29.000;  106.000
282.794;   17.550;  388.000;  244.000
282.934;  -77.125; -530.000; -491.000
283.073; -147.450;-1030.000; -857.000
283.213;  -75.750; -460.000; -467.000
283.353;  -67.300; -408.000; -349.000
283.492;  -53.375; -264.000; -296.000
283.632;  -64.400; -254.000; -168.000
283.771; -122.525; -859.000; -730.000
283.911;  -71.450; -369.000; -260.000
284.050; -121.150; -794.000; -748.000
284.190; -168.825;-1229.000;-1096.000
284.329; -154.725;-1055.000; -964.000
284.469; -104.775; -516.000; -591.000
284.608;  -79.450; -559.000; -598.000
284.748;  -99.975; -614.000; -570.000
284.887;  -21.950;  -87.000;  -20.000
285.027; -143.075; -844.000; -892.000
285.166;  -46.175; -192.000; -249.000
285.306;  -47.100; -116.000;  -33.000
285.445;  -53.025; -229.000; -343.000
285.584; -111.675; -630.000; -494.000
285.724;  -53.175; -282.000; -322.000
285.863; -120.325; -857.000; -507.000
286.002;  -52.975; -366.000; -276.000
286.142; -121.275; -715.000; -622.000
286.281;  -89.625; -525.000; -493.000
286.420;  -90.750; -554.000; -417.000
286.560;   89.050;  653.000;  623.000
286.699; -157.675; -958.000; -912.000
286.838; -105.400; -590.000; -591.000
286.978;  -97.250; -533.000; -537.000
287.117; -167.725;-1085.000; -950.000
287.256;  -44.675; -228.000; -211.000
287.395;  -63.650; -197.000; -378.000
287.535;  -69.800; -370.000; -298.000
287.674;  -90.950; -509.000; -484.000
287.813;   32.625;  661.000;  533.000
287.952; -150.000;-1010.000; -871.000
288.091; -168.400;-1049.000; -915.000
288.231;  -12.275;   13.000;   15.000
288.370; -197.125;-1217.000;-1200.000
288.509; -106.775; -728.000; -645.000
288.648; -101.375; -770.000; -548.000
288.787;  -67.500; -243.000;  -87.000
288.926;  -77.375; -454.000; -475.000
289.065;   81.625;  859.000;  672.000
289.204;  -71.575; -377.000; -217.000
289.344;  -96.775; -791.000; -690.000
289.483;    6.850;  416.000;  304.000
289.622;  -35.400; -291.000; -149.000
289.761;  -27.125; -309.000; -166.000
289.900; -121.025; -785.000; -626.000
290.039;  -27.675;  -12.000;  -95.000
290.178;  -45.075; -274.000; -180.000
290.317;  -96.750; -618.000; -479.000
290.456;  -67.325; -463.000; -451.000
290.595; -156.450; -961.000; -833.000
290.734; -146.550; -904.000; -891.000
290.873;  -83.650; -456.000; -420.000
291.011; -139.175; -833.000; -843.000
291.150; -112.725; -770.000; -682.000
291.289;  -40.925; -343.000; -110.000
291.428;  -94.100; -599.000; -480.000
291.567;  -66.600; -370.000; -442.000
291.706;   -9.625;  109.000;  154.000
291.845; -100.600; -597.000; -505.000
291.984; -196.725;-1234.000;-1061.000
292.122;   45.825;  602.000;  582.000
292.261;   29.500;  620.000;  463.000
292.400;   -4.225; -144.000;  211.000
292.539; -146.800; -959.000; -813.000
292.678;  -49.450; -325.000; -300.000
292.816; -167.225;-1136.000; -965.000
292.955; -124.950; -844.000; -684.000
293.094;  -48.250; -173.000; -337.000
293.233;  -76.125; -556.000; -400.000
293.371;  -58.350; -225.000;  -84.000
293.510; -125.775; -866.000; -780.000
293.649; -157.450; -959.000; -924.000
293.787; -154.925;-1083.000;-1012.000
293.926;  -31.700; -113.000;  -32.000
294.065;  -71.350; -379.000; -290.000
294.203;   13.650;  298.000;  406.000
294.342;   -9.300;   74.000;  156.000
294.481; 6366.750;51180.000; -836.000
294.619;  -41.200; -425.000; -582.000
294.758; -178.875;-1230.000;-1137.000
294.896;  -27.225; -125.000;    5.000
295.035; -153.550;-1040.000;-1006.000
295.174; -148.575;-1082.000; -954.000
295.312;  -71.675; -323.000; -203.000
295.451;  -73.325; -307.000; -428.000
295.589;  -99.050; -389.000; -518.000
295.728;   -6.625; -292.000; -165.000
295.866;  -46.325;  -36.000;  -51.000
296.005;  -95.025; -584.000; -341.000
296.143;  -93.475; -558.000; -596.000
296.282; -137.725; -957.000; -881.000
296.420; -112.625; -657.000; -557.000
296.559; -110.650; -892.000; -633.000
296.697; -122.650; -847.000; -665.000
296.835; -179.650;-1141.000;-1002.000
296.974;  -14.550;  -23.000;   39.000
297.112;  -92.775; -443.000; -504.000
297.251; -137.000; -815.000; -755.000
297.389;  -89.575; -576.000; -438.000
297.527;  -26.325; -145.000;  -83.000
297.666;  -85.775; -486.000; -438.000
297.804;  -78.150; -404.000; -264.000
297.942;  -38.550; -136.000; -161.000
298.081;  -13.325; -183.000;   63.000
298.219;  -34.425;  -17.000;  -19.000
298.357;  -53.875; -144.000;  -71.000
298.495; -141.050; -810.000; -812.000
298.634;  -17.950;  245.000;  219.000
298.772;  -57.325; -220.000; -338.000
298.910;  -58.925; -309.000; -182.000
299.048;  -36.550; -130.000; -153.000
299.187;  -40.025; -350.000; -250.000
299.325;   -4.925;   52.000;  122.000
299.463;  -89.425; -389.000; -299.000
299.601;  -50.050; -327.000; -271.000
299.739; -144.600; -908.000; -883.000
299.877; -108.700; -791.000; -703.000
300.016; -163.175;-1095.000; -935.000
300.154;  -20.400;  -19.000; -161.000
300.292;  -86.475; -428.000; -348.000
300.430;  -66.150; -408.000; -291.000
300.568; -141.375; -940.000; -874.000
300.706;  -80.650; -366.000; -469.000
300.844; -178.650;-1108.000; -979.000
300.982;   38.600;  246.000;  282.000
301.120; -158.225; -965.000; -866.000
301.258; -131.200; -812.000; -705.000
301.396;  -19.000;  104.000;  -41.000
301.534;  -61.150; -218.000; -293.000
301.672; -106.850; -664.000; -521.000
301.810; -102.925; -613.000; -545.000
301.948;  -23.600;   53.000;  149.000
302.086;  -28.125; -250.000;  -32.000
302.224; -111.625; -610.000; -585.000
302.362;  -96.175; -558.000; -622.000
302.500; -146.200; -923.000; -893.000
302.638;   -9.350;  128.000;  245.000
302.776;  -48.350; -352.000; -408.000
302.913;   25.650;  447.000;  236.000
303.051;  -45.450;  -86.000;  -23.000
303.189;   -0.625;   90.000;  118.000
303.327;  -61.900; -341.000; -256.000
303.465; -111.000; -832.000; -588.000
303.603; -109.050; -805.000; -604.000
303.740;   26.400;  417.000;  241.000
303.878; -125.525; -800.000; -759.000
304.016; -121.650; -915.000; -790.000
304.154; -178.500;-1123.000;-1152.000
304.291;  -95.075; -505.000; -554.000
304.429;  -12.175;  102.000;   74.000
304.567; -161.900; -908.000; -893.000
304.705;  -73.775; -408.000; -515.000
304.842; -109.600; -616.000; -540.000
304.980;   -7.025;  215.000;   35.000
305.118;  -65.550; -367.000; -365.000
305.255; -150.575; -945.000; -927.000
305.393;   12.200;  178.000;  239.000
305.531; -157.800;-1173.000; -956.000
305.668; -112.600; -663.000; -582.000
305.806;  -79.350; -358.000; -439.000
305.943;  -91.575; -629.000; -637.000
306.081;  -72.575; -378.000; -267.000
306.219; -129.950; -863.000; -748.000
306.356;  -14.175;  158.000;   27.000
306.494;   73.375;  981.000;  761.000
306.631;  -26.600;  -11.000;  -55.000
306.769;  -82.175; -613.000; -485.000
306.906;  -90.150; -284.000; -258.000
307.044;  -86.725; -473.000; -488.000
307.181;  -75.225; -410.000; -332.000
307.319;   -6.075;  112.000;   87.000
307.456; -185.050;-1191.000;-1153.000
307.594; -143.975; -980.000; -727.000
307.731;  -59.525; -371.000; -164.000
307.868;  -15.950;  -15.000;   20.000
308.006; -160.750; -961.000; -847.000
308.143;  -98.400; -618.000; -330.000
308.281;  -55.000;  -37.000; -254.000
308.418; -104.450; -748.000; -640.000
308.555;  -99.875; -400.000; -250.000
308.693; -104.400; -577.000; -573.000
308.830; -135.525; -712.000; -657.000
308.967;  -25.300; -215.000;  -95.000
309.105;  -89.150; -507.000; -396.000
309.242;  -71.375; -468.000; -367.000
309.379; -110.825; -577.000; -655.000
309.517; -140.175; -936.000; -948.000
309.654; -143.775; -910.000; -734.000
309.791;  -88.825; -662.000; -580.000
309.928; -143.750; -977.000; -914.000
310.065;   78.300;  819.000;  697.000
310.203; -145.375; -825.000; -850.000
310.340;  -95.100; -465.000; -321.000
310.477; -107.900; -412.000; -516.000
310.614;  -86.975; -383.000; -473.000
310.751;  -98.425; -427.000; -518.000
310.889;  -42.025;    1.000;   11.000
311.026; -170.100;-1161.000; -939.000
311.163;  -71.150; -386.000; -380.000
311.300; -108.875; -512.000; -479.000
311.437; -102.175; -658.000; -619.000
311.574; -185.550;-1226.000; -985.000
311.711; -100.425; -595.000; -433.000
311.848;  -72.400; -380.000; -388.000
311.985;   -5.750;  270.000;   93.000
312.122; -149.275; -932.000; -762.000
312.259; -149.675; -941.000; -994.000
312.396; -108.150; -508.000; -551.000
312.533; -120.800; -812.000; -790.000
312.670; -163.625;-1070.000; -898.000
312.807;  -61.225; -352.000; -367.000
312.944; -118.900; -513.000; -611.000
313.081;  -67.600; -150.000; -415.000
313.218; -158.525;-1111.000; -867.000
313.355;  -86.375; -531.000; -449.000
313.492;  -70.175; -455.000; -292.000
313.629;   82.725;  815.000;  735.000
313.766; -195.000;-1176.000;-1008.000
313.902;  -32.850; -186.000;   21.000
314.039;  -87.100; -372.000; -289.000
314.176;   -0.550;  286.000;  192.000
314.313; -107.075; -569.000; -473.000
314.450; -118.600; -788.000; -684.000
314.587;  -88.875; -468.000; -480.000
314.723;  -24.975;  -78.000;  130.000
314.860;  -11.500;  318.000;  332.000
314.997;   -0.775;  223.000;  142.000
315.134;  -74.575; -385.000; -368.000
315.270;  -91.600; -480.000; -496.000
315.407; -182.675;-1094.000; -967.000
315.544; -109.850; -657.000; -538.000
315.681; -118.275; -681.000; -565.000
315.817;  -44.350; -133.000; -176.000
315.954; -106.875; -613.000; -392.000
316.091; -173.600;-1045.000;-1023.000
316.227;  -58.025;  -71.000; -179.000
316.364;  -19.000;   23.000;    6.000
316.500;  -66.000; -113.000; -300.000
316.637;  -51.475; -181.000; -302.000
316.774; -103.650; -625.000; -358.000
316.910; -134.250; -598.000; -629.000
317.047; -100.600; -487.000; -351.000
317.183;  -79.675; -435.000; -566.000
317.320;  -89.350; -367.000; -321.000
317.456; -139.025; -733.000; -805.000
317.593; -123.100; -598.000; -641.000
317.729;   -8.775;  168.000;  -67.000
317.866; -220.575;-1434.000;-1285.000
318.002; -124.625; -708.000; -948.000
318.139; -158.125; -883.000; -867.000
318.275; -134.875;-1003.000; -738.000
318.412;  -98.075; -517.000; -336.000
318.548; -111.750; -751.000; -720.000
318.685; -162.500; -985.000; -888.000
318.821; -121.900; -762.000; -735.000
318.957;  -48.250;   34.000;  -23.000
319.094;   22.650;  297.000;  154.000
319.230; -141.550; -756.000; -742.000
319.367;  -98.700; -471.000; -520.000
319.503; -105.775; -538.000; -436.000
319.639; -138.375; -877.000; -793.000
319.775; -125.475; -750.000; -685.000
319.912;  -88.525; -424.000; -519.000
320.048; -195.650;-1184.000;-1184.000
320.184;   -2.400;   59.000;   70.000
320.321;  -91.475; -497.000; -467.000
320.457;   34.050;  475.000;  662.000
320.593;  -90.200; -375.000; -382.000
320.729; -138.100; -732.000; -734.000
320.866;  -92.275; -577.000; -635.000
321.002; -133.350; -759.000; -809.000
321.138;  -68.275; -135.000; -211.000
321.274;  -31.175; -148.000; -115.000
321.410; -106.525; -585.000; -353.000
321.546; -170.300;-1011.000; -911.000
321.683;    7.400;  400.000;  185.000
321.819;  -40.250;  -48.000; -117.000
321.955; -139.475; -743.000; -722.000
322.091; -103.825; -585.000; -540.000
322.227;  -81.775; -382.000; -202.000
322.363;  -66.625; -320.000; -215.000
322.499;  -78.300; -343.000; -331.000
322.635;   48.200;  636.000;  443.000
322.771;  -44.150; -139.000;   12.000
322.907;   16.625;  129.000;  327.000
323.043;  -80.100; -115.000; -206.000
323.179;  -81.100; -394.000; -363.000
323.315;  -90.075; -401.000; -371.000
323.451;  -72.775; -328.000; -236.000
323.587;  -42.175;  -60.000;  -77.000
323.723; -111.250; -682.000; -601.000
323.859;  -50.700; -258.000;  -76.000
323.995;  -72.125; -467.000; -409.000
324.131; -157.100; -967.000; -892.000
324.267;  -61.025; -254.000; -276.000
324.402; -178.650; -960.000; -983.000
324.538;  -56.000; -279.000; -104.000
324.674;  -27.000;  164.000;   77.000
324.810;   -9.400;  226.000;  308.000
324.946;  -84.650; -810.000; -658.000
325.082;  -98.700; -568.000; -475.000
325.217;  -29.150;  -62.000;   16.000
325.353; -132.825; -764.000; -659.000
325.489; -106.800; -540.000; -506.000
325.625;  -96.650; -579.000; -525.000
325.760;   -1.000;  517.000;  376.000
325.896; -106.250; -515.000; -702.000
326.032;  -75.525; -403.000; -352.000
326.168;  -87.175; -462.000; -369.000
326.303;  -91.325; -352.000; -461.000
326.439;  -61.600; -336.000; -276.000
326.575;  -52.450; -190.000;  -29.000
326.710;  -22.450; -156.000;  -30.000
326.846;  -34.500;  146.000;  103.000
326.982; -108.425; -530.000; -548.000
327.117; -114.325; -481.000; -442.000
327.253; -118.400; -745.000; -742.000
327.388; -209.450;-1137.000;-1153.000
327.524; -119.425; -811.000; -578.000
327.659;  -45.050;  -58.000;  -22.000
327.795;  -33.225;   69.000;   45.000
327.931; -116.925; -723.000; -499.000
328.066;  -57.475; -417.000; -276.000
328.202;  -39.975;   12.000; -129.000
328.337;   82.750;  957.000;  713.000
328.473;   12.075;  -12.000;  -74.000
328.608;  -51.075; -256.000; -267.000
328.743; -150.600; -799.000; -664.000
328.879;  -11.825;  214.000;  114.000
329.014;  -55.100; -102.000; -122.000
329.150; -103.300; -358.000; -483.000
329.285; -103.300; -465.000; -466.000
329.421;  -73.550; -548.000; -246.000
329.556;  -37.950;  -36.000;   85.000
329.691; -112.550; -633.000; -615.000
329.827; -100.575; -626.000; -480.000
329.962;  -69.100;  131.000; -301.000
330.097; -121.650; -673.000; -585.000
330.233;  -58.775; -410.000; -223.000
330.368; -144.250; -839.000; -628.000
330.503;  -28.175;    3.000;   98.000
330.638;  -40.675;  -93.000; -125.000
330.774; -104.400; -609.000; -530.000
330.909;  -60.025; -434.000; -244.000
331.044; -124.050; -714.000; -708.000
331.179; -193.525;-1217.000;-1109.000
331.315;  -10.150;   77.000;   20.000
331.450;  -10.475;  157.000;  285.000
331.585; -125.825; -805.000; -706.000
331.720; -119.975; -510.000; -460.000
331.855;  -34.825;  -35.000; -102.000
331.990;  -27.800;   62.000;  138.000
332.126;  -19.075; -110.000;   71.000
332.261;  -84.350; -379.000; -265.000
332.396;  -67.025; -135.000; -242.000
332.531; -174.325;-1074.000;-1031.000
332.666;  -81.075; -519.000; -363.000
332.801; -138.650; -726.000; -807.000
332.936;  -32.825; -192.000; -122.000
333.071; -180.525; -870.000; -817.000
333.206;    7.625;  307.000;  379.000
333.341;    4.525;  344.000;  418.000
333.476; -111.000; -627.000; -623.000
333.611;  -68.075; -251.000; -173.000
333.746;  -71.525; -381.000; -464.000
333.881; -152.775; -973.000; -935.000
334.016; -164.750; -936.000; -917.000
334.151; -144.100; -746.000; -702.000
334.286;  -14.350;  152.000;  186.000
334.421;  -46.450; -125.000; -178.000
334.556; -115.525; -611.000; -567.000
334.690; -118.900; -631.000; -577.000
334.825;   29.225;  381.000;   83.000
334.960;  -94.350; -285.000; -413.000
335.095;  -12.975;  135.000;  -91.000
335.230; -141.400; -722.000; -738.000
335.365; -166.450;-1084.000; -990.000
335.499; -182.725;-1108.000;-1037.000
335.634;  -15.200;    9.000;  534.000
335.769; -143.300; -755.000; -720.000
335.904; -126.075; -603.000; -561.000
336.038; -129.625; -735.000; -657.000
336.173; -186.600;-1206.000;-1194.000
336.308;  -55.275; -116.000; -189.000
336.443;  -93.850; -544.000; -634.000
336.577; -153.275; -936.000; -787.000
336.712;  -31.175;   -4.000;  -12.000
336.847; -130.200; -724.000; -607.000
336.981;  -76.750; -272.000; -208.000
337.116;   35.950;  615.000;  501.000
337.250;  -99.700; -434.000; -421.000
337.385;  -73.225; -297.000; -208.000
337.520; -118.750; -632.000; -603.000
337.654;  -86.475; -215.000; -126.000
337.789; -155.600; -989.000; -933.000
337.923;  -64.650; -104.000; -205.000
338.058; -129.650; -673.000; -738.000
338.192; -115.750; -611.000; -488.000
338.327;  -46.575;  -18.000; -155.000
338.461; -112.475; -299.000; -469.000
338.596; -120.275; -780.000; -638.000
338.730; -137.575; -767.000; -803.000
338.865;  -34.825;  -46.000; -140.000
338.999; -165.400; -846.000; -702.000
339.134; -110.675; -634.000; -536.000
339.268; -133.225; -741.000; -603.000
339.403; -132.450; -740.000; -775.000
339.537; -150.800; -894.000; -820.000
339.671; -146.575; -829.000; -813.000
339.806; -122.575; -556.000; -512.000
339.940;  -52.650; -261.000; -235.000
340.074; -124.400; -685.000; -510.000
340.209;  -70.175; -351.000; -230.000
340.343; -125.000; -517.000; -573.000
340.477;  119.175;  998.000; 1036.000
340.612; -165.350;-1033.000; -900.000
340.746;  -78.250; -199.000; -243.000
340.880; -158.525; -924.000; -785.000
341.014;  -43.250;  -45.000; -154.000
341.149; -141.675; -756.000; -718.000
341.283; -138.900; -839.000; -754.000
341.417; -164.600;-1124.000; -938.000
341.551; -123.000; -768.000; -708.000
341.685; -120.825; -633.000; -611.000
341.820; -101.925; -562.000; -493.000
341.954;  -97.300; -218.000; -349.000
342.088; -175.975;-1102.000;-1019.000
342.222;   46.925;  565.000;  618.000
342.356; -102.325; -395.000; -335.000
342.490; -152.150; -880.000; -841.000
342.624;  -72.575; -339.000; -242.000
342.758;  -80.500; -364.000; -312.000
342.892; -120.825; -710.000; -585.000
343.026;  -65.550;  -58.000; -116.000
343.160;  -76.075; -426.000; -376.000
343.294;  -98.175; -474.000; -337.000
343.428; -119.900; -488.000; -448.000
343.562;  -60.450; -172.000;  -23.000
343.696;  -80.375; -385.000; -314.000
343.830;  -68.025; -362.000; -356.000
343.964;  -56.925; -231.000; -168.000
344.098;  -31.150;  199.000;   70.000
344.232;  -66.900; -266.000; -127.000
344.366; -119.675; -567.000; -453.000
344.500; -127.250; -665.000; -744.000
344.634;  -80.600; -324.000; -164.000
344.768; -108.200; -531.000; -341.000
344.902;  -18.275;  278.000;  256.000
345.035; -108.875; -556.000; -496.000
345.169; -149.425; -933.000; -656.000
345.303; -104.450; -308.000; -482.000
345.437; -139.050; -826.000; -717.000
345.571; -114.575; -675.000; -594.000
345.704;  -88.150; -309.000; -532.000
345.838;  -83.400; -331.000; -284.000
345.972; -104.300; -543.000; -495.000
346.106;  -25.300; -179.000; -190.000
346.239;  -73.225; -312.000; -243.000
346.373;  -72.875; -343.000; -302.000
346.507; -179.400; -950.000; -962.000
346.640;  -46.425;  -30.000;   13.000
346.774; -131.400; -650.000; -797.000
346.908;  -52.200; -138.000;  -11.000
347.041; -127.550; -646.000; -593.000
347.175;  -14.650;  259.000;   27.000
347.309; -133.475; -698.000; -628.000
347.442; -153.725; -883.000; -732.000
347.576;   55.975;  670.000;  668.000
347.709;  -39.050; -123.000;  -52.000
347.843; -171.200; -933.000; -825.000
347.976;    1.600;  235.000;  294.000
348.110; -208.850;-1268.000;-1186.000
348.243; -125.150; -679.000; -772.000
348.377;  -32.200;  -26.000;   60.000
348.510;   25.225;  403.000;  540.000
348.644;  -57.775;  -37.000; -159.000
348.777;   -3.225;  180.000;  191.000
348.911;  -84.400; -142.000; -112.000
349.044;   14.375;  471.000;  448.000
349.178; -177.150;-1069.000;-1006.000
349.311;    4.150;  141.000;  255.000
349.444; -168.925; -927.000; -813.000
349.578;  -72.375; -347.000; -200.000
349.711; -171.050; -959.000; -862.000
349.845; -125.075; -661.000; -591.000
349.978; -190.050;-1224.000;-1137.000
350.111; -127.425; -546.000; -612.000
350.244; -129.750; -596.000; -700.000
350.378; -102.600; -392.000; -393.000
350.511;  -95.550; -393.000; -426.000
350.644; -137.900; -808.000; -806.000
350.778;  -25.300;  168.000;  104.000
350.911;  -35.350;  134.000;  140.000
351.044; -123.925; -685.000; -615.000
351.177;  -76.275; -321.000; -281.000
351.310;  -44.675;    3.000; -131.000
351.444; -152.550; -888.000; -788.000
351.577;  -14.450;  140.000;   90.000
351.710;   42.350;  593.000;  417.000
351.843;  -48.750; -165.000;  -77.000
351.976;  -23.675;  149.000;  -79.000
352.109; -131.250; -621.000; -612.000
352.242;  -91.625; -464.000; -419.000
352.376; -122.875; -580.000; -636.000
352.509;  -84.900; -437.000; -356.000
352.642; -182.375; -654.000; -604.000
352.775;  -62.175; -141.000;  -98.000
352.908; -166.850; -933.000; -904.000
353.041; -147.250; -814.000; -824.000
353.174; -105.350; -551.000; -424.000
353.307; -154.875; -753.000; -764.000
353.440;   23.100;  541.000;  453.000
353.573; -166.675; -957.000;-1008.000
353.706;  -98.775; -384.000; -558.000
353.839;  -74.425; -264.000; -220.000
353.971; -121.700; -657.000; -512.000
354.104; -149.500; -896.000; -835.000
354.237; -137.550; -627.000; -662.000
354.370; -146.250; -846.000; -879.000
354.503; -215.150;-1231.000;-1308.000
354.636;  -93.350; -529.000; -348.000
354.769; -166.325; -937.000; -860.000
354.902;  -79.150; -230.000; -139.000
355.034;  -58.425; -164.000; -220.000
355.167;  -67.900; -262.000; -162.000
355.300; -180.425;-1061.000; -880.000
355.433;  -38.075;  -71.000;  -14.000
355.565; -105.375; -402.000; -384.000
355.698;  -76.175; -356.000; -296.000
355.831; -163.025; -882.000; -801.000
355.964;  -61.150; -285.000; -170.000
356.096; -160.950; -856.000; -843.000
356.229; -127.600; -523.000; -530.000
356.362;  -87.425; -373.000; -266.000
356.494;  -63.300; -229.000; -162.000
356.627;   -4.825;  269.000;  377.000
356.760;  -22.950;  120.000;   53.000
356.892; -127.900; -286.000; -601.000
357.025;   23.950;  403.000;  389.000
357.157;  -73.650; -167.000; -179.000
357.290; -140.725; -856.000; -713.000
357.423; -135.375; -667.000; -556.000
357.555;  -52.675; -217.000; -228.000
357.688;  -94.650; -483.000; -364.000
357.820; -149.625; -870.000; -877.000
357.953; -126.100; -563.000; -589.000
358.085; -132.300; -632.000; -612.000
358.218; -194.550;-1131.000; -932.000
358.350;  -43.725;  -58.000;  312.000
358.483; -209.300;-1300.000;-1187.000
358.615; -185.125;-1182.000;-1078.000
358.747; -218.525;-1187.000;-1058.000
358.880; -134.000; -810.000; -744.000
359.012;  -91.900; -376.000; -202.000
359.145;  -93.000; -480.000; -511.000
359.277; -167.700; -962.000; -913.000
359.409;   23.375;  536.000;  231.000
359.542; -142.400; -738.000; -688.000
359.674;  -32.900;   46.000;   13.000
359.806; -112.025; -565.000; -438.000
359.939; -101.150; -617.000; -516.000
360.071; -119.425; -583.000; -579.000
360.203;  -74.850; -411.000; -364.000
360.335;  -24.100;  164.000;  -16.000
360.468;  -52.550; -249.000; -307.000
360.600; -110.250; -547.000; -454.000
360.732; -115.725; -546.000; -423.000
360.864; -198.600;-1216.000;-1044.000
360.996; -105.425; -516.000; -554.000
361.129; -107.950; -389.000; -598.000
361.261;  -42.900;  110.000; -113.000
361.393;  -77.525; -252.000; -214.000
361.525;  -13.950;   94.000;  244.000
361.657; -157.875; -821.000; -703.000
361.789;  -59.625; -139.000; -155.000
361.921; -110.650; -642.000; -593.000
362.053;   44.050;  524.000;  541.000
362.185;  -25.125;  288.000;   72.000
362.318; -145.300; -709.000; -705.000
362.450;   10.875;  294.000;  444.000
362.582; -176.175; -913.000; -870.000
362.714;  -92.675; -353.000; -332.000
362.846; -109.475; -606.000; -490.000
362.978; -170.350; -941.000; -811.000
363.109;  -77.000; -161.000; -260.000
363.241; -141.525; -739.000; -749.000
363.373; -135.950; -649.000; -564.000
363.505;  -69.025; -186.000;  -91.000
363.637; -121.550; -787.000; -601.000
363.769; -197.875;-1067.000;-1080.000
363.901; -123.250; -596.000; -654.000
364.033; -194.250;-1103.000;-1062.000
364.165;  -64.425; -283.000; -283.000
364.296;  -82.975; -316.000; -177.000
364.428; -221.525;-1344.000;-1220.000
364.560; -118.650; -679.000; -661.000
364.692; -119.875; -738.000; -835.000
364.824; -113.925; -588.000; -456.000
364.955;  -77.950; -402.000; -564.000
365.087; -191.175;-1097.000; -852.000
365.219; -130.375; -686.000; -816.000
365.351; -125.900; -526.000; -572.000
365.482;  -10.325;  300.000;  240.000
365.614;  -79.850; -402.000; -314.000
365.746; -133.475; -729.000; -752.000
365.877; -134.050; -706.000; -672.000
366.009;  -50.450;  -35.000;  -62.000
366.141; -199.975;-1249.000;-1134.000
366.272; -153.825; -803.000; -719.000
366.404; -151.000;-1005.000; -874.000
366.535;  -29.300; -139.000;  -12.000
366.667; -137.550; -644.000; -649.000
366.799;    6.300;  353.000;  203.000
366.930; -175.175; -862.000; -996.000
367.062; -116.325; -639.000; -613.000
367.193; -166.500; -872.000; -842.000
367.325; -117.050; -580.000; -684.000
367.456;  -63.850; -246.000;   31.000
367.588; -103.875; -371.000; -318.000
367.719;  -63.225;  -44.000;  -45.000
367.851;  -73.775; -222.000; -241.000
367.982; -160.625; -875.000; -732.000
368.113;  -80.525; -475.000; -358.000
368.245; -183.725; -960.000; -841.000
368.376;  -80.175; -254.000; -302.000
368.508;  -87.450; -188.000; -263.000
368.639; -193.500;-1166.000;-1034.000
368.770; -137.600; -670.000; -589.000
368.902; -162.025; -836.000; -926.000
369.033; -179.175; -906.000; -855.000
369.164; -131.850; -720.000; -653.000
369.296; -138.425; -452.000; -601.000
369.427;  -62.350; -209.000; -144.000
369.558; -112.450; -593.000; -377.000
369.689; -122.125; -721.000; -569.000
369.821; -176.800; -951.000; -845.000
369.952;  -59.700;   42.000; -108.000
370.083;  -77.875; -229.000; -108.000
370.214; -133.450; -735.000; -650.000
370.345;  -31.800;   65.000;   81.000
370.477; -158.900; -810.000; -790.000
370.608;  -74.600; -328.000; -264.000
370.739; -195.600;-1233.000;-1292.000
370.870; -161.475;-1102.000; -923.000
371.001; -102.075; -378.000; -467.000
371.132; -154.475; -754.000; -735.000
371.263;  -60.875;  -42.000; -148.000
371.394; -173.550; -841.000; -748.000
371.525;    5.550;  345.000;  225.000
371.657; -150.000; -808.000; -670.000
371.788;   -8.500;  103.000;  199.000
371.919;  -98.050; -384.000; -304.000
372.050;  -59.125;  -91.000; -156.000
372.181;  -52.725; -188.000; -294.000
372.311;  -37.400;   42.000; -127.000
372.442; -115.675; -457.000; -451.000
372.573;  -63.275; -444.000; -340.000
372.704; -182.275;-1008.000; -980.000
372.835;  -81.825; -228.000; -289.000
372.966; -137.175; -646.000; -554.000
373.097; -149.675; -575.000; -711.000
373.228; -132.025; -717.000; -542.000
373.359; -137.600; -824.000; -536.000
373.490; -155.825; -881.000; -727.000
373.620; -171.075;-1001.000; -803.000
373.751;  -91.750; -332.000; -396.000
373.882; -120.450; -663.000; -733.000
374.013;  -93.950; -449.000; -262.000
374.143; -129.025; -581.000; -659.000
374.274; -173.350; -987.000; -908.000
374.405;  -79.350; -388.000; -276.000
374.536; -113.300; -526.000; -387.000
374.666; -137.425; -759.000; -807.000
374.797; -154.975; -817.000; -868.000
374.928; -125.700; -710.000; -560.000
375.058; -114.150; -535.000; -500.000
375.189;  -60.975;  -59.000;  -93.000
375.320; -190.525; -928.000;-1034.000
375.450; -114.825; -625.000; -616.000
375.581; -102.450; -526.000; -436.000
375.712;  -80.875; -574.000; -250.000
375.842; -115.875; -438.000; -415.000
375.973; -105.625; -554.000; -513.000
376.103; -138.375; -665.000; -648.000
376.234; -123.250; -531.000; -552.000
376.364; -179.275; -944.000; -867.000
376.495;   67.325;  925.000;  529.000
376.625; -127.525; -472.000; -485.000
376.756; -128.750; -709.000; -678.000
376.886; -199.100;-1178.000;-1026.000
377.017; -191.500;-1048.000;-1061.000
377.147; -169.225; -786.000; -782.000
377.278;  -29.425;  174.000;  228.000
377.408; -168.300; -801.000; -815.000
377.538; -134.400; -707.000; -693.000
377.669; -136.550; -537.000; -613.000
377.799; -150.125; -645.000; -635.000
377.929; -118.600; -610.000; -428.000
378.060; -155.475; -781.000; -847.000
378.190; -127.750; -726.000; -531.000
378.320; -108.400; -401.000; -406.000
378.451;  -57.300; -131.000;  -22.000
378.581;  -55.075;  -67.000; -110.000
378.711;   75.625; 1035.000;  866.000
378.841; -126.050; -533.000; -675.000
378.972; -168.575; -871.000; -751.000
379.102; -105.700; -652.000; -579.000
379.232;  -85.025; -126.000;  -73.000
379.362; -176.575;-1001.000; -885.000
379.492; -112.150; -373.000; -424.000
379.623;  -22.250;    0.000;  111.000
379.753; -182.000;-1107.000; -974.000
379.883;  -19.450;   59.000;  156.000
380.013; -200.300;-1081.000;-1017.000
380.143; -189.700;-1097.000;-1056.000
380.273; -189.475; -985.000; -861.000
380.403;  -91.400; -344.000; -257.000
380.533; -140.100; -651.000; -664.000
380.663;  -26.600;  173.000;  128.000
380.793; -192.925;-1027.000;-1074.000
380.923;  -74.750; -103.000;  -34.000
381.053; -127.850; -613.000; -623.000
381.183;  -79.725; -106.000; -248.000
381.313; -139.050; -656.000; -470.000
381.443; -112.650; -692.000; -473.000
381.573; -106.900; -402.000; -409.000
381.703; -209.275;-1249.000;-1095.000
381.833; -243.225;-1454.000;-1336.000
381.963;  -31.850; -134.000;  -87.000
382.093; -177.900; -925.000; -909.000
382.223; -139.625; -713.000; -602.000
382.353; -151.875; -801.000; -608.000
382.482; -187.200;-1091.000; -964.000
382.612; -145.900; -872.000; -644.000
382.742; -141.125; -695.000; -622.000
382.872; -107.425; -565.000; -551.000
383.002;  -20.425;  347.000; -132.000
383.131;  -89.150; -226.000; -160.000
383.261; -149.775; -706.000; -768.000
383.391; -118.075; -552.000; -377.000
383.521;    1.100;  451.000;  263.000
383.650; -186.300; -947.000; -904.000
383.780; -139.175; -783.000; -656.000
383.910;   62.325;  880.000;  802.000
384.039; -169.275; -794.000; -656.000
384.169; -203.825;-1205.000;-1017.000
384.299; -142.525; -650.000; -662.000
384.428; -143.250; -764.000; -680.000
384.558;  -70.750; -308.000; -275.000
384.687; -106.950; -414.000; -334.000
384.817;  -33.725;   75.000;   -2.000
384.947;  -72.750; -234.000; -141.000
385.076;   74.125;  982.000;  912.000
385.206;    8.100;  369.000;  480.000
385.335; -107.925; -549.000; -417.000
385.465; -141.600; -655.000; -663.000
385.594;  -37.675;  -53.000;  -44.000
385.724; -166.850; -868.000; -838.000
385.853;  -93.550; -296.000; -270.000
385.982; -160.800; -743.000; -787.000
386.112; -176.125;-1052.000; -871.000
386.241;  -92.225; -307.000; -312.000
386.371;  -75.425; -174.000;  -87.000
386.500; -181.000; -825.000; -789.000
386.629; -139.275; -874.000; -817.000
386.759;  -50.450;  -43.000;   68.000
386.888;  -69.700; -170.000; -250.000
387.017; -134.325; -648.000; -620.000
387.147; -146.425; -771.000; -798.000
387.276; -122.300; -410.000; -397.000
387.405;  -86.150; -398.000; -342.000
387.535; -106.050; -452.000; -361.000
387.664; -136.200; -692.000; -620.000
387.793;  -78.025; -198.000; -113.000
387.922;  -25.400;  255.000;  200.000
388.052; -120.800; -576.000; -423.000
388.181; -107.150; -342.000; -472.000
388.310; -137.000; -889.000; -710.000
388.439; -150.700; -749.000; -742.000
388.568;  -22.450;  365.000;  244.000
388.697; -142.225; -756.000; -653.000
388.826; -133.350; -768.000; -666.000
388.956;  -73.950; -285.000; -307.000
389.085; -102.750; -347.000; -287.000
389.214; -160.300; -842.000; -872.000
389.343; -128.850; -645.000; -413.000
389.472;  -12.875;  126.000;  149.000
389.601;  -49.950;   91.000;    0.000
389.730; -124.625; -568.000; -687.000
389.859;  -17.175;  226.000;   46.000
389.988; -104.500; -423.000; -408.000
390.117;  -89.125; -168.000; -146.000
390.246;  -80.900; -331.000; -320.000
390.375; -134.400; -673.000; -626.000
390.504; -123.875; -703.000; -621.000
390.633; -162.200; -672.000; -726.000
390.761; -147.375; -732.000; -645.000
390.890;  -64.125;   -4.000; -130.000
391.019; -115.000; -421.000; -441.000
391.148; -168.125; -826.000; -855.000
391.277; -127.625; -576.000; -493.000
391.406; -165.275; -821.000; -805.000
391.534;  -23.800;  574.000; -301.000
391.663; -138.325; -583.000; -645.000
391.792; -137.575; -673.000; -701.000
391.921;  -40.350;   -3.000;   15.000
392.050;  -87.475; -287.000; -228.000
392.178; -213.075;-1206.000;-1061.000
392.307; -157.650; -758.000; -712.000
392.436; -143.425; -427.000; -641.000
392.564;  -28.800;  166.000;   -6.000
392.693; -152.275; -860.000; -682.000
392.822; -126.075; -529.000; -534.000
392.950; -166.575; -880.000; -714.000
393.079;  -87.950; -188.000; -328.000
393.208; -123.125; -488.000; -511.000
393.336;  -67.375; -170.000; -145.000
393.465;  -79.925; -317.000; -199.000
393.593;  -33.450;   62.000;   79.000
393.722; -182.825;-1121.000; -916.000
393.850;  -50.475; -188.000;  -61.000
393.979; -187.925; -926.000; -805.000
394.107; -116.825; -517.000; -537.000
394.236; -126.200; -570.000; -507.000
394.364;   -5.850;  383.000;  206.000
394.493; -171.175; -911.000; -767.000
394.621; -163.075; -955.000; -916.000
394.750; -168.975; -873.000; -923.000
394.878;  -89.425; -247.000; -149.000
395.007; -160.775; -721.000; -807.000
395.135; -144.975; -790.000; -721.000
395.263; -192.425;-1038.000;-1040.000
395.392;  -49.600;  -25.000; -107.000
395.520; -178.800; -818.000; -679.000
395.648; -165.825; -865.000; -915.000
395.777; -123.100; -366.000; -405.000
395.905; -123.700; -449.000; -564.000
396.033;  -28.125;  217.000;  172.000
396.162;  -99.125; -399.000; -453.000
396.290;  -74.650;  -17.000;   -2.000
396.418; -120.300; -555.000; -514.000
396.546; -157.075; -571.000; -466.000
396.674; -157.375; -850.000; -878.000
396.803;  -50.550;  -72.000;  -23.000
396.931;  -78.975; -179.000; -199.000
397.059; -200.100;-1026.000; -989.000
397.187; -181.550;-1026.000; -975.000
397.315; -159.175; -884.000; -649.000
397.443; -146.550; -592.000; -443.000
397.572; -122.100; -578.000; -424.000
397.700; -137.825; -607.000; -614.000
397.828;  -65.725;  120.000;  -90.000
397.956; -121.475; -508.000; -478.000
398.084; -151.425; -767.000; -626.000
398.212;  -19.500;  137.000;  124.000
398.340;  -57.700;  -56.000;  159.000
398.468;  -91.025; -390.000; -169.000
398.596; -186.375; -993.000; -953.000
398.724; -154.125; -762.000; -767.000
398.852; -191.025;-1024.000; -976.000
398.980; -114.950; -560.000; -560.000
399.108; -148.275; -982.000; -735.000
399.236;  -44.450;   13.000;    8.000
399.363;  -31.325;  222.000;  196.000
399.491; -107.700; -404.000; -398.000
399.619; -163.075; -829.000; -800.000
399.747; -152.775; -859.000; -771.000
399.875;  -25.600;  220.000;  234.000
400.003; -100.575; -359.000; -284.000
400.130; -112.575; -421.000; -341.000
400.258;  -51.325;  -83.000;   38.000
400.386;  -76.225; -352.000; -168.000
400.514; -117.475; -526.000; -587.000
400.641; -178.200; -928.000; -802.000
400.769; -176.700; -979.000; -888.000
400.897; -146.375; -838.000; -793.000
401.025;  -49.700; -166.000; -152.000
401.152;  -28.150;  220.000;   38.000
401.280; -105.625; -430.000; -429.000
401.408; -146.750; -712.000; -576.000
401.535; -147.800; -735.000; -758.000
401.663; -219.425;-1134.000;-1054.000
401.790; -109.500; -514.000; -525.000
401.918;   13.575;  436.000;  405.000
402.046;  -36.400;  134.000;  122.000
402.173;  -59.200;  -18.000;    7.000
402.301; -102.300; -519.000; -397.000
402.428;    1.100;  528.000;  383.000
402.556; -203.275;-1188.000; -913.000
402.683;  -60.175;  -20.000;   -1.000
402.811;  -55.775;  -37.000; -206.000
402.938;  -46.725;   20.000;   27.000
403.066; -131.750; -574.000; -558.000
403.193;  -29.625;  299.000;  239.000
403.321; -107.575; -396.000; -574.000
403.448;  -37.950;   83.000;   27.000
403.575;  -55.850;  -90.000;  -46.000
403.703; -157.375; -732.000; -557.000
403.830; -113.725; -531.000; -496.000
403.957; -191.375;-1117.000;-1023.000
404.085;  -77.125;  -61.000; -172.000
404.212;  -51.825;  -50.000;   63.000
404.339; -106.775; -566.000; -306.000
404.467; -133.625; -612.000; -524.000
404.594;  -81.875; -287.000; -227.000
404.721; -152.050; -869.000; -764.000
404.848;  -65.750; -113.000; -202.000
404.976; -172.975; -856.000; -783.000
405.103;  -43.100;  -14.000;  -82.000
405.230;  -49.225;  190.000;  226.000
405.357;  -51.300;  117.000;   44.000
405.484;  -65.700;  -49.000;    5.000
405.612; -125.800; -548.000; -563.000
405.739; -128.125; -488.000; -243.000
405.866;   35.900;  669.000;  385.000
405.993;  -90.625; -398.000; -102.000
406.120; -162.725; -801.000; -887.000
406.247;  -98.375; -323.000; -342.000
406.374;   25.750;  540.000;  629.000
406.501; -149.325; -632.000; -702.000
406.628; -126.400; -621.000; -589.000
406.755; -146.000; -803.000; -620.000
406.882;  -83.725; -228.000; -277.000
407.009; -134.475; -719.000; -628.000
407.136; -103.625; -480.000; -401.000
407.263; -173.825; -939.000; -829.000
407.390; -137.875; -692.000; -614.000
407.517; -220.550;-1139.000;-1187.000
407.644; -100.200; -332.000; -256.000
407.771; -114.575; -249.000; -287.000
407.898;  -30.175;  168.000;  328.000
408.025; -117.950; -421.000; -313.000
408.151;  -47.350;   82.000;  153.000
408.278;  -95.475; -267.000; -216.000
408.405; -160.000; -931.000; -899.000
408.532; -122.500; -549.000; -542.000
408.659; -148.925; -677.000; -648.000
408.785; -231.650;-1298.000;-1170.000
408.912;  -84.525; -412.000; -296.000
409.039; -130.650; -610.000; -686.000
409.166; -129.900; -591.000; -555.000
409.292; -140.125; -571.000; -534.000
409.419; -143.200; -665.000; -649.000
409.546; -116.575; -431.000; -192.000
409.672; -144.675; -713.000; -545.000
409.799;  -60.600;  -36.000;   34.000
409.926;  -86.550; -180.000; -179.000
410.052; -213.675;-1127.000;-1091.000
410.179; -102.225; -368.000; -392.000
410.305;  -94.950; -375.000; -493.000
410.432;  -80.950; -220.000; -333.000
410.558; -117.825; -305.000; -380.000
410.685; -116.550; -688.000; -431.000
410.812; -118.725; -409.000; -588.000
410.938; -173.200; -964.000; -808.000
411.065; -137.375; -671.000; -645.000
411.191;  -73.525; -189.000; -174.000
411.317; -164.425; -823.000; -742.000
411.444;  -94.825; -317.000; -246.000
411.570;  -97.825; -339.000; -294.000
411.697; -151.050; -758.000; -752.000
411.823; -198.050; -989.000; -999.000
411.949;  -62.175;  -56.000;   17.000
412.076; -129.875; -539.000; -519.000
412.202; -162.775; -758.000; -757.000
412.329; -163.050; -798.000; -752.000
412.455; -147.725; -821.000; -657.000
412.581;  -65.475;  -15.000;  172.000
412.707; -115.400; -540.000; -457.000
412.834;  -50.225;  156.000;  219.000
412.960; -158.800; -785.000; -784.000
413.086; -158.225; -743.000; -701.000
413.212;   18.000;  604.000;  578.000
413.339; -176.975; -685.000; -701.000
413.465; -102.375; -364.000; -310.000
413.591; -164.050; -757.000; -474.000
413.717;  -99.200; -358.000; -366.000
413.843; -179.700; -839.000; -861.000
413.969; -102.425;  -47.000; -292.000
414.096; -145.350; -679.000; -679.000
414.222;  -47.125;  -33.000;   85.000
414.348; -146.075; -652.000; -385.000
414.474;  -55.250;   38.000;  -52.000
414.600;  -75.000; -126.000; -144.000
414.726;  -56.625;  -96.000;  -55.000
414.852; -111.400; -365.000; -342.000
414.978;  -49.000;  104.000;  -18.000
415.104;  -55.550;   38.000;   80.000
415.230; -104.025; -329.000; -330.000
415.356; -133.275; -409.000; -514.000
415.482;  -59.625;   13.000;  -35.000
415.608;  -91.675; -247.000; -323.000
415.734;  -41.850;   67.000;   38.000
415.860; -157.750; -875.000; -767.000
415.986; -140.150; -685.000; -607.000
416.111; -169.400; -798.000; -652.000
416.237; -121.925; -424.000; -571.000
416.363; -163.975; -765.000; -733.000
416.489;  -99.850; -324.000; -251.000
416.615; -164.350; -707.000; -742.000
416.741; -139.150; -677.000; -784.000
416.866; -149.225; -673.000; -736.000
416.992; -180.950; -801.000; -818.000
417.118;  -92.075;  -41.000;  -80.000
417.244; -149.475; -798.000; -531.000
417.369; -172.700; -801.000; -612.000
417.495; -100.375; -325.000; -254.000
417.621; -191.325;-1015.000; -803.000
417.746; -133.325; -579.000; -572.000
417.872;  -73.950; -254.000; -144.000
417.998; -134.200; -515.000; -530.000
418.123; -201.450;-1073.000; -845.000
418.249; -129.050; -512.000; -601.000
418.374; -189.875; -916.000; -824.000
418.500; -112.100; -383.000; -482.000
418.626;  -52.250;   70.000;  -59.000
418.751; -123.650; -549.000; -448.000
418.877; -159.175; -637.000; -643.000
419.002; -139.200; -688.000; -560.000
419.128; -181.350; -930.000; -721.000
419.253; -178.875; -967.000; -837.000
419.379; -124.350; -391.000; -338.000
419.504;   -5.850;  325.000;  415.000
419.629;  -90.550; -393.000; -212.000
419.755;  -95.175; -317.000; -254.000
419.880;  -97.000;  -98.000;   67.000
420.006;  -93.025; -280.000; -221.000
420.131; -147.925; -662.000; -775.000
420.256; -102.975; -315.000; -316.000
420.382; -148.825; -665.000; -687.000
420.507; -155.150; -649.000; -778.000
420.632; -106.550; -337.000; -339.000
420.758;  -78.500; -251.000; -425.000
420.883; -159.750; -876.000; -672.000
421.008; -151.425; -775.000; -619.000
421.133; -129.350; -509.000; -467.000
421.259;  -84.575; -325.000; -259.000
421.384; -160.925; -834.000; -693.000
421.509; -168.950;-1052.000; -862.000
421.634; -179.300; -936.000; -820.000
421.759; -111.675; -359.000; -327.000
421.885; -151.875; -717.000; -656.000
422.010; -130.675; -673.000; -542.000
422.135; -179.825; -695.000; -727.000
422.260;  -15.725;  340.000;  280.000
422.385;  -71.800;   12.000;  -98.000
422.510;  -35.200;  151.000;  -26.000
422.635;  -63.525;  -87.000;  -43.000
422.760; -146.150; -766.000; -791.000
422.885;  -43.425;  -57.000;  -80.000
423.010;  -64.000; -112.000; -169.000
423.135; -135.675; -481.000; -561.000
423.260;  -78.150; -150.000; -245.000
423.385;  -16.050;  476.000;  222.000
423.510;  -46.150;   71.000;  -22.000
423.635;  -45.825;  133.000;   45.000
423.760;   -8.850;  383.000;  328.000
423.885;  -22.675;  336.000;  391.000
424.010;  -49.600;  -68.000;  -13.000
424.135;  -76.475;    5.000;  -33.000
424.259; -125.575; -654.000; -457.000
424.384; -121.350; -279.000; -272.000
424.509; -102.975; -260.000; -186.000
424.634; -166.550; -761.000; -623.000
424.759; -138.650; -688.000; -544.000
424.883; -127.075; -506.000; -527.000
425.008; -125.775; -502.000; -410.000
425.133; -164.600; -679.000; -653.000
425.258; -139.650; -517.000; -381.000
425.382; -161.525; -867.000; -774.000
425.507; -143.575; -487.000; -543.000
425.632; -171.150; -802.000; -663.000
425.756;  -94.800; -256.000; -146.000
425.881; -175.250; -831.000; -857.000
426.006; -124.800; -604.000; -355.000
426.130; -145.225; -696.000; -508.000
426.255; -137.100; -611.000; -491.000
426.379;  -74.150; -189.000; -577.000
426.504;   30.725;  660.000;  544.000
426.629; -142.250; -519.000; -466.000
426.753;  -50.700;   64.000;  -46.000
426.878;  -94.150; -252.000; -288.000
427.002; -179.475; -651.000; -668.000
427.127;  -89.225;  -35.000; -158.000
427.251;   -3.625;  372.000;  401.000
427.375; -102.900; -191.000; -173.000
427.500; -146.725; -616.000; -610.000
427.624;  -98.025; -234.000; -400.000
427.749;  -92.800; -216.000; -225.000
427.873; -125.425; -499.000; -412.000
427.997;  -92.850; -222.000; -230.000
428.122;   22.325;  795.000;  703.000
428.246;    9.600;  433.000;  434.000
428.371; -179.475; -869.000; -773.000
428.495; -151.750; -624.000; -646.000
428.619;  -75.350; -186.000; -117.000
428.743;  -45.125;   65.000;  132.000
428.868; -174.500; -732.000; -643.000
428.992;  -97.475; -219.000; -326.000
429.116; -114.525; -329.000; -357.000
429.240;   -2.625;  419.000;  426.000
429.365; -127.425; -454.000; -574.000
429.489; -145.075; -638.000; -647.000
429.613;  -85.750; -236.000; -177.000
429.737; -120.300; -563.000; -432.000
429.861; -114.850; -247.000; -133.000
429.985; -115.400; -425.000; -305.000
430.109; -192.800; -770.000; -908.000
430.234;  -42.275;   76.000;  -50.000
430.358; -115.425; -250.000; -160.000
430.482; -167.375; -672.000; -564.000
430.606; -142.675; -655.000; -375.000
430.730; -115.750; -437.000; -388.000
430.854; -181.500; -909.000; -835.000
430.978; -158.600; -795.000; -764.000
431.102; -138.650; -499.000; -422.000
431.226; -175.200; -874.000; -815.000
431.350;  -12.575;  345.000;  422.000
431.474; -135.275; -661.000; -373.000
431.597; -200.875;-1060.000; -848.000
431.721;  -89.550; -276.000; -267.000
431.845; -177.225; -704.000; -472.000
431.969; -107.950; -304.000; -349.000
432.093; -121.325; -395.000; -317.000
432.217;  -45.125;   32.000;   82.000
432.341; -138.500; -523.000; -518.000
432.464;  -61.800;   96.000;   40.000
432.588; -134.050; -401.000; -329.000
432.712;  -81.875;  -52.000;  -52.000
432.836;  -30.575;  213.000;  263.000
432.959; -106.150; -372.000; -311.000
433.083;  -75.700;   11.000;    2.000
433.207;   -1.800;  285.000;  930.000
433.330; -108.175; -391.000; -200.000
433.454; -147.750; -654.000; -638.000
433.578;    5.400;  583.000;  278.000
433.701; -155.150; -623.000; -675.000
433.825; -115.175; -292.000; -299.000
433.949;  -72.475;   28.000;  -72.000
434.072; -101.900; -410.000; -323.000
434.196;  -90.950; -309.000; -117.000
434.319; 3772.900;25482.000;25124.000
434.443; -152.600; -656.000; -603.000
434.566;  -50.825;  281.000;   62.000
434.690; -148.150; -637.000; -383.000
434.813;  -96.000; -251.000; -173.000
434.937; -147.675; -569.000; -696.000
435.060; -113.025; -423.000; -332.000
435.184; -111.500; -492.000; -217.000
435.307;  -52.350;  159.000;  102.000
435.431;  -43.350;  -40.000;   24.000
435.554; -107.150; -399.000; -240.000
435.677; -111.575; -350.000; -258.000
435.801;  -68.050;  -25.000;   49.000
435.924;  -69.900;    1.000;  -67.000
436.048; -188.900;-1019.000; -732.000
436.171;  -98.525; -240.000;  -66.000
436.294; -110.075; -248.000; -229.000
436.417; -190.450; -963.000; -849.000
436.541; -177.600; -814.000; -840.000
436.664;  -77.150; -242.000; -316.000
436.787;  -74.525;   13.000;  113.000
436.910; -143.900; -792.000; -422.000
437.034;  -55.750;  142.000;  143.000
437.157;  -48.925;  -11.000;    0.000
437.280; -122.050; -392.000; -292.000
437.403; -190.925; -982.000; -869.000
437.526; -190.875; -903.000; -865.000
437.649; -138.075; -505.000; -332.000
437.772; -155.250; -692.000; -540.000
437.896;   22.525;  700.000;  544.000
438.019; -152.550; -758.000; -503.000
438.142; -142.200; -596.000; -506.000
438.265; -166.175; -639.000; -670.000
438.388; -119.700; -520.000; -410.000
438.511; -153.625; -597.000; -394.000
438.634; -106.225; -247.000; -125.000
438.757; -165.500; -693.000; -619.000
438.880;  -74.750;  -34.000;  -57.000
439.003; -118.200; -417.000; -437.000
439.126; -104.375; -287.000; -167.000
439.248;  -68.050;  -98.000; -139.000
439.371;  -76.700;    9.000;  -53.000
439.494;   11.450;  510.000;  439.000
439.617;  -76.125;   65.000;  -88.000
439.740; -195.825; -968.000; -816.000
439.863; -170.275; -755.000; -595.000
439.986; -140.175; -476.000; -431.000
440.108;  -79.450; -161.000; -112.000
440.231; -187.925; -950.000; -836.000
440.354;  -76.900;  -64.000; -150.000
440.477; -146.850; -566.000; -542.000
440.599; -120.575; -200.000; -225.000
440.722; -150.500; -709.000; -586.000
440.845;   37.975;  751.000;  928.000
440.968; -127.925; -415.000; -311.000
441.090;  -85.275; -199.000;  -33.000
441.213; -186.650;-1021.000; -825.000
441.336;  -63.375; -159.000;   -5.000
441.458; -119.475; -549.000; -396.000
441.581; -161.100; -628.000; -629.000
441.703; -107.800; -152.000;   13.000
441.826; -145.000; -557.000; -400.000
441.948;  -71.075;   56.000;   51.000
442.071;   21.975;  555.000;  424.000
442.193; -138.700; -531.000; -485.000
442.316;  -47.250;  152.000;   97.000
442.438; -101.550; -233.000;  -10.000
442.561;  -34.250;  272.000;  262.000
442.683; -178.575; -809.000; -522.000
442.806;  -70.900;   -8.000;   74.000
442.928; -186.875; -859.000; -604.000
443.051; -129.500; -577.000; -373.000
443.173; -134.575; -341.000; -339.000
443.295; -137.775; -263.000; -371.000
443.418;  -96.925; -321.000;  -29.000
443.540;  -64.800; -106.000;   -4.000
443.662; -166.475; -563.000; -465.000
443.785;  -39.650;  335.000;  199.000
443.907; -134.950; -362.000; -208.000
444.029; -148.025; -767.000; -494.000
444.152; -175.775; -644.000; -554.000
444.274;  -60.725;  -18.000;  -24.000
444.396; -144.950; -461.000; -221.000
444.518; -149.100; -691.000; -454.000
444.640; -134.800; -268.000; -111.000
444.763;  -29.800;  388.000;  249.000
444.885; -141.725; -432.000; -392.000
445.007;  -63.950;   35.000;   86.000
445.129; -149.350; -610.000; -515.000
445.251; -126.825; -372.000; -439.000
445.373; -165.050; -537.000; -386.000
445.495;  -34.625;  242.000;  350.000
445.617;   22.900;  853.000;  753.000
445.739; -107.850; -215.000;  -97.000
445.861;  -98.600; -245.000; -112.000
445.984; -101.675; -267.000; -101.000
446.105; -129.900; -418.000; -251.000
446.227;  -91.300; -176.000;  -19.000
446.349; -137.175; -358.000; -249.000
446.471; -148.950; -615.000; -448.000
446.593; -109.025; -316.000;   19.000
446.715;  -73.125;  -67.000;   41.000
446.837;   31.450;  697.000;  832.000
446.959; -127.700; -457.000; -478.000
447.081; -152.650; -628.000; -518.000
447.203;   31.750;  862.000;  834.000
447.325; -108.200; -270.000;   42.000
447.446;  -34.375;  286.000;  530.000
447.568; -209.850; -921.000; -803.000
447.690; -120.425; -236.000; -245.000
447.812; -180.075; -798.000; -519.000
447.933;  -61.425;  155.000;  127.000
448.055; -102.025; -306.000; -261.000
448.177;  -52.150;   31.000;   79.000
448.299; -209.250; -935.000; -727.000
448.420;  -52.425;  -25.000;  159.000
448.542;  -82.650;   -3.000;   33.000
448.664;  -37.300;  109.000;  322.000
448.785;  -58.175;  265.000;   83.000
448.907; -132.475; -614.000; -353.000
449.028; -159.275; -771.000; -471.000
449.150;   10.425;  492.000;  589.000
449.272; -205.850;-1044.000; -913.000
449.393;    8.975;  612.000;  694.000
449.515; -185.425; -634.000; -581.000
449.636; -104.800; -264.000; -155.000
449.758;   24.200;  763.000;  622.000
449.879; -129.375; -498.000; -396.000
450.001; -110.125; -149.000;  -49.000
450.122;  -69.050;  -95.000;  162.000
450.244;  -54.525;   37.000;  364.000
450.365; -119.400; -495.000; -301.000
450.486;  -65.775;   80.000;  268.000
450.608;  -30.350;  393.000;  326.000
450.729;  -10.325;  578.000;  645.000
450.850; -154.400; -574.000; -466.000
450.972; -168.800; -552.000; -389.000
451.093;  -22.525;  190.000;  588.000
451.214; -132.575; -516.000; -337.000
451.336;   33.025;  773.000;  579.000
451.457;  -27.925;  264.000;  393.000
451.578;  -90.400; -118.000;  -74.000
451.699; -163.350; -546.000; -540.000
451.821; -108.725; -284.000;  -50.000
451.942;  -35.750;  278.000;  285.000
452.063;  -35.575;  228.000;  419.000
452.184; -110.925;  -54.000;  -49.000
452.305;  -45.825;  103.000;  170.000
452.427; -128.300; -549.000; -301.000
452.548;  -74.275;   23.000;   79.000
452.669;  -97.150; -257.000;  -89.000
452.790;  -92.625;    3.000;  -18.000
452.911;  -50.025;  195.000;  259.000
453.032; -107.900; -289.000;  -60.000
453.153;  -80.850;  -29.000;   81.000
453.274;   33.650;  737.000;  868.000
453.395;  -67.900;  -51.000;  175.000
453.516;  102.200; 1317.000; 1388.000
453.637; -118.225; -205.000; -150.000
453.758;  -69.625;   15.000;   69.000
453.879; -139.150; -462.000; -250.000
454.000;   63.100; 1086.000;  948.000
454.121; -149.525; -554.000; -326.000
454.242; -145.750; -599.000; -383.000
454.362;  -92.650;  -99.000;  114.000
454.483; -110.125; -309.000; -229.000
454.604;   -0.025;  512.000;  580.000
454.725; -173.450; -627.000; -555.000
454.846; -142.675; -474.000; -406.000
454.967;  -47.800;  230.000;  539.000
455.087;  -54.300;  179.000;  153.000
455.208;   -2.075;  554.000;  856.000
455.329;  -83.950;  -22.000;   82.000
455.450;  -13.450;  473.000;  633.000
455.570; -124.075; -234.000; -211.000
455.691;  -70.125;  201.000;  407.000
455.812; -114.750; -270.000;  -92.000
455.932;  -67.750;  107.000;  -97.000
456.053;  -98.075;   36.000;   24.000
456.173; -121.925; -433.000; -355.000
456.294; -143.100; -476.000; -303.000
456.415;  -64.600;  -73.000;   70.000
456.535;  -58.925;  297.000;  273.000
456.656;  -64.700;  132.000;  240.000
456.776;  -86.975;    3.000;  298.000
456.897;  -21.775;  308.000;  513.000
457.017; -110.125; -153.000;   -3.000
457.138; -144.075; -402.000; -249.000
457.258;  -59.200;  263.000;  224.000
457.379;  -36.725;  509.000;  521.000
457.499;  -37.925;  443.000;  432.000
457.620; -148.200; -407.000; -231.000
457.740; -115.975; -132.000;  -11.000
457.860;  -68.925;   87.000;   44.000
457.981;  -86.975;  132.000;  124.000
458.101; -103.075;  -89.000;   40.000
458.221;  -36.525;  336.000;  402.000
458.342;  -80.000;   -4.000;  -37.000
458.462;  -32.775;  617.000;  352.000
458.582; -116.550; -302.000; -294.000
458.703;  -77.125;  303.000;  154.000
458.823;  -94.550;   22.000;  163.000
458.943;  -32.075;  341.000;  467.000
459.063;  -74.000; 1124.000;  192.000
459.183;  -62.275;  328.000;  313.000
459.304;  -26.675;  315.000;  517.000
459.424; -102.100; -246.000;  -89.000
459.544;  -16.925;  388.000;  764.000
459.664;  -11.300;  499.000;  506.000
459.784;   42.125; 1004.000; 1175.000
459.904;    9.900;  867.000;  744.000
460.024;   16.625;  867.000;  684.000
460.144;  -29.225;  449.000;  554.000
460.264;  -39.975;  515.000;  327.000
460.385; -106.725; -145.000; -119.000
460.505;   30.025;  905.000;  858.000
460.625; -112.400;  -17.000;  -68.000
460.745;  -35.925;  396.000;  541.000
460.864;  -61.875;  153.000;  469.000
460.984;  -33.800;  499.000;  573.000
461.104;   97.675; 1656.000; 1775.000
461.224;    5.000;  657.000;  650.000
461.344;  -58.100;  431.000;  360.000
461.464;  -52.500;  258.000;  513.000
461.584;  -52.250;  283.000;  466.000
461.704;  -73.800;   58.000;  108.000
461.824;  -76.500;  238.000;  259.000
461.943;  -62.625;  191.000;  130.000
462.063; -100.525;    2.000;  324.000
462.183;    2.975;  639.000;  717.000
462.303;   74.450; 1678.000; 1230.000
462.422;   -1.950;  781.000;  840.000
462.542;  -85.350;  271.000;  391.000
462.662;  -31.550;  353.000;  380.000
462.782;   -9.825;  833.000;  572.000
462.901;  -25.600;  545.000;  717.000
463.021;  119.925; 1702.000; 1638.000
463.141;  -46.125;  337.000;  770.000
463.260;  -37.800;  614.000;  474.000
463.380;   -6.475;  902.000;  884.000
463.499;  -44.675;  342.000;  332.000
463.619;  -46.675;  581.000;  559.000
463.738;   96.475; 1644.000;  903.000
463.858;   -9.850;  657.000;  811.000
463.978;  -34.975;  542.000;  396.000
464.097;   29.400;  921.000; 1114.000
464.217;   45.225; 1196.000; 1143.000
464.336;   64.175; 1068.000; 1130.000
464.455;  -53.775;  328.000;  659.000
464.575;  -17.350;  597.000;  602.000
464.694;   49.900; 1204.000; 1179.000
464.814;   22.100; 1190.000; 1138.000
464.933;   31.150; 1095.000; 1027.000
465.052;   54.550; 1412.000; 1054.000
465.172;    7.950;  922.000;  799.000
465.291;   70.375; 1376.000; 1320.000
465.410;  -14.800;  462.000;  735.000
465.530;   63.475; 1355.000; 1310.000
465.649;   35.000; 1209.000; 1273.000
465.768;  101.825; 1673.000; 1508.000
465.888;   14.675;  941.000; 1174.000
466.007;   93.025; 1335.000; 1440.000
466.126;  -12.875;  721.000;  641.000
466.245;   13.350; 1176.000; 1187.000
466.364;    7.275;  950.000; 1060.000
466.484;   35.000; 1024.000; 1213.000
466.603;   13.825; 1101.000; 1222.000
466.722;   94.250; 1490.000; 1769.000
466.841;   40.650; 1151.000; 1401.000
466.960;   27.875; 1069.000;  972.000
467.079;  117.700; 1971.000; 1786.000
467.198;   36.750; 1238.000; 1181.000
467.317;   68.750; 1768.000; 1162.000
467.436;   55.250; 1709.000; 1261.000
467.555;  128.125; 1796.000; 1746.000
467.674;   47.925; 1227.000; 1329.000
467.793;   28.575; 1376.000; 1374.000
467.912;   53.500; 1658.000; 1539.000
468.031;  104.625; 2038.000; 1930.000
468.150;  110.700; 1842.000; 1837.000
468.269;  181.150; 2313.000; 2090.000
468.388;  180.750; 2168.000; 2339.000
468.507;  256.025; 2884.000; 2903.000
468.626;  221.200; 2555.000; 2541.000
468.744;  123.375; 2018.000; 2174.000
468.863;  193.550; 2312.000; 2523.000
468.982;   63.775; 1503.000; 1555.000
469.101;  204.250; 2788.000; 2692.000
469.220;  153.000; 2333.000; 2176.000
469.338;  241.100; 2935.000; 3051.000
469.457;  177.025; 2719.000; 2545.000
469.576;  339.325; 3953.000; 3784.000
469.695;  214.875; 2877.000; 3066.000
469.813;  383.675; 4148.000; 4192.000
469.932;  362.100; 4255.000; 4485.000
470.051;  337.675; 4075.000; 4161.000
470.169;  392.150; 4470.000; 4338.000
470.288;  420.100; 4700.000; 4809.000
470.406;  447.350; 5059.000; 5194.000
470.525;  542.750; 6101.000; 5787.000
470.644;  621.875; 6847.000; 6794.000
470.762;  834.750; 8397.000; 7873.000
470.881;  852.175; 8651.000; 8464.000
470.999;  981.500; 9685.000; 9151.000
471.118; 1075.950;11174.000;10711.000

