
Integration time [ms]: 100.000
Averaging Nr. [scans]: 40
Smoothing Nr. [pixels]: 0
Data measured with spectrometer [name]: 2101012U2
Wave   ;Sample   ;Dark     ;Reference
[nm]   ;[counts] ;[counts] ;[counts] 

197.733;   70.800;  516.000;  404.000
197.879;  -90.600; -610.000; -634.000
198.025;  -50.975; -475.000; -420.000
198.171;  -74.075; -602.000; -612.000
198.317;  -21.225; -401.000; -316.000
198.463;  -59.575; -655.000; -404.000
198.609;   17.300;  181.000; -137.000
198.755;  -76.625; -644.000; -410.000
198.901;  -60.075; -505.000; -424.000
199.047;  -81.925; -615.000; -488.000
199.193;  -25.625; -230.000; -468.000
199.339;  -42.950; -222.000; -369.000
199.485;   39.850;  330.000;  271.000
199.631;    1.175;  227.000;  310.000
199.777;  -40.975; -466.000; -398.000
199.923;  -74.600; -610.000; -424.000
200.069;   17.400; -141.000;  -58.000
200.215;   48.525;  128.000;  453.000
200.361;   48.675;  243.000;  477.000
200.507;  -65.875; -600.000; -373.000
200.653;  -17.900; -371.000; -194.000
200.798;  -36.550; -215.000; -125.000
200.944;   -0.225; -146.000;  -41.000
201.090;   21.725;   61.000;  222.000
201.236;   -4.725; -116.000; -158.000
201.382;  129.850;  874.000;  903.000
201.528;    9.600;  -58.000;  -48.000
201.674;  -59.175; -386.000; -293.000
201.819;  -64.850; -540.000; -439.000
201.965;  -80.075; -699.000; -447.000
202.111;  -12.825; -273.000; -226.000
202.257;  -42.700; -250.000; -238.000
202.402;   14.325;   13.000;  -36.000
202.548;  -25.550; -169.000; -116.000
202.694;   86.350;  410.000; -183.000
202.840;  -73.075; -603.000; -531.000
202.985;  -66.950; -681.000; -639.000
203.131; -110.275; -832.000; -666.000
203.277;  -21.750; -199.000; -262.000
203.423;  -67.675; -434.000; -520.000
203.568;  -32.300; -462.000; -237.000
203.714;  -76.850; -535.000; -542.000
203.860;  -58.850; -682.000; -641.000
204.005;   17.600;  112.000;  167.000
204.151;   76.925;  561.000;  556.000
204.296;  -54.300; -354.000; -221.000
204.442;  -73.250; -600.000; -547.000
204.588;  -73.150; -592.000; -579.000
204.733;   22.450;  178.000;  168.000
204.879; -122.325;-1018.000; -822.000
205.025;   21.225;  -99.000;  126.000
205.170;  -20.800;  -17.000;   94.000
205.316;   82.225;  438.000;  661.000
205.461;  -92.525; -698.000; -554.000
205.607;   88.625;  609.000;  665.000
205.752;  -85.000; -626.000; -551.000
205.898;  -47.625; -501.000; -391.000
206.043;  -76.575; -578.000; -506.000
206.189;  -43.575; -243.000; -285.000
206.334;   68.450;  554.000;  606.000
206.480;   72.800;  409.000;  239.000
206.625;  -91.800; -529.000; -552.000
206.771;  -30.200; -451.000; -373.000
206.916;  -40.325; -210.000; -537.000
207.062;  -53.050; -545.000; -591.000
207.207;  -66.975; -546.000; -443.000
207.353;   57.450;  185.000;  460.000
207.498;    3.325;  196.000;   85.000
207.643;  -43.625; -501.000; -370.000
207.789; -130.700;-1069.000; -910.000
207.934;  -86.275; -665.000; -713.000
208.080;  -31.950; -154.000;   66.000
208.225;   -1.700;  -22.000;  -57.000
208.370;  -86.325; -727.000; -619.000
208.516;  -67.925; -741.000; -487.000
208.661;  -27.575; -127.000;  -69.000
208.806;  -31.250; -165.000; -171.000
208.952; -128.550;-1044.000; -731.000
209.097;   84.275;  378.000;  349.000
209.242;  -52.925; -307.000; -382.000
209.387;   79.900;  392.000;  350.000
209.533;  -56.600; -321.000; -350.000
209.678;   73.600;  472.000;  543.000
209.823;  -60.650; -408.000; -310.000
209.969;  -94.725; -860.000; -757.000
210.114; -102.600; -907.000; -719.000
210.259;  -97.225; -939.000; -889.000
210.404;   -7.700; -171.000;  103.000
210.549;   24.600;  108.000;    3.000
210.695;  -16.600;   -3.000;  -95.000
210.840;   32.975;   94.000;   67.000
210.985;  -60.475; -484.000; -303.000
211.130;   67.875;  268.000;  406.000
211.275;    7.850;  207.000;  199.000
211.420;  -53.875; -300.000; -289.000
211.566;  -86.425; -536.000; -489.000
211.711;   25.550;  218.000;  157.000
211.856;  -69.600; -545.000; -519.000
212.001;   11.050;  151.000;   44.000
212.146;   14.050;  153.000;   49.000
212.291;  -19.325; -210.000; -186.000
212.436;  -32.050; -280.000;   -6.000
212.581;  -78.675; -685.000; -653.000
212.726;  -72.550; -487.000; -538.000
212.871;  -42.500; -552.000; -217.000
213.016; -158.075;-1172.000;-1029.000
213.161;   68.650;  406.000;  291.000
213.306;  -84.275; -435.000; -577.000
213.451;  -96.000; -778.000; -689.000
213.596;  -47.050; -455.000; -347.000
213.741;  -62.825; -448.000; -538.000
213.886;  -82.500; -498.000; -517.000
214.031;  -12.650; -294.000; -124.000
214.176;  -55.550; -408.000; -341.000
214.321;   -8.700; -296.000; -157.000
214.466;  -24.900; -163.000;  -43.000
214.611;    5.775;  -61.000;  -10.000
214.756; -119.275; -948.000; -858.000
214.901;  -11.525; -388.000; -226.000
215.046; -128.600; -797.000; -825.000
215.191;   19.250;  128.000;   35.000
215.336;  -22.375; -157.000;  -19.000
215.480;  -62.950; -684.000; -505.000
215.625;   -2.075; -175.000;  -19.000
215.770;  -64.550; -757.000; -662.000
215.915;   -4.500;   -5.000;  -97.000
216.060;   -2.225; -113.000;  -21.000
216.205; -111.375; -731.000; -779.000
216.349;  -72.175; -470.000; -533.000
216.494; -136.450; -939.000; -867.000
216.639; -108.200; -823.000; -888.000
216.784;  -85.175; -577.000; -525.000
216.929;   54.275;  392.000;  281.000
217.073;  -10.425; -244.000;  -31.000
217.218;    6.475;   78.000;  -47.000
217.363; -103.250; -656.000; -618.000
217.507;  -69.025; -623.000; -588.000
217.652; -120.325; -845.000; -874.000
217.797;  -79.100; -708.000; -659.000
217.942; -109.300; -856.000; -720.000
218.086;   70.250;  608.000;  539.000
218.231;  -33.950; -174.000;  -26.000
218.376;  -27.700; -337.000; -229.000
218.520;  -11.625;  -41.000;   96.000
218.665;  -22.975; -338.000; -204.000
218.810;  -42.000; -275.000; -233.000
218.954;   20.200;  201.000;   35.000
219.099; -110.875; -713.000; -963.000
219.243;  -56.975; -589.000; -554.000
219.388;  -27.350; -264.000; -136.000
219.532;   -4.050; -116.000; -116.000
219.677;  -83.000; -564.000; -521.000
219.822;    1.350;   33.000;   89.000
219.966;   -4.325;   17.000;  -99.000
220.111;  -25.350; -328.000;  -40.000
220.255; -115.150; -797.000; -750.000
220.400;  -11.425; -180.000; -146.000
220.544;  -79.650; -516.000; -450.000
220.689;  -55.525; -422.000; -451.000
220.833;  -18.725; -123.000;  -58.000
220.978;  -36.025; -393.000; -563.000
221.122;   17.600;  319.000;  307.000
221.267; -114.500; -906.000; -837.000
221.411;  -68.325; -478.000; -394.000
221.555;   -0.175; -104.000;  -23.000
221.700;  -41.350; -329.000; -222.000
221.844;   35.050;  255.000;  272.000
221.989;  -50.725; -328.000; -311.000
222.133;  -26.550; -289.000; -307.000
222.277;  -15.725;    5.000;   78.000
222.422;   21.800;  227.000;  113.000
222.566;  -41.525; -381.000; -214.000
222.711;  -47.050; -414.000; -479.000
222.855;  -62.350; -643.000; -586.000
222.999;  -64.675; -642.000; -717.000
223.144;  -38.950; -195.000; -194.000
223.288;   54.175;  423.000;  251.000
223.432;    8.225;  184.000;  230.000
223.576;   23.975;  152.000;  -21.000
223.721;   34.175;  364.000;  273.000
223.865;  -49.200; -472.000; -475.000
224.009;  187.175; 1673.000; 1631.000
224.153;  -72.450; -660.000; -671.000
224.298;  -66.750; -531.000; -489.000
224.442;  -15.200;  -74.000;  -33.000
224.586;  -24.025; -169.000; -106.000
224.730;  -92.050; -858.000; -670.000
224.875; -120.875; -739.000; -688.000
225.019;    8.650;  102.000;  188.000
225.163;   42.775;  208.000;  341.000
225.307;   26.425;   97.000;  -91.000
225.451;   42.650;  360.000;  481.000
225.595;   39.200;  264.000;  176.000
225.739;  -31.000; -170.000;  -94.000
225.884;    7.350;   86.000;    5.000
226.028;  -96.075; -760.000; -626.000
226.172;  -21.575; -260.000; -273.000
226.316; -122.225; -941.000; -902.000
226.460;  -59.050; -645.000; -493.000
226.604;  -59.075; -406.000; -400.000
226.748;  -94.800; -836.000; -733.000
226.892;  -45.425; -227.000; -181.000
227.036;  -45.650; -537.000; -447.000
227.180;  -65.025; -551.000; -375.000
227.324;  -57.200; -561.000; -580.000
227.468; -108.575; -819.000; -717.000
227.612;    7.450;  242.000;  -28.000
227.756;  -89.250; -845.000; -698.000
227.900;   43.625;  342.000;  441.000
228.044;  -71.050; -509.000; -290.000
228.188;   69.900;  448.000;  568.000
228.332;  -92.900; -546.000; -472.000
228.476;  -33.675; -223.000; -149.000
228.620;  -42.325; -210.000; -150.000
228.764;   66.600;  431.000;  349.000
228.908;  -23.700; -155.000;   30.000
229.052;  -50.175; -615.000; -528.000
229.195;  -25.450; -172.000;   13.000
229.339;  -29.300; -235.000; -305.000
229.483;  -34.000;    5.000; -162.000
229.627;    8.650; -156.000;  139.000
229.771;  -48.425; -218.000; -294.000
229.915;   16.450;  230.000;   79.000
230.059;  -92.600; -648.000; -663.000
230.202;  -38.600; -370.000; -317.000
230.346;  -33.050; -107.000;  107.000
230.490;  -59.650; -489.000; -521.000
230.634; -106.000; -736.000; -553.000
230.777;   87.050;  478.000;  509.000
230.921;  -54.925; -450.000; -359.000
231.065;  -34.675; -246.000; -286.000
231.209;   27.275;  261.000;  265.000
231.352;   25.025;   54.000;   40.000
231.496;   12.900;  568.000;  188.000
231.640;  -77.500; -693.000; -621.000
231.783;   61.900;  546.000;  525.000
231.927;  -37.675; -294.000; -365.000
232.071; -132.200; -962.000; -736.000
232.214; -102.775; -980.000; -764.000
232.358; -108.825; -683.000; -599.000
232.502;   16.575;  -19.000;    7.000
232.645; -145.100;-1090.000; -927.000
232.789;  -16.425; -257.000; -218.000
232.933;  -44.850; -407.000; -224.000
233.076; -108.075;-1038.000; -897.000
233.220; -115.475; -752.000; -777.000
233.363;  -75.200; -669.000; -477.000
233.507;   34.675;  371.000;  129.000
233.650;  -87.425; -764.000; -834.000
233.794;   38.825;  438.000;  461.000
233.938;  -63.875; -530.000; -362.000
234.081;  -25.500;  -93.000;   31.000
234.225;  -64.350; -631.000; -539.000
234.368; -117.800; -773.000; -723.000
234.512;  -28.975; -385.000; -299.000
234.655;  -92.450; -582.000; -555.000
234.798;  -56.550; -493.000; -466.000
234.942; -132.300; -884.000;-1002.000
235.085;  -74.400; -651.000; -443.000
235.229;  -78.525; -405.000; -410.000
235.372;  -41.150; -247.000; -191.000
235.516;  -61.325; -397.000; -321.000
235.659;   16.550;   92.000;  121.000
235.802;  -26.600;  -38.000;  -22.000
235.946;   23.325;  335.000;  215.000
236.089;   13.700;  126.000;  250.000
236.233;   50.450;  275.000;  298.000
236.376;  -45.425; -235.000; -378.000
236.519;  -34.825; -297.000; -319.000
236.663;  -22.075; -215.000; -117.000
236.806; -126.575;-1029.000; -999.000
236.949;   45.950;  543.000;  431.000
237.092;   53.175;  412.000;  391.000
237.236;  -86.500; -589.000; -502.000
237.379;   85.950;  352.000;  428.000
237.522; -121.500; -879.000; -768.000
237.666;  -15.950; -271.000;   18.000
237.809; -123.575; -851.000; -823.000
237.952;   45.575;  469.000;  271.000
238.095;  -73.350; -447.000; -442.000
238.238;   81.875;  688.000;  700.000
238.382;  -15.650;  166.000;  103.000
238.525;  -57.375; -598.000; -511.000
238.668; -147.400;-1060.000; -985.000
238.811;  -70.200; -638.000; -643.000
238.954;  -66.425; -483.000; -334.000
239.097;  100.375;  617.000;  664.000
239.241;   11.825;  394.000;  326.000
239.384;  -36.675; -254.000; -214.000
239.527;  -57.025; -424.000; -224.000
239.670; -139.250; -994.000;-1091.000
239.813; -117.950; -696.000; -658.000
239.956;   84.625;  579.000;  473.000
240.099; -118.000; -778.000; -725.000
240.242;   66.025;  428.000;  432.000
240.385;   37.500;  466.000;  450.000
240.528;  -64.675; -706.000; -473.000
240.671;   -1.900;  189.000;  134.000
240.814;  -30.625; -441.000; -158.000
240.957;  -98.850; -767.000; -578.000
241.100;  -94.850; -779.000; -755.000
241.243; -145.175;-1234.000; -893.000
241.386;  -60.675; -508.000; -379.000
241.529;  -81.400; -735.000; -547.000
241.672;  -54.250; -566.000; -495.000
241.815; -118.650; -832.000; -808.000
241.958;  -20.275; -125.000; -182.000
242.101;  -68.125; -545.000; -390.000
242.244;  -35.350; -270.000; -325.000
242.387;  -48.800; -304.000; -246.000
242.530;   54.425;  470.000;  134.000
242.673;  -46.125; -381.000; -309.000
242.815; -113.750; -925.000; -899.000
242.958;  -69.750; -482.000; -381.000
243.101;   29.075;  132.000;  187.000
243.244;  -87.225; -564.000; -521.000
243.387;  -35.200; -313.000; -316.000
243.530; -109.550; -657.000; -674.000
243.672;    5.500;   43.000;  -92.000
243.815;  -63.100; -355.000; -283.000
243.958;    8.450;   98.000;  -26.000
244.101;  -13.850;   59.000;  -16.000
244.243;   -3.275;  -47.000;  101.000
244.386; -113.425; -761.000; -630.000
244.529;  -19.750; -132.000; -139.000
244.672; -169.225;-1154.000; -951.000
244.814;  -91.200; -621.000; -794.000
244.957;  -59.100; -380.000; -304.000
245.100;  -74.200; -489.000; -489.000
245.242;  -55.150; -387.000; -374.000
245.385;   -3.725;  -59.000;  -39.000
245.528; -118.700; -871.000; -705.000
245.670;   92.525;  612.000;  634.000
245.813;  -82.000; -599.000; -547.000
245.956;  -24.975; -324.000; -275.000
246.098;  -78.950; -508.000; -650.000
246.241;   16.325;  194.000;   48.000
246.383;  -10.150; -119.000;  -73.000
246.526;  -72.825; -454.000; -525.000
246.669; -123.450; -889.000; -780.000
246.811;   20.000;  172.000;   -1.000
246.954;  -63.625; -512.000; -426.000
247.096;  -14.275;  -84.000;   -6.000
247.239;  -72.225; -482.000; -445.000
247.381;  -63.350; -647.000; -488.000
247.524;   85.900;  645.000;  679.000
247.666;   -2.475;   58.000;   11.000
247.809; -109.575; -887.000; -691.000
247.951;   -1.400;  -75.000;  138.000
248.094;   37.875;  432.000;  308.000
248.236; -147.450;-1262.000;-1238.000
248.378;    8.325; -356.000;  -81.000
248.521;  -13.050; -334.000; -337.000
248.663;  -32.525; -236.000; -267.000
248.806;  -14.000; -300.000; -266.000
248.948;  -94.350; -886.000; -763.000
249.090;  -24.400; -428.000; -398.000
249.233;  -46.350; -344.000; -381.000
249.375;  -65.600; -474.000; -451.000
249.518;  -17.350;  -83.000; -133.000
249.660;    4.900; -103.000;    3.000
249.802; -169.250;-1303.000;-1189.000
249.945;  -72.175; -612.000; -540.000
250.087; -107.575; -834.000; -768.000
250.229;  -40.350; -362.000; -480.000
250.371;  -83.150; -494.000; -439.000
250.514;  -43.350; -310.000; -244.000
250.656;  -21.650;   69.000;  102.000
250.798; -104.225; -849.000; -800.000
250.940;  -63.500; -322.000; -322.000
251.083;  -22.525; -335.000; -111.000
251.225;   56.925;  338.000;  310.000
251.367;  -32.200; -274.000; -373.000
251.509;  -42.100; -265.000; -210.000
251.651;  -93.300; -731.000; -671.000
251.794;   45.000;  538.000;  632.000
251.936;  -98.850; -821.000; -747.000
252.078;  -83.675; -540.000; -461.000
252.220;  -52.200; -645.000; -477.000
252.362;   78.075;  344.000;  462.000
252.504;  -54.675; -677.000; -584.000
252.646; -127.525; -875.000; -722.000
252.788;   15.625;   14.000; -128.000
252.931;  -36.925; -257.000; -253.000
253.073;  -52.150; -376.000; -317.000
253.215;   -7.750;  141.000;  122.000
253.357;   -5.875;   82.000; -153.000
253.499;  -58.400; -374.000; -234.000
253.641;  -74.600; -749.000; -594.000
253.783;  -93.125; -609.000; -527.000
253.925;  -77.700; -586.000; -591.000
254.067; -107.325; -744.000; -667.000
254.209;  -28.350; -391.000; -259.000
254.351; -142.475; -865.000; -883.000
254.493;  -54.725; -441.000; -417.000
254.635; -136.200; -936.000; -818.000
254.777;  -93.600; -752.000; -687.000
254.918;  -77.025; -512.000; -430.000
255.060;  -53.825; -551.000; -395.000
255.202;  -60.300; -473.000; -261.000
255.344;  -57.775; -658.000; -455.000
255.486;  -81.600; -471.000; -406.000
255.628; -100.125; -780.000; -781.000
255.770;  -93.150; -676.000; -536.000
255.912;  -64.375; -559.000; -468.000
256.053;  -95.175; -730.000; -508.000
256.195;  164.350; 1008.000;  903.000
256.337; -104.850; -861.000; -595.000
256.479;   69.125;  532.000;  416.000
256.621;  -57.125; -394.000; -212.000
256.762;  -83.775; -789.000; -742.000
256.904;   43.275;  485.000;  487.000
257.046;  -40.025; -381.000; -271.000
257.188;  -49.500; -351.000; -264.000
257.329;  -63.900; -525.000; -464.000
257.471; -123.900; -939.000; -807.000
257.613;  -61.925; -584.000; -498.000
257.755; -145.025;-1073.000; -982.000
257.896;   34.050;  286.000;  392.000
258.038;  -82.925; -403.000; -352.000
258.180;  -27.950; -354.000; -279.000
258.321; -100.325; -581.000; -457.000
258.463;    7.325;  -71.000;  133.000
258.605;  -79.200; -562.000; -570.000
258.746;  -92.100; -886.000; -772.000
258.888; -157.500;-1026.000;-1020.000
259.029;   26.700;  121.000;   -8.000
259.171;  -91.925; -614.000; -550.000
259.313;    2.375;  -49.000;  -47.000
259.454;  -67.800; -536.000; -414.000
259.596;  -57.475; -483.000; -390.000
259.737;  -70.750; -590.000; -474.000
259.879;   54.600;  217.000;  311.000
260.020;   99.775;  901.000;  636.000
260.162;   -8.975; -146.000; -253.000
260.303; -116.800; -768.000; -687.000
260.445;  -77.550; -609.000; -613.000
260.586;   26.850;  392.000;  157.000
260.728;  -23.500; -360.000; -248.000
260.869; -121.250; -350.000; -343.000
261.011;   88.525;  706.000;  537.000
261.152;  -56.825; -479.000; -319.000
261.293;  -58.950; -576.000; -595.000
261.435;  -43.750; -219.000; -184.000
261.576;  -36.425; -455.000; -325.000
261.718;   34.875;  420.000;  470.000
261.859; -126.250; -940.000; -949.000
262.000; -131.950; -951.000;-1016.000
262.142;  -22.775;  -52.000;  -60.000
262.283; -121.300; -808.000; -691.000
262.424;  -62.150; -666.000; -625.000
262.566; -168.225;-1161.000; -983.000
262.707; -104.025; -840.000; -830.000
262.848; -123.150; -769.000; -726.000
262.990;  -46.025; -362.000; -345.000
263.131;   79.125;  650.000;  681.000
263.272;   -4.750;  -61.000;  -41.000
263.413;  -90.175; -589.000; -561.000
263.555;  -53.800; -669.000; -143.000
263.696;  -82.250; -550.000; -641.000
263.837;  -57.175; -449.000; -551.000
263.978;   -6.925;   -5.000;  -77.000
264.119;  -50.150; -283.000; -264.000
264.261; -121.450; -847.000; -630.000
264.402;   -0.025;   33.000;   40.000
264.543;  -84.950; -509.000; -524.000
264.684;  -10.475;   61.000;  -50.000
264.825;  -77.250; -816.000; -538.000
264.966;   -9.525;  -84.000;  -67.000
265.107; -111.200; -646.000; -670.000
265.248; -105.125; -825.000; -812.000
265.390;   -7.025;  152.000;   -9.000
265.531;  -29.525; -238.000; -107.000
265.672;  -95.625; -557.000; -630.000
265.813;   60.400;  563.000;  439.000
265.954; -142.825; -959.000; -940.000
266.095;   -1.075; -372.000; -322.000
266.236;  -93.075; -686.000; -548.000
266.377;  -35.275; -243.000; -297.000
266.518;  -74.775; -619.000; -547.000
266.659;   18.750;  170.000;  268.000
266.800;    5.325;   83.000;   85.000
266.941;  -59.175; -487.000; -478.000
267.082;   14.250;  354.000;   99.000
267.223;  -37.375; -344.000; -273.000
267.364; -109.450; -892.000; -686.000
267.504;   -2.975;    3.000;  135.000
267.645;  -12.425;  160.000;   67.000
267.786;  -22.050; -147.000;  -86.000
267.927;  -69.850; -473.000; -379.000
268.068;   -7.450; -186.000;  -61.000
268.209;  -66.050; -175.000; -413.000
268.350;  -58.250; -388.000; -532.000
268.490;  -88.125; -648.000; -521.000
268.631;   35.800;  127.000;  225.000
268.772; -121.575; -874.000; -647.000
268.913;  -45.800; -328.000; -476.000
269.054;  -10.025; -117.000;   12.000
269.194;  -36.325; -418.000; -402.000
269.335; -154.450;-1137.000;-1074.000
269.476;  -19.475;   33.000;  -35.000
269.617;  -47.625; -347.000; -392.000
269.757;  -74.800; -713.000; -646.000
269.898; -104.425; -856.000; -613.000
270.039;  -55.775; -415.000; -405.000
270.180; -130.375; -952.000; -816.000
270.320;  -19.625; -190.000; -250.000
270.461;  -34.200; -277.000; -249.000
270.602;  -23.850; -186.000; -156.000
270.742; -126.925; -868.000; -943.000
270.883;  -46.375; -442.000; -390.000
271.023;  -66.950; -358.000; -357.000
271.164;  -76.950; -607.000; -528.000
271.305;  -94.775; -666.000; -654.000
271.445;  -82.825; -722.000; -683.000
271.586;  -78.050; -462.000; -283.000
271.726;  -39.375; -397.000; -322.000
271.867;  -50.650; -594.000; -534.000
272.008;  218.500; -473.000; -285.000
272.148;  133.450;  462.000;  468.000
272.289;   15.225; -113.000; -181.000
272.429;   31.825;   19.000;  185.000
272.570;  -80.075; -633.000; -737.000
272.710;  -96.825; -825.000; -775.000
272.851;   -5.925;  113.000; -130.000
272.991; -153.575;-1173.000;-1077.000
273.131;  -62.325; -419.000; -459.000
273.272;  -97.650; -683.000; -723.000
273.412;   25.475; -143.000;  -31.000
273.553;  -50.250; -488.000; -507.000
273.693;  142.400;  913.000;  858.000
273.834;  -76.775; -894.000; -692.000
273.974;  -58.200; -664.000; -615.000
274.114;  -88.825; -772.000; -560.000
274.255;   87.800;  414.000;  373.000
274.395;   20.575; -180.000; -125.000
274.535;   54.850;  199.000;  350.000
274.676;   18.725;  225.000;   94.000
274.816;   13.425;  110.000;   34.000
274.956;  -76.900; -624.000; -690.000
275.097;  -29.575;-1014.000; -922.000
275.237; -118.350; -913.000; -803.000
275.377;  -80.950; -778.000; -689.000
275.517; -138.450; -878.000; -937.000
275.658;  -44.400; -590.000; -555.000
275.798;  -51.575; -606.000; -413.000
275.938;   24.475;  215.000;  323.000
276.078;  -97.725; -626.000; -395.000
276.218;   10.575;   99.000;  104.000
276.359; -114.200;-1026.000;-1024.000
276.499;  -63.325; -605.000; -446.000
276.639;  -30.100; -305.000; -151.000
276.779;  -43.075; -475.000; -357.000
276.919;  -94.075; -783.000; -624.000
277.059;   -9.925; -261.000; -212.000
277.199;  -52.800; -357.000; -259.000
277.340;   58.250;  287.000;  175.000
277.480; -116.050; -840.000; -693.000
277.620;   40.050;  192.000;   16.000
277.760; -190.500;-1533.000;-1294.000
277.900;   38.075;  113.000;   33.000
278.040;   24.525;  137.000;  159.000
278.180;   39.775;  270.000;  170.000
278.320;  -19.600;   21.000;   56.000
278.460;  -60.525; -443.000; -469.000
278.600;  -97.250; -708.000; -598.000
278.740;   67.325;  448.000;  224.000
278.880;   -1.050; -768.000; -791.000
279.020;   18.650; -194.000; -144.000
279.160;  -95.200; -672.000; -595.000
279.300; -102.925; -926.000; -873.000
279.440;  -88.250; -709.000; -622.000
279.579;   -7.225;-1014.000; -929.000
279.719;  -59.850; -410.000; -394.000
279.859;   84.900;   -4.000;   41.000
279.999;   39.075; -208.000;  101.000
280.139;   -1.750; -435.000; -387.000
280.279;  -67.100; -708.000; -745.000
280.419;    3.900; -229.000; -147.000
280.559;  -32.650; -259.000; -180.000
280.698;  -62.375; -790.000; -639.000
280.838;  -83.225; -778.000; -800.000
280.978;  -94.500; -846.000; -790.000
281.118; -107.050; -811.000; -704.000
281.257;   16.500;   24.000;    6.000
281.397;  -78.300;-1094.000; -960.000
281.537;  -69.975; -599.000; -712.000
281.677;  -17.900; -150.000; -101.000
281.816;  -73.050; -700.000; -630.000
281.956;  -52.700; -193.000; -257.000
282.096;  -49.375; -539.000; -396.000
282.235; -100.950; -672.000; -638.000
282.375;  -13.200; -243.000;  -98.000
282.515;  -96.525; -715.000; -707.000
282.654;   51.350;   29.000;  106.000
282.794;   34.350;  388.000;  244.000
282.934;  -51.875; -530.000; -491.000
283.073; -122.375;-1030.000; -857.000
283.213;  -44.175; -460.000; -467.000
283.353;  -27.175; -408.000; -349.000
283.492;   -3.500; -264.000; -296.000
283.632;  -35.775; -254.000; -168.000
283.771;  -75.450; -859.000; -730.000
283.911;  -60.200; -369.000; -260.000
284.050;  -87.325; -794.000; -748.000
284.190; -150.750;-1229.000;-1096.000
284.329; -124.000;-1055.000; -964.000
284.469;  -27.375; -516.000; -591.000
284.608;  -42.850; -559.000; -598.000
284.748;  -78.425; -614.000; -570.000
284.887;    0.575;  -87.000;  -20.000
285.027; -121.900; -844.000; -892.000
285.166;   -3.400; -192.000; -249.000
285.306;   18.475; -116.000;  -33.000
285.445;  -28.775; -229.000; -343.000
285.584;  -97.775; -630.000; -494.000
285.724;  -20.475; -282.000; -322.000
285.863; -108.125; -857.000; -507.000
286.002;  -45.225; -366.000; -276.000
286.142; -114.700; -715.000; -622.000
286.281;  -63.950; -525.000; -493.000
286.420;  -87.725; -554.000; -417.000
286.560;   92.400;  653.000;  623.000
286.699; -147.425; -958.000; -912.000
286.838;  -61.350; -590.000; -591.000
286.978;  -90.325; -533.000; -537.000
287.117; -120.125;-1085.000; -950.000
287.256;  -33.425; -228.000; -211.000
287.395;  -31.725; -197.000; -378.000
287.535;  -56.325; -370.000; -298.000
287.674;  -75.225; -509.000; -484.000
287.813;   54.500;  661.000;  533.000
287.952; -118.525;-1010.000; -871.000
288.091; -143.675;-1049.000; -915.000
288.231;   39.150;   13.000;   15.000
288.370; -170.225;-1217.000;-1200.000
288.509;  -69.600; -728.000; -645.000
288.648;  -85.800; -770.000; -548.000
288.787;  -22.025; -243.000;  -87.000
288.926;  -67.325; -454.000; -475.000
289.065;  146.125;  859.000;  672.000
289.204;  -51.350; -377.000; -217.000
289.344;  -62.500; -791.000; -690.000
289.483;   34.325;  416.000;  304.000
289.622;  -18.675; -291.000; -149.000
289.761;  -18.350; -309.000; -166.000
289.900;  -94.300; -785.000; -626.000
290.039;  -16.900;  -12.000;  -95.000
290.178;  -35.925; -274.000; -180.000
290.317;  -83.000; -618.000; -479.000
290.456;  -61.125; -463.000; -451.000
290.595; -117.775; -961.000; -833.000
290.734; -121.525; -904.000; -891.000
290.873;  -71.400; -456.000; -420.000
291.011;  -94.075; -833.000; -843.000
291.150;  -85.675; -770.000; -682.000
291.289;  -10.875; -343.000; -110.000
291.428;  -97.475; -599.000; -480.000
291.567;  -47.750; -370.000; -442.000
291.706;  -10.575;  109.000;  154.000
291.845;  -73.325; -597.000; -505.000
291.984; -157.850;-1234.000;-1061.000
292.122;   84.350;  602.000;  582.000
292.261;   45.150;  620.000;  463.000
292.400;   20.000; -144.000;  211.000
292.539; -118.325; -959.000; -813.000
292.678;  -30.050; -325.000; -300.000
292.816; -150.225;-1136.000; -965.000
292.955;  -67.600; -844.000; -684.000
293.094;  -10.050; -173.000; -337.000
293.233;  -39.950; -556.000; -400.000
293.371;  -36.925; -225.000;  -84.000
293.510;  -99.700; -866.000; -780.000
293.649; -116.075; -959.000; -924.000
293.787;    1.350;-1083.000;-1012.000
293.926;    7.350; -113.000;  -32.000
294.065;  -32.925; -379.000; -290.000
294.203;   43.375;  298.000;  406.000
294.342;   28.700;   74.000;  156.000
294.481; 5344.525;51180.000; -836.000
294.619;  -20.300; -425.000; -582.000
294.758; -129.625;-1230.000;-1137.000
294.896;  120.925; -125.000;    5.000
295.035; -109.475;-1040.000;-1006.000
295.174; -103.500;-1082.000; -954.000
295.312;  -33.550; -323.000; -203.000
295.451;   17.825; -307.000; -428.000
295.589;  -47.400; -389.000; -518.000
295.728;   23.175; -292.000; -165.000
295.866;   23.900;  -36.000;  -51.000
296.005;  -36.800; -584.000; -341.000
296.143;  -67.675; -558.000; -596.000
296.282;  -96.600; -957.000; -881.000
296.420;  -91.850; -657.000; -557.000
296.559;  -59.075; -892.000; -633.000
296.697;   84.200; -847.000; -665.000
296.835;  165.750;-1141.000;-1002.000
296.974;   51.575;  -23.000;   39.000
297.112;   53.425; -443.000; -504.000
297.251;  -60.150; -815.000; -755.000
297.389;  164.775; -576.000; -438.000
297.527;   50.475; -145.000;  -83.000
297.666;  -25.700; -486.000; -438.000
297.804;  -35.800; -404.000; -264.000
297.942;   12.725; -136.000; -161.000
298.081;   -8.900; -183.000;   63.000
298.219;  107.000;  -17.000;  -19.000
298.357;   75.650; -144.000;  -71.000
298.495;  115.375; -810.000; -812.000
298.634;  122.675;  245.000;  219.000
298.772;  119.450; -220.000; -338.000
298.910;  -20.950; -309.000; -182.000
299.048;   -8.975; -130.000; -153.000
299.187;  -26.525; -350.000; -250.000
299.325;   41.375;   52.000;  122.000
299.463;  115.975; -389.000; -299.000
299.601;  188.875; -327.000; -271.000
299.739;  -79.425; -908.000; -883.000
299.877;  -68.225; -791.000; -703.000
300.016;  -10.575;-1095.000; -935.000
300.154;  238.050;  -19.000; -161.000
300.292;  109.325; -428.000; -348.000
300.430;   76.675; -408.000; -291.000
300.568;  -86.975; -940.000; -874.000
300.706;  -24.325; -366.000; -469.000
300.844;  -48.550;-1108.000; -979.000
300.982;  132.625;  246.000;  282.000
301.120; -104.175; -965.000; -866.000
301.258;  -31.675; -812.000; -705.000
301.396;   55.400;  104.000;  -41.000
301.534;  169.700; -218.000; -293.000
301.672;   46.950; -664.000; -521.000
301.810;  114.775; -613.000; -545.000
301.948;  173.350;   53.000;  149.000
302.086;  840.675; -250.000;  -32.000
302.224; 1279.350; -610.000; -585.000
302.362;   85.650; -558.000; -622.000
302.500;   35.375; -923.000; -893.000
302.638;  156.525;  128.000;  245.000
302.776;   13.525; -352.000; -408.000
302.913;   58.325;  447.000;  236.000
303.051;   13.525;  -86.000;  -23.000
303.189;   93.500;   90.000;  118.000
303.327;  -38.375; -341.000; -256.000
303.465;  -55.875; -832.000; -588.000
303.603;  -88.350; -805.000; -604.000
303.740;  133.225;  417.000;  241.000
303.878;   68.700; -800.000; -759.000
304.016;  -69.925; -915.000; -790.000
304.154; -104.675;-1123.000;-1152.000
304.291;  -34.950; -505.000; -554.000
304.429;   16.350;  102.000;   74.000
304.567; -103.900; -908.000; -893.000
304.705;  -51.750; -408.000; -515.000
304.842;  174.300; -616.000; -540.000
304.980;   66.575;  215.000;   35.000
305.118;  111.600; -367.000; -365.000
305.255;  -45.800; -945.000; -927.000
305.393;   79.475;  178.000;  239.000
305.531;  -78.375;-1173.000; -956.000
305.668;  -26.400; -663.000; -582.000
305.806;  136.300; -358.000; -439.000
305.943;  170.675; -629.000; -637.000
306.081;   73.725; -378.000; -267.000
306.219;  -84.900; -863.000; -748.000
306.356;    1.425;  158.000;   27.000
306.494;  115.075;  981.000;  761.000
306.631;    2.375;  -11.000;  -55.000
306.769;   39.225; -613.000; -485.000
306.906;  -18.100; -284.000; -258.000
307.044;  -32.750; -473.000; -488.000
307.181;  -54.525; -410.000; -332.000
307.319;   26.475;  112.000;   87.000
307.456; -164.250;-1191.000;-1153.000
307.594;  -61.650; -980.000; -727.000
307.731;    3.625; -371.000; -164.000
307.868;   18.425;  -15.000;   20.000
308.006; -126.750; -961.000; -847.000
308.143;  -43.325; -618.000; -330.000
308.281;  234.425;  -37.000; -254.000
308.418;   27.175; -748.000; -640.000
308.555;  -63.300; -400.000; -250.000
308.693;  -68.175; -577.000; -573.000
308.830; -108.600; -712.000; -657.000
308.967;   -2.025; -215.000;  -95.000
309.105;  -46.550; -507.000; -396.000
309.242;   79.525; -468.000; -367.000
309.379;  452.925; -577.000; -655.000
309.517;  -25.025; -936.000; -948.000
309.654;  -97.050; -910.000; -734.000
309.791;  -49.925; -662.000; -580.000
309.928; -102.400; -977.000; -914.000
310.065;  205.350;  819.000;  697.000
310.203;   43.225; -825.000; -850.000
310.340;   39.450; -465.000; -321.000
310.477;  -73.025; -412.000; -516.000
310.614;  -55.650; -383.000; -473.000
310.751;  -59.025; -427.000; -518.000
310.889;  -11.600;    1.000;   11.000
311.026; -136.875;-1161.000; -939.000
311.163;  -34.475; -386.000; -380.000
311.300;  -68.325; -512.000; -479.000
311.437;  -72.850; -658.000; -619.000
311.574; -156.650;-1226.000; -985.000
311.711;  -48.675; -595.000; -433.000
311.848;  -28.300; -380.000; -388.000
311.985;   28.300;  270.000;   93.000
312.122; -114.100; -932.000; -762.000
312.259; -102.850; -941.000; -994.000
312.396;  -65.275; -508.000; -551.000
312.533;  -62.500; -812.000; -790.000
312.670; -119.100;-1070.000; -898.000
312.807;  -26.825; -352.000; -367.000
312.944;  -57.750; -513.000; -611.000
313.081;  -11.325; -150.000; -415.000
313.218;  -82.875;-1111.000; -867.000
313.355;   25.225; -531.000; -449.000
313.492;   37.550; -455.000; -292.000
313.629;  159.050;  815.000;  735.000
313.766; -147.350;-1176.000;-1008.000
313.902;    8.400; -186.000;   21.000
314.039;  -38.250; -372.000; -289.000
314.176;   38.975;  286.000;  192.000
314.313;  -72.000; -569.000; -473.000
314.450;  -64.100; -788.000; -684.000
314.587;  -51.250; -468.000; -480.000
314.723;   19.025;  -78.000;  130.000
314.860;   39.275;  318.000;  332.000
314.997;   52.375;  223.000;  142.000
315.134;  -27.550; -385.000; -368.000
315.270;   -7.475; -480.000; -496.000
315.407; -109.650;-1094.000; -967.000
315.544;  -34.075; -657.000; -538.000
315.681;  -57.325; -681.000; -565.000
315.817;   37.975; -133.000; -176.000
315.954;   33.275; -613.000; -392.000
316.091; -104.900;-1045.000;-1023.000
316.227;  -29.625;  -71.000; -179.000
316.364;    5.950;   23.000;    6.000
316.500;  -45.400; -113.000; -300.000
316.637;  -26.050; -181.000; -302.000
316.774;  -81.300; -625.000; -358.000
316.910;  -79.475; -598.000; -629.000
317.047;  -66.875; -487.000; -351.000
317.183;  -35.200; -435.000; -566.000
317.320;  -36.425; -367.000; -321.000
317.456;  -83.975; -733.000; -805.000
317.593;  -91.050; -598.000; -641.000
317.729;    5.950;  168.000;  -67.000
317.866; -188.150;-1434.000;-1285.000
318.002;  -71.350; -708.000; -948.000
318.139;  -74.600; -883.000; -867.000
318.275;  -97.025;-1003.000; -738.000
318.412;  -60.900; -517.000; -336.000
318.548;   12.200; -751.000; -720.000
318.685;  -89.675; -985.000; -888.000
318.821;  -78.650; -762.000; -735.000
318.957;  -17.375;   34.000;  -23.000
319.094;   54.000;  297.000;  154.000
319.230;  -32.075; -756.000; -742.000
319.367;  206.150; -471.000; -520.000
319.503;   83.675; -538.000; -436.000
319.639;  -83.600; -877.000; -793.000
319.775;  -46.375; -750.000; -685.000
319.912;  -29.400; -424.000; -519.000
320.048;  -72.500;-1184.000;-1184.000
320.184;   81.875;   59.000;   70.000
320.321;  -64.775; -497.000; -467.000
320.457;   59.225;  475.000;  662.000
320.593;  -68.725; -375.000; -382.000
320.729;  -77.900; -732.000; -734.000
320.866;  -55.700; -577.000; -635.000
321.002;  -61.125; -759.000; -809.000
321.138;  -19.275; -135.000; -211.000
321.274;   94.550; -148.000; -115.000
321.410;  -13.425; -585.000; -353.000
321.546;   24.725;-1011.000; -911.000
321.683;   68.125;  400.000;  185.000
321.819;   10.875;  -48.000; -117.000
321.955;  -99.050; -743.000; -722.000
322.091;  -18.250; -585.000; -540.000
322.227;   -4.450; -382.000; -202.000
322.363;   16.600; -320.000; -215.000
322.499;  -38.750; -343.000; -331.000
322.635;  189.150;  636.000;  443.000
322.771;   48.800; -139.000;   12.000
322.907;  106.050;  129.000;  327.000
323.043;  -10.225; -115.000; -206.000
323.179;  -11.925; -394.000; -363.000
323.315;   95.200; -401.000; -371.000
323.451;  168.100; -328.000; -236.000
323.587;   79.425;  -60.000;  -77.000
323.723;   72.500; -682.000; -601.000
323.859;  -18.150; -258.000;  -76.000
323.995;  -10.925; -467.000; -409.000
324.131; -112.650; -967.000; -892.000
324.267;  -30.275; -254.000; -276.000
324.402; -131.675; -960.000; -983.000
324.538;   13.125; -279.000; -104.000
324.674;   33.450;  164.000;   77.000
324.810;  231.975;  226.000;  308.000
324.946;   56.100; -810.000; -658.000
325.082;  -58.000; -568.000; -475.000
325.217;   -8.300;  -62.000;   16.000
325.353;  -89.025; -764.000; -659.000
325.489;  -78.875; -540.000; -506.000
325.625;  -43.775; -579.000; -525.000
325.760;   33.225;  517.000;  376.000
325.896;  -29.925; -515.000; -702.000
326.032;  -49.100; -403.000; -352.000
326.168;  -50.950; -462.000; -369.000
326.303;  -67.675; -352.000; -461.000
326.439;   -5.800; -336.000; -276.000
326.575;    5.225; -190.000;  -29.000
326.710;   16.375; -156.000;  -30.000
326.846;    1.875;  146.000;  103.000
326.982;  -74.025; -530.000; -548.000
327.117;  -64.125; -481.000; -442.000
327.253;  -80.200; -745.000; -742.000
327.388; -110.075;-1137.000;-1153.000
327.524;  -13.950; -811.000; -578.000
327.659;  -18.700;  -58.000;  -22.000
327.795;    0.775;   69.000;   45.000
327.931;  -80.500; -723.000; -499.000
328.066;   -1.425; -417.000; -276.000
328.202;    8.750;   12.000; -129.000
328.337;  121.800;  957.000;  713.000
328.473;   45.600;  -12.000;  -74.000
328.608;  -12.700; -256.000; -267.000
328.743;  -62.725; -799.000; -664.000
328.879;   30.775;  214.000;  114.000
329.014;  -28.000; -102.000; -122.000
329.150;  -74.850; -358.000; -483.000
329.285;  -77.625; -465.000; -466.000
329.421;  -37.375; -548.000; -246.000
329.556;  -21.850;  -36.000;   85.000
329.691;  -94.475; -633.000; -615.000
329.827;  -82.250; -626.000; -480.000
329.962;  -32.775;  131.000; -301.000
330.097;  -90.725; -673.000; -585.000
330.233;  -29.550; -410.000; -223.000
330.368; -126.125; -839.000; -628.000
330.503;   -8.150;    3.000;   98.000
330.638;   18.825;  -93.000; -125.000
330.774;  -36.425; -609.000; -530.000
330.909;  -46.375; -434.000; -244.000
331.044;  -82.100; -714.000; -708.000
331.179; -165.200;-1217.000;-1109.000
331.315;   17.125;   77.000;   20.000
331.450;    0.300;  157.000;  285.000
331.585;  -61.325; -805.000; -706.000
331.720;  -86.650; -510.000; -460.000
331.855;   -0.050;  -35.000; -102.000
331.990;  163.325;   62.000;  138.000
332.126;  101.250; -110.000;   71.000
332.261;  -28.975; -379.000; -265.000
332.396;    4.150; -135.000; -242.000
332.531; -125.175;-1074.000;-1031.000
332.666;   18.375; -519.000; -363.000
332.801;  -96.750; -726.000; -807.000
332.936;  -11.350; -192.000; -122.000
333.071; -147.975; -870.000; -817.000
333.206;   23.975;  307.000;  379.000
333.341;   27.075;  344.000;  418.000
333.476;  -68.450; -627.000; -623.000
333.611;  -34.400; -251.000; -173.000
333.746;  -29.025; -381.000; -464.000
333.881;  -91.400; -973.000; -935.000
334.016; -109.650; -936.000; -917.000
334.151; -106.000; -746.000; -702.000
334.286;   40.175;  152.000;  186.000
334.421;    1.025; -125.000; -178.000
334.556;  -49.500; -611.000; -567.000
334.690;  -81.900; -631.000; -577.000
334.825;   70.975;  381.000;   83.000
334.960;  -55.775; -285.000; -413.000
335.095;   34.475;  135.000;  -91.000
335.230;  -73.850; -722.000; -738.000
335.365; -110.800;-1084.000; -990.000
335.499; -100.050;-1108.000;-1037.000
335.634;   52.375;    9.000;  534.000
335.769;  -78.625; -755.000; -720.000
335.904;  -28.600; -603.000; -561.000
336.038;  -48.075; -735.000; -657.000
336.173;  -72.850;-1206.000;-1194.000
336.308;   30.650; -116.000; -189.000
336.443;   11.700; -544.000; -634.000
336.577;  -38.650; -936.000; -787.000
336.712;  113.275;   -4.000;  -12.000
336.847;    6.925; -724.000; -607.000
336.981;  137.525; -272.000; -208.000
337.116;  359.800;  615.000;  501.000
337.250;  251.950; -434.000; -421.000
337.385;  178.700; -297.000; -208.000
337.520;   49.725; -632.000; -603.000
337.654;  -43.400; -215.000; -126.000
337.789; -108.675; -989.000; -933.000
337.923;  -21.250; -104.000; -205.000
338.058;  -60.500; -673.000; -738.000
338.192;  -15.150; -611.000; -488.000
338.327;   19.300;  -18.000; -155.000
338.461;  -53.900; -299.000; -469.000
338.596;  -84.650; -780.000; -638.000
338.730; -100.550; -767.000; -803.000
338.865;   72.475;  -46.000; -140.000
338.999;  -75.625; -846.000; -702.000
339.134;  -33.800; -634.000; -536.000
339.268;   14.625; -741.000; -603.000
339.403;  284.750; -740.000; -775.000
339.537;   44.275; -894.000; -820.000
339.671; -103.250; -829.000; -813.000
339.806;  -64.300; -556.000; -512.000
339.940;   18.450; -261.000; -235.000
340.074;  -90.350; -685.000; -510.000
340.209;  -43.950; -351.000; -230.000
340.343;  -77.250; -517.000; -573.000
340.477;  161.450;  998.000; 1036.000
340.612;  -83.175;-1033.000; -900.000
340.746;  101.100; -199.000; -243.000
340.880;  -48.250; -924.000; -785.000
341.014;    5.075;  -45.000; -154.000
341.149; -116.200; -756.000; -718.000
341.283;  -86.175; -839.000; -754.000
341.417;  -51.625;-1124.000; -938.000
341.551;  272.375; -768.000; -708.000
341.685;  -10.175; -633.000; -611.000
341.820;  -49.450; -562.000; -493.000
341.954;  -40.050; -218.000; -349.000
342.088; -133.825;-1102.000;-1019.000
342.222;   37.075;  565.000;  618.000
342.356;  -29.050; -395.000; -335.000
342.490;  -76.750; -880.000; -841.000
342.624;  -26.800; -339.000; -242.000
342.758;   38.725; -364.000; -312.000
342.892;  -49.750; -710.000; -585.000
343.026;  -37.025;  -58.000; -116.000
343.160;  -61.675; -426.000; -376.000
343.294;  -75.875; -474.000; -337.000
343.428;    3.125; -488.000; -448.000
343.562;  -20.600; -172.000;  -23.000
343.696;    5.225; -385.000; -314.000
343.830;    2.075; -362.000; -356.000
343.964;   42.075; -231.000; -168.000
344.098; 1310.375;  199.000;   70.000
344.232; 1092.900; -266.000; -127.000
344.366;   88.875; -567.000; -453.000
344.500;  147.200; -665.000; -744.000
344.634;   73.075; -324.000; -164.000
344.768;   32.350; -531.000; -341.000
344.902;   15.550;  278.000;  256.000
345.035;  -68.775; -556.000; -496.000
345.169; -118.500; -933.000; -656.000
345.303;   -7.975; -308.000; -482.000
345.437;  -51.900; -826.000; -717.000
345.571;  -66.600; -675.000; -594.000
345.704;  -57.300; -309.000; -532.000
345.838;    5.325; -331.000; -284.000
345.972;  -26.000; -543.000; -495.000
346.106;  133.075; -179.000; -190.000
346.239;  446.650; -312.000; -243.000
346.373;   31.575; -343.000; -302.000
346.507; -130.800; -950.000; -962.000
346.640;  230.475;  -30.000;   13.000
346.774;   -7.725; -650.000; -797.000
346.908;   -6.050; -138.000;  -11.000
347.041; -107.825; -646.000; -593.000
347.175;   20.000;  259.000;   27.000
347.309;  -45.925; -698.000; -628.000
347.442;  -72.700; -883.000; -732.000
347.576;  376.950;  670.000;  668.000
347.709;  310.200; -123.000;  -52.000
347.843;  -66.175; -933.000; -825.000
347.976;   32.625;  235.000;  294.000
348.110; -178.225;-1268.000;-1186.000
348.243;  -81.550; -679.000; -772.000
348.377;    5.900;  -26.000;   60.000
348.510;   60.825;  403.000;  540.000
348.644;  -25.500;  -37.000; -159.000
348.777;   20.500;  180.000;  191.000
348.911;  -60.725; -142.000; -112.000
349.044;  233.400;  471.000;  448.000
349.178;  310.600;-1069.000;-1006.000
349.311;  142.700;  141.000;  255.000
349.444;  -20.100; -927.000; -813.000
349.578;   -5.100; -347.000; -200.000
349.711;  -75.975; -959.000; -862.000
349.845;   41.225; -661.000; -591.000
349.978; -121.375;-1224.000;-1137.000
350.111;  -70.950; -546.000; -612.000
350.244;  -74.300; -596.000; -700.000
350.378;   26.000; -392.000; -393.000
350.511;  -76.175; -393.000; -426.000
350.644;  -98.250; -808.000; -806.000
350.778;   -0.700;  168.000;  104.000
350.911;   23.300;  134.000;  140.000
351.044;  -80.150; -685.000; -615.000
351.177;  -13.800; -321.000; -281.000
351.310;   -6.100;    3.000; -131.000
351.444;  -34.825; -888.000; -788.000
351.577;  180.975;  140.000;   90.000
351.710;  126.575;  593.000;  417.000
351.843;  -30.875; -165.000;  -77.000
351.976;   15.125;  149.000;  -79.000
352.109;  -81.975; -621.000; -612.000
352.242;   11.750; -464.000; -419.000
352.376;  -23.175; -580.000; -636.000
352.509;  325.475; -437.000; -356.000
352.642;   73.750; -654.000; -604.000
352.775;  110.650; -141.000;  -98.000
352.908;  -97.900; -933.000; -904.000
353.041;  -84.550; -814.000; -824.000
353.174;  -63.600; -551.000; -424.000
353.307;  -60.150; -753.000; -764.000
353.440;   79.400;  541.000;  453.000
353.573;  -94.875; -957.000;-1008.000
353.706;  -16.975; -384.000; -558.000
353.839;    6.350; -264.000; -220.000
353.971; -100.075; -657.000; -512.000
354.104;  -54.575; -896.000; -835.000
354.237;  -24.775; -627.000; -662.000
354.370;  -65.950; -846.000; -879.000
354.503; -161.500;-1231.000;-1308.000
354.636;   -7.850; -529.000; -348.000
354.769; -118.125; -937.000; -860.000
354.902;   21.975; -230.000; -139.000
355.034;  -12.775; -164.000; -220.000
355.167;   19.000; -262.000; -162.000
355.300;  -80.625;-1061.000; -880.000
355.433;  763.675;  -71.000;  -14.000
355.565; 1150.425; -402.000; -384.000
355.698;  312.300; -356.000; -296.000
355.831;   12.000; -882.000; -801.000
355.964;  164.625; -285.000; -170.000
356.096;  -49.025; -856.000; -843.000
356.229;   55.675; -523.000; -530.000
356.362;  231.175; -373.000; -266.000
356.494;  461.600; -229.000; -162.000
356.627;  622.950;  269.000;  377.000
356.760;  572.725;  120.000;   53.000
356.892;  716.425; -286.000; -601.000
357.025;  901.625;  403.000;  389.000
357.157;  876.300; -167.000; -179.000
357.290;  444.500; -856.000; -713.000
357.423;  151.500; -667.000; -556.000
357.555;  159.600; -217.000; -228.000
357.688;  168.800; -483.000; -364.000
357.820;  617.900; -870.000; -877.000
357.953; 4519.050; -563.000; -589.000
358.085; 1153.000; -632.000; -612.000
358.218; 1969.525;-1131.000; -932.000
358.350;  367.775;  -58.000;  312.000
358.483;  -81.850;-1300.000;-1187.000
358.615;   73.300;-1182.000;-1078.000
358.747;    5.450;-1187.000;-1058.000
358.880;  121.625; -810.000; -744.000
359.012;    6.550; -376.000; -202.000
359.145;  -17.850; -480.000; -511.000
359.277;  149.325; -962.000; -913.000
359.409; 3769.750;  536.000;  231.000
359.542; 1057.650; -738.000; -688.000
359.674;   94.525;   46.000;   13.000
359.806;  -52.750; -565.000; -438.000
359.939;  -35.900; -617.000; -516.000
360.071;  -24.650; -583.000; -579.000
360.203;    1.250; -411.000; -364.000
360.335;   56.800;  164.000;  -16.000
360.468;  258.875; -249.000; -307.000
360.600; 2891.175; -547.000; -454.000
360.732; 2139.725; -546.000; -423.000
360.864;  314.475;-1216.000;-1044.000
360.996;  473.325; -516.000; -554.000
361.129;  103.250; -389.000; -598.000
361.261;   48.450;  110.000; -113.000
361.393;  -11.025; -252.000; -214.000
361.525;   47.400;   94.000;  244.000
361.657;  -28.550; -821.000; -703.000
361.789;   42.000; -139.000; -155.000
361.921;  411.925; -642.000; -593.000
362.053;  372.825;  524.000;  541.000
362.185;   63.625;  288.000;   72.000
362.318;  -34.575; -709.000; -705.000
362.450;  203.525;  294.000;  444.000
362.582;  340.575; -913.000; -870.000
362.714;  -14.275; -353.000; -332.000
362.846;  -60.775; -606.000; -490.000
362.978; -137.950; -941.000; -811.000
363.109;  108.725; -161.000; -260.000
363.241;  655.575; -739.000; -749.000
363.373;  378.550; -649.000; -564.000
363.505;  452.500; -186.000;  -91.000
363.637;  152.050; -787.000; -601.000
363.769;  -96.725;-1067.000;-1080.000
363.901;  -41.025; -596.000; -654.000
364.033; -107.900;-1103.000;-1062.000
364.165;   31.050; -283.000; -283.000
364.296;   53.725; -316.000; -177.000
364.428;   25.775;-1344.000;-1220.000
364.560;  -85.925; -679.000; -661.000
364.692;  -30.300; -738.000; -835.000
364.824;  472.650; -588.000; -456.000
364.955;  454.850; -402.000; -564.000
365.087;  547.550;-1097.000; -852.000
365.219;   27.675; -686.000; -816.000
365.351;  -61.525; -526.000; -572.000
365.482;   79.075;  300.000;  240.000
365.614;  -39.825; -402.000; -314.000
365.746;  -79.275; -729.000; -752.000
365.877;  -86.400; -706.000; -672.000
366.009;  191.375;  -35.000;  -62.000
366.141; -111.325;-1249.000;-1134.000
366.272;  -95.375; -803.000; -719.000
366.404; -113.700;-1005.000; -874.000
366.535;    7.900; -139.000;  -12.000
366.667;  -92.200; -644.000; -649.000
366.799;   45.450;  353.000;  203.000
366.930; -102.425; -862.000; -996.000
367.062;  121.400; -639.000; -613.000
367.193;   72.875; -872.000; -842.000
367.325;  -51.700; -580.000; -684.000
367.456;  144.550; -246.000;   31.000
367.588;  145.050; -371.000; -318.000
367.719;   27.400;  -44.000;  -45.000
367.851;   10.600; -222.000; -241.000
367.982;    3.775; -875.000; -732.000
368.113;  197.300; -475.000; -358.000
368.245;  -92.000; -960.000; -841.000
368.376;   26.050; -254.000; -302.000
368.508;  -19.325; -188.000; -263.000
368.639; -118.575;-1166.000;-1034.000
368.770;   19.450; -670.000; -589.000
368.902;  -26.525; -836.000; -926.000
369.033; -119.925; -906.000; -855.000
369.164;  -30.800; -720.000; -653.000
369.296;  -99.000; -452.000; -601.000
369.427;   41.000; -209.000; -144.000
369.558;  -22.950; -593.000; -377.000
369.689;  -76.675; -721.000; -569.000
369.821; -121.200; -951.000; -845.000
369.952;   -3.675;   42.000; -108.000
370.083;  -49.500; -229.000; -108.000
370.214;  -66.000; -735.000; -650.000
370.345;    1.675;   65.000;   81.000
370.477;  -54.700; -810.000; -790.000
370.608;  375.925; -328.000; -264.000
370.739;   11.825;-1233.000;-1292.000
370.870;   27.000;-1102.000; -923.000
371.001;  210.325; -378.000; -467.000
371.132;  -45.225; -754.000; -735.000
371.263;    0.850;  -42.000; -148.000
371.394; -130.500; -841.000; -748.000
371.525;   48.350;  345.000;  225.000
371.657;  -56.175; -808.000; -670.000
371.788;  108.475;  103.000;  199.000
371.919;  263.325; -384.000; -304.000
372.050; 4925.425;  -91.000; -156.000
372.181; 1545.350; -188.000; -294.000
372.311;  563.600;   42.000; -127.000
372.442;   99.875; -457.000; -451.000
372.573;   20.200; -444.000; -340.000
372.704; -112.475;-1008.000; -980.000
372.835;  151.800; -228.000; -289.000
372.966;  -25.700; -646.000; -554.000
373.097;  -14.075; -575.000; -711.000
373.228;    2.325; -717.000; -542.000
373.359;  259.075; -824.000; -536.000
373.490; 1421.500; -881.000; -727.000
373.620; 1777.475;-1001.000; -803.000
373.751; 2618.575; -332.000; -396.000
373.882; 1250.125; -663.000; -733.000
374.013;  151.975; -449.000; -262.000
374.143;   -3.825; -581.000; -659.000
374.274;  -82.450; -987.000; -908.000
374.405;  259.950; -388.000; -276.000
374.536;  669.750; -526.000; -387.000
374.666; 1711.700; -759.000; -807.000
374.797;  396.300; -817.000; -868.000
374.928; 1365.025; -710.000; -560.000
375.058; 1352.300; -535.000; -500.000
375.189;  151.800;  -59.000;  -93.000
375.320;  -76.125; -928.000;-1034.000
375.450;  -13.825; -625.000; -616.000
375.581;  -41.950; -526.000; -436.000
375.712;   -8.050; -574.000; -250.000
375.842;  482.525; -438.000; -415.000
375.973;  379.825; -554.000; -513.000
376.103;   12.700; -665.000; -648.000
376.234;  -49.400; -531.000; -552.000
376.364;   12.300; -944.000; -867.000
376.495;  445.975;  925.000;  529.000
376.625;   67.825; -472.000; -485.000
376.756;  154.700; -709.000; -678.000
376.886;  -22.225;-1178.000;-1026.000
377.017;    6.775;-1048.000;-1061.000
377.147;  225.600; -786.000; -782.000
377.278;   62.750;  174.000;  228.000
377.408; -121.200; -801.000; -815.000
377.538;  -77.525; -707.000; -693.000
377.669;  -77.625; -537.000; -613.000
377.799;  -44.500; -645.000; -635.000
377.929;  -11.625; -610.000; -428.000
378.060; -110.975; -781.000; -847.000
378.190;  -64.225; -726.000; -531.000
378.320;  -27.800; -401.000; -406.000
378.451;   -7.525; -131.000;  -22.000
378.581;   20.200;  -67.000; -110.000
378.711;  202.925; 1035.000;  866.000
378.841;   27.450; -533.000; -675.000
378.972;  -36.025; -871.000; -751.000
379.102;   56.300; -652.000; -579.000
379.232;    3.500; -126.000;  -73.000
379.362;  -62.600;-1001.000; -885.000
379.492;   65.350; -373.000; -424.000
379.623;  180.625;    0.000;  111.000
379.753;  -73.625;-1107.000; -974.000
379.883;  268.875;   59.000;  156.000
380.013;   88.025;-1081.000;-1017.000
380.143;  -54.150;-1097.000;-1056.000
380.273;  -77.750; -985.000; -861.000
380.403;   27.500; -344.000; -257.000
380.533;   13.500; -651.000; -664.000
380.663;  123.775;  173.000;  128.000
380.793;  -42.675;-1027.000;-1074.000
380.923;    8.775; -103.000;  -34.000
381.053;  -79.200; -613.000; -623.000
381.183;    2.550; -106.000; -248.000
381.313;   96.025; -656.000; -470.000
381.443;  103.650; -692.000; -473.000
381.573;  340.050; -402.000; -409.000
381.703;  557.300;-1249.000;-1095.000
381.833;  -65.000;-1454.000;-1336.000
381.963;  164.200; -134.000;  -87.000
382.093; 1880.975; -925.000; -909.000
382.223;  653.800; -713.000; -602.000
382.353;   42.975; -801.000; -608.000
382.482;  647.650;-1091.000; -964.000
382.612; 1084.850; -872.000; -644.000
382.742;  636.700; -695.000; -622.000
382.872;  457.475; -565.000; -551.000
383.002;   94.400;  347.000; -132.000
383.131;   -9.200; -226.000; -160.000
383.261;    7.250; -706.000; -768.000
383.391;  282.125; -552.000; -377.000
383.521; 2244.550;  451.000;  263.000
383.650;  484.100; -947.000; -904.000
383.780;  -17.750; -783.000; -656.000
383.910;  110.200;  880.000;  802.000
384.039;   91.350; -794.000; -656.000
384.169;  404.525;-1205.000;-1017.000
384.299;   38.425; -650.000; -662.000
384.428;  -62.125; -764.000; -680.000
384.558;  -22.850; -308.000; -275.000
384.687;  -20.375; -414.000; -334.000
384.817;   60.925;   75.000;   -2.000
384.947;   70.950; -234.000; -141.000
385.076;  397.725;  982.000;  912.000
385.206;  136.200;  369.000;  480.000
385.335;   13.550; -549.000; -417.000
385.465;  -53.675; -655.000; -663.000
385.594;  216.750;  -53.000;  -44.000
385.724;  727.700; -868.000; -838.000
385.853;  234.125; -296.000; -270.000
385.982; 1989.125; -743.000; -787.000
386.112; 3234.500;-1052.000; -871.000
386.241;  260.900; -307.000; -312.000
386.371;   57.325; -174.000;  -87.000
386.500;   42.325; -825.000; -789.000
386.629;   49.600; -874.000; -817.000
386.759;   65.075;  -43.000;   68.000
386.888;   22.725; -170.000; -250.000
387.017;  -45.300; -648.000; -620.000
387.147;  -57.850; -771.000; -798.000
387.276;   38.450; -410.000; -397.000
387.405;   69.700; -398.000; -342.000
387.535;  -23.825; -452.000; -361.000
387.664;  -25.075; -692.000; -620.000
387.793;  107.525; -198.000; -113.000
387.922;  802.675;  255.000;  200.000
388.052;  104.100; -576.000; -423.000
388.181;  107.425; -342.000; -472.000
388.310;  125.125; -889.000; -710.000
388.439;   36.325; -749.000; -742.000
388.568;  284.675;  365.000;  244.000
388.697; 1638.475; -756.000; -653.000
388.826;  393.400; -768.000; -666.000
388.956;  137.875; -285.000; -307.000
389.085;  -11.050; -347.000; -287.000
389.214;  -76.275; -842.000; -872.000
389.343;  -46.500; -645.000; -413.000
389.472;  328.975;  126.000;  149.000
389.601;  502.725;   91.000;    0.000
389.730;   74.975; -568.000; -687.000
389.859;  113.625;  226.000;   46.000
389.988;  313.800; -423.000; -408.000
390.117;  226.500; -168.000; -146.000
390.246;   16.925; -331.000; -320.000
390.375;  220.100; -673.000; -626.000
390.504;  -13.250; -703.000; -621.000
390.633;  -80.400; -672.000; -726.000
390.761;  -30.375; -732.000; -645.000
390.890;   73.000;   -4.000; -130.000
391.019;   26.525; -421.000; -441.000
391.148; -121.325; -826.000; -855.000
391.277;  -32.850; -576.000; -493.000
391.406;  -30.275; -821.000; -805.000
391.534;   46.725;  574.000; -301.000
391.663;  -40.100; -583.000; -645.000
391.792;  -62.425; -673.000; -701.000
391.921;  196.400;   -3.000;   15.000
392.050;  371.500; -287.000; -228.000
392.178;   46.950;-1206.000;-1061.000
392.307;  277.450; -758.000; -712.000
392.436;  166.125; -427.000; -641.000
392.564;   42.750;  166.000;   -6.000
392.693;  -75.125; -860.000; -682.000
392.822;  349.000; -529.000; -534.000
392.950;  222.400; -880.000; -714.000
393.079;  517.175; -188.000; -328.000
393.208;   94.025; -488.000; -511.000
393.336;   15.925; -170.000; -145.000
393.465;  -56.000; -317.000; -199.000
393.593;   10.150;   62.000;   79.000
393.722; -144.975;-1121.000; -916.000
393.850;  -15.250; -188.000;  -61.000
393.979; -154.025; -926.000; -805.000
394.107;  -51.875; -517.000; -537.000
394.236;   19.675; -570.000; -507.000
394.364;  281.275;  383.000;  206.000
394.493;  535.875; -911.000; -767.000
394.621;   23.475; -955.000; -916.000
394.750;  498.750; -873.000; -923.000
394.878; 2238.575; -247.000; -149.000
395.007; 3108.600; -721.000; -807.000
395.135;  250.575; -790.000; -721.000
395.263;  -97.350;-1038.000;-1040.000
395.392;   28.025;  -25.000; -107.000
395.520; -134.000; -818.000; -679.000
395.648;  -46.100; -865.000; -915.000
395.777;   26.225; -366.000; -405.000
395.905;  -31.975; -449.000; -564.000
396.033;   15.600;  217.000;  172.000
396.162;  806.950; -399.000; -453.000
396.290;  761.950;  -17.000;   -2.000
396.418;  203.000; -555.000; -514.000
396.546;  -49.575; -571.000; -466.000
396.674;  -63.175; -850.000; -878.000
396.803;   30.050;  -72.000;  -23.000
396.931;  161.925; -179.000; -199.000
397.059;  181.700;-1026.000; -989.000
397.187;  -73.175;-1026.000; -975.000
397.315; -119.625; -884.000; -649.000
397.443;  -72.275; -592.000; -443.000
397.572;  -84.050; -578.000; -424.000
397.700;   41.125; -607.000; -614.000
397.828;   60.200;  120.000;  -90.000
397.956;  -38.200; -508.000; -478.000
398.084;  -71.250; -767.000; -626.000
398.212;   63.750;  137.000;  124.000
398.340;   27.000;  -56.000;  159.000
398.468;   90.675; -390.000; -169.000
398.596; -117.275; -993.000; -953.000
398.724;  -81.600; -762.000; -767.000
398.852; -152.775;-1024.000; -976.000
398.980;  -40.650; -560.000; -560.000
399.108;  -14.250; -982.000; -735.000
399.236;   81.275;   13.000;    8.000
399.363;    7.650;  222.000;  196.000
399.491;  -43.000; -404.000; -398.000
399.619; -118.975; -829.000; -800.000
399.747;  -60.625; -859.000; -771.000
399.875;  109.400;  220.000;  234.000
400.003;  -26.100; -359.000; -284.000
400.130;  -81.825; -421.000; -341.000
400.258;  -12.600;  -83.000;   38.000
400.386;  -61.300; -352.000; -168.000
400.514;    7.075; -526.000; -587.000
400.641;  -38.250; -928.000; -802.000
400.769; -120.675; -979.000; -888.000
400.897;  -90.800; -838.000; -793.000
401.025;   11.425; -166.000; -152.000
401.152;  -13.275;  220.000;   38.000
401.280;  -82.200; -430.000; -429.000
401.408; -111.150; -712.000; -576.000
401.535;  -77.025; -735.000; -758.000
401.663; -172.225;-1134.000;-1054.000
401.790;  -75.450; -514.000; -525.000
401.918;   44.575;  436.000;  405.000
402.046;  -31.475;  134.000;  122.000
402.173;  -34.425;  -18.000;    7.000
402.301;  -48.725; -519.000; -397.000
402.428;   23.575;  528.000;  383.000
402.556; -125.250;-1188.000; -913.000
402.683;  -15.725;  -20.000;   -1.000
402.811;    0.600;  -37.000; -206.000
402.938;   -3.175;   20.000;   27.000
403.066;  331.925; -574.000; -558.000
403.193;  497.225;  299.000;  239.000
403.321;  413.275; -396.000; -574.000
403.448;  472.875;   83.000;   27.000
403.575;  222.100;  -90.000;  -46.000
403.703;  -80.100; -732.000; -557.000
403.830;  -53.450; -531.000; -496.000
403.957; -135.175;-1117.000;-1023.000
404.085;   27.025;  -61.000; -172.000
404.212;  112.850;  -50.000;   63.000
404.339;  210.375; -566.000; -306.000
404.467; 4245.650; -612.000; -524.000
404.594; 3562.625; -287.000; -227.000
404.721; 1101.325; -869.000; -764.000
404.848;  103.925; -113.000; -202.000
404.976;  -95.200; -856.000; -783.000
405.103;   -0.625;  -14.000;  -82.000
405.230;   -2.425;  190.000;  226.000
405.357;   37.800;  117.000;   44.000
405.484;  186.625;  -49.000;    5.000
405.612;   44.300; -548.000; -563.000
405.739;  -63.250; -488.000; -243.000
405.866;  102.275;  669.000;  385.000
405.993;  -18.300; -398.000; -102.000
406.120; -117.925; -801.000; -887.000
406.247;  -37.425; -323.000; -342.000
406.374;  679.900;  540.000;  629.000
406.501;  272.450; -632.000; -702.000
406.628;  -49.300; -621.000; -589.000
406.755;  -79.300; -803.000; -620.000
406.882;  -23.900; -228.000; -277.000
407.009; -104.875; -719.000; -628.000
407.136;  122.225; -480.000; -401.000
407.263;  304.950; -939.000; -829.000
407.390;  -34.000; -692.000; -614.000
407.517; -144.475;-1139.000;-1187.000
407.644;  -45.950; -332.000; -256.000
407.771; -127.450; -249.000; -287.000
407.898;   20.975;  168.000;  328.000
408.025;  -57.425; -421.000; -313.000
408.151;    8.175;   82.000;  153.000
408.278;  -71.475; -267.000; -216.000
408.405;  -95.600; -931.000; -899.000
408.532;  -65.175; -549.000; -542.000
408.659; -102.375; -677.000; -648.000
408.785; -206.725;-1298.000;-1170.000
408.912;  -53.050; -412.000; -296.000
409.039; -111.925; -610.000; -686.000
409.166;  -95.675; -591.000; -555.000
409.292;  -98.050; -571.000; -534.000
409.419; -107.150; -665.000; -649.000
409.546;  -65.225; -431.000; -192.000
409.672; -102.875; -713.000; -545.000
409.799;  -25.000;  -36.000;   34.000
409.926;  -32.550; -180.000; -179.000
410.052; -158.875;-1127.000;-1091.000
410.179;  -28.100; -368.000; -392.000
410.305;  -98.725; -375.000; -493.000
410.432;  -24.175; -220.000; -333.000
410.558;  -82.175; -305.000; -380.000
410.685; -101.975; -688.000; -431.000
410.812;  -90.250; -409.000; -588.000
410.938; -131.100; -964.000; -808.000
411.065;  -92.675; -671.000; -645.000
411.191;  -11.050; -189.000; -174.000
411.317; -109.975; -823.000; -742.000
411.444;  -53.025; -317.000; -246.000
411.570;  -65.450; -339.000; -294.000
411.697; -119.050; -758.000; -752.000
411.823; -162.425; -989.000; -999.000
411.949;   -6.875;  -56.000;   17.000
412.076;  -99.425; -539.000; -519.000
412.202; -103.300; -758.000; -757.000
412.329; -119.175; -798.000; -752.000
412.455; -106.050; -821.000; -657.000
412.581;  -16.975;  -15.000;  172.000
412.707;  -29.850; -540.000; -457.000
412.834;   15.925;  156.000;  219.000
412.960;  -68.875; -785.000; -784.000
413.086;  -97.650; -743.000; -701.000
413.212;  194.175;  604.000;  578.000
413.339;  -25.750; -685.000; -701.000
413.465;   71.725; -364.000; -310.000
413.591;  -72.850; -757.000; -474.000
413.717;  -37.100; -358.000; -366.000
413.843; -132.525; -839.000; -861.000
413.969;  -42.475;  -47.000; -292.000
414.096;  -97.500; -679.000; -679.000
414.222;   -5.525;  -33.000;   85.000
414.348;   30.575; -652.000; -385.000
414.474;  189.050;   38.000;  -52.000
414.600;  -12.675; -126.000; -144.000
414.726;  -10.750;  -96.000;  -55.000
414.852;  -61.450; -365.000; -342.000
414.978;   27.700;  104.000;  -18.000
415.104;   19.925;   38.000;   80.000
415.230;   18.300; -329.000; -330.000
415.356;   26.650; -409.000; -514.000
415.482;  213.400;   13.000;  -35.000
415.608;  233.150; -247.000; -323.000
415.734;  807.075;   67.000;   38.000
415.860;16353.825; -875.000; -767.000
415.986;12667.875; -685.000; -607.000
416.111; 1080.700; -798.000; -652.000
416.237;  203.500; -424.000; -571.000
416.363;  800.850; -765.000; -733.000
416.489; 3235.975; -324.000; -251.000
416.615;  335.625; -707.000; -742.000
416.741;  -35.200; -677.000; -784.000
416.866;  -96.475; -673.000; -736.000
416.992; -133.325; -801.000; -818.000
417.118;  -33.475;  -41.000;  -80.000
417.244;  -47.025; -798.000; -531.000
417.369;  -99.575; -801.000; -612.000
417.495;   21.650; -325.000; -254.000
417.621;  -67.675;-1015.000; -803.000
417.746;   -0.100; -579.000; -572.000
417.872;   42.300; -254.000; -144.000
417.998;   27.025; -515.000; -530.000
418.123;  732.575;-1073.000; -845.000
418.249; 4171.500; -512.000; -601.000
418.374;  602.425; -916.000; -824.000
418.500;  101.800; -383.000; -482.000
418.626;   92.850;   70.000;  -59.000
418.751;  104.250; -549.000; -448.000
418.877;  169.400; -637.000; -643.000
419.002; 1319.100; -688.000; -560.000
419.128; 9595.200; -930.000; -721.000
419.253; 2531.300; -967.000; -837.000
419.379;  320.100; -391.000; -338.000
419.504;  332.775;  325.000;  415.000
419.629;  387.975; -393.000; -212.000
419.755; 2386.525; -317.000; -254.000
419.880;14877.500;  -98.000;   67.000
420.006; 8750.625; -280.000; -221.000
420.131;24046.225; -662.000; -775.000
420.256; 3733.600; -315.000; -316.000
420.382;  487.675; -665.000; -687.000
420.507;   63.250; -649.000; -778.000
420.632;  199.925; -337.000; -339.000
420.758;  443.525; -251.000; -425.000
420.883;  -53.550; -876.000; -672.000
421.008;  -78.375; -775.000; -619.000
421.133;  -93.025; -509.000; -467.000
421.259;  -21.900; -325.000; -259.000
421.384;  -96.825; -834.000; -693.000
421.509;   26.650;-1052.000; -862.000
421.634; 1953.725; -936.000; -820.000
421.759;  949.475; -359.000; -327.000
421.885;  -18.125; -717.000; -656.000
422.010;  -47.925; -673.000; -542.000
422.135; -150.225; -695.000; -727.000
422.260;   45.250;  340.000;  280.000
422.385;  -32.950;   12.000;  -98.000
422.510;   17.900;  151.000;  -26.000
422.635;   17.000;  -87.000;  -43.000
422.760;  128.325; -766.000; -791.000
422.885;   58.475;  -57.000;  -80.000
423.010;  -23.175; -112.000; -169.000
423.135;  -99.925; -481.000; -561.000
423.260;   17.900; -150.000; -245.000
423.385;  104.650;  476.000;  222.000
423.510;   64.775;   71.000;  -22.000
423.635;  133.525;  133.000;   45.000
423.760;   77.975;  383.000;  328.000
423.885;   50.175;  336.000;  391.000
424.010;   39.825;  -68.000;  -13.000
424.135;  -20.075;    5.000;  -33.000
424.259;  -78.300; -654.000; -457.000
424.384;  -54.700; -279.000; -272.000
424.509;    0.125; -260.000; -186.000
424.634; -110.200; -761.000; -623.000
424.759;  -28.075; -688.000; -544.000
424.883;  -26.325; -506.000; -527.000
425.008;  152.700; -502.000; -410.000
425.133; 1575.250; -679.000; -653.000
425.258;  798.200; -517.000; -381.000
425.382; 1276.225; -867.000; -774.000
425.507; 3560.550; -487.000; -543.000
425.632;  557.400; -802.000; -663.000
425.756;  365.150; -256.000; -146.000
425.881; 4155.075; -831.000; -857.000
426.006;11819.400; -604.000; -355.000
426.130; 2128.250; -696.000; -508.000
426.255;  288.475; -611.000; -491.000
426.379;  113.850; -189.000; -577.000
426.504;  310.150;  660.000;  544.000
426.629; 3291.725; -519.000; -466.000
426.753; 2454.025;   64.000;  -46.000
426.878;  277.675; -252.000; -288.000
427.002;  129.750; -651.000; -668.000
427.127; 1256.450;  -35.000; -158.000
427.251; 8802.825;  372.000;  401.000
427.375; 2772.725; -191.000; -173.000
427.500; 2945.400; -616.000; -610.000
427.624; 1120.175; -234.000; -400.000
427.749;  160.925; -216.000; -225.000
427.873;   -0.750; -499.000; -412.000
427.997;  -17.200; -222.000; -230.000
428.122;   74.350;  795.000;  703.000
428.246;   91.475;  433.000;  434.000
428.371;  -96.775; -869.000; -773.000
428.495;  -85.700; -624.000; -646.000
428.619;  -30.700; -186.000; -117.000
428.743;   41.775;   65.000;  132.000
428.868;   57.325; -732.000; -643.000
428.992; 1918.775; -219.000; -326.000
429.116;  870.775; -329.000; -357.000
429.240;  445.875;  419.000;  426.000
429.365;    8.225; -454.000; -574.000
429.489;   -7.200; -638.000; -647.000
429.613;   29.800; -236.000; -177.000
429.737;   41.400; -563.000; -432.000
429.861;  213.700; -247.000; -133.000
429.985; 4289.675; -425.000; -305.000
430.109; 4973.350; -770.000; -908.000
430.234;  635.375;   76.000;  -50.000
430.358;   61.075; -250.000; -160.000
430.482;  -53.125; -672.000; -564.000
430.606;  -57.675; -655.000; -375.000
430.730;   55.500; -437.000; -388.000
430.854;  288.300; -909.000; -835.000
430.978;  -26.100; -795.000; -764.000
431.102;  -64.200; -499.000; -422.000
431.226;  -84.925; -874.000; -815.000
431.350;   62.000;  345.000;  422.000
431.474;  -51.675; -661.000; -373.000
431.597; -135.400;-1060.000; -848.000
431.721;  -73.000; -276.000; -267.000
431.845; -139.875; -704.000; -472.000
431.969;  -70.825; -304.000; -349.000
432.093;  -89.625; -395.000; -317.000
432.217;   -9.250;   32.000;   82.000
432.341;  -86.050; -523.000; -518.000
432.464;   27.900;   96.000;   40.000
432.588;  352.675; -401.000; -329.000
432.712;  174.000;  -52.000;  -52.000
432.836;   43.025;  213.000;  263.000
432.959;  -26.100; -372.000; -311.000
433.083;   47.075;   11.000;    2.000
433.207;  307.950;  285.000;  930.000
433.330; 3649.975; -391.000; -200.000
433.454; 4812.150; -654.000; -638.000
433.578; 2810.700;  583.000;  278.000
433.701;  592.450; -623.000; -675.000
433.825;  248.975; -292.000; -299.000
433.949;  384.500;   28.000;  -72.000
434.072;  190.275; -410.000; -323.000
434.196;   -0.950; -309.000; -117.000
434.319; 3668.000;25482.000;25124.000
434.443;  687.975; -656.000; -603.000
434.566; 2127.075;  281.000;   62.000
434.690;  380.100; -637.000; -383.000
434.813;   58.300; -251.000; -173.000
434.937;  -60.900; -569.000; -696.000
435.060;   -2.250; -423.000; -332.000
435.184;  655.850; -492.000; -217.000
435.307;  357.800;  159.000;  102.000
435.431;   29.075;  -40.000;   24.000
435.554;  -79.350; -399.000; -240.000
435.677;  -68.150; -350.000; -258.000
435.801;  -54.250;  -25.000;   49.000
435.924;   25.400;    1.000;  -67.000
436.048;  -70.750;-1019.000; -732.000
436.171;  -53.650; -240.000;  -66.000
436.294;  -40.125; -248.000; -229.000
436.417;   52.700; -963.000; -849.000
436.541;  -93.750; -814.000; -840.000
436.664;  -36.475; -242.000; -316.000
436.787;  -22.700;   13.000;  113.000
436.910;  -92.300; -792.000; -422.000
437.034;   32.175;  142.000;  143.000
437.157;  154.575;  -11.000;    0.000
437.280;   -6.350; -392.000; -292.000
437.403;   -6.525; -982.000; -869.000
437.526; 1102.450; -903.000; -865.000
437.649; 3999.900; -505.000; -332.000
437.772;  728.175; -692.000; -540.000
437.896;  188.925;  700.000;  544.000
438.019;  -72.575; -758.000; -503.000
438.142;  -69.100; -596.000; -506.000
438.265;   38.525; -639.000; -670.000
438.388;  966.025; -520.000; -410.000
438.511;  279.250; -597.000; -394.000
438.634;   -0.425; -247.000; -125.000
438.757; -127.575; -693.000; -619.000
438.880;  -17.825;  -34.000;  -57.000
439.003;  -68.300; -417.000; -437.000
439.126;  -51.025; -287.000; -167.000
439.248;  -66.825;  -98.000; -139.000
439.371;  -47.975;    9.000;  -53.000
439.494;   23.875;  510.000;  439.000
439.617;  -57.825;   65.000;  -88.000
439.740; -183.775; -968.000; -816.000
439.863; -143.900; -755.000; -595.000
439.986; -133.925; -476.000; -431.000
440.108;  -27.425; -161.000; -112.000
440.231; -160.900; -950.000; -836.000
440.354;  -23.975;  -64.000; -150.000
440.477;   96.125; -566.000; -542.000
440.599;   89.000; -200.000; -225.000
440.722; -116.900; -709.000; -586.000
440.845;   75.600;  751.000;  928.000
440.968; -114.975; -415.000; -311.000
441.090;  -69.275; -199.000;  -33.000
441.213; -164.125;-1021.000; -825.000
441.336;  -41.925; -159.000;   -5.000
441.458;  -62.525; -549.000; -396.000
441.581;  -49.700; -628.000; -629.000
441.703;  -75.450; -152.000;   13.000
441.826; -100.975; -557.000; -400.000
441.948;  -47.125;   56.000;   51.000
442.071;   31.650;  555.000;  424.000
442.193; -109.425; -531.000; -485.000
442.316;   25.675;  152.000;   97.000
442.438;   32.525; -233.000;  -10.000
442.561;  115.050;  272.000;  262.000
442.683;  916.075; -809.000; -522.000
442.806; 1975.225;   -8.000;   74.000
442.928;  179.425; -859.000; -604.000
443.051;  -29.425; -577.000; -373.000
443.173;  -87.925; -341.000; -339.000
443.295;  -74.725; -263.000; -371.000
443.418;  -68.300; -321.000;  -29.000
443.540;   20.800; -106.000;   -4.000
443.662; -121.650; -563.000; -465.000
443.785;   -4.150;  335.000;  199.000
443.907; -102.950; -362.000; -208.000
444.029; -122.125; -767.000; -494.000
444.152; -140.825; -644.000; -554.000
444.274;  -20.750;  -18.000;  -24.000
444.396; -110.700; -461.000; -221.000
444.518; -112.875; -691.000; -454.000
444.640; -111.400; -268.000; -111.000
444.763;   -8.675;  388.000;  249.000
444.885; -125.225; -432.000; -392.000
445.007;  -22.375;   35.000;   86.000
445.129; -119.900; -610.000; -515.000
445.251;  -89.350; -372.000; -439.000
445.373; -136.625; -537.000; -386.000
445.495;   14.525;  242.000;  350.000
445.617;   38.650;  853.000;  753.000
445.739;  -50.575; -215.000;  -97.000
445.861;  -27.325; -245.000; -112.000
445.984;  -13.225; -267.000; -101.000
446.105;  318.100; -418.000; -251.000
446.227;  989.450; -176.000;  -19.000
446.349;   86.900; -358.000; -249.000
446.471;  -77.375; -615.000; -448.000
446.593;  -51.075; -316.000;   19.000
446.715;   29.200;  -67.000;   41.000
446.837;   62.600;  697.000;  832.000
446.959;  -86.225; -457.000; -478.000
447.081; -129.150; -628.000; -518.000
447.203;   63.225;  862.000;  834.000
447.325;  -89.925; -270.000;   42.000
447.446;   -3.400;  286.000;  530.000
447.568; -136.625; -921.000; -803.000
447.690;  -78.000; -236.000; -245.000
447.812; -147.450; -798.000; -519.000
447.933;  -26.250;  155.000;  127.000
448.055;  -61.475; -306.000; -261.000
448.177;  207.750;   31.000;   79.000
448.299;  187.925; -935.000; -727.000
448.420;   53.275;  -25.000;  159.000
448.542;  -44.975;   -3.000;   33.000
448.664;  -10.900;  109.000;  322.000
448.785;  -41.750;  265.000;   83.000
448.907;  -56.600; -614.000; -353.000
449.028;   -4.850; -771.000; -471.000
449.150;   64.300;  492.000;  589.000
449.272; -180.100;-1044.000; -913.000
449.393;   27.575;  612.000;  694.000
449.515; -152.600; -634.000; -581.000
449.636;  -46.425; -264.000; -155.000
449.758;   87.275;  763.000;  622.000
449.879;  -74.600; -498.000; -396.000
450.001;  -94.575; -149.000;  -49.000
450.122;  -21.775;  -95.000;  162.000
450.244;  -29.525;   37.000;  364.000
450.365; -101.300; -495.000; -301.000
450.486;  -46.675;   80.000;  268.000
450.608;    1.300;  393.000;  326.000
450.729;   41.850;  578.000;  645.000
450.850;  -23.775; -574.000; -466.000
450.972;  455.000; -552.000; -389.000
451.093; 3410.475;  190.000;  588.000
451.214; 1577.250; -516.000; -337.000
451.336;  321.900;  773.000;  579.000
451.457;   42.600;  264.000;  393.000
451.578;  -32.650; -118.000;  -74.000
451.699; -138.275; -546.000; -540.000
451.821;  -65.125; -284.000;  -50.000
451.942;  -14.525;  278.000;  285.000
452.063;   36.300;  228.000;  419.000
452.184;  385.625;  -54.000;  -49.000
452.305;  865.100;  103.000;  170.000
452.427;   86.125; -549.000; -301.000
452.548;  -15.775;   23.000;   79.000
452.669;  -44.925; -257.000;  -89.000
452.790;  -20.575;    3.000;  -18.000
452.911;   -8.200;  195.000;  259.000
453.032;  -47.850; -289.000;  -60.000
453.153;  -38.525;  -29.000;   81.000
453.274;   63.650;  737.000;  868.000
453.395;  -30.725;  -51.000;  175.000
453.516;  151.025; 1317.000; 1388.000
453.637;  -50.675; -205.000; -150.000
453.758;  -30.600;   15.000;   69.000
453.879; -127.550; -462.000; -250.000
454.000;   91.325; 1086.000;  948.000
454.121; -102.450; -554.000; -326.000
454.242; -107.725; -599.000; -383.000
454.362;  -69.900;  -99.000;  114.000
454.483;  -27.150; -309.000; -229.000
454.604;   84.700;  512.000;  580.000
454.725; -102.550; -627.000; -555.000
454.846; -113.025; -474.000; -406.000
454.967;  -21.550;  230.000;  539.000
455.087;  -27.950;  179.000;  153.000
455.208;   26.325;  554.000;  856.000
455.329;  -71.950;  -22.000;   82.000
455.450;   13.425;  473.000;  633.000
455.570;  -83.500; -234.000; -211.000
455.691;  -34.050;  201.000;  407.000
455.812; -104.675; -270.000;  -92.000
455.932;  -67.475;  107.000;  -97.000
456.053;  -84.900;   36.000;   24.000
456.173; -106.525; -433.000; -355.000
456.294; -137.900; -476.000; -303.000
456.415;  -65.150;  -73.000;   70.000
456.535;  -36.150;  297.000;  273.000
456.656;  -29.725;  132.000;  240.000
456.776;  -75.875;    3.000;  298.000
456.897;   -5.000;  308.000;  513.000
457.017;  -84.550; -153.000;   -3.000
457.138;  -94.975; -402.000; -249.000
457.258;  -30.400;  263.000;  224.000
457.379;   -4.575;  509.000;  521.000
457.499;  -43.750;  443.000;  432.000
457.620; -120.275; -407.000; -231.000
457.740;  -97.225; -132.000;  -11.000
457.860;  -53.425;   87.000;   44.000
457.981;  -35.375;  132.000;  124.000
458.101;  -43.100;  -89.000;   40.000
458.221;  -26.800;  336.000;  402.000
458.342;  -52.275;   -4.000;  -37.000
458.462;    9.975;  617.000;  352.000
458.582;  -58.500; -302.000; -294.000
458.703;  -24.925;  303.000;  154.000
458.823;  -40.225;   22.000;  163.000
458.943;   11.700;  341.000;  467.000
459.063;  -20.875; 1124.000;  192.000
459.183;  -26.550;  328.000;  313.000
459.304;   23.400;  315.000;  517.000
459.424;  -82.750; -246.000;  -89.000
459.544;  228.925;  388.000;  764.000
459.664;  632.500;  499.000;  506.000
459.784;  268.125; 1004.000; 1175.000
459.904;   36.675;  867.000;  744.000
460.024;   91.250;  867.000;  684.000
460.144;   14.200;  449.000;  554.000
460.264;    6.850;  515.000;  327.000
460.385;  -95.875; -145.000; -119.000
460.505;   41.050;  905.000;  858.000
460.625;  -94.775;  -17.000;  -68.000
460.745;   -9.200;  396.000;  541.000
460.864;  -58.150;  153.000;  469.000
460.984;   36.525;  499.000;  573.000
461.104;  131.000; 1656.000; 1775.000
461.224;   32.275;  657.000;  650.000
461.344;  -39.225;  431.000;  360.000
461.464;  -19.925;  258.000;  513.000
461.584;  -14.925;  283.000;  466.000
461.704;  -25.475;   58.000;  108.000
461.824;  -52.150;  238.000;  259.000
461.943;  -27.575;  191.000;  130.000
462.063;  -74.250;    2.000;  324.000
462.183;   55.350;  639.000;  717.000
462.303;  118.925; 1678.000; 1230.000
462.422;   30.600;  781.000;  840.000
462.542;  -50.775;  271.000;  391.000
462.662;   52.325;  353.000;  380.000
462.782;  183.500;  833.000;  572.000
462.901;  402.250;  545.000;  717.000
463.021;  250.650; 1702.000; 1638.000
463.141;  -10.125;  337.000;  770.000
463.260;  -39.500;  614.000;  474.000
463.380;   30.500;  902.000;  884.000
463.499;  -50.425;  342.000;  332.000
463.619;  -27.475;  581.000;  559.000
463.738;  110.575; 1644.000;  903.000
463.858;   37.750;  657.000;  811.000
463.978;  -34.675;  542.000;  396.000
464.097;   42.800;  921.000; 1114.000
464.217;   75.225; 1196.000; 1143.000
464.336;   88.475; 1068.000; 1130.000
464.455;  -30.050;  328.000;  659.000
464.575;   64.725;  597.000;  602.000
464.694;  202.700; 1204.000; 1179.000
464.814;  135.075; 1190.000; 1138.000
464.933;   74.025; 1095.000; 1027.000
465.052;  101.725; 1412.000; 1054.000
465.172;   88.500;  922.000;  799.000
465.291;  172.525; 1376.000; 1320.000
465.410;    6.975;  462.000;  735.000
465.530;   96.600; 1355.000; 1310.000
465.649;   76.000; 1209.000; 1273.000
465.768;  153.550; 1673.000; 1508.000
465.888;   54.725;  941.000; 1174.000
466.007;  102.325; 1335.000; 1440.000
466.126;   -6.075;  721.000;  641.000
466.245;   45.950; 1176.000; 1187.000
466.364;   26.000;  950.000; 1060.000
466.484;   64.750; 1024.000; 1213.000
466.603;   41.875; 1101.000; 1222.000
466.722;  136.650; 1490.000; 1769.000
466.841;   94.150; 1151.000; 1401.000
466.960;   48.225; 1069.000;  972.000
467.079;  129.225; 1971.000; 1786.000
467.198;   51.875; 1238.000; 1181.000
467.317;   83.150; 1768.000; 1162.000
467.436;   81.000; 1709.000; 1261.000
467.555;  120.375; 1796.000; 1746.000
467.674;   72.900; 1227.000; 1329.000
467.793;   51.750; 1376.000; 1374.000
467.912;  103.225; 1658.000; 1539.000
468.031;  126.425; 2038.000; 1930.000
468.150;  142.525; 1842.000; 1837.000
468.269;  204.200; 2313.000; 2090.000
468.388;  194.850; 2168.000; 2339.000
468.507;  244.650; 2884.000; 2903.000
468.626;  275.000; 2555.000; 2541.000
468.744;  132.450; 2018.000; 2174.000
468.863;  201.750; 2312.000; 2523.000
468.982;   90.100; 1503.000; 1555.000
469.101;  218.300; 2788.000; 2692.000
469.220;  143.500; 2333.000; 2176.000
469.338;  252.175; 2935.000; 3051.000
469.457;  206.675; 2719.000; 2545.000
469.576;  349.625; 3953.000; 3784.000
469.695;  249.700; 2877.000; 3066.000
469.813;  440.400; 4148.000; 4192.000
469.932;  401.600; 4255.000; 4485.000
470.051;  428.200; 4075.000; 4161.000
470.169;  729.175; 4470.000; 4338.000
470.288; 1243.825; 4700.000; 4809.000
470.406;  811.925; 5059.000; 5194.000
470.525;  622.975; 6101.000; 5787.000
470.644;  631.950; 6847.000; 6794.000
470.762;  838.750; 8397.000; 7873.000
470.881;  892.100; 8651.000; 8464.000
470.999; 1020.250; 9685.000; 9151.000
471.118; 1076.850;11174.000;10711.000

