
Integration time [ms]: 100.000
Averaging Nr. [scans]: 40
Smoothing Nr. [pixels]: 0
Data measured with spectrometer [name]: 2101012U2
Wave   ;Sample   ;Dark     ;Reference
[nm]   ;[counts] ;[counts] ;[counts] 

197.733;   55.125;  516.000;  404.000
197.879;  -79.100; -610.000; -634.000
198.025;  -47.850; -475.000; -420.000
198.171;  -74.650; -602.000; -612.000
198.317;  -36.125; -401.000; -316.000
198.463;  -61.350; -655.000; -404.000
198.609;   22.050;  181.000; -137.000
198.755;  -79.475; -644.000; -410.000
198.901;  -60.075; -505.000; -424.000
199.047;  -62.400; -615.000; -488.000
199.193;  -41.575; -230.000; -468.000
199.339;  -39.850; -222.000; -369.000
199.485;   40.275;  330.000;  271.000
199.631;    3.125;  227.000;  310.000
199.777;  -57.250; -466.000; -398.000
199.923;  -65.225; -610.000; -424.000
200.069;   -9.900; -141.000;  -58.000
200.215;   43.725;  128.000;  453.000
200.361;   43.525;  243.000;  477.000
200.507;  -55.825; -600.000; -373.000
200.653;  -31.325; -371.000; -194.000
200.798;  -42.400; -215.000; -125.000
200.944;   -8.600; -146.000;  -41.000
201.090;   30.925;   61.000;  222.000
201.236;   -0.700; -116.000; -158.000
201.382;  101.675;  874.000;  903.000
201.528;    3.175;  -58.000;  -48.000
201.674;  -43.250; -386.000; -293.000
201.819;  -62.650; -540.000; -439.000
201.965;  -96.100; -699.000; -447.000
202.111;  -20.375; -273.000; -226.000
202.257;  -53.450; -250.000; -238.000
202.402;   12.250;   13.000;  -36.000
202.548;  -30.275; -169.000; -116.000
202.694;   89.925;  410.000; -183.000
202.840;  -81.600; -603.000; -531.000
202.985;  -82.150; -681.000; -639.000
203.131;  -99.450; -832.000; -666.000
203.277;  -18.075; -199.000; -262.000
203.423;  -63.025; -434.000; -520.000
203.568;  -47.150; -462.000; -237.000
203.714;  -59.725; -535.000; -542.000
203.860;  -80.650; -682.000; -641.000
204.005;   11.375;  112.000;  167.000
204.151;   80.675;  561.000;  556.000
204.296;  -46.500; -354.000; -221.000
204.442;  -73.650; -600.000; -547.000
204.588;  -75.025; -592.000; -579.000
204.733;    5.550;  178.000;  168.000
204.879; -124.950;-1018.000; -822.000
205.025;   15.125;  -99.000;  126.000
205.170;   -9.275;  -17.000;   94.000
205.316;   82.825;  438.000;  661.000
205.461;  -78.850; -698.000; -554.000
205.607;   76.750;  609.000;  665.000
205.752;  -88.050; -626.000; -551.000
205.898;  -44.525; -501.000; -391.000
206.043;  -72.600; -578.000; -506.000
206.189;  -28.875; -243.000; -285.000
206.334;   74.375;  554.000;  606.000
206.480;   64.975;  409.000;  239.000
206.625;  -99.775; -529.000; -552.000
206.771;  -37.000; -451.000; -373.000
206.916;  -33.050; -210.000; -537.000
207.062;  -70.475; -545.000; -591.000
207.207;  -84.275; -546.000; -443.000
207.353;   46.400;  185.000;  460.000
207.498;    3.550;  196.000;   85.000
207.643;  -56.025; -501.000; -370.000
207.789; -128.250;-1069.000; -910.000
207.934;  -89.500; -665.000; -713.000
208.080;  -34.000; -154.000;   66.000
208.225;   -7.350;  -22.000;  -57.000
208.370;  -85.025; -727.000; -619.000
208.516;  -85.575; -741.000; -487.000
208.661;  -24.625; -127.000;  -69.000
208.806;  -18.875; -165.000; -171.000
208.952; -134.825;-1044.000; -731.000
209.097;   70.275;  378.000;  349.000
209.242;  -54.900; -307.000; -382.000
209.387;   57.775;  392.000;  350.000
209.533;  -61.250; -321.000; -350.000
209.678;   75.625;  472.000;  543.000
209.823;  -67.600; -408.000; -310.000
209.969; -101.725; -860.000; -757.000
210.114; -101.475; -907.000; -719.000
210.259; -107.150; -939.000; -889.000
210.404;  -13.475; -171.000;  103.000
210.549;    6.750;  108.000;    3.000
210.695;  -27.825;   -3.000;  -95.000
210.840;   34.650;   94.000;   67.000
210.985;  -64.700; -484.000; -303.000
211.130;   75.850;  268.000;  406.000
211.275;   -6.425;  207.000;  199.000
211.420;  -54.550; -300.000; -289.000
211.566;  -77.525; -536.000; -489.000
211.711;    9.575;  218.000;  157.000
211.856;  -75.025; -545.000; -519.000
212.001;   -6.550;  151.000;   44.000
212.146;   12.900;  153.000;   49.000
212.291;  -36.050; -210.000; -186.000
212.436;  -33.575; -280.000;   -6.000
212.581;  -90.650; -685.000; -653.000
212.726;  -87.475; -487.000; -538.000
212.871;  -63.775; -552.000; -217.000
213.016; -152.025;-1172.000;-1029.000
213.161;   74.725;  406.000;  291.000
213.306;  -87.100; -435.000; -577.000
213.451;  -96.650; -778.000; -689.000
213.596;  -55.450; -455.000; -347.000
213.741;  -55.075; -448.000; -538.000
213.886;  -75.525; -498.000; -517.000
214.031;  -18.525; -294.000; -124.000
214.176;  -49.700; -408.000; -341.000
214.321;  -22.975; -296.000; -157.000
214.466;  -33.225; -163.000;  -43.000
214.611;   -9.850;  -61.000;  -10.000
214.756; -130.425; -948.000; -858.000
214.901;  -12.600; -388.000; -226.000
215.046; -124.675; -797.000; -825.000
215.191;   17.725;  128.000;   35.000
215.336;  -19.325; -157.000;  -19.000
215.480;  -73.925; -684.000; -505.000
215.625;  -13.375; -175.000;  -19.000
215.770;  -73.600; -757.000; -662.000
215.915;  -20.525;   -5.000;  -97.000
216.060;  -22.200; -113.000;  -21.000
216.205; -114.975; -731.000; -779.000
216.349;  -70.650; -470.000; -533.000
216.494; -127.725; -939.000; -867.000
216.639; -110.275; -823.000; -888.000
216.784;  -86.475; -577.000; -525.000
216.929;   39.725;  392.000;  281.000
217.073;  -25.675; -244.000;  -31.000
217.218;   -6.775;   78.000;  -47.000
217.363;  -80.275; -656.000; -618.000
217.507;  -80.300; -623.000; -588.000
217.652; -122.450; -845.000; -874.000
217.797; -100.750; -708.000; -659.000
217.942; -112.900; -856.000; -720.000
218.086;   57.675;  608.000;  539.000
218.231;  -32.225; -174.000;  -26.000
218.376;  -34.200; -337.000; -229.000
218.520;   -8.075;  -41.000;   96.000
218.665;  -42.250; -338.000; -204.000
218.810;  -40.500; -275.000; -233.000
218.954;   15.925;  201.000;   35.000
219.099; -116.050; -713.000; -963.000
219.243;  -64.425; -589.000; -554.000
219.388;  -35.925; -264.000; -136.000
219.532;   -9.875; -116.000; -116.000
219.677;  -82.775; -564.000; -521.000
219.822;    3.500;   33.000;   89.000
219.966;    1.425;   17.000;  -99.000
220.111;  -35.950; -328.000;  -40.000
220.255;  -89.900; -797.000; -750.000
220.400;  -26.150; -180.000; -146.000
220.544;  -74.500; -516.000; -450.000
220.689;  -49.975; -422.000; -451.000
220.833;  -33.675; -123.000;  -58.000
220.978;  -42.675; -393.000; -563.000
221.122;   10.800;  319.000;  307.000
221.267; -108.125; -906.000; -837.000
221.411;  -56.525; -478.000; -394.000
221.555;  -14.900; -104.000;  -23.000
221.700;  -58.600; -329.000; -222.000
221.844;   45.225;  255.000;  272.000
221.989;  -58.850; -328.000; -311.000
222.133;  -41.100; -289.000; -307.000
222.277;  -21.200;    5.000;   78.000
222.422;   11.975;  227.000;  113.000
222.566;  -39.700; -381.000; -214.000
222.711;  -50.975; -414.000; -479.000
222.855;  -77.950; -643.000; -586.000
222.999;  -83.325; -642.000; -717.000
223.144;  -35.900; -195.000; -194.000
223.288;   53.375;  423.000;  251.000
223.432;   21.500;  184.000;  230.000
223.576;   24.425;  152.000;  -21.000
223.721;   28.800;  364.000;  273.000
223.865;  -68.375; -472.000; -475.000
224.009;  253.425; 1673.000; 1631.000
224.153;  -77.125; -660.000; -671.000
224.298;  -60.275; -531.000; -489.000
224.442;  -20.250;  -74.000;  -33.000
224.586;  -10.300; -169.000; -106.000
224.730; -102.250; -858.000; -670.000
224.875; -100.475; -739.000; -688.000
225.019;   18.950;  102.000;  188.000
225.163;   44.300;  208.000;  341.000
225.307;   16.350;   97.000;  -91.000
225.451;   37.725;  360.000;  481.000
225.595;   25.025;  264.000;  176.000
225.739;  -30.400; -170.000;  -94.000
225.884;   -4.125;   86.000;    5.000
226.028; -102.475; -760.000; -626.000
226.172;  -42.925; -260.000; -273.000
226.316; -115.375; -941.000; -902.000
226.460;  -65.375; -645.000; -493.000
226.604;  -57.075; -406.000; -400.000
226.748;  -89.275; -836.000; -733.000
226.892;  -47.925; -227.000; -181.000
227.036;  -44.375; -537.000; -447.000
227.180;  -59.550; -551.000; -375.000
227.324;  -71.925; -561.000; -580.000
227.468; -117.450; -819.000; -717.000
227.612;    9.375;  242.000;  -28.000
227.756;  -95.125; -845.000; -698.000
227.900;   48.575;  342.000;  441.000
228.044;  -66.375; -509.000; -290.000
228.188;   54.450;  448.000;  568.000
228.332;  -79.000; -546.000; -472.000
228.476;  -27.575; -223.000; -149.000
228.620;  -43.925; -210.000; -150.000
228.764;   71.225;  431.000;  349.000
228.908;  -14.600; -155.000;   30.000
229.052;  -65.600; -615.000; -528.000
229.195;  -29.200; -172.000;   13.000
229.339;  -36.625; -235.000; -305.000
229.483;  -47.450;    5.000; -162.000
229.627;   -3.950; -156.000;  139.000
229.771;  -60.700; -218.000; -294.000
229.915;   -0.050;  230.000;   79.000
230.059;  -90.150; -648.000; -663.000
230.202;  -55.250; -370.000; -317.000
230.346;  -13.975; -107.000;  107.000
230.490;  -72.800; -489.000; -521.000
230.634; -113.175; -736.000; -553.000
230.777;   56.325;  478.000;  509.000
230.921;  -59.950; -450.000; -359.000
231.065;  -38.075; -246.000; -286.000
231.209;   21.600;  261.000;  265.000
231.352;   22.775;   54.000;   40.000
231.496;   18.975;  568.000;  188.000
231.640;  -84.200; -693.000; -621.000
231.783;   49.775;  546.000;  525.000
231.927;  -51.525; -294.000; -365.000
232.071; -117.175; -962.000; -736.000
232.214; -113.075; -980.000; -764.000
232.358; -104.925; -683.000; -599.000
232.502;  -12.075;  -19.000;    7.000
232.645; -138.000;-1090.000; -927.000
232.789;  -18.750; -257.000; -218.000
232.933;  -52.975; -407.000; -224.000
233.076; -124.350;-1038.000; -897.000
233.220; -107.650; -752.000; -777.000
233.363;  -75.400; -669.000; -477.000
233.507;   54.225;  371.000;  129.000
233.650;  -87.100; -764.000; -834.000
233.794;   37.575;  438.000;  461.000
233.938;  -67.300; -530.000; -362.000
234.081;  -34.900;  -93.000;   31.000
234.225;  -70.050; -631.000; -539.000
234.368; -111.725; -773.000; -723.000
234.512;  -44.325; -385.000; -299.000
234.655;  -97.050; -582.000; -555.000
234.798;  -77.200; -493.000; -466.000
234.942; -148.200; -884.000;-1002.000
235.085;  -77.150; -651.000; -443.000
235.229;  -75.525; -405.000; -410.000
235.372;  -44.400; -247.000; -191.000
235.516;  -67.700; -397.000; -321.000
235.659;   18.650;   92.000;  121.000
235.802;  -21.925;  -38.000;  -22.000
235.946;   19.175;  335.000;  215.000
236.089;   30.800;  126.000;  250.000
236.233;   48.400;  275.000;  298.000
236.376;  -54.750; -235.000; -378.000
236.519;  -45.575; -297.000; -319.000
236.663;  -35.675; -215.000; -117.000
236.806; -136.850;-1029.000; -999.000
236.949;   40.325;  543.000;  431.000
237.092;   49.675;  412.000;  391.000
237.236;  -86.850; -589.000; -502.000
237.379;   61.675;  352.000;  428.000
237.522; -133.025; -879.000; -768.000
237.666;  -13.325; -271.000;   18.000
237.809; -114.800; -851.000; -823.000
237.952;   27.275;  469.000;  271.000
238.095;  -66.275; -447.000; -442.000
238.238;   69.150;  688.000;  700.000
238.382;   -3.625;  166.000;  103.000
238.525;  -68.300; -598.000; -511.000
238.668; -135.750;-1060.000; -985.000
238.811;  -74.875; -638.000; -643.000
238.954;  -56.975; -483.000; -334.000
239.097;   72.575;  617.000;  664.000
239.241;   25.150;  394.000;  326.000
239.384;  -32.375; -254.000; -214.000
239.527;  -57.275; -424.000; -224.000
239.670; -142.675; -994.000;-1091.000
239.813; -107.775; -696.000; -658.000
239.956;   65.250;  579.000;  473.000
240.099; -114.250; -778.000; -725.000
240.242;   48.350;  428.000;  432.000
240.385;   38.050;  466.000;  450.000
240.528;  -70.450; -706.000; -473.000
240.671;    5.550;  189.000;  134.000
240.814;  -44.125; -441.000; -158.000
240.957;  -92.125; -767.000; -578.000
241.100;  -97.650; -779.000; -755.000
241.243; -142.450;-1234.000; -893.000
241.386;  -60.700; -508.000; -379.000
241.529;  -89.850; -735.000; -547.000
241.672;  -56.025; -566.000; -495.000
241.815; -112.450; -832.000; -808.000
241.958;  -25.550; -125.000; -182.000
242.101;  -87.375; -545.000; -390.000
242.244;  -47.375; -270.000; -325.000
242.387;  -50.625; -304.000; -246.000
242.530;   52.600;  470.000;  134.000
242.673;  -42.600; -381.000; -309.000
242.815; -118.825; -925.000; -899.000
242.958;  -91.050; -482.000; -381.000
243.101;    8.225;  132.000;  187.000
243.244;  -86.425; -564.000; -521.000
243.387;  -50.475; -313.000; -316.000
243.530;  -87.350; -657.000; -674.000
243.672;  -11.600;   43.000;  -92.000
243.815;  -61.450; -355.000; -283.000
243.958;   -5.875;   98.000;  -26.000
244.101;   -4.375;   59.000;  -16.000
244.243;  -22.000;  -47.000;  101.000
244.386; -112.425; -761.000; -630.000
244.529;  -22.475; -132.000; -139.000
244.672; -155.250;-1154.000; -951.000
244.814; -107.675; -621.000; -794.000
244.957;  -38.750; -380.000; -304.000
245.100;  -72.050; -489.000; -489.000
245.242;  -65.800; -387.000; -374.000
245.385;   -3.325;  -59.000;  -39.000
245.528; -126.825; -871.000; -705.000
245.670;  102.775;  612.000;  634.000
245.813;  -87.425; -599.000; -547.000
245.956;  -39.750; -324.000; -275.000
246.098;  -82.050; -508.000; -650.000
246.241;   -4.125;  194.000;   48.000
246.383;  -18.800; -119.000;  -73.000
246.526;  -76.575; -454.000; -525.000
246.669; -117.575; -889.000; -780.000
246.811;   13.425;  172.000;   -1.000
246.954;  -73.125; -512.000; -426.000
247.096;  -13.875;  -84.000;   -6.000
247.239;  -68.975; -482.000; -445.000
247.381;  -67.250; -647.000; -488.000
247.524;   78.550;  645.000;  679.000
247.666;   -0.850;   58.000;   11.000
247.809; -125.200; -887.000; -691.000
247.951;   -3.550;  -75.000;  138.000
248.094;   17.425;  432.000;  308.000
248.236; -148.350;-1262.000;-1238.000
248.378;    3.625; -356.000;  -81.000
248.521;  -27.925; -334.000; -337.000
248.663;  -37.375; -236.000; -267.000
248.806;  -35.175; -300.000; -266.000
248.948; -112.100; -886.000; -763.000
249.090;  -49.425; -428.000; -398.000
249.233;  -39.875; -344.000; -381.000
249.375;  -66.000; -474.000; -451.000
249.518;  -17.650;  -83.000; -133.000
249.660;  -18.225; -103.000;    3.000
249.802; -164.300;-1303.000;-1189.000
249.945;  -79.025; -612.000; -540.000
250.087; -125.350; -834.000; -768.000
250.229;  -45.900; -362.000; -480.000
250.371;  -86.550; -494.000; -439.000
250.514;  -54.775; -310.000; -244.000
250.656;  -63.275;   69.000;  102.000
250.798; -113.675; -849.000; -800.000
250.940;  -70.500; -322.000; -322.000
251.083;  -16.950; -335.000; -111.000
251.225;   48.575;  338.000;  310.000
251.367;  -33.700; -274.000; -373.000
251.509;  -42.425; -265.000; -210.000
251.651;  -98.600; -731.000; -671.000
251.794;   56.425;  538.000;  632.000
251.936; -111.900; -821.000; -747.000
252.078;  -89.475; -540.000; -461.000
252.220;  -63.550; -645.000; -477.000
252.362;   79.900;  344.000;  462.000
252.504;  -64.200; -677.000; -584.000
252.646; -121.025; -875.000; -722.000
252.788;    3.000;   14.000; -128.000
252.931;  -51.000; -257.000; -253.000
253.073;  -46.525; -376.000; -317.000
253.215;  -18.525;  141.000;  122.000
253.357;  -16.000;   82.000; -153.000
253.499;  -61.925; -374.000; -234.000
253.641;  -83.875; -749.000; -594.000
253.783;  -92.875; -609.000; -527.000
253.925;  -77.125; -586.000; -591.000
254.067; -116.175; -744.000; -667.000
254.209;  -27.125; -391.000; -259.000
254.351; -131.750; -865.000; -883.000
254.493;  -60.800; -441.000; -417.000
254.635; -124.975; -936.000; -818.000
254.777;  -73.925; -752.000; -687.000
254.918;  -70.025; -512.000; -430.000
255.060;  -56.325; -551.000; -395.000
255.202;  -67.625; -473.000; -261.000
255.344;  -78.275; -658.000; -455.000
255.486;  -69.650; -471.000; -406.000
255.628; -119.625; -780.000; -781.000
255.770;  -98.125; -676.000; -536.000
255.912;  -66.900; -559.000; -468.000
256.053;  -92.050; -730.000; -508.000
256.195;  147.700; 1008.000;  903.000
256.337; -101.425; -861.000; -595.000
256.479;   44.050;  532.000;  416.000
256.621;  -53.800; -394.000; -212.000
256.762;  -99.550; -789.000; -742.000
256.904;   40.675;  485.000;  487.000
257.046;  -50.400; -381.000; -271.000
257.188;  -57.450; -351.000; -264.000
257.329;  -85.850; -525.000; -464.000
257.471; -111.725; -939.000; -807.000
257.613;  -66.875; -584.000; -498.000
257.755; -156.600;-1073.000; -982.000
257.896;   30.125;  286.000;  392.000
258.038;  -69.425; -403.000; -352.000
258.180;  -41.950; -354.000; -279.000
258.321;  -95.300; -581.000; -457.000
258.463;   -6.400;  -71.000;  133.000
258.605;  -83.675; -562.000; -570.000
258.746; -101.800; -886.000; -772.000
258.888; -168.350;-1026.000;-1020.000
259.029;   13.200;  121.000;   -8.000
259.171; -103.225; -614.000; -550.000
259.313;  -11.275;  -49.000;  -47.000
259.454;  -88.975; -536.000; -414.000
259.596;  -56.400; -483.000; -390.000
259.737;  -75.500; -590.000; -474.000
259.879;   31.875;  217.000;  311.000
260.020;   90.375;  901.000;  636.000
260.162;  -34.600; -146.000; -253.000
260.303; -118.050; -768.000; -687.000
260.445;  -93.925; -609.000; -613.000
260.586;   15.175;  392.000;  157.000
260.728;  -50.625; -360.000; -248.000
260.869; -124.900; -350.000; -343.000
261.011;   70.850;  706.000;  537.000
261.152;  -73.300; -479.000; -319.000
261.293;  -78.400; -576.000; -595.000
261.435;  -26.075; -219.000; -184.000
261.576;  -42.125; -455.000; -325.000
261.718;   41.225;  420.000;  470.000
261.859; -120.650; -940.000; -949.000
262.000; -137.750; -951.000;-1016.000
262.142;  -36.525;  -52.000;  -60.000
262.283; -113.475; -808.000; -691.000
262.424;  -87.775; -666.000; -625.000
262.566; -151.825;-1161.000; -983.000
262.707; -120.475; -840.000; -830.000
262.848; -129.525; -769.000; -726.000
262.990;  -42.800; -362.000; -345.000
263.131;   80.525;  650.000;  681.000
263.272;  -13.150;  -61.000;  -41.000
263.413;  -89.625; -589.000; -561.000
263.555;  -67.400; -669.000; -143.000
263.696;  -91.675; -550.000; -641.000
263.837;  -64.325; -449.000; -551.000
263.978;  -16.325;   -5.000;  -77.000
264.119;  -53.975; -283.000; -264.000
264.261; -105.525; -847.000; -630.000
264.402;   -4.650;   33.000;   40.000
264.543;  -86.925; -509.000; -524.000
264.684;  -10.025;   61.000;  -50.000
264.825;  -78.825; -816.000; -538.000
264.966;   -6.825;  -84.000;  -67.000
265.107; -116.625; -646.000; -670.000
265.248; -124.450; -825.000; -812.000
265.390;  -19.225;  152.000;   -9.000
265.531;  -28.125; -238.000; -107.000
265.672;  -93.400; -557.000; -630.000
265.813;   54.400;  563.000;  439.000
265.954; -148.500; -959.000; -940.000
266.095;  -18.125; -372.000; -322.000
266.236;  -84.650; -686.000; -548.000
266.377;  -43.525; -243.000; -297.000
266.518;  -66.325; -619.000; -547.000
266.659;   13.475;  170.000;  268.000
266.800;   -5.125;   83.000;   85.000
266.941;  -75.200; -487.000; -478.000
267.082;   11.325;  354.000;   99.000
267.223;  -44.550; -344.000; -273.000
267.364; -124.150; -892.000; -686.000
267.504;   -6.725;    3.000;  135.000
267.645;   -2.650;  160.000;   67.000
267.786;  -42.550; -147.000;  -86.000
267.927;  -77.375; -473.000; -379.000
268.068;  -16.200; -186.000;  -61.000
268.209;  -44.000; -175.000; -413.000
268.350;  -69.425; -388.000; -532.000
268.490;  -98.050; -648.000; -521.000
268.631;   16.300;  127.000;  225.000
268.772; -113.800; -874.000; -647.000
268.913;  -47.275; -328.000; -476.000
269.054;   -9.125; -117.000;   12.000
269.194;  -46.425; -418.000; -402.000
269.335; -156.450;-1137.000;-1074.000
269.476;  -15.225;   33.000;  -35.000
269.617;  -47.600; -347.000; -392.000
269.757;  -86.025; -713.000; -646.000
269.898; -109.000; -856.000; -613.000
270.039;  -74.725; -415.000; -405.000
270.180; -142.750; -952.000; -816.000
270.320;  -26.825; -190.000; -250.000
270.461;  -50.350; -277.000; -249.000
270.602;  -33.850; -186.000; -156.000
270.742; -121.450; -868.000; -943.000
270.883;  -49.200; -442.000; -390.000
271.023;  -69.550; -358.000; -357.000
271.164;  -83.100; -607.000; -528.000
271.305; -118.200; -666.000; -654.000
271.445;  -89.700; -722.000; -683.000
271.586;  -66.450; -462.000; -283.000
271.726;  -60.950; -397.000; -322.000
271.867;  -60.675; -594.000; -534.000
272.008;  201.675; -473.000; -285.000
272.148;  122.375;  462.000;  468.000
272.289;   19.925; -113.000; -181.000
272.429;   12.825;   19.000;  185.000
272.570;  -89.200; -633.000; -737.000
272.710; -117.175; -825.000; -775.000
272.851;  -27.375;  113.000; -130.000
272.991; -162.325;-1173.000;-1077.000
273.131;  -67.075; -419.000; -459.000
273.272;  -97.175; -683.000; -723.000
273.412;   10.375; -143.000;  -31.000
273.553;  -65.875; -488.000; -507.000
273.693;  140.200;  913.000;  858.000
273.834;  -86.075; -894.000; -692.000
273.974;  -68.700; -664.000; -615.000
274.114;  -97.500; -772.000; -560.000
274.255;   76.450;  414.000;  373.000
274.395;   17.500; -180.000; -125.000
274.535;   45.700;  199.000;  350.000
274.676;   25.150;  225.000;   94.000
274.816;    7.000;  110.000;   34.000
274.956;  -79.475; -624.000; -690.000
275.097;  -37.425;-1014.000; -922.000
275.237; -118.525; -913.000; -803.000
275.377;  -95.750; -778.000; -689.000
275.517; -138.400; -878.000; -937.000
275.658;  -54.775; -590.000; -555.000
275.798;  -69.850; -606.000; -413.000
275.938;   20.000;  215.000;  323.000
276.078;  -83.475; -626.000; -395.000
276.218;   -0.600;   99.000;  104.000
276.359;  -83.800;-1026.000;-1024.000
276.499;  -72.700; -605.000; -446.000
276.639;  -45.900; -305.000; -151.000
276.779;  -47.175; -475.000; -357.000
276.919; -102.200; -783.000; -624.000
277.059;   -7.625; -261.000; -212.000
277.199;  -47.700; -357.000; -259.000
277.340;   29.225;  287.000;  175.000
277.480; -120.000; -840.000; -693.000
277.620;   40.450;  192.000;   16.000
277.760; -199.200;-1533.000;-1294.000
277.900;   21.700;  113.000;   33.000
278.040;   21.025;  137.000;  159.000
278.180;   40.925;  270.000;  170.000
278.320;   -8.625;   21.000;   56.000
278.460;  -64.025; -443.000; -469.000
278.600;  -91.025; -708.000; -598.000
278.740;   45.050;  448.000;  224.000
278.880;  -45.450; -768.000; -791.000
279.020;   -3.000; -194.000; -144.000
279.160;  -89.700; -672.000; -595.000
279.300; -123.500; -926.000; -873.000
279.440;  -83.500; -709.000; -622.000
279.579;   -4.725;-1014.000; -929.000
279.719;  -46.000; -410.000; -394.000
279.859;   81.125;   -4.000;   41.000
279.999;   26.900; -208.000;  101.000
280.139;  -20.475; -435.000; -387.000
280.279;  -82.725; -708.000; -745.000
280.419;  -26.675; -229.000; -147.000
280.559;  -30.675; -259.000; -180.000
280.698;  -68.900; -790.000; -639.000
280.838;  -92.425; -778.000; -800.000
280.978;  -99.300; -846.000; -790.000
281.118; -117.125; -811.000; -704.000
281.257;   22.075;   24.000;    6.000
281.397; -100.725;-1094.000; -960.000
281.537;  -73.650; -599.000; -712.000
281.677;  -30.800; -150.000; -101.000
281.816;  -87.225; -700.000; -630.000
281.956;  -44.825; -193.000; -257.000
282.096;  -70.725; -539.000; -396.000
282.235; -117.250; -672.000; -638.000
282.375;  -19.000; -243.000;  -98.000
282.515;  -99.950; -715.000; -707.000
282.654;   37.725;   29.000;  106.000
282.794;    5.300;  388.000;  244.000
282.934;  -49.825; -530.000; -491.000
283.073; -133.175;-1030.000; -857.000
283.213;  -58.925; -460.000; -467.000
283.353;  -32.200; -408.000; -349.000
283.492;  -25.475; -264.000; -296.000
283.632;  -34.250; -254.000; -168.000
283.771; -100.875; -859.000; -730.000
283.911;  -34.900; -369.000; -260.000
284.050;  -98.775; -794.000; -748.000
284.190; -160.525;-1229.000;-1096.000
284.329; -135.800;-1055.000; -964.000
284.469;  -63.525; -516.000; -591.000
284.608;  -47.475; -559.000; -598.000
284.748;  -77.875; -614.000; -570.000
284.887;  -19.050;  -87.000;  -20.000
285.027; -129.075; -844.000; -892.000
285.166;  -21.925; -192.000; -249.000
285.306;    9.275; -116.000;  -33.000
285.445;  -55.575; -229.000; -343.000
285.584;  -98.975; -630.000; -494.000
285.724;  -49.325; -282.000; -322.000
285.863; -119.100; -857.000; -507.000
286.002;  -45.425; -366.000; -276.000
286.142; -116.250; -715.000; -622.000
286.281;  -77.325; -525.000; -493.000
286.420;  -72.125; -554.000; -417.000
286.560;   87.000;  653.000;  623.000
286.699; -139.625; -958.000; -912.000
286.838;  -88.325; -590.000; -591.000
286.978; -101.375; -533.000; -537.000
287.117; -134.875;-1085.000; -950.000
287.256;  -44.950; -228.000; -211.000
287.395;  -42.650; -197.000; -378.000
287.535;  -54.300; -370.000; -298.000
287.674;  -78.750; -509.000; -484.000
287.813;   49.825;  661.000;  533.000
287.952; -116.325;-1010.000; -871.000
288.091; -143.900;-1049.000; -915.000
288.231;    8.750;   13.000;   15.000
288.370; -176.225;-1217.000;-1200.000
288.509;  -92.450; -728.000; -645.000
288.648;  -90.200; -770.000; -548.000
288.787;  -43.000; -243.000;  -87.000
288.926;  -51.575; -454.000; -475.000
289.065;  116.900;  859.000;  672.000
289.204;  -65.175; -377.000; -217.000
289.344;  -91.975; -791.000; -690.000
289.483;   18.300;  416.000;  304.000
289.622;  -32.450; -291.000; -149.000
289.761;  -11.200; -309.000; -166.000
289.900; -114.800; -785.000; -626.000
290.039;  -22.175;  -12.000;  -95.000
290.178;  -48.350; -274.000; -180.000
290.317;  -84.975; -618.000; -479.000
290.456;  -63.525; -463.000; -451.000
290.595; -138.575; -961.000; -833.000
290.734; -138.400; -904.000; -891.000
290.873;  -77.225; -456.000; -420.000
291.011; -104.475; -833.000; -843.000
291.150; -102.300; -770.000; -682.000
291.289;  -18.325; -343.000; -110.000
291.428;  -89.000; -599.000; -480.000
291.567;  -46.350; -370.000; -442.000
291.706;  -18.300;  109.000;  154.000
291.845;  -71.225; -597.000; -505.000
291.984; -161.675;-1234.000;-1061.000
292.122;   55.950;  602.000;  582.000
292.261;   41.375;  620.000;  463.000
292.400;   19.550; -144.000;  211.000
292.539; -116.200; -959.000; -813.000
292.678;  -30.025; -325.000; -300.000
292.816; -149.125;-1136.000; -965.000
292.955;  -80.800; -844.000; -684.000
293.094;  -25.575; -173.000; -337.000
293.233;  -57.250; -556.000; -400.000
293.371;  -49.475; -225.000;  -84.000
293.510;  -95.200; -866.000; -780.000
293.649; -133.325; -959.000; -924.000
293.787;  -39.175;-1083.000;-1012.000
293.926;   -2.150; -113.000;  -32.000
294.065;  -41.050; -379.000; -290.000
294.203;   37.000;  298.000;  406.000
294.342;   27.200;   74.000;  156.000
294.481; 5287.425;51180.000; -836.000
294.619;  -39.950; -425.000; -582.000
294.758; -135.475;-1230.000;-1137.000
294.896;   82.375; -125.000;    5.000
295.035; -132.075;-1040.000;-1006.000
295.174; -111.450;-1082.000; -954.000
295.312;  -49.850; -323.000; -203.000
295.451;    1.475; -307.000; -428.000
295.589;  -46.200; -389.000; -518.000
295.728;   14.250; -292.000; -165.000
295.866;   -6.425;  -36.000;  -51.000
296.005;  -63.900; -584.000; -341.000
296.143;  -65.500; -558.000; -596.000
296.282; -106.725; -957.000; -881.000
296.420;  -88.325; -657.000; -557.000
296.559;  -70.875; -892.000; -633.000
296.697;   43.875; -847.000; -665.000
296.835;  107.150;-1141.000;-1002.000
296.974;   59.050;  -23.000;   39.000
297.112;   30.225; -443.000; -504.000
297.251;  -64.375; -815.000; -755.000
297.389;  144.600; -576.000; -438.000
297.527;   51.375; -145.000;  -83.000
297.666;  -35.950; -486.000; -438.000
297.804;  -42.375; -404.000; -264.000
297.942;   -6.300; -136.000; -161.000
298.081;   -6.125; -183.000;   63.000
298.219;   88.075;  -17.000;  -19.000
298.357;   66.375; -144.000;  -71.000
298.495;   53.050; -810.000; -812.000
298.634;   92.050;  245.000;  219.000
298.772;   78.900; -220.000; -338.000
298.910;  -33.950; -309.000; -182.000
299.048;    1.300; -130.000; -153.000
299.187;  -28.950; -350.000; -250.000
299.325;   17.800;   52.000;  122.000
299.463;   94.575; -389.000; -299.000
299.601;  142.425; -327.000; -271.000
299.739;  -88.050; -908.000; -883.000
299.877;  -75.575; -791.000; -703.000
300.016;  -18.725;-1095.000; -935.000
300.154;  205.750;  -19.000; -161.000
300.292;   84.925; -428.000; -348.000
300.430;   40.550; -408.000; -291.000
300.568;  -95.950; -940.000; -874.000
300.706;  -43.525; -366.000; -469.000
300.844;  -64.975;-1108.000; -979.000
300.982;  133.825;  246.000;  282.000
301.120; -110.975; -965.000; -866.000
301.258;  -57.000; -812.000; -705.000
301.396;   37.925;  104.000;  -41.000
301.534;  115.375; -218.000; -293.000
301.672;   24.975; -664.000; -521.000
301.810;   56.175; -613.000; -545.000
301.948;  119.450;   53.000;  149.000
302.086;  772.800; -250.000;  -32.000
302.224; 1129.350; -610.000; -585.000
302.362;   65.450; -558.000; -622.000
302.500;    7.125; -923.000; -893.000
302.638;  136.425;  128.000;  245.000
302.776;   13.550; -352.000; -408.000
302.913;   41.950;  447.000;  236.000
303.051;   12.850;  -86.000;  -23.000
303.189;   62.950;   90.000;  118.000
303.327;  -32.250; -341.000; -256.000
303.465;  -76.625; -832.000; -588.000
303.603;  -89.600; -805.000; -604.000
303.740;  118.850;  417.000;  241.000
303.878;   55.375; -800.000; -759.000
304.016;  -96.125; -915.000; -790.000
304.154; -118.050;-1123.000;-1152.000
304.291;  -23.425; -505.000; -554.000
304.429;    8.750;  102.000;   74.000
304.567; -108.800; -908.000; -893.000
304.705;  -48.275; -408.000; -515.000
304.842;  130.950; -616.000; -540.000
304.980;   50.825;  215.000;   35.000
305.118;   77.575; -367.000; -365.000
305.255;  -61.475; -945.000; -927.000
305.393;   58.300;  178.000;  239.000
305.531;  -89.375;-1173.000; -956.000
305.668;  -62.175; -663.000; -582.000
305.806;  123.450; -358.000; -439.000
305.943;  147.325; -629.000; -637.000
306.081;   63.275; -378.000; -267.000
306.219;  -99.600; -863.000; -748.000
306.356;    1.500;  158.000;   27.000
306.494;  119.725;  981.000;  761.000
306.631;  -11.000;  -11.000;  -55.000
306.769;   23.700; -613.000; -485.000
306.906;  -23.900; -284.000; -258.000
307.044;  -47.675; -473.000; -488.000
307.181;  -62.400; -410.000; -332.000
307.319;    5.650;  112.000;   87.000
307.456; -150.775;-1191.000;-1153.000
307.594;  -98.500; -980.000; -727.000
307.731;   -1.950; -371.000; -164.000
307.868;    4.150;  -15.000;   20.000
308.006; -129.075; -961.000; -847.000
308.143;  -52.100; -618.000; -330.000
308.281;  216.875;  -37.000; -254.000
308.418;    6.175; -748.000; -640.000
308.555;  -72.400; -400.000; -250.000
308.693;  -65.950; -577.000; -573.000
308.830; -121.800; -712.000; -657.000
308.967;  -19.800; -215.000;  -95.000
309.105;  -49.900; -507.000; -396.000
309.242;   69.900; -468.000; -367.000
309.379;  424.625; -577.000; -655.000
309.517;  -33.100; -936.000; -948.000
309.654; -100.500; -910.000; -734.000
309.791;  -63.000; -662.000; -580.000
309.928; -119.775; -977.000; -914.000
310.065;  183.675;  819.000;  697.000
310.203;   25.850; -825.000; -850.000
310.340;    3.650; -465.000; -321.000
310.477;  -81.000; -412.000; -516.000
310.614;  -58.200; -383.000; -473.000
310.751;  -77.500; -427.000; -518.000
310.889;  -13.375;    1.000;   11.000
311.026; -150.225;-1161.000; -939.000
311.163;  -21.800; -386.000; -380.000
311.300;  -73.625; -512.000; -479.000
311.437;  -72.800; -658.000; -619.000
311.574; -149.350;-1226.000; -985.000
311.711;  -55.125; -595.000; -433.000
311.848;  -43.925; -380.000; -388.000
311.985;    9.150;  270.000;   93.000
312.122; -110.850; -932.000; -762.000
312.259; -107.700; -941.000; -994.000
312.396;  -86.925; -508.000; -551.000
312.533; -103.450; -812.000; -790.000
312.670; -132.050;-1070.000; -898.000
312.807;  -38.175; -352.000; -367.000
312.944;  -81.075; -513.000; -611.000
313.081;  -35.225; -150.000; -415.000
313.218;  -98.900;-1111.000; -867.000
313.355;   18.825; -531.000; -449.000
313.492;   15.525; -455.000; -292.000
313.629;  125.950;  815.000;  735.000
313.766; -163.850;-1176.000;-1008.000
313.902;  -22.075; -186.000;   21.000
314.039;  -51.125; -372.000; -289.000
314.176;   20.800;  286.000;  192.000
314.313;  -80.700; -569.000; -473.000
314.450;  -64.925; -788.000; -684.000
314.587;  -58.200; -468.000; -480.000
314.723;    2.600;  -78.000;  130.000
314.860;   21.425;  318.000;  332.000
314.997;   30.950;  223.000;  142.000
315.134;  -26.825; -385.000; -368.000
315.270;  -26.225; -480.000; -496.000
315.407; -114.675;-1094.000; -967.000
315.544;  -50.150; -657.000; -538.000
315.681;  -66.350; -681.000; -565.000
315.817;   23.100; -133.000; -176.000
315.954;   25.675; -613.000; -392.000
316.091; -112.675;-1045.000;-1023.000
316.227;  -31.525;  -71.000; -179.000
316.364;   -9.500;   23.000;    6.000
316.500;  -34.650; -113.000; -300.000
316.637;  -50.800; -181.000; -302.000
316.774;  -94.375; -625.000; -358.000
316.910;  -93.850; -598.000; -629.000
317.047;  -61.525; -487.000; -351.000
317.183;  -59.650; -435.000; -566.000
317.320;  -28.425; -367.000; -321.000
317.456;  -77.100; -733.000; -805.000
317.593;  -94.450; -598.000; -641.000
317.729;    6.800;  168.000;  -67.000
317.866; -199.100;-1434.000;-1285.000
318.002;  -92.900; -708.000; -948.000
318.139;  -87.475; -883.000; -867.000
318.275; -104.050;-1003.000; -738.000
318.412;  -63.975; -517.000; -336.000
318.548;  -14.675; -751.000; -720.000
318.685; -103.775; -985.000; -888.000
318.821;  -99.275; -762.000; -735.000
318.957;   -8.625;   34.000;  -23.000
319.094;   30.225;  297.000;  154.000
319.230;  -58.925; -756.000; -742.000
319.367;  174.675; -471.000; -520.000
319.503;   75.325; -538.000; -436.000
319.639;  -87.825; -877.000; -793.000
319.775;  -62.075; -750.000; -685.000
319.912;  -44.900; -424.000; -519.000
320.048;  -72.325;-1184.000;-1184.000
320.184;   59.125;   59.000;   70.000
320.321;  -58.575; -497.000; -467.000
320.457;   52.125;  475.000;  662.000
320.593;  -73.300; -375.000; -382.000
320.729;  -93.175; -732.000; -734.000
320.866;  -63.500; -577.000; -635.000
321.002;  -79.950; -759.000; -809.000
321.138;  -14.425; -135.000; -211.000
321.274;   81.250; -148.000; -115.000
321.410;  -10.375; -585.000; -353.000
321.546;   -0.950;-1011.000; -911.000
321.683;   51.325;  400.000;  185.000
321.819;   -1.150;  -48.000; -117.000
321.955; -109.300; -743.000; -722.000
322.091;  -43.150; -585.000; -540.000
322.227;  -17.500; -382.000; -202.000
322.363;  -16.050; -320.000; -215.000
322.499;  -53.000; -343.000; -331.000
322.635;  182.000;  636.000;  443.000
322.771;   26.450; -139.000;   12.000
322.907;   90.525;  129.000;  327.000
323.043;  -19.450; -115.000; -206.000
323.179;  -46.150; -394.000; -363.000
323.315;   36.525; -401.000; -371.000
323.451;  132.900; -328.000; -236.000
323.587;   75.975;  -60.000;  -77.000
323.723;   51.750; -682.000; -601.000
323.859;  -11.075; -258.000;  -76.000
323.995;  -24.500; -467.000; -409.000
324.131; -110.700; -967.000; -892.000
324.267;  -37.350; -254.000; -276.000
324.402; -136.225; -960.000; -983.000
324.538;   -0.475; -279.000; -104.000
324.674;   13.075;  164.000;   77.000
324.810;  179.075;  226.000;  308.000
324.946;   39.000; -810.000; -658.000
325.082;  -63.275; -568.000; -475.000
325.217;  -14.050;  -62.000;   16.000
325.353;  -93.850; -764.000; -659.000
325.489;  -89.600; -540.000; -506.000
325.625;  -83.350; -579.000; -525.000
325.760;   40.700;  517.000;  376.000
325.896;  -28.275; -515.000; -702.000
326.032;  -43.000; -403.000; -352.000
326.168;  -66.800; -462.000; -369.000
326.303;  -61.800; -352.000; -461.000
326.439;  -16.800; -336.000; -276.000
326.575;   -4.475; -190.000;  -29.000
326.710;    1.525; -156.000;  -30.000
326.846;  -18.725;  146.000;  103.000
326.982;  -95.125; -530.000; -548.000
327.117;  -85.350; -481.000; -442.000
327.253;  -78.175; -745.000; -742.000
327.388; -108.125;-1137.000;-1153.000
327.524;  -43.225; -811.000; -578.000
327.659;  -38.925;  -58.000;  -22.000
327.795;  -17.600;   69.000;   45.000
327.931;  -88.725; -723.000; -499.000
328.066;  -24.850; -417.000; -276.000
328.202;  -13.575;   12.000; -129.000
328.337;   99.150;  957.000;  713.000
328.473;   25.775;  -12.000;  -74.000
328.608;  -25.700; -256.000; -267.000
328.743;  -77.200; -799.000; -664.000
328.879;    3.625;  214.000;  114.000
329.014;  -46.400; -102.000; -122.000
329.150;  -84.850; -358.000; -483.000
329.285;  -72.925; -465.000; -466.000
329.421;  -53.700; -548.000; -246.000
329.556;  -21.525;  -36.000;   85.000
329.691;  -99.375; -633.000; -615.000
329.827;  -90.925; -626.000; -480.000
329.962;  -38.750;  131.000; -301.000
330.097;  -94.175; -673.000; -585.000
330.233;  -52.000; -410.000; -223.000
330.368; -121.450; -839.000; -628.000
330.503;  -27.375;    3.000;   98.000
330.638;    4.150;  -93.000; -125.000
330.774;  -52.225; -609.000; -530.000
330.909;  -49.600; -434.000; -244.000
331.044;  -99.575; -714.000; -708.000
331.179; -164.925;-1217.000;-1109.000
331.315;    6.575;   77.000;   20.000
331.450;    5.175;  157.000;  285.000
331.585;  -87.225; -805.000; -706.000
331.720;  -81.850; -510.000; -460.000
331.855;   -1.700;  -35.000; -102.000
331.990;  221.000;   62.000;  138.000
332.126;  112.550; -110.000;   71.000
332.261;  -35.400; -379.000; -265.000
332.396;   -6.700; -135.000; -242.000
332.531; -105.725;-1074.000;-1031.000
332.666;   26.550; -519.000; -363.000
332.801; -116.325; -726.000; -807.000
332.936;  -14.925; -192.000; -122.000
333.071; -148.000; -870.000; -817.000
333.206;    6.725;  307.000;  379.000
333.341;    9.000;  344.000;  418.000
333.476;  -88.000; -627.000; -623.000
333.611;  -44.950; -251.000; -173.000
333.746;  -44.975; -381.000; -464.000
333.881; -104.925; -973.000; -935.000
334.016; -128.925; -936.000; -917.000
334.151; -115.750; -746.000; -702.000
334.286;   21.675;  152.000;  186.000
334.421;  -17.450; -125.000; -178.000
334.556;  -73.450; -611.000; -567.000
334.690;  -82.625; -631.000; -577.000
334.825;   48.775;  381.000;   83.000
334.960;  -51.875; -285.000; -413.000
335.095;    5.700;  135.000;  -91.000
335.230;  -94.400; -722.000; -738.000
335.365; -118.350;-1084.000; -990.000
335.499; -125.675;-1108.000;-1037.000
335.634;   19.750;    9.000;  534.000
335.769; -105.475; -755.000; -720.000
335.904;  -58.000; -603.000; -561.000
336.038;  -40.500; -735.000; -657.000
336.173; -105.900;-1206.000;-1194.000
336.308;   15.725; -116.000; -189.000
336.443;   -6.200; -544.000; -634.000
336.577;  -58.175; -936.000; -787.000
336.712;   65.925;   -4.000;  -12.000
336.847;  -22.075; -724.000; -607.000
336.981;   83.575; -272.000; -208.000
337.116;  298.325;  615.000;  501.000
337.250;  205.150; -434.000; -421.000
337.385;  204.575; -297.000; -208.000
337.520;   65.550; -632.000; -603.000
337.654;  -34.650; -215.000; -126.000
337.789; -120.975; -989.000; -933.000
337.923;  -34.575; -104.000; -205.000
338.058;  -85.225; -673.000; -738.000
338.192;  -13.175; -611.000; -488.000
338.327;    3.175;  -18.000; -155.000
338.461;  -51.925; -299.000; -469.000
338.596;  -90.450; -780.000; -638.000
338.730;  -87.175; -767.000; -803.000
338.865;   78.375;  -46.000; -140.000
338.999;  -63.550; -846.000; -702.000
339.134;  -28.775; -634.000; -536.000
339.268;   19.375; -741.000; -603.000
339.403;  351.600; -740.000; -775.000
339.537;   97.325; -894.000; -820.000
339.671; -122.650; -829.000; -813.000
339.806;  -67.975; -556.000; -512.000
339.940;    6.000; -261.000; -235.000
340.074;  -97.200; -685.000; -510.000
340.209;  -46.225; -351.000; -230.000
340.343;  -93.800; -517.000; -573.000
340.477;  158.675;  998.000; 1036.000
340.612;  -62.550;-1033.000; -900.000
340.746;  108.750; -199.000; -243.000
340.880;  -49.125; -924.000; -785.000
341.014;  -35.825;  -45.000; -154.000
341.149; -121.050; -756.000; -718.000
341.283; -111.100; -839.000; -754.000
341.417;  -75.500;-1124.000; -938.000
341.551;  197.475; -768.000; -708.000
341.685;  -26.550; -633.000; -611.000
341.820;  -51.400; -562.000; -493.000
341.954;  -57.150; -218.000; -349.000
342.088; -139.200;-1102.000;-1019.000
342.222;   44.600;  565.000;  618.000
342.356;  -46.850; -395.000; -335.000
342.490;  -76.200; -880.000; -841.000
342.624;  -44.975; -339.000; -242.000
342.758;   11.725; -364.000; -312.000
342.892;  -53.775; -710.000; -585.000
343.026;  -28.050;  -58.000; -116.000
343.160;  -56.400; -426.000; -376.000
343.294;  -80.650; -474.000; -337.000
343.428;   -4.075; -488.000; -448.000
343.562;  -17.175; -172.000;  -23.000
343.696;  -11.750; -385.000; -314.000
343.830;  -16.850; -362.000; -356.000
343.964;   32.925; -231.000; -168.000
344.098; 1138.400;  199.000;   70.000
344.232;  939.975; -266.000; -127.000
344.366;  104.325; -567.000; -453.000
344.500;  107.025; -665.000; -744.000
344.634;   59.900; -324.000; -164.000
344.768;   11.300; -531.000; -341.000
344.902;   15.425;  278.000;  256.000
345.035;  -75.650; -556.000; -496.000
345.169; -128.600; -933.000; -656.000
345.303;   -8.350; -308.000; -482.000
345.437;  -55.150; -826.000; -717.000
345.571;  -76.575; -675.000; -594.000
345.704;  -65.975; -309.000; -532.000
345.838;   -5.775; -331.000; -284.000
345.972;  -25.975; -543.000; -495.000
346.106;  145.025; -179.000; -190.000
346.239;  438.075; -312.000; -243.000
346.373;   11.325; -343.000; -302.000
346.507; -146.125; -950.000; -962.000
346.640;  172.500;  -30.000;   13.000
346.774;  -32.675; -650.000; -797.000
346.908;  -14.350; -138.000;  -11.000
347.041;  -89.900; -646.000; -593.000
347.175;   -4.775;  259.000;   27.000
347.309;  -55.200; -698.000; -628.000
347.442; -105.525; -883.000; -732.000
347.576;  309.525;  670.000;  668.000
347.709;  258.175; -123.000;  -52.000
347.843;  -75.450; -933.000; -825.000
347.976;   44.350;  235.000;  294.000
348.110; -170.650;-1268.000;-1186.000
348.243;  -91.375; -679.000; -772.000
348.377;   -9.450;  -26.000;   60.000
348.510;   50.025;  403.000;  540.000
348.644;  -27.675;  -37.000; -159.000
348.777;  -12.175;  180.000;  191.000
348.911;  -52.400; -142.000; -112.000
349.044;  181.750;  471.000;  448.000
349.178;  210.750;-1069.000;-1006.000
349.311;  116.850;  141.000;  255.000
349.444;   -4.500; -927.000; -813.000
349.578;  -12.675; -347.000; -200.000
349.711;  -93.600; -959.000; -862.000
349.845;   16.975; -661.000; -591.000
349.978; -141.950;-1224.000;-1137.000
350.111;  -78.300; -546.000; -612.000
350.244;  -67.950; -596.000; -700.000
350.378;   33.325; -392.000; -393.000
350.511;  -72.950; -393.000; -426.000
350.644; -110.025; -808.000; -806.000
350.778;    4.625;  168.000;  104.000
350.911;   -5.575;  134.000;  140.000
351.044;  -88.275; -685.000; -615.000
351.177;  -27.225; -321.000; -281.000
351.310;  -40.050;    3.000; -131.000
351.444;  -51.925; -888.000; -788.000
351.577;  137.400;  140.000;   90.000
351.710;   98.925;  593.000;  417.000
351.843;  -43.325; -165.000;  -77.000
351.976;    5.425;  149.000;  -79.000
352.109;  -84.775; -621.000; -612.000
352.242;   -9.850; -464.000; -419.000
352.376;  -49.550; -580.000; -636.000
352.509;  227.525; -437.000; -356.000
352.642;   48.250; -654.000; -604.000
352.775;   78.875; -141.000;  -98.000
352.908; -118.725; -933.000; -904.000
353.041; -112.500; -814.000; -824.000
353.174;  -50.525; -551.000; -424.000
353.307;  -85.525; -753.000; -764.000
353.440;   62.550;  541.000;  453.000
353.573; -104.475; -957.000;-1008.000
353.706;  -32.000; -384.000; -558.000
353.839;  -15.775; -264.000; -220.000
353.971;  -96.850; -657.000; -512.000
354.104;  -75.000; -896.000; -835.000
354.237;  -23.875; -627.000; -662.000
354.370;  -77.400; -846.000; -879.000
354.503; -179.125;-1231.000;-1308.000
354.636;  -24.775; -529.000; -348.000
354.769; -117.650; -937.000; -860.000
354.902;   -7.875; -230.000; -139.000
355.034;  -11.150; -164.000; -220.000
355.167;  -27.775; -262.000; -162.000
355.300;  -94.725;-1061.000; -880.000
355.433;  916.750;  -71.000;  -14.000
355.565; 1413.500; -402.000; -384.000
355.698;  344.075; -356.000; -296.000
355.831;    7.700; -882.000; -801.000
355.964;  125.450; -285.000; -170.000
356.096;  -80.400; -856.000; -843.000
356.229;   20.450; -523.000; -530.000
356.362;  290.200; -373.000; -266.000
356.494;  568.950; -229.000; -162.000
356.627;  556.925;  269.000;  377.000
356.760;  668.875;  120.000;   53.000
356.892;  894.725; -286.000; -601.000
357.025;  785.650;  403.000;  389.000
357.157;  750.050; -167.000; -179.000
357.290;  592.100; -856.000; -713.000
357.423;  199.325; -667.000; -556.000
357.555;  137.550; -217.000; -228.000
357.688;  155.900; -483.000; -364.000
357.820;  553.350; -870.000; -877.000
357.953; 4190.675; -563.000; -589.000
358.085; 1014.125; -632.000; -612.000
358.218; 1527.100;-1131.000; -932.000
358.350;  283.400;  -58.000;  312.000
358.483;  -92.625;-1300.000;-1187.000
358.615;   28.800;-1182.000;-1078.000
358.747;  -20.150;-1187.000;-1058.000
358.880;   81.150; -810.000; -744.000
359.012;   14.525; -376.000; -202.000
359.145;  -48.800; -480.000; -511.000
359.277;   96.250; -962.000; -913.000
359.409; 3441.400;  536.000;  231.000
359.542;  981.575; -738.000; -688.000
359.674;   82.725;   46.000;   13.000
359.806;  -66.625; -565.000; -438.000
359.939;  -31.425; -617.000; -516.000
360.071;  -20.725; -583.000; -579.000
360.203;  -13.475; -411.000; -364.000
360.335;   61.525;  164.000;  -16.000
360.468;  215.950; -249.000; -307.000
360.600; 2711.450; -547.000; -454.000
360.732; 2635.575; -546.000; -423.000
360.864;  393.375;-1216.000;-1044.000
360.996;  380.525; -516.000; -554.000
361.129;   61.650; -389.000; -598.000
361.261;   35.875;  110.000; -113.000
361.393;  -36.100; -252.000; -214.000
361.525;   29.150;   94.000;  244.000
361.657;  -26.400; -821.000; -703.000
361.789;   29.725; -139.000; -155.000
361.921;  320.425; -642.000; -593.000
362.053;  316.100;  524.000;  541.000
362.185;   71.300;  288.000;   72.000
362.318;  -69.875; -709.000; -705.000
362.450;  152.575;  294.000;  444.000
362.582;  200.375; -913.000; -870.000
362.714;  -24.325; -353.000; -332.000
362.846;  -83.150; -606.000; -490.000
362.978; -133.850; -941.000; -811.000
363.109;   75.000; -161.000; -260.000
363.241;  555.000; -739.000; -749.000
363.373;  428.775; -649.000; -564.000
363.505;  585.125; -186.000;  -91.000
363.637;  162.350; -787.000; -601.000
363.769; -125.825;-1067.000;-1080.000
363.901;  -53.175; -596.000; -654.000
364.033; -101.575;-1103.000;-1062.000
364.165;   16.900; -283.000; -283.000
364.296;   73.825; -316.000; -177.000
364.428;   68.650;-1344.000;-1220.000
364.560;  -71.275; -679.000; -661.000
364.692;  -60.075; -738.000; -835.000
364.824;  372.325; -588.000; -456.000
364.955;  451.300; -402.000; -564.000
365.087;  786.375;-1097.000; -852.000
365.219;   33.000; -686.000; -816.000
365.351;  -68.325; -526.000; -572.000
365.482;   55.225;  300.000;  240.000
365.614;  -43.950; -402.000; -314.000
365.746;  -91.075; -729.000; -752.000
365.877;  -98.525; -706.000; -672.000
366.009;  228.375;  -35.000;  -62.000
366.141;  -82.150;-1249.000;-1134.000
366.272;  -96.825; -803.000; -719.000
366.404; -111.225;-1005.000; -874.000
366.535;  -11.450; -139.000;  -12.000
366.667; -102.700; -644.000; -649.000
366.799;   37.850;  353.000;  203.000
366.930; -110.575; -862.000; -996.000
367.062;  124.325; -639.000; -613.000
367.193;  133.950; -872.000; -842.000
367.325;  -52.825; -580.000; -684.000
367.456;   69.975; -246.000;   31.000
367.588;  149.400; -371.000; -318.000
367.719;   19.675;  -44.000;  -45.000
367.851;   -0.325; -222.000; -241.000
367.982;  -32.350; -875.000; -732.000
368.113;  140.375; -475.000; -358.000
368.245;  -99.375; -960.000; -841.000
368.376;  -13.400; -254.000; -302.000
368.508;  -27.350; -188.000; -263.000
368.639; -129.450;-1166.000;-1034.000
368.770;   17.550; -670.000; -589.000
368.902;  -34.125; -836.000; -926.000
369.033; -104.975; -906.000; -855.000
369.164;  -40.400; -720.000; -653.000
369.296; -109.000; -452.000; -601.000
369.427;   19.200; -209.000; -144.000
369.558;  -44.175; -593.000; -377.000
369.689;  -81.775; -721.000; -569.000
369.821; -127.925; -951.000; -845.000
369.952;  -33.175;   42.000; -108.000
370.083;  -48.200; -229.000; -108.000
370.214;  -83.400; -735.000; -650.000
370.345;   -8.400;   65.000;   81.000
370.477;  -69.450; -810.000; -790.000
370.608;  303.600; -328.000; -264.000
370.739;   -2.800;-1233.000;-1292.000
370.870;   -5.100;-1102.000; -923.000
371.001;  134.700; -378.000; -467.000
371.132;  -61.350; -754.000; -735.000
371.263;   -7.600;  -42.000; -148.000
371.394; -133.725; -841.000; -748.000
371.525;   32.225;  345.000;  225.000
371.657;  -83.150; -808.000; -670.000
371.788;   84.875;  103.000;  199.000
371.919;  207.825; -384.000; -304.000
372.050; 4226.950;  -91.000; -156.000
372.181; 1339.725; -188.000; -294.000
372.311;  463.425;   42.000; -127.000
372.442;   65.925; -457.000; -451.000
372.573;  -13.625; -444.000; -340.000
372.704; -104.725;-1008.000; -980.000
372.835;  132.100; -228.000; -289.000
372.966;  -48.075; -646.000; -554.000
373.097;  -34.525; -575.000; -711.000
373.228;  -29.475; -717.000; -542.000
373.359;  195.850; -824.000; -536.000
373.490; 1153.600; -881.000; -727.000
373.620; 1493.600;-1001.000; -803.000
373.751; 2194.000; -332.000; -396.000
373.882; 1056.200; -663.000; -733.000
374.013;   96.350; -449.000; -262.000
374.143;  -23.000; -581.000; -659.000
374.274;  -84.225; -987.000; -908.000
374.405;  217.975; -388.000; -276.000
374.536;  548.950; -526.000; -387.000
374.666; 1443.400; -759.000; -807.000
374.797;  315.250; -817.000; -868.000
374.928; 1115.750; -710.000; -560.000
375.058; 1158.600; -535.000; -500.000
375.189;  117.750;  -59.000;  -93.000
375.320;  -97.825; -928.000;-1034.000
375.450;  -45.600; -625.000; -616.000
375.581;  -51.350; -526.000; -436.000
375.712;  -14.475; -574.000; -250.000
375.842;  387.650; -438.000; -415.000
375.973;  326.250; -554.000; -513.000
376.103;  -28.525; -665.000; -648.000
376.234;  -73.675; -531.000; -552.000
376.364;  -14.825; -944.000; -867.000
376.495;  386.125;  925.000;  529.000
376.625;   29.650; -472.000; -485.000
376.756;   93.550; -709.000; -678.000
376.886;  -58.300;-1178.000;-1026.000
377.017;   33.450;-1048.000;-1061.000
377.147;  312.025; -786.000; -782.000
377.278;   70.475;  174.000;  228.000
377.408; -125.500; -801.000; -815.000
377.538; -104.125; -707.000; -693.000
377.669;  -74.725; -537.000; -613.000
377.799;  -71.800; -645.000; -635.000
377.929;  -39.750; -610.000; -428.000
378.060; -134.600; -781.000; -847.000
378.190;  -65.375; -726.000; -531.000
378.320;  -60.250; -401.000; -406.000
378.451;  -11.150; -131.000;  -22.000
378.581;   -5.950;  -67.000; -110.000
378.711;  163.850; 1035.000;  866.000
378.841;    0.400; -533.000; -675.000
378.972;  -55.000; -871.000; -751.000
379.102;   30.525; -652.000; -579.000
379.232;  -18.275; -126.000;  -73.000
379.362;  -89.850;-1001.000; -885.000
379.492;   32.125; -373.000; -424.000
379.623;  149.575;    0.000;  111.000
379.753;  -73.825;-1107.000; -974.000
379.883;  242.650;   59.000;  156.000
380.013;   48.925;-1081.000;-1017.000
380.143;  -70.875;-1097.000;-1056.000
380.273; -101.550; -985.000; -861.000
380.403;   11.100; -344.000; -257.000
380.533;   -6.900; -651.000; -664.000
380.663;   82.000;  173.000;  128.000
380.793;  -77.725;-1027.000;-1074.000
380.923;   -2.025; -103.000;  -34.000
381.053;  -77.825; -613.000; -623.000
381.183;   -9.700; -106.000; -248.000
381.313;   64.100; -656.000; -470.000
381.443;   65.325; -692.000; -473.000
381.573;  265.850; -402.000; -409.000
381.703;  443.650;-1249.000;-1095.000
381.833; -104.250;-1454.000;-1336.000
381.963;  136.975; -134.000;  -87.000
382.093; 1647.825; -925.000; -909.000
382.223;  559.250; -713.000; -602.000
382.353;    6.550; -801.000; -608.000
382.482;  507.100;-1091.000; -964.000
382.612;  944.825; -872.000; -644.000
382.742;  577.625; -695.000; -622.000
382.872;  368.250; -565.000; -551.000
383.002;   95.200;  347.000; -132.000
383.131;  -12.650; -226.000; -160.000
383.261;  -35.025; -706.000; -768.000
383.391;  305.225; -552.000; -377.000
383.521; 2901.200;  451.000;  263.000
383.650;  708.075; -947.000; -904.000
383.780;    9.075; -783.000; -656.000
383.910;  103.125;  880.000;  802.000
384.039;   49.325; -794.000; -656.000
384.169;  317.875;-1205.000;-1017.000
384.299;   18.950; -650.000; -662.000
384.428;  -72.050; -764.000; -680.000
384.558;  -24.600; -308.000; -275.000
384.687;  -27.775; -414.000; -334.000
384.817;   43.275;   75.000;   -2.000
384.947;   55.025; -234.000; -141.000
385.076;  335.600;  982.000;  912.000
385.206;  117.575;  369.000;  480.000
385.335;    5.825; -549.000; -417.000
385.465;  -68.675; -655.000; -663.000
385.594;  170.975;  -53.000;  -44.000
385.724;  583.000; -868.000; -838.000
385.853;  163.825; -296.000; -270.000
385.982; 1652.125; -743.000; -787.000
386.112; 2722.725;-1052.000; -871.000
386.241;  221.625; -307.000; -312.000
386.371;   44.450; -174.000;  -87.000
386.500;   39.500; -825.000; -789.000
386.629;   48.200; -874.000; -817.000
386.759;   73.175;  -43.000;   68.000
386.888;   10.700; -170.000; -250.000
387.017;  -55.700; -648.000; -620.000
387.147;  -49.475; -771.000; -798.000
387.276;   30.775; -410.000; -397.000
387.405;   49.075; -398.000; -342.000
387.535;  -28.725; -452.000; -361.000
387.664;  -46.875; -692.000; -620.000
387.793;   88.625; -198.000; -113.000
387.922;  645.775;  255.000;  200.000
388.052;   74.950; -576.000; -423.000
388.181;   55.250; -342.000; -472.000
388.310;   51.175; -889.000; -710.000
388.439;    9.550; -749.000; -742.000
388.568;  239.775;  365.000;  244.000
388.697; 1350.600; -756.000; -653.000
388.826;  320.400; -768.000; -666.000
388.956;   88.925; -285.000; -307.000
389.085;  -23.950; -347.000; -287.000
389.214; -105.775; -842.000; -872.000
389.343;  -52.875; -645.000; -413.000
389.472;  375.175;  126.000;  149.000
389.601;  527.675;   91.000;    0.000
389.730;   53.000; -568.000; -687.000
389.859;   80.700;  226.000;   46.000
389.988;  230.750; -423.000; -408.000
390.117;  194.225; -168.000; -146.000
390.246;   11.475; -331.000; -320.000
390.375;  177.400; -673.000; -626.000
390.504;  -46.650; -703.000; -621.000
390.633;  -75.300; -672.000; -726.000
390.761;  -46.000; -732.000; -645.000
390.890;   32.925;   -4.000; -130.000
391.019;  -11.775; -421.000; -441.000
391.148; -122.100; -826.000; -855.000
391.277;  -53.150; -576.000; -493.000
391.406;  -44.875; -821.000; -805.000
391.534;   29.925;  574.000; -301.000
391.663;  -55.700; -583.000; -645.000
391.792;  -72.300; -673.000; -701.000
391.921;  133.150;   -3.000;   15.000
392.050;  271.975; -287.000; -228.000
392.178;    7.650;-1206.000;-1061.000
392.307;  203.475; -758.000; -712.000
392.436;  113.750; -427.000; -641.000
392.564;   31.575;  166.000;   -6.000
392.693;  -84.725; -860.000; -682.000
392.822;  272.525; -529.000; -534.000
392.950;  163.275; -880.000; -714.000
393.079;  413.475; -188.000; -328.000
393.208;   59.300; -488.000; -511.000
393.336;   -0.375; -170.000; -145.000
393.465;  -62.975; -317.000; -199.000
393.593;  -13.700;   62.000;   79.000
393.722; -149.725;-1121.000; -916.000
393.850;  -33.025; -188.000;  -61.000
393.979; -145.100; -926.000; -805.000
394.107;  -54.325; -517.000; -537.000
394.236;   -4.900; -570.000; -507.000
394.364;  255.025;  383.000;  206.000
394.493;  512.250; -911.000; -767.000
394.621;    6.975; -955.000; -916.000
394.750;  632.325; -873.000; -923.000
394.878; 2703.325; -247.000; -149.000
395.007; 3882.250; -721.000; -807.000
395.135;  330.425; -790.000; -721.000
395.263;  -84.825;-1038.000;-1040.000
395.392;   21.775;  -25.000; -107.000
395.520; -122.550; -818.000; -679.000
395.648;  -71.725; -865.000; -915.000
395.777;   -1.250; -366.000; -405.000
395.905;  -36.900; -449.000; -564.000
396.033;   21.875;  217.000;  172.000
396.162;  737.350; -399.000; -453.000
396.290;  702.250;  -17.000;   -2.000
396.418;  149.900; -555.000; -514.000
396.546;  -52.950; -571.000; -466.000
396.674;  -81.450; -850.000; -878.000
396.803;   13.450;  -72.000;  -23.000
396.931;  109.100; -179.000; -199.000
397.059;  123.175;-1026.000; -989.000
397.187;  -99.275;-1026.000; -975.000
397.315; -128.075; -884.000; -649.000
397.443;  -99.925; -592.000; -443.000
397.572;  -99.850; -578.000; -424.000
397.700;   18.775; -607.000; -614.000
397.828;   11.975;  120.000;  -90.000
397.956;  -37.350; -508.000; -478.000
398.084;  -59.700; -767.000; -626.000
398.212;   35.725;  137.000;  124.000
398.340;   21.375;  -56.000;  159.000
398.468;   55.050; -390.000; -169.000
398.596; -130.475; -993.000; -953.000
398.724; -118.900; -762.000; -767.000
398.852; -158.100;-1024.000; -976.000
398.980;  -44.050; -560.000; -560.000
399.108;  -51.050; -982.000; -735.000
399.236;   35.475;   13.000;    8.000
399.363;   19.250;  222.000;  196.000
399.491;  -55.500; -404.000; -398.000
399.619; -131.300; -829.000; -800.000
399.747; -104.550; -859.000; -771.000
399.875;   86.725;  220.000;  234.000
400.003;  -53.175; -359.000; -284.000
400.130;  -95.975; -421.000; -341.000
400.258;  -30.050;  -83.000;   38.000
400.386;  -66.525; -352.000; -168.000
400.514;  -29.550; -526.000; -587.000
400.641;  -60.950; -928.000; -802.000
400.769; -127.950; -979.000; -888.000
400.897;  -89.425; -838.000; -793.000
401.025;    9.850; -166.000; -152.000
401.152;  -15.975;  220.000;   38.000
401.280;  -80.000; -430.000; -429.000
401.408; -116.900; -712.000; -576.000
401.535; -106.625; -735.000; -758.000
401.663; -190.000;-1134.000;-1054.000
401.790;  -77.225; -514.000; -525.000
401.918;   44.650;  436.000;  405.000
402.046;  -12.725;  134.000;  122.000
402.173;  -41.050;  -18.000;    7.000
402.301;  -67.850; -519.000; -397.000
402.428;   38.875;  528.000;  383.000
402.556; -126.400;-1188.000; -913.000
402.683;  -18.625;  -20.000;   -1.000
402.811;   -6.275;  -37.000; -206.000
402.938;  -18.475;   20.000;   27.000
403.066;  245.375; -574.000; -558.000
403.193;  416.700;  299.000;  239.000
403.321;  323.025; -396.000; -574.000
403.448;  406.650;   83.000;   27.000
403.575;  198.225;  -90.000;  -46.000
403.703;  -96.425; -732.000; -557.000
403.830;  -59.850; -531.000; -496.000
403.957; -139.225;-1117.000;-1023.000
404.085;   16.775;  -61.000; -172.000
404.212;  117.800;  -50.000;   63.000
404.339;  245.900; -566.000; -306.000
404.467; 5284.650; -612.000; -524.000
404.594; 3997.175; -287.000; -227.000
404.721; 1068.425; -869.000; -764.000
404.848;  113.125; -113.000; -202.000
404.976;  -86.375; -856.000; -783.000
405.103;   -4.100;  -14.000;  -82.000
405.230;    3.500;  190.000;  226.000
405.357;   31.250;  117.000;   44.000
405.484;  237.225;  -49.000;    5.000
405.612;   60.250; -548.000; -563.000
405.739;  -61.825; -488.000; -243.000
405.866;   71.950;  669.000;  385.000
405.993;  -22.875; -398.000; -102.000
406.120; -126.350; -801.000; -887.000
406.247;  -60.875; -323.000; -342.000
406.374;  575.825;  540.000;  629.000
406.501;  181.900; -632.000; -702.000
406.628;  -67.750; -621.000; -589.000
406.755;  -94.200; -803.000; -620.000
406.882;  -35.400; -228.000; -277.000
407.009;  -98.100; -719.000; -628.000
407.136;   66.525; -480.000; -401.000
407.263;  238.525; -939.000; -829.000
407.390;  -49.975; -692.000; -614.000
407.517; -161.075;-1139.000;-1187.000
407.644;  -52.025; -332.000; -256.000
407.771;  -68.200; -249.000; -287.000
407.898;    4.975;  168.000;  328.000
408.025;  -75.225; -421.000; -313.000
408.151;  -18.725;   82.000;  153.000
408.278;  -67.475; -267.000; -216.000
408.405; -101.600; -931.000; -899.000
408.532;  -80.025; -549.000; -542.000
408.659; -106.425; -677.000; -648.000
408.785; -210.975;-1298.000;-1170.000
408.912;  -53.375; -412.000; -296.000
409.039; -116.775; -610.000; -686.000
409.166; -104.400; -591.000; -555.000
409.292; -114.000; -571.000; -534.000
409.419; -129.825; -665.000; -649.000
409.546;  -93.525; -431.000; -192.000
409.672; -105.400; -713.000; -545.000
409.799;  -34.250;  -36.000;   34.000
409.926;  -57.775; -180.000; -179.000
410.052; -167.325;-1127.000;-1091.000
410.179;  -51.875; -368.000; -392.000
410.305;  -89.600; -375.000; -493.000
410.432;  -33.950; -220.000; -333.000
410.558;  -89.825; -305.000; -380.000
410.685; -112.500; -688.000; -431.000
410.812; -103.650; -409.000; -588.000
410.938; -131.125; -964.000; -808.000
411.065;  -97.350; -671.000; -645.000
411.191;  -19.775; -189.000; -174.000
411.317; -110.600; -823.000; -742.000
411.444;  -69.800; -317.000; -246.000
411.570;  -86.375; -339.000; -294.000
411.697; -112.950; -758.000; -752.000
411.823; -168.650; -989.000; -999.000
411.949;  -10.025;  -56.000;   17.000
412.076; -117.625; -539.000; -519.000
412.202; -112.600; -758.000; -757.000
412.329; -127.725; -798.000; -752.000
412.455; -118.350; -821.000; -657.000
412.581;  -21.775;  -15.000;  172.000
412.707;  -60.550; -540.000; -457.000
412.834;   19.875;  156.000;  219.000
412.960;  -75.275; -785.000; -784.000
413.086; -100.925; -743.000; -701.000
413.212;  175.175;  604.000;  578.000
413.339;  -35.350; -685.000; -701.000
413.465;   17.650; -364.000; -310.000
413.591;  -78.600; -757.000; -474.000
413.717;  -50.700; -358.000; -366.000
413.843; -130.150; -839.000; -861.000
413.969;  -59.175;  -47.000; -292.000
414.096; -107.775; -679.000; -679.000
414.222;  -11.900;  -33.000;   85.000
414.348;  -24.550; -652.000; -385.000
414.474;  127.200;   38.000;  -52.000
414.600;  -18.150; -126.000; -144.000
414.726;   -7.150;  -96.000;  -55.000
414.852;  -63.675; -365.000; -342.000
414.978;   41.500;  104.000;  -18.000
415.104;   28.950;   38.000;   80.000
415.230;   14.225; -329.000; -330.000
415.356;   35.875; -409.000; -514.000
415.482;  218.275;   13.000;  -35.000
415.608;  273.175; -247.000; -323.000
415.734;  918.750;   67.000;   38.000
415.860;18861.425; -875.000; -767.000
415.986;15044.450; -685.000; -607.000
416.111; 1327.075; -798.000; -652.000
416.237;  262.175; -424.000; -571.000
416.363;  970.075; -765.000; -733.000
416.489; 4002.650; -324.000; -251.000
416.615;  465.500; -707.000; -742.000
416.741;  -12.425; -677.000; -784.000
416.866;  -93.475; -673.000; -736.000
416.992; -115.900; -801.000; -818.000
417.118;  -24.825;  -41.000;  -80.000
417.244;  -57.175; -798.000; -531.000
417.369;  -78.250; -801.000; -612.000
417.495;   -0.100; -325.000; -254.000
417.621;  -80.025;-1015.000; -803.000
417.746;    5.300; -579.000; -572.000
417.872;   54.050; -254.000; -144.000
417.998;   46.450; -515.000; -530.000
418.123;  912.475;-1073.000; -845.000
418.249; 5184.225; -512.000; -601.000
418.374;  805.550; -916.000; -824.000
418.500;  105.875; -383.000; -482.000
418.626;  104.350;   70.000;  -59.000
418.751;  126.825; -549.000; -448.000
418.877;  203.375; -637.000; -643.000
419.002; 1580.500; -688.000; -560.000
419.128;11856.925; -930.000; -721.000
419.253; 3227.325; -967.000; -837.000
419.379;  426.325; -391.000; -338.000
419.504;  376.150;  325.000;  415.000
419.629;  492.775; -393.000; -212.000
419.755; 3038.700; -317.000; -254.000
419.880;19388.800;  -98.000;   67.000
420.006;10826.600; -280.000; -221.000
420.131;28802.700; -662.000; -775.000
420.256; 4565.875; -315.000; -316.000
420.382;  586.050; -665.000; -687.000
420.507;   92.850; -649.000; -778.000
420.632;  159.250; -337.000; -339.000
420.758;  343.525; -251.000; -425.000
420.883;  -48.125; -876.000; -672.000
421.008;  -97.925; -775.000; -619.000
421.133;  -85.750; -509.000; -467.000
421.259;  -40.650; -325.000; -259.000
421.384; -107.725; -834.000; -693.000
421.509;  -18.725;-1052.000; -862.000
421.634; 1504.200; -936.000; -820.000
421.759;  749.900; -359.000; -327.000
421.885;  -47.550; -717.000; -656.000
422.010;  -53.650; -673.000; -542.000
422.135; -148.675; -695.000; -727.000
422.260;   42.275;  340.000;  280.000
422.385;  -51.200;   12.000;  -98.000
422.510;   21.725;  151.000;  -26.000
422.635;   20.150;  -87.000;  -43.000
422.760;  123.275; -766.000; -791.000
422.885;   59.000;  -57.000;  -80.000
423.010;  -28.475; -112.000; -169.000
423.135;  -96.800; -481.000; -561.000
423.260;   -2.100; -150.000; -245.000
423.385;   85.075;  476.000;  222.000
423.510;   40.075;   71.000;  -22.000
423.635;   96.075;  133.000;   45.000
423.760;   54.925;  383.000;  328.000
423.885;   51.925;  336.000;  391.000
424.010;   15.525;  -68.000;  -13.000
424.135;  -22.650;    5.000;  -33.000
424.259;  -86.825; -654.000; -457.000
424.384;  -55.800; -279.000; -272.000
424.509;  -14.425; -260.000; -186.000
424.634; -102.525; -761.000; -623.000
424.759;  -13.350; -688.000; -544.000
424.883;   -7.125; -506.000; -527.000
425.008;  152.125; -502.000; -410.000
425.133; 1881.200; -679.000; -653.000
425.258;  969.300; -517.000; -381.000
425.382; 1111.425; -867.000; -774.000
425.507; 3194.225; -487.000; -543.000
425.632;  544.725; -802.000; -663.000
425.756;  417.625; -256.000; -146.000
425.881; 5468.725; -831.000; -857.000
426.006;16142.350; -604.000; -355.000
426.130; 2823.500; -696.000; -508.000
426.255;  374.275; -611.000; -491.000
426.379;  143.275; -189.000; -577.000
426.504;  357.850;  660.000;  544.000
426.629; 3797.500; -519.000; -466.000
426.753; 2919.950;   64.000;  -46.000
426.878;  338.625; -252.000; -288.000
427.002;  184.950; -651.000; -668.000
427.127; 1437.875;  -35.000; -158.000
427.251;10704.575;  372.000;  401.000
427.375; 3436.950; -191.000; -173.000
427.500; 2655.300; -616.000; -610.000
427.624; 1024.300; -234.000; -400.000
427.749;  129.100; -216.000; -225.000
427.873;  -17.550; -499.000; -412.000
427.997;  -38.075; -222.000; -230.000
428.122;   60.000;  795.000;  703.000
428.246;   82.175;  433.000;  434.000
428.371; -117.375; -869.000; -773.000
428.495; -102.450; -624.000; -646.000
428.619;  -30.350; -186.000; -117.000
428.743;   28.675;   65.000;  132.000
428.868;   34.825; -732.000; -643.000
428.992; 1651.650; -219.000; -326.000
429.116;  751.775; -329.000; -357.000
429.240;  355.100;  419.000;  426.000
429.365;   -4.175; -454.000; -574.000
429.489;  -19.875; -638.000; -647.000
429.613;   23.475; -236.000; -177.000
429.737;   37.500; -563.000; -432.000
429.861;  256.075; -247.000; -133.000
429.985; 5088.950; -425.000; -305.000
430.109; 6145.500; -770.000; -908.000
430.234;  764.175;   76.000;  -50.000
430.358;   79.475; -250.000; -160.000
430.482;  -71.500; -672.000; -564.000
430.606;  -53.600; -655.000; -375.000
430.730;   31.825; -437.000; -388.000
430.854;  210.350; -909.000; -835.000
430.978;  -37.475; -795.000; -764.000
431.102;  -72.250; -499.000; -422.000
431.226; -113.550; -874.000; -815.000
431.350;   35.075;  345.000;  422.000
431.474;  -72.300; -661.000; -373.000
431.597; -147.625;-1060.000; -848.000
431.721;  -89.950; -276.000; -267.000
431.845; -135.000; -704.000; -472.000
431.969;  -80.175; -304.000; -349.000
432.093;  -97.125; -395.000; -317.000
432.217;  -14.150;   32.000;   82.000
432.341;  -93.375; -523.000; -518.000
432.464;   16.075;   96.000;   40.000
432.588;  276.250; -401.000; -329.000
432.712;  161.375;  -52.000;  -52.000
432.836;   43.800;  213.000;  263.000
432.959;   -6.800; -372.000; -311.000
433.083;   71.925;   11.000;    2.000
433.207;  343.750;  285.000;  930.000
433.330; 4500.225; -391.000; -200.000
433.454; 6097.500; -654.000; -638.000
433.578; 3482.500;  583.000;  278.000
433.701;  724.475; -623.000; -675.000
433.825;  194.075; -292.000; -299.000
433.949;  256.100;   28.000;  -72.000
434.072;  108.200; -410.000; -323.000
434.196;  -11.300; -309.000; -117.000
434.319; 3551.125;25482.000;25124.000
434.443;  732.625; -656.000; -603.000
434.566; 2536.400;  281.000;   62.000
434.690;  486.100; -637.000; -383.000
434.813;   53.475; -251.000; -173.000
434.937;  -63.350; -569.000; -696.000
435.060;  -22.800; -423.000; -332.000
435.184;  455.350; -492.000; -217.000
435.307;  268.750;  159.000;  102.000
435.431;    6.900;  -40.000;   24.000
435.554;  -72.475; -399.000; -240.000
435.677;  -82.100; -350.000; -258.000
435.801;  -39.250;  -25.000;   49.000
435.924;   -2.350;    1.000;  -67.000
436.048;  -94.625;-1019.000; -732.000
436.171;  -63.225; -240.000;  -66.000
436.294;  -34.100; -248.000; -229.000
436.417;   92.850; -963.000; -849.000
436.541;  -65.475; -814.000; -840.000
436.664;  -43.650; -242.000; -316.000
436.787;  -30.875;   13.000;  113.000
436.910; -112.725; -792.000; -422.000
437.034;   11.875;  142.000;  143.000
437.157;   77.275;  -11.000;    0.000
437.280;  -33.250; -392.000; -292.000
437.403;  -57.875; -982.000; -869.000
437.526;  776.550; -903.000; -865.000
437.649; 3036.650; -505.000; -332.000
437.772;  564.500; -692.000; -540.000
437.896;  136.275;  700.000;  544.000
438.019;  -95.750; -758.000; -503.000
438.142;  -78.400; -596.000; -506.000
438.265;    9.075; -639.000; -670.000
438.388;  758.000; -520.000; -410.000
438.511;  195.250; -597.000; -394.000
438.634;  -39.625; -247.000; -125.000
438.757; -131.275; -693.000; -619.000
438.880;  -18.775;  -34.000;  -57.000
439.003;  -67.300; -417.000; -437.000
439.126;  -65.975; -287.000; -167.000
439.248;  -66.500;  -98.000; -139.000
439.371;  -41.100;    9.000;  -53.000
439.494;    9.125;  510.000;  439.000
439.617;  -47.750;   65.000;  -88.000
439.740; -180.825; -968.000; -816.000
439.863; -147.550; -755.000; -595.000
439.986; -121.425; -476.000; -431.000
440.108;  -51.050; -161.000; -112.000
440.231; -145.225; -950.000; -836.000
440.354;  -37.950;  -64.000; -150.000
440.477;   67.025; -566.000; -542.000
440.599;   41.625; -200.000; -225.000
440.722; -121.700; -709.000; -586.000
440.845;   63.050;  751.000;  928.000
440.968; -113.800; -415.000; -311.000
441.090;  -69.500; -199.000;  -33.000
441.213; -167.600;-1021.000; -825.000
441.336;  -55.600; -159.000;   -5.000
441.458;  -81.325; -549.000; -396.000
441.581;  -56.475; -628.000; -629.000
441.703;  -62.225; -152.000;   13.000
441.826; -119.800; -557.000; -400.000
441.948;  -66.975;   56.000;   51.000
442.071;   12.150;  555.000;  424.000
442.193; -110.350; -531.000; -485.000
442.316;   13.450;  152.000;   97.000
442.438;   36.325; -233.000;  -10.000
442.561;   77.125;  272.000;  262.000
442.683;  664.625; -809.000; -522.000
442.806; 1587.575;   -8.000;   74.000
442.928;  102.875; -859.000; -604.000
443.051;  -36.825; -577.000; -373.000
443.173;  -89.575; -341.000; -339.000
443.295;  -80.250; -263.000; -371.000
443.418;  -69.350; -321.000;  -29.000
443.540;   -9.825; -106.000;   -4.000
443.662; -119.125; -563.000; -465.000
443.785;  -11.050;  335.000;  199.000
443.907; -104.400; -362.000; -208.000
444.029; -127.850; -767.000; -494.000
444.152; -160.525; -644.000; -554.000
444.274;  -40.675;  -18.000;  -24.000
444.396; -121.475; -461.000; -221.000
444.518; -129.925; -691.000; -454.000
444.640; -117.800; -268.000; -111.000
444.763;  -18.875;  388.000;  249.000
444.885; -134.150; -432.000; -392.000
445.007;  -43.575;   35.000;   86.000
445.129; -106.425; -610.000; -515.000
445.251; -105.125; -372.000; -439.000
445.373; -126.275; -537.000; -386.000
445.495;    8.200;  242.000;  350.000
445.617;   34.050;  853.000;  753.000
445.739;  -68.250; -215.000;  -97.000
445.861;  -43.150; -245.000; -112.000
445.984;  -24.625; -267.000; -101.000
446.105;  244.375; -418.000; -251.000
446.227;  779.250; -176.000;  -19.000
446.349;   65.225; -358.000; -249.000
446.471;  -87.400; -615.000; -448.000
446.593;  -63.225; -316.000;   19.000
446.715;   13.425;  -67.000;   41.000
446.837;   42.325;  697.000;  832.000
446.959;  -82.875; -457.000; -478.000
447.081; -133.675; -628.000; -518.000
447.203;   35.400;  862.000;  834.000
447.325; -100.125; -270.000;   42.000
447.446;  -13.850;  286.000;  530.000
447.568; -157.025; -921.000; -803.000
447.690;  -62.625; -236.000; -245.000
447.812; -142.950; -798.000; -519.000
447.933;  -30.075;  155.000;  127.000
448.055;  -67.700; -306.000; -261.000
448.177;  177.875;   31.000;   79.000
448.299;  164.325; -935.000; -727.000
448.420;   39.375;  -25.000;  159.000
448.542;  -50.350;   -3.000;   33.000
448.664;  -12.625;  109.000;  322.000
448.785;  -45.725;  265.000;   83.000
448.907;  -75.400; -614.000; -353.000
449.028;  -13.600; -771.000; -471.000
449.150;   68.625;  492.000;  589.000
449.272; -172.975;-1044.000; -913.000
449.393;   42.100;  612.000;  694.000
449.515; -151.075; -634.000; -581.000
449.636;  -55.550; -264.000; -155.000
449.758;   65.250;  763.000;  622.000
449.879;  -84.675; -498.000; -396.000
450.001;  -90.050; -149.000;  -49.000
450.122;  -24.425;  -95.000;  162.000
450.244;  -42.175;   37.000;  364.000
450.365;  -92.700; -495.000; -301.000
450.486;  -48.450;   80.000;  268.000
450.608;    5.450;  393.000;  326.000
450.729;   52.025;  578.000;  645.000
450.850;   -6.375; -574.000; -466.000
450.972;  625.950; -552.000; -389.000
451.093; 4418.625;  190.000;  588.000
451.214; 2158.225; -516.000; -337.000
451.336;  416.400;  773.000;  579.000
451.457;   38.550;  264.000;  393.000
451.578;  -26.850; -118.000;  -74.000
451.699; -117.275; -546.000; -540.000
451.821;  -69.000; -284.000;  -50.000
451.942;  -17.325;  278.000;  285.000
452.063;   27.400;  228.000;  419.000
452.184;  490.850;  -54.000;  -49.000
452.305; 1052.125;  103.000;  170.000
452.427;  148.750; -549.000; -301.000
452.548;  -24.450;   23.000;   79.000
452.669;  -46.850; -257.000;  -89.000
452.790;  -39.775;    3.000;  -18.000
452.911;  -15.600;  195.000;  259.000
453.032;  -60.450; -289.000;  -60.000
453.153;  -25.075;  -29.000;   81.000
453.274;   52.925;  737.000;  868.000
453.395;  -45.575;  -51.000;  175.000
453.516;  112.825; 1317.000; 1388.000
453.637;  -63.450; -205.000; -150.000
453.758;  -66.300;   15.000;   69.000
453.879; -126.650; -462.000; -250.000
454.000;   69.750; 1086.000;  948.000
454.121; -123.425; -554.000; -326.000
454.242; -127.225; -599.000; -383.000
454.362;  -61.775;  -99.000;  114.000
454.483;  -43.050; -309.000; -229.000
454.604;   56.625;  512.000;  580.000
454.725; -114.225; -627.000; -555.000
454.846; -115.700; -474.000; -406.000
454.967;  -22.800;  230.000;  539.000
455.087;  -40.850;  179.000;  153.000
455.208;   22.650;  554.000;  856.000
455.329;  -64.675;  -22.000;   82.000
455.450;   16.475;  473.000;  633.000
455.570;  -86.150; -234.000; -211.000
455.691;  -52.450;  201.000;  407.000
455.812; -120.900; -270.000;  -92.000
455.932;  -59.925;  107.000;  -97.000
456.053; -105.725;   36.000;   24.000
456.173; -103.600; -433.000; -355.000
456.294; -138.075; -476.000; -303.000
456.415;  -66.575;  -73.000;   70.000
456.535;  -30.775;  297.000;  273.000
456.656;  -39.000;  132.000;  240.000
456.776;  -63.625;    3.000;  298.000
456.897;  -17.075;  308.000;  513.000
457.017;  -88.575; -153.000;   -3.000
457.138;  -94.575; -402.000; -249.000
457.258;  -31.200;  263.000;  224.000
457.379;   -9.900;  509.000;  521.000
457.499;  -38.350;  443.000;  432.000
457.620; -108.625; -407.000; -231.000
457.740;  -93.575; -132.000;  -11.000
457.860;  -62.450;   87.000;   44.000
457.981;  -54.625;  132.000;  124.000
458.101;  -67.975;  -89.000;   40.000
458.221;  -30.250;  336.000;  402.000
458.342;  -62.525;   -4.000;  -37.000
458.462;    1.325;  617.000;  352.000
458.582;  -51.575; -302.000; -294.000
458.703;   -1.775;  303.000;  154.000
458.823;  -28.500;   22.000;  163.000
458.943;    8.750;  341.000;  467.000
459.063;  -29.000; 1124.000;  192.000
459.183;  -12.325;  328.000;  313.000
459.304;   -6.275;  315.000;  517.000
459.424;  -74.200; -246.000;  -89.000
459.544;  285.300;  388.000;  764.000
459.664;  770.275;  499.000;  506.000
459.784;  339.250; 1004.000; 1175.000
459.904;   51.375;  867.000;  744.000
460.024;   73.825;  867.000;  684.000
460.144;   16.825;  449.000;  554.000
460.264;   -3.125;  515.000;  327.000
460.385;  -97.825; -145.000; -119.000
460.505;   29.150;  905.000;  858.000
460.625;  -93.350;  -17.000;  -68.000
460.745;  -23.950;  396.000;  541.000
460.864;  -55.350;  153.000;  469.000
460.984;   29.600;  499.000;  573.000
461.104;  132.650; 1656.000; 1775.000
461.224;    7.075;  657.000;  650.000
461.344;  -27.800;  431.000;  360.000
461.464;  -24.725;  258.000;  513.000
461.584;  -16.875;  283.000;  466.000
461.704;  -33.575;   58.000;  108.000
461.824;  -53.775;  238.000;  259.000
461.943;  -41.525;  191.000;  130.000
462.063;  -68.400;    2.000;  324.000
462.183;   38.075;  639.000;  717.000
462.303;  103.900; 1678.000; 1230.000
462.422;   29.850;  781.000;  840.000
462.542;  -44.825;  271.000;  391.000
462.662;   47.750;  353.000;  380.000
462.782;  211.825;  833.000;  572.000
462.901;  456.050;  545.000;  717.000
463.021;  298.650; 1702.000; 1638.000
463.141;   -8.525;  337.000;  770.000
463.260;  -18.575;  614.000;  474.000
463.380;   19.775;  902.000;  884.000
463.499;  -54.900;  342.000;  332.000
463.619;  -38.650;  581.000;  559.000
463.738;  107.900; 1644.000;  903.000
463.858;    5.825;  657.000;  811.000
463.978;  -28.300;  542.000;  396.000
464.097;   45.625;  921.000; 1114.000
464.217;   97.100; 1196.000; 1143.000
464.336;  115.525; 1068.000; 1130.000
464.455;  -29.200;  328.000;  659.000
464.575;   38.650;  597.000;  602.000
464.694;  186.975; 1204.000; 1179.000
464.814;  142.300; 1190.000; 1138.000
464.933;   58.075; 1095.000; 1027.000
465.052;   94.550; 1412.000; 1054.000
465.172;   83.600;  922.000;  799.000
465.291;  154.950; 1376.000; 1320.000
465.410;    5.425;  462.000;  735.000
465.530;   84.075; 1355.000; 1310.000
465.649;   66.000; 1209.000; 1273.000
465.768;  143.000; 1673.000; 1508.000
465.888;   47.675;  941.000; 1174.000
466.007;   97.525; 1335.000; 1440.000
466.126;  -12.225;  721.000;  641.000
466.245;   46.975; 1176.000; 1187.000
466.364;   12.725;  950.000; 1060.000
466.484;   69.475; 1024.000; 1213.000
466.603;   28.650; 1101.000; 1222.000
466.722;  127.675; 1490.000; 1769.000
466.841;   76.925; 1151.000; 1401.000
466.960;   39.225; 1069.000;  972.000
467.079;  128.725; 1971.000; 1786.000
467.198;   45.250; 1238.000; 1181.000
467.317;   89.150; 1768.000; 1162.000
467.436;   75.750; 1709.000; 1261.000
467.555;  115.575; 1796.000; 1746.000
467.674;   59.825; 1227.000; 1329.000
467.793;   55.300; 1376.000; 1374.000
467.912;   70.975; 1658.000; 1539.000
468.031;  127.975; 2038.000; 1930.000
468.150;  144.375; 1842.000; 1837.000
468.269;  189.950; 2313.000; 2090.000
468.388;  184.825; 2168.000; 2339.000
468.507;  237.400; 2884.000; 2903.000
468.626;  271.275; 2555.000; 2541.000
468.744;  149.625; 2018.000; 2174.000
468.863;  196.200; 2312.000; 2523.000
468.982;   82.900; 1503.000; 1555.000
469.101;  229.550; 2788.000; 2692.000
469.220;  143.025; 2333.000; 2176.000
469.338;  263.350; 2935.000; 3051.000
469.457;  175.500; 2719.000; 2545.000
469.576;  340.075; 3953.000; 3784.000
469.695;  235.500; 2877.000; 3066.000
469.813;  433.825; 4148.000; 4192.000
469.932;  404.125; 4255.000; 4485.000
470.051;  423.175; 4075.000; 4161.000
470.169;  795.475; 4470.000; 4338.000
470.288; 1423.125; 4700.000; 4809.000
470.406;  866.950; 5059.000; 5194.000
470.525;  649.650; 6101.000; 5787.000
470.644;  651.100; 6847.000; 6794.000
470.762;  811.675; 8397.000; 7873.000
470.881;  881.025; 8651.000; 8464.000
470.999; 1020.600; 9685.000; 9151.000
471.118; 1108.325;11174.000;10711.000

