
Integration time [ms]: 200.000
Averaging Nr. [scans]: 10
Smoothing Nr. [pixels]: 0
Data measured with spectrometer [name]: 2101012U2
Wave   ;Sample   ;Dark     ;Reference
[nm]   ;[counts] ;[counts] ;[counts] 

197.733;  123.500;  516.000;  404.000
197.879; -164.000; -610.000; -634.000
198.025; -114.500; -475.000; -420.000
198.171; -153.600; -602.000; -612.000
198.317;  -55.000; -401.000; -316.000
198.463; -119.500; -655.000; -404.000
198.609;   85.100;  181.000; -137.000
198.755; -163.700; -644.000; -410.000
198.901; -117.800; -505.000; -424.000
199.047; -143.500; -615.000; -488.000
199.193; -123.900; -230.000; -468.000
199.339;  -75.300; -222.000; -369.000
199.485;  102.100;  330.000;  271.000
199.631;   40.700;  227.000;  310.000
199.777; -109.800; -466.000; -398.000
199.923; -157.000; -610.000; -424.000
200.069;    6.600; -141.000;  -58.000
200.215;  109.700;  128.000;  453.000
200.361;   90.900;  243.000;  477.000
200.507; -127.100; -600.000; -373.000
200.653;  -52.000; -371.000; -194.000
200.798;  -71.900; -215.000; -125.000
200.944;  -12.200; -146.000;  -41.000
201.090;   97.900;   61.000;  222.000
201.236;  -17.200; -116.000; -158.000
201.382;  250.200;  874.000;  903.000
201.528;   34.300;  -58.000;  -48.000
201.674;  -59.100; -386.000; -293.000
201.819; -135.000; -540.000; -439.000
201.965; -161.800; -699.000; -447.000
202.111;  -50.800; -273.000; -226.000
202.257;  -78.500; -250.000; -238.000
202.402;    9.300;   13.000;  -36.000
202.548;  -52.400; -169.000; -116.000
202.694;  160.100;  410.000; -183.000
202.840; -164.100; -603.000; -531.000
202.985; -158.000; -681.000; -639.000
203.131; -210.400; -832.000; -666.000
203.277;  -78.600; -199.000; -262.000
203.423; -110.600; -434.000; -520.000
203.568;  -74.800; -462.000; -237.000
203.714; -122.000; -535.000; -542.000
203.860; -175.400; -682.000; -641.000
204.005;   54.500;  112.000;  167.000
204.151;  163.000;  561.000;  556.000
204.296;  -82.000; -354.000; -221.000
204.442; -149.400; -600.000; -547.000
204.588; -156.500; -592.000; -579.000
204.733;   44.900;  178.000;  168.000
204.879; -252.400;-1018.000; -822.000
205.025;   64.900;  -99.000;  126.000
205.170;    7.600;  -17.000;   94.000
205.316;  191.000;  438.000;  661.000
205.461; -170.800; -698.000; -554.000
205.607;  176.200;  609.000;  665.000
205.752; -147.700; -626.000; -551.000
205.898; -111.100; -501.000; -391.000
206.043;  -91.500; -578.000; -506.000
206.189;  -75.100; -243.000; -285.000
206.334;  182.000;  554.000;  606.000
206.480;  185.200;  409.000;  239.000
206.625; -171.100; -529.000; -552.000
206.771;  -93.900; -451.000; -373.000
206.916;  -62.700; -210.000; -537.000
207.062; -162.900; -545.000; -591.000
207.207; -146.000; -546.000; -443.000
207.353;  115.700;  185.000;  460.000
207.498;   37.500;  196.000;   85.000
207.643;  -63.800; -501.000; -370.000
207.789; -248.200;-1069.000; -910.000
207.934; -216.000; -665.000; -713.000
208.080;  -31.300; -154.000;   66.000
208.225;    5.300;  -22.000;  -57.000
208.370; -186.400; -727.000; -619.000
208.516; -142.500; -741.000; -487.000
208.661;  -54.600; -127.000;  -69.000
208.806;  -71.300; -165.000; -171.000
208.952; -255.000;-1044.000; -731.000
209.097;  172.400;  378.000;  349.000
209.242;  -56.400; -307.000; -382.000
209.387;  125.900;  392.000;  350.000
209.533; -109.000; -321.000; -350.000
209.678;  184.600;  472.000;  543.000
209.823; -118.900; -408.000; -310.000
209.969; -185.600; -860.000; -757.000
210.114; -223.600; -907.000; -719.000
210.259; -241.900; -939.000; -889.000
210.404;    3.000; -171.000;  103.000
210.549;   21.900;  108.000;    3.000
210.695;  -52.300;   -3.000;  -95.000
210.840;  113.100;   94.000;   67.000
210.985; -126.600; -484.000; -303.000
211.130;  162.600;  268.000;  406.000
211.275;   49.000;  207.000;  199.000
211.420;  -99.200; -300.000; -289.000
211.566; -148.500; -536.000; -489.000
211.711;   18.300;  218.000;  157.000
211.856; -138.600; -545.000; -519.000
212.001;   52.600;  151.000;   44.000
212.146;    6.000;  153.000;   49.000
212.291;  -36.100; -210.000; -186.000
212.436;  -53.200; -280.000;   -6.000
212.581; -160.800; -685.000; -653.000
212.726; -129.700; -487.000; -538.000
212.871;  -91.900; -552.000; -217.000
213.016; -327.700;-1172.000;-1029.000
213.161;  142.900;  406.000;  291.000
213.306; -144.100; -435.000; -577.000
213.451; -184.300; -778.000; -689.000
213.596;  -85.900; -455.000; -347.000
213.741;  -88.200; -448.000; -538.000
213.886; -165.500; -498.000; -517.000
214.031;  -31.600; -294.000; -124.000
214.176;  -96.800; -408.000; -341.000
214.321;  -40.000; -296.000; -157.000
214.466;  -44.000; -163.000;  -43.000
214.611;   13.500;  -61.000;  -10.000
214.756; -263.600; -948.000; -858.000
214.901;  -20.200; -388.000; -226.000
215.046; -251.900; -797.000; -825.000
215.191;   49.600;  128.000;   35.000
215.336;  -33.200; -157.000;  -19.000
215.480; -125.600; -684.000; -505.000
215.625;  -30.900; -175.000;  -19.000
215.770; -143.500; -757.000; -662.000
215.915;   -0.900;   -5.000;  -97.000
216.060;   -8.600; -113.000;  -21.000
216.205; -232.400; -731.000; -779.000
216.349; -128.700; -470.000; -533.000
216.494; -268.500; -939.000; -867.000
216.639; -252.900; -823.000; -888.000
216.784; -163.500; -577.000; -525.000
216.929;  140.200;  392.000;  281.000
217.073;  -13.100; -244.000;  -31.000
217.218;   37.000;   78.000;  -47.000
217.363; -161.700; -656.000; -618.000
217.507; -153.800; -623.000; -588.000
217.652; -266.900; -845.000; -874.000
217.797; -174.600; -708.000; -659.000
217.942; -253.700; -856.000; -720.000
218.086;  140.700;  608.000;  539.000
218.231;  -36.500; -174.000;  -26.000
218.376;  -62.500; -337.000; -229.000
218.520;    8.500;  -41.000;   96.000
218.665;  -57.800; -338.000; -204.000
218.810;  -87.000; -275.000; -233.000
218.954;   39.000;  201.000;   35.000
219.099; -218.000; -713.000; -963.000
219.243; -141.400; -589.000; -554.000
219.388;  -43.200; -264.000; -136.000
219.532;  -10.900; -116.000; -116.000
219.677; -153.000; -564.000; -521.000
219.822;   10.800;   33.000;   89.000
219.966;   14.500;   17.000;  -99.000
220.111;  -57.800; -328.000;  -40.000
220.255; -174.500; -797.000; -750.000
220.400;  -39.800; -180.000; -146.000
220.544; -130.000; -516.000; -450.000
220.689;  -98.600; -422.000; -451.000
220.833;  -50.200; -123.000;  -58.000
220.978;  -93.800; -393.000; -563.000
221.122;   64.000;  319.000;  307.000
221.267; -206.700; -906.000; -837.000
221.411; -146.800; -478.000; -394.000
221.555;   -9.300; -104.000;  -23.000
221.700; -100.700; -329.000; -222.000
221.844;   92.400;  255.000;  272.000
221.989; -119.600; -328.000; -311.000
222.133;  -47.000; -289.000; -307.000
222.277;  -43.700;    5.000;   78.000
222.422;   24.700;  227.000;  113.000
222.566;  -56.100; -381.000; -214.000
222.711; -109.400; -414.000; -479.000
222.855; -161.700; -643.000; -586.000
222.999; -168.100; -642.000; -717.000
223.144;  -44.700; -195.000; -194.000
223.288;  139.300;  423.000;  251.000
223.432;   32.400;  184.000;  230.000
223.576;   25.200;  152.000;  -21.000
223.721;   85.300;  364.000;  273.000
223.865; -117.400; -472.000; -475.000
224.009;  507.900; 1673.000; 1631.000
224.153; -148.900; -660.000; -671.000
224.298; -136.700; -531.000; -489.000
224.442;   10.200;  -74.000;  -33.000
224.586;  -21.700; -169.000; -106.000
224.730; -195.600; -858.000; -670.000
224.875; -202.900; -739.000; -688.000
225.019;   19.300;  102.000;  188.000
225.163;  107.000;  208.000;  341.000
225.307;   49.200;   97.000;  -91.000
225.451;  134.000;  360.000;  481.000
225.595;   75.200;  264.000;  176.000
225.739;   -5.400; -170.000;  -94.000
225.884;   32.000;   86.000;    5.000
226.028; -186.700; -760.000; -626.000
226.172;  -76.900; -260.000; -273.000
226.316; -226.800; -941.000; -902.000
226.460; -135.100; -645.000; -493.000
226.604; -107.400; -406.000; -400.000
226.748; -179.200; -836.000; -733.000
226.892;  -28.500; -227.000; -181.000
227.036;  -87.900; -537.000; -447.000
227.180; -111.200; -551.000; -375.000
227.324; -139.900; -561.000; -580.000
227.468; -233.800; -819.000; -717.000
227.612;   29.800;  242.000;  -28.000
227.756; -226.900; -845.000; -698.000
227.900;  113.800;  342.000;  441.000
228.044; -130.800; -509.000; -290.000
228.188;  151.900;  448.000;  568.000
228.332; -163.100; -546.000; -472.000
228.476;  -83.200; -223.000; -149.000
228.620;  -64.000; -210.000; -150.000
228.764;  148.900;  431.000;  349.000
228.908;  -18.100; -155.000;   30.000
229.052; -121.500; -615.000; -528.000
229.195;  -17.400; -172.000;   13.000
229.339;  -48.600; -235.000; -305.000
229.483;  -49.900;    5.000; -162.000
229.627;   -2.500; -156.000;  139.000
229.771;  -56.600; -218.000; -294.000
229.915;   48.100;  230.000;   79.000
230.059; -178.300; -648.000; -663.000
230.202;  -72.800; -370.000; -317.000
230.346;    4.300; -107.000;  107.000
230.490; -121.500; -489.000; -521.000
230.634; -209.400; -736.000; -553.000
230.777;  187.900;  478.000;  509.000
230.921; -102.700; -450.000; -359.000
231.065;  -85.300; -246.000; -286.000
231.209;   69.500;  261.000;  265.000
231.352;   55.900;   54.000;   40.000
231.496;   35.800;  568.000;  188.000
231.640; -138.500; -693.000; -621.000
231.783;  163.800;  546.000;  525.000
231.927;  -68.500; -294.000; -365.000
232.071; -220.000; -962.000; -736.000
232.214; -231.000; -980.000; -764.000
232.358; -200.400; -683.000; -599.000
232.502;    2.200;  -19.000;    7.000
232.645; -271.100;-1090.000; -927.000
232.789;  -21.800; -257.000; -218.000
232.933;  -85.300; -407.000; -224.000
233.076; -256.900;-1038.000; -897.000
233.220; -207.700; -752.000; -777.000
233.363; -158.500; -669.000; -477.000
233.507;  112.700;  371.000;  129.000
233.650; -183.500; -764.000; -834.000
233.794;  100.700;  438.000;  461.000
233.938; -115.500; -530.000; -362.000
234.081;  -25.500;  -93.000;   31.000
234.225; -163.800; -631.000; -539.000
234.368; -227.500; -773.000; -723.000
234.512;  -47.100; -385.000; -299.000
234.655; -172.200; -582.000; -555.000
234.798; -133.500; -493.000; -466.000
234.942; -270.000; -884.000;-1002.000
235.085; -141.600; -651.000; -443.000
235.229; -140.600; -405.000; -410.000
235.372;  -92.700; -247.000; -191.000
235.516; -109.600; -397.000; -321.000
235.659;   48.100;   92.000;  121.000
235.802;  -16.000;  -38.000;  -22.000
235.946;   86.500;  335.000;  215.000
236.089;  105.400;  126.000;  250.000
236.233;  119.100;  275.000;  298.000
236.376;  -90.800; -235.000; -378.000
236.519; -100.700; -297.000; -319.000
236.663;  -10.900; -215.000; -117.000
236.806; -267.300;-1029.000; -999.000
236.949;  156.500;  543.000;  431.000
237.092;  129.500;  412.000;  391.000
237.236; -151.300; -589.000; -502.000
237.379;  153.800;  352.000;  428.000
237.522; -232.100; -879.000; -768.000
237.666;  -16.900; -271.000;   18.000
237.809; -227.100; -851.000; -823.000
237.952;   93.100;  469.000;  271.000
238.095;  -95.800; -447.000; -442.000
238.238;  179.700;  688.000;  700.000
238.382;    1.800;  166.000;  103.000
238.525; -145.400; -598.000; -511.000
238.668; -255.100;-1060.000; -985.000
238.811; -173.800; -638.000; -643.000
238.954; -111.200; -483.000; -334.000
239.097;  246.800;  617.000;  664.000
239.241;   52.600;  394.000;  326.000
239.384;  -48.800; -254.000; -214.000
239.527; -110.800; -424.000; -224.000
239.670; -309.200; -994.000;-1091.000
239.813; -206.500; -696.000; -658.000
239.956;  192.600;  579.000;  473.000
240.099; -254.900; -778.000; -725.000
240.242;  142.500;  428.000;  432.000
240.385;  127.700;  466.000;  450.000
240.528; -158.800; -706.000; -473.000
240.671;   38.300;  189.000;  134.000
240.814;  -81.900; -441.000; -158.000
240.957; -203.800; -767.000; -578.000
241.100; -178.700; -779.000; -755.000
241.243; -286.000;-1234.000; -893.000
241.386; -128.700; -508.000; -379.000
241.529; -161.000; -735.000; -547.000
241.672; -147.100; -566.000; -495.000
241.815; -203.700; -832.000; -808.000
241.958;  -41.100; -125.000; -182.000
242.101; -142.300; -545.000; -390.000
242.244;  -59.000; -270.000; -325.000
242.387;  -44.100; -304.000; -246.000
242.530;  125.500;  470.000;  134.000
242.673;  -36.900; -381.000; -309.000
242.815; -207.300; -925.000; -899.000
242.958; -148.000; -482.000; -381.000
243.101;   27.700;  132.000;  187.000
243.244; -153.400; -564.000; -521.000
243.387;  -61.700; -313.000; -316.000
243.530; -200.000; -657.000; -674.000
243.672;    8.600;   43.000;  -92.000
243.815;  -93.500; -355.000; -283.000
243.958;   -9.100;   98.000;  -26.000
244.101;   22.100;   59.000;  -16.000
244.243;  -11.100;  -47.000;  101.000
244.386; -211.600; -761.000; -630.000
244.529;  -76.400; -132.000; -139.000
244.672; -325.000;-1154.000; -951.000
244.814; -189.400; -621.000; -794.000
244.957; -106.300; -380.000; -304.000
245.100; -106.800; -489.000; -489.000
245.242; -118.900; -387.000; -374.000
245.385;    3.200;  -59.000;  -39.000
245.528; -235.100; -871.000; -705.000
245.670;  184.100;  612.000;  634.000
245.813; -170.400; -599.000; -547.000
245.956;  -57.500; -324.000; -275.000
246.098; -151.400; -508.000; -650.000
246.241;   30.900;  194.000;   48.000
246.383;  -16.400; -119.000;  -73.000
246.526; -143.800; -454.000; -525.000
246.669; -233.200; -889.000; -780.000
246.811;   48.700;  172.000;   -1.000
246.954; -110.700; -512.000; -426.000
247.096;  -27.800;  -84.000;   -6.000
247.239; -135.600; -482.000; -445.000
247.381; -137.100; -647.000; -488.000
247.524;  208.400;  645.000;  679.000
247.666;    4.600;   58.000;   11.000
247.809; -212.000; -887.000; -691.000
247.951;  -27.100;  -75.000;  138.000
248.094;   63.600;  432.000;  308.000
248.236; -320.900;-1262.000;-1238.000
248.378;   16.800; -356.000;  -81.000
248.521;  -43.000; -334.000; -337.000
248.663;  -82.400; -236.000; -267.000
248.806;  -41.300; -300.000; -266.000
248.948; -204.900; -886.000; -763.000
249.090; -115.500; -428.000; -398.000
249.233; -111.600; -344.000; -381.000
249.375; -119.000; -474.000; -451.000
249.518;   12.600;  -83.000; -133.000
249.660;   11.300; -103.000;    3.000
249.802; -359.800;-1303.000;-1189.000
249.945; -148.800; -612.000; -540.000
250.087; -229.200; -834.000; -768.000
250.229;  -82.300; -362.000; -480.000
250.371; -140.600; -494.000; -439.000
250.514;  -92.300; -310.000; -244.000
250.656;    3.700;   69.000;  102.000
250.798; -232.300; -849.000; -800.000
250.940; -109.400; -322.000; -322.000
251.083;  -26.800; -335.000; -111.000
251.225;  148.100;  338.000;  310.000
251.367; -104.200; -274.000; -373.000
251.509;  -71.600; -265.000; -210.000
251.651; -181.500; -731.000; -671.000
251.794;  151.600;  538.000;  632.000
251.936; -212.800; -821.000; -747.000
252.078; -139.200; -540.000; -461.000
252.220; -157.600; -645.000; -477.000
252.362;  187.000;  344.000;  462.000
252.504; -113.800; -677.000; -584.000
252.646; -213.000; -875.000; -722.000
252.788;  -20.000;   14.000; -128.000
252.931; -110.500; -257.000; -253.000
253.073;  -93.500; -376.000; -317.000
253.215;  -25.600;  141.000;  122.000
253.357;  -14.000;   82.000; -153.000
253.499;  -81.700; -374.000; -234.000
253.641; -174.400; -749.000; -594.000
253.783; -172.700; -609.000; -527.000
253.925; -194.800; -586.000; -591.000
254.067; -227.000; -744.000; -667.000
254.209;  -11.600; -391.000; -259.000
254.351; -259.700; -865.000; -883.000
254.493; -112.900; -441.000; -417.000
254.635; -234.100; -936.000; -818.000
254.777; -160.700; -752.000; -687.000
254.918; -184.900; -512.000; -430.000
255.060; -116.100; -551.000; -395.000
255.202; -101.800; -473.000; -261.000
255.344; -165.700; -658.000; -455.000
255.486; -135.900; -471.000; -406.000
255.628; -198.100; -780.000; -781.000
255.770; -177.300; -676.000; -536.000
255.912;  -89.100; -559.000; -468.000
256.053; -165.800; -730.000; -508.000
256.195;  369.800; 1008.000;  903.000
256.337; -186.500; -861.000; -595.000
256.479;  146.200;  532.000;  416.000
256.621; -101.300; -394.000; -212.000
256.762; -207.300; -789.000; -742.000
256.904;  113.400;  485.000;  487.000
257.046; -108.600; -381.000; -271.000
257.188;  -81.900; -351.000; -264.000
257.329; -149.200; -525.000; -464.000
257.471; -224.600; -939.000; -807.000
257.613; -119.800; -584.000; -498.000
257.755; -295.000;-1073.000; -982.000
257.896;  103.900;  286.000;  392.000
258.038; -126.300; -403.000; -352.000
258.180;  -76.500; -354.000; -279.000
258.321; -152.600; -581.000; -457.000
258.463;  -11.900;  -71.000;  133.000
258.605; -207.500; -562.000; -570.000
258.746; -227.000; -886.000; -772.000
258.888; -304.900;-1026.000;-1020.000
259.029;   41.100;  121.000;   -8.000
259.171; -149.400; -614.000; -550.000
259.313;   35.600;  -49.000;  -47.000
259.454; -149.300; -536.000; -414.000
259.596;  -91.300; -483.000; -390.000
259.737; -139.800; -590.000; -474.000
259.879;   99.500;  217.000;  311.000
260.020;  202.500;  901.000;  636.000
260.162;  -18.000; -146.000; -253.000
260.303; -215.100; -768.000; -687.000
260.445; -162.700; -609.000; -613.000
260.586;   42.300;  392.000;  157.000
260.728;  -86.800; -360.000; -248.000
260.869; -128.300; -350.000; -343.000
261.011;  176.400;  706.000;  537.000
261.152; -113.400; -479.000; -319.000
261.293; -151.000; -576.000; -595.000
261.435;  -19.800; -219.000; -184.000
261.576;  -96.100; -455.000; -325.000
261.718;  124.300;  420.000;  470.000
261.859; -260.300; -940.000; -949.000
262.000; -238.500; -951.000;-1016.000
262.142;  -46.100;  -52.000;  -60.000
262.283; -222.100; -808.000; -691.000
262.424; -148.200; -666.000; -625.000
262.566; -298.300;-1161.000; -983.000
262.707; -179.000; -840.000; -830.000
262.848; -206.500; -769.000; -726.000
262.990;  -86.500; -362.000; -345.000
263.131;  207.700;  650.000;  681.000
263.272;  -17.100;  -61.000;  -41.000
263.413; -166.100; -589.000; -561.000
263.555;  -87.900; -669.000; -143.000
263.696; -131.000; -550.000; -641.000
263.837; -110.400; -449.000; -551.000
263.978;    7.300;   -5.000;  -77.000
264.119;  -93.200; -283.000; -264.000
264.261; -227.300; -847.000; -630.000
264.402;   49.600;   33.000;   40.000
264.543; -143.100; -509.000; -524.000
264.684;  -10.200;   61.000;  -50.000
264.825; -142.400; -816.000; -538.000
264.966;   -4.400;  -84.000;  -67.000
265.107; -205.700; -646.000; -670.000
265.248; -229.100; -825.000; -812.000
265.390;    3.300;  152.000;   -9.000
265.531;  -44.600; -238.000; -107.000
265.672; -129.100; -557.000; -630.000
265.813;  143.800;  563.000;  439.000
265.954; -281.000; -959.000; -940.000
266.095;   13.300; -372.000; -322.000
266.236; -192.800; -686.000; -548.000
266.377;  -64.100; -243.000; -297.000
266.518; -124.300; -619.000; -547.000
266.659;   54.700;  170.000;  268.000
266.800;    0.600;   83.000;   85.000
266.941; -139.400; -487.000; -478.000
267.082;   46.500;  354.000;   99.000
267.223;  -95.300; -344.000; -273.000
267.364; -234.600; -892.000; -686.000
267.504;   -8.000;    3.000;  135.000
267.645;   27.000;  160.000;   67.000
267.786;  -65.000; -147.000;  -86.000
267.927; -127.500; -473.000; -379.000
268.068;  -20.000; -186.000;  -61.000
268.209;  -94.600; -175.000; -413.000
268.350; -101.000; -388.000; -532.000
268.490; -161.400; -648.000; -521.000
268.631;   95.800;  127.000;  225.000
268.772; -205.300; -874.000; -647.000
268.913;  -70.000; -328.000; -476.000
269.054;   -7.100; -117.000;   12.000
269.194;  -65.100; -418.000; -402.000
269.335; -298.700;-1137.000;-1074.000
269.476;  -39.400;   33.000;  -35.000
269.617;  -96.900; -347.000; -392.000
269.757; -173.200; -713.000; -646.000
269.898; -208.600; -856.000; -613.000
270.039;  -97.400; -415.000; -405.000
270.180; -261.100; -952.000; -816.000
270.320;   -3.400; -190.000; -250.000
270.461;  -43.100; -277.000; -249.000
270.602;  -28.200; -186.000; -156.000
270.742; -229.000; -868.000; -943.000
270.883; -100.100; -442.000; -390.000
271.023;  -87.200; -358.000; -357.000
271.164; -147.500; -607.000; -528.000
271.305; -179.700; -666.000; -654.000
271.445; -142.600; -722.000; -683.000
271.586; -103.300; -462.000; -283.000
271.726;  -78.300; -397.000; -322.000
271.867; -118.200; -594.000; -534.000
272.008;  269.300; -473.000; -285.000
272.148;  196.200;  462.000;  468.000
272.289;   27.300; -113.000; -181.000
272.429;   56.200;   19.000;  185.000
272.570; -177.200; -633.000; -737.000
272.710; -189.300; -825.000; -775.000
272.851;  -19.400;  113.000; -130.000
272.991; -327.100;-1173.000;-1077.000
273.131; -123.800; -419.000; -459.000
273.272; -203.000; -683.000; -723.000
273.412;    8.100; -143.000;  -31.000
273.553; -101.600; -488.000; -507.000
273.693;  299.200;  913.000;  858.000
273.834; -180.300; -894.000; -692.000
273.974; -147.900; -664.000; -615.000
274.114; -190.900; -772.000; -560.000
274.255;  159.200;  414.000;  373.000
274.395;    0.900; -180.000; -125.000
274.535;  114.300;  199.000;  350.000
274.676;   72.100;  225.000;   94.000
274.816;   21.700;  110.000;   34.000
274.956; -191.900; -624.000; -690.000
275.097; -163.300;-1014.000; -922.000
275.237; -249.400; -913.000; -803.000
275.377; -178.800; -778.000; -689.000
275.517; -274.200; -878.000; -937.000
275.658; -112.700; -590.000; -555.000
275.798; -117.100; -606.000; -413.000
275.938;   62.100;  215.000;  323.000
276.078; -174.600; -626.000; -395.000
276.218;   24.200;   99.000;  104.000
276.359; -251.700;-1026.000;-1024.000
276.499; -122.100; -605.000; -446.000
276.639;  -43.100; -305.000; -151.000
276.779;  -99.700; -475.000; -357.000
276.919; -205.900; -783.000; -624.000
277.059;  -23.600; -261.000; -212.000
277.199;  -49.400; -357.000; -259.000
277.340;  105.000;  287.000;  175.000
277.480; -247.300; -840.000; -693.000
277.620;   85.300;  192.000;   16.000
277.760; -389.200;-1533.000;-1294.000
277.900;   20.900;  113.000;   33.000
278.040;   63.900;  137.000;  159.000
278.180;   94.500;  270.000;  170.000
278.320;   38.800;   21.000;   56.000
278.460; -104.400; -443.000; -469.000
278.600; -172.600; -708.000; -598.000
278.740;  134.800;  448.000;  224.000
278.880; -164.800; -768.000; -791.000
279.020;   25.000; -194.000; -144.000
279.160; -186.600; -672.000; -595.000
279.300; -204.200; -926.000; -873.000
279.440; -185.100; -709.000; -622.000
279.579; -100.600;-1014.000; -929.000
279.719;  -84.400; -410.000; -394.000
279.859;  148.500;   -4.000;   41.000
279.999;   52.500; -208.000;  101.000
280.139;  -38.800; -435.000; -387.000
280.279; -158.800; -708.000; -745.000
280.419;    0.600; -229.000; -147.000
280.559;  -56.600; -259.000; -180.000
280.698; -185.000; -790.000; -639.000
280.838; -149.900; -778.000; -800.000
280.978; -186.300; -846.000; -790.000
281.118; -196.500; -811.000; -704.000
281.257;   39.600;   24.000;    6.000
281.397; -251.200;-1094.000; -960.000
281.537; -187.400; -599.000; -712.000
281.677;  -12.000; -150.000; -101.000
281.816; -169.300; -700.000; -630.000
281.956;  -74.700; -193.000; -257.000
282.096; -111.900; -539.000; -396.000
282.235; -189.700; -672.000; -638.000
282.375;    0.900; -243.000;  -98.000
282.515; -196.600; -715.000; -707.000
282.654;   84.300;   29.000;  106.000
282.794;  101.300;  388.000;  244.000
282.934; -125.900; -530.000; -491.000
283.073; -254.600;-1030.000; -857.000
283.213; -101.500; -460.000; -467.000
283.353;  -81.200; -408.000; -349.000
283.492;  -33.000; -264.000; -296.000
283.632;  -60.100; -254.000; -168.000
283.771; -195.700; -859.000; -730.000
283.911;  -52.800; -369.000; -260.000
284.050; -233.600; -794.000; -748.000
284.190; -306.400;-1229.000;-1096.000
284.329; -273.400;-1055.000; -964.000
284.469; -140.800; -516.000; -591.000
284.608;  -99.200; -559.000; -598.000
284.748; -153.500; -614.000; -570.000
284.887;    6.600;  -87.000;  -20.000
285.027; -210.000; -844.000; -892.000
285.166;  -32.000; -192.000; -249.000
285.306;   84.900; -116.000;  -33.000
285.445;  -68.500; -229.000; -343.000
285.584; -165.400; -630.000; -494.000
285.724;  -62.900; -282.000; -322.000
285.863; -212.900; -857.000; -507.000
286.002;  -89.800; -366.000; -276.000
286.142; -192.400; -715.000; -622.000
286.281; -119.300; -525.000; -493.000
286.420; -153.200; -554.000; -417.000
286.560;  211.100;  653.000;  623.000
286.699; -263.700; -958.000; -912.000
286.838; -137.000; -590.000; -591.000
286.978; -164.500; -533.000; -537.000
287.117; -234.800;-1085.000; -950.000
287.256;  -40.200; -228.000; -211.000
287.395;  -70.700; -197.000; -378.000
287.535;  -88.900; -370.000; -298.000
287.674; -127.900; -509.000; -484.000
287.813;  115.800;  661.000;  533.000
287.952; -245.500;-1010.000; -871.000
288.091; -294.900;-1049.000; -915.000
288.231;   37.600;   13.000;   15.000
288.370; -319.000;-1217.000;-1200.000
288.509; -141.800; -728.000; -645.000
288.648; -159.900; -770.000; -548.000
288.787;  -43.500; -243.000;  -87.000
288.926;  -84.300; -454.000; -475.000
289.065;  231.300;  859.000;  672.000
289.204;  -84.000; -377.000; -217.000
289.344; -167.300; -791.000; -690.000
289.483;   62.900;  416.000;  304.000
289.622;  -42.200; -291.000; -149.000
289.761;   -7.100; -309.000; -166.000
289.900; -211.500; -785.000; -626.000
290.039;   -0.100;  -12.000;  -95.000
290.178;  -56.800; -274.000; -180.000
290.317; -142.100; -618.000; -479.000
290.456; -120.100; -463.000; -451.000
290.595; -274.800; -961.000; -833.000
290.734; -258.200; -904.000; -891.000
290.873; -100.800; -456.000; -420.000
291.011; -216.700; -833.000; -843.000
291.150; -174.900; -770.000; -682.000
291.289;  -24.100; -343.000; -110.000
291.428; -187.600; -599.000; -480.000
291.567;  -73.200; -370.000; -442.000
291.706;    1.000;  109.000;  154.000
291.845; -161.800; -597.000; -505.000
291.984; -319.400;-1234.000;-1061.000
292.122;  192.700;  602.000;  582.000
292.261;  149.000;  620.000;  463.000
292.400;   34.300; -144.000;  211.000
292.539; -222.700; -959.000; -813.000
292.678;  -52.700; -325.000; -300.000
292.816; -284.700;-1136.000; -965.000
292.955; -187.100; -844.000; -684.000
293.094;    4.600; -173.000; -337.000
293.233;  -92.600; -556.000; -400.000
293.371;  -35.500; -225.000;  -84.000
293.510; -196.100; -866.000; -780.000
293.649; -251.700; -959.000; -924.000
293.787; -168.000;-1083.000;-1012.000
293.926;   -0.200; -113.000;  -32.000
294.065;  -74.600; -379.000; -290.000
294.203;  117.800;  298.000;  406.000
294.342;   84.600;   74.000;  156.000
294.481;12785.400;51180.000; -836.000
294.619;  -11.000; -425.000; -582.000
294.758; -288.400;-1230.000;-1137.000
294.896;  126.100; -125.000;    5.000
295.035; -236.100;-1040.000;-1006.000
295.174; -265.200;-1082.000; -954.000
295.312;  -73.700; -323.000; -203.000
295.451;   -7.400; -307.000; -428.000
295.589;  -90.700; -389.000; -518.000
295.728;   26.600; -292.000; -165.000
295.866;   11.700;  -36.000;  -51.000
296.005; -109.300; -584.000; -341.000
296.143; -123.200; -558.000; -596.000
296.282; -170.200; -957.000; -881.000
296.420; -161.100; -657.000; -557.000
296.559; -167.800; -892.000; -633.000
296.697;  -20.200; -847.000; -665.000
296.835;   39.000;-1141.000;-1002.000
296.974;   83.400;  -23.000;   39.000
297.112;   30.800; -443.000; -504.000
297.251; -131.700; -815.000; -755.000
297.389;  107.700; -576.000; -438.000
297.527;   89.700; -145.000;  -83.000
297.666;  -68.300; -486.000; -438.000
297.804;  -73.700; -404.000; -264.000
297.942;    5.200; -136.000; -161.000
298.081;   15.200; -183.000;   63.000
298.219;  127.900;  -17.000;  -19.000
298.357;   76.500; -144.000;  -71.000
298.495;  -17.000; -810.000; -812.000
298.634;  163.600;  245.000;  219.000
298.772;   66.400; -220.000; -338.000
298.910;  -54.400; -309.000; -182.000
299.048;   -5.300; -130.000; -153.000
299.187;  -38.500; -350.000; -250.000
299.325;   33.200;   52.000;  122.000
299.463;   60.500; -389.000; -299.000
299.601;  172.900; -327.000; -271.000
299.739; -203.300; -908.000; -883.000
299.877; -144.600; -791.000; -703.000
300.016; -133.300;-1095.000; -935.000
300.154;  284.100;  -19.000; -161.000
300.292;   51.600; -428.000; -348.000
300.430;   48.200; -408.000; -291.000
300.568; -202.200; -940.000; -874.000
300.706; -106.700; -366.000; -469.000
300.844; -173.300;-1108.000; -979.000
300.982;  245.600;  246.000;  282.000
301.120; -208.200; -965.000; -866.000
301.258; -104.700; -812.000; -705.000
301.396;   75.800;  104.000;  -41.000
301.534;   82.300; -218.000; -293.000
301.672;  -42.200; -664.000; -521.000
301.810;   -3.200; -613.000; -545.000
301.948;  243.500;   53.000;  149.000
302.086;  862.400; -250.000;  -32.000
302.224; 1346.200; -610.000; -585.000
302.362;   34.100; -558.000; -622.000
302.500; -103.500; -923.000; -893.000
302.638;  153.100;  128.000;  245.000
302.776;   20.400; -352.000; -408.000
302.913;  140.600;  447.000;  236.000
303.051;   30.300;  -86.000;  -23.000
303.189;  104.500;   90.000;  118.000
303.327;  -38.900; -341.000; -256.000
303.465; -117.400; -832.000; -588.000
303.603; -159.600; -805.000; -604.000
303.740;  176.000;  417.000;  241.000
303.878;  -46.400; -800.000; -759.000
304.016; -167.900; -915.000; -790.000
304.154; -241.600;-1123.000;-1152.000
304.291;  -93.900; -505.000; -554.000
304.429;   56.300;  102.000;   74.000
304.567; -215.400; -908.000; -893.000
304.705;  -75.200; -408.000; -515.000
304.842;  109.700; -616.000; -540.000
304.980;  135.100;  215.000;   35.000
305.118;   46.500; -367.000; -365.000
305.255; -187.700; -945.000; -927.000
305.393;  111.300;  178.000;  239.000
305.531; -192.400;-1173.000; -956.000
305.668; -136.800; -663.000; -582.000
305.806;  132.000; -358.000; -439.000
305.943;  122.800; -629.000; -637.000
306.081;  110.100; -378.000; -267.000
306.219; -182.400; -863.000; -748.000
306.356;   35.600;  158.000;   27.000
306.494;  260.800;  981.000;  761.000
306.631;   24.400;  -11.000;  -55.000
306.769;    0.400; -613.000; -485.000
306.906;  -30.300; -284.000; -258.000
307.044;  -87.200; -473.000; -488.000
307.181;  -97.700; -410.000; -332.000
307.319;   52.400;  112.000;   87.000
307.456; -303.300;-1191.000;-1153.000
307.594; -209.700; -980.000; -727.000
307.731;    3.800; -371.000; -164.000
307.868;   22.700;  -15.000;   20.000
308.006; -252.200; -961.000; -847.000
308.143; -126.400; -618.000; -330.000
308.281;  350.700;  -37.000; -254.000
308.418;  -12.300; -748.000; -640.000
308.555; -108.200; -400.000; -250.000
308.693; -122.600; -577.000; -573.000
308.830; -204.000; -712.000; -657.000
308.967;   25.500; -215.000;  -95.000
309.105;  -58.600; -507.000; -396.000
309.242;  104.700; -468.000; -367.000
309.379;  657.500; -577.000; -655.000
309.517; -112.800; -936.000; -948.000
309.654; -204.500; -910.000; -734.000
309.791; -121.700; -662.000; -580.000
309.928; -217.600; -977.000; -914.000
310.065;  349.700;  819.000;  697.000
310.203;  -83.400; -825.000; -850.000
310.340;   -2.000; -465.000; -321.000
310.477; -153.600; -412.000; -516.000
310.614; -115.700; -383.000; -473.000
310.751; -131.500; -427.000; -518.000
310.889;   -3.100;    1.000;   11.000
311.026; -279.000;-1161.000; -939.000
311.163;  -76.900; -386.000; -380.000
311.300; -116.300; -512.000; -479.000
311.437; -121.800; -658.000; -619.000
311.574; -269.700;-1226.000; -985.000
311.711; -110.800; -595.000; -433.000
311.848;  -65.200; -380.000; -388.000
311.985;   58.000;  270.000;   93.000
312.122; -214.300; -932.000; -762.000
312.259; -186.000; -941.000; -994.000
312.396; -118.900; -508.000; -551.000
312.533; -144.900; -812.000; -790.000
312.670; -264.900;-1070.000; -898.000
312.807;  -73.300; -352.000; -367.000
312.944; -123.500; -513.000; -611.000
313.081;  -28.100; -150.000; -415.000
313.218; -186.000;-1111.000; -867.000
313.355;   50.300; -531.000; -449.000
313.492;   14.200; -455.000; -292.000
313.629;  274.000;  815.000;  735.000
313.766; -295.800;-1176.000;-1008.000
313.902;   -5.200; -186.000;   21.000
314.039;  -56.400; -372.000; -289.000
314.176;   63.500;  286.000;  192.000
314.313; -111.900; -569.000; -473.000
314.450; -145.700; -788.000; -684.000
314.587; -109.700; -468.000; -480.000
314.723;   21.000;  -78.000;  130.000
314.860;   58.100;  318.000;  332.000
314.997;  107.800;  223.000;  142.000
315.134;  -75.200; -385.000; -368.000
315.270;  -59.700; -480.000; -496.000
315.407; -255.800;-1094.000; -967.000
315.544; -121.300; -657.000; -538.000
315.681; -119.800; -681.000; -565.000
315.817;   48.100; -133.000; -176.000
315.954;    4.700; -613.000; -392.000
316.091; -221.300;-1045.000;-1023.000
316.227;   -2.600;  -71.000; -179.000
316.364;   19.900;   23.000;    6.000
316.500;  -52.200; -113.000; -300.000
316.637;  -69.300; -181.000; -302.000
316.774; -178.800; -625.000; -358.000
316.910; -159.900; -598.000; -629.000
317.047; -105.500; -487.000; -351.000
317.183;  -65.200; -435.000; -566.000
317.320;   25.200; -367.000; -321.000
317.456; -115.000; -733.000; -805.000
317.593; -158.500; -598.000; -641.000
317.729;   47.400;  168.000;  -67.000
317.866; -378.700;-1434.000;-1285.000
318.002; -167.800; -708.000; -948.000
318.139; -176.700; -883.000; -867.000
318.275; -214.300;-1003.000; -738.000
318.412; -111.500; -517.000; -336.000
318.548;  -89.400; -751.000; -720.000
318.685; -204.200; -985.000; -888.000
318.821; -180.000; -762.000; -735.000
318.957;  -28.900;   34.000;  -23.000
319.094;   87.400;  297.000;  154.000
319.230; -133.000; -756.000; -742.000
319.367;  203.500; -471.000; -520.000
319.503;   75.400; -538.000; -436.000
319.639; -133.400; -877.000; -793.000
319.775; -104.400; -750.000; -685.000
319.912;  -81.800; -424.000; -519.000
320.048; -166.100;-1184.000;-1184.000
320.184;  143.100;   59.000;   70.000
320.321;  -85.400; -497.000; -467.000
320.457;  134.400;  475.000;  662.000
320.593;  -94.800; -375.000; -382.000
320.729; -179.900; -732.000; -734.000
320.866; -118.600; -577.000; -635.000
321.002; -135.600; -759.000; -809.000
321.138;  -25.200; -135.000; -211.000
321.274;  143.300; -148.000; -115.000
321.410;  -14.200; -585.000; -353.000
321.546;  -88.400;-1011.000; -911.000
321.683;  141.600;  400.000;  185.000
321.819;   54.200;  -48.000; -117.000
321.955; -213.400; -743.000; -722.000
322.091;  -49.900; -585.000; -540.000
322.227;  -15.300; -382.000; -202.000
322.363;  -11.500; -320.000; -215.000
322.499;  -77.100; -343.000; -331.000
322.635;  327.100;  636.000;  443.000
322.771;   54.800; -139.000;   12.000
322.907;  167.100;  129.000;  327.000
323.043;  -31.600; -115.000; -206.000
323.179;  -67.200; -394.000; -363.000
323.315;   20.700; -401.000; -371.000
323.451;  136.000; -328.000; -236.000
323.587;  110.800;  -60.000;  -77.000
323.723;   13.400; -682.000; -601.000
323.859;  -17.500; -258.000;  -76.000
323.995;  -35.300; -467.000; -409.000
324.131; -234.400; -967.000; -892.000
324.267;  -53.600; -254.000; -276.000
324.402; -246.300; -960.000; -983.000
324.538;   -6.700; -279.000; -104.000
324.674;   68.200;  164.000;   77.000
324.810;  243.900;  226.000;  308.000
324.946;   38.500; -810.000; -658.000
325.082; -144.600; -568.000; -475.000
325.217;   14.400;  -62.000;   16.000
325.353; -180.200; -764.000; -659.000
325.489; -125.100; -540.000; -506.000
325.625; -110.500; -579.000; -525.000
325.760;  168.600;  517.000;  376.000
325.896;  -37.100; -515.000; -702.000
326.032;  -70.000; -403.000; -352.000
326.168;  -85.100; -462.000; -369.000
326.303; -122.700; -352.000; -461.000
326.439;  -21.900; -336.000; -276.000
326.575;   -2.900; -190.000;  -29.000
326.710;  -15.600; -156.000;  -30.000
326.846;   -2.000;  146.000;  103.000
326.982; -151.600; -530.000; -548.000
327.117;  -95.900; -481.000; -442.000
327.253; -132.800; -745.000; -742.000
327.388; -227.900;-1137.000;-1153.000
327.524;  -81.400; -811.000; -578.000
327.659;  -41.300;  -58.000;  -22.000
327.795;    0.500;   69.000;   45.000
327.931; -154.300; -723.000; -499.000
328.066;  -31.300; -417.000; -276.000
328.202;   -4.000;   12.000; -129.000
328.337;  249.400;  957.000;  713.000
328.473;   -4.600;  -12.000;  -74.000
328.608;   -9.200; -256.000; -267.000
328.743; -150.100; -799.000; -664.000
328.879;   88.700;  214.000;  114.000
329.014; -106.000; -102.000; -122.000
329.150; -142.200; -358.000; -483.000
329.285; -151.100; -465.000; -466.000
329.421;  -73.600; -548.000; -246.000
329.556;   11.300;  -36.000;   85.000
329.691; -196.400; -633.000; -615.000
329.827; -132.600; -626.000; -480.000
329.962;  -47.400;  131.000; -301.000
330.097; -145.800; -673.000; -585.000
330.233;  -52.100; -410.000; -223.000
330.368; -204.200; -839.000; -628.000
330.503;   15.800;    3.000;   98.000
330.638;   15.200;  -93.000; -125.000
330.774;  -87.300; -609.000; -530.000
330.909;  -67.000; -434.000; -244.000
331.044; -166.500; -714.000; -708.000
331.179; -319.200;-1217.000;-1109.000
331.315;   45.200;   77.000;   20.000
331.450;   42.000;  157.000;  285.000
331.585; -150.100; -805.000; -706.000
331.720; -145.400; -510.000; -460.000
331.855;   -6.600;  -35.000; -102.000
331.990;  485.700;   62.000;  138.000
332.126;  262.200; -110.000;   71.000
332.261;  -27.500; -379.000; -265.000
332.396;   14.100; -135.000; -242.000
332.531; -175.800;-1074.000;-1031.000
332.666;   82.200; -519.000; -363.000
332.801; -181.700; -726.000; -807.000
332.936;  -31.600; -192.000; -122.000
333.071; -282.100; -870.000; -817.000
333.206;   99.600;  307.000;  379.000
333.341;   99.700;  344.000;  418.000
333.476; -126.500; -627.000; -623.000
333.611;  -15.800; -251.000; -173.000
333.746;  -49.800; -381.000; -464.000
333.881; -194.900; -973.000; -935.000
334.016; -250.800; -936.000; -917.000
334.151; -228.400; -746.000; -702.000
334.286;   69.100;  152.000;  186.000
334.421;    9.600; -125.000; -178.000
334.556; -132.400; -611.000; -567.000
334.690; -140.700; -631.000; -577.000
334.825;  135.700;  381.000;   83.000
334.960; -117.300; -285.000; -413.000
335.095;   23.100;  135.000;  -91.000
335.230; -187.000; -722.000; -738.000
335.365; -243.100;-1084.000; -990.000
335.499; -280.500;-1108.000;-1037.000
335.634;   75.000;    9.000;  534.000
335.769; -183.300; -755.000; -720.000
335.904; -139.700; -603.000; -561.000
336.038; -129.800; -735.000; -657.000
336.173; -224.800;-1206.000;-1194.000
336.308;   23.000; -116.000; -189.000
336.443;  -31.500; -544.000; -634.000
336.577; -157.100; -936.000; -787.000
336.712;   97.000;   -4.000;  -12.000
336.847;  -91.700; -724.000; -607.000
336.981;   38.900; -272.000; -208.000
337.116;  463.500;  615.000;  501.000
337.250;  240.300; -434.000; -421.000
337.385;  491.700; -297.000; -208.000
337.520;  206.500; -632.000; -603.000
337.654;  -58.100; -215.000; -126.000
337.789; -245.400; -989.000; -933.000
337.923;  -32.800; -104.000; -205.000
338.058; -157.900; -673.000; -738.000
338.192;  -80.400; -611.000; -488.000
338.327;    4.700;  -18.000; -155.000
338.461; -100.100; -299.000; -469.000
338.596; -160.300; -780.000; -638.000
338.730; -185.500; -767.000; -803.000
338.865;  221.300;  -46.000; -140.000
338.999;  -93.100; -846.000; -702.000
339.134;  -44.000; -634.000; -536.000
339.268;   29.000; -741.000; -603.000
339.403;  641.400; -740.000; -775.000
339.537;  242.600; -894.000; -820.000
339.671; -200.100; -829.000; -813.000
339.806; -102.300; -556.000; -512.000
339.940;   43.300; -261.000; -235.000
340.074; -179.600; -685.000; -510.000
340.209;  -70.700; -351.000; -230.000
340.343; -131.500; -517.000; -573.000
340.477;  355.300;  998.000; 1036.000
340.612;  -85.500;-1033.000; -900.000
340.746;  292.200; -199.000; -243.000
340.880; -135.000; -924.000; -785.000
341.014;    1.700;  -45.000; -154.000
341.149; -217.500; -756.000; -718.000
341.283; -202.000; -839.000; -754.000
341.417; -191.300;-1124.000; -938.000
341.551;  162.000; -768.000; -708.000
341.685;  -73.100; -633.000; -611.000
341.820;  -60.100; -562.000; -493.000
341.954;  -78.300; -218.000; -349.000
342.088; -288.400;-1102.000;-1019.000
342.222;  103.600;  565.000;  618.000
342.356; -110.200; -395.000; -335.000
342.490; -175.300; -880.000; -841.000
342.624;  -63.800; -339.000; -242.000
342.758;  -33.200; -364.000; -312.000
342.892; -125.800; -710.000; -585.000
343.026;  -72.200;  -58.000; -116.000
343.160;  -64.900; -426.000; -376.000
343.294; -137.100; -474.000; -337.000
343.428;  -65.200; -488.000; -448.000
343.562;  -12.700; -172.000;  -23.000
343.696;  -10.200; -385.000; -314.000
343.830;  -52.600; -362.000; -356.000
343.964;   41.700; -231.000; -168.000
344.098; 1330.000;  199.000;   70.000
344.232; 1158.700; -266.000; -127.000
344.366;  158.700; -567.000; -453.000
344.500;   49.400; -665.000; -744.000
344.634;   74.800; -324.000; -164.000
344.768;  -41.900; -531.000; -341.000
344.902;   78.800;  278.000;  256.000
345.035; -104.400; -556.000; -496.000
345.169; -241.600; -933.000; -656.000
345.303;  -66.000; -308.000; -482.000
345.437; -164.800; -826.000; -717.000
345.571; -103.700; -675.000; -594.000
345.704;  -89.900; -309.000; -532.000
345.838;  -18.000; -331.000; -284.000
345.972;  -59.700; -543.000; -495.000
346.106;  351.400; -179.000; -190.000
346.239;  716.800; -312.000; -243.000
346.373;  -10.100; -343.000; -302.000
346.507; -252.300; -950.000; -962.000
346.640;  210.000;  -30.000;   13.000
346.774; -115.100; -650.000; -797.000
346.908;   -0.100; -138.000;  -11.000
347.041; -152.900; -646.000; -593.000
347.175;   61.600;  259.000;   27.000
347.309;  -98.500; -698.000; -628.000
347.442; -160.700; -883.000; -732.000
347.576;  457.400;  670.000;  668.000
347.709;  311.500; -123.000;  -52.000
347.843; -187.300; -933.000; -825.000
347.976;   89.900;  235.000;  294.000
348.110; -314.400;-1268.000;-1186.000
348.243; -175.500; -679.000; -772.000
348.377;   50.900;  -26.000;   60.000
348.510;  133.000;  403.000;  540.000
348.644;  -33.600;  -37.000; -159.000
348.777;   52.500;  180.000;  191.000
348.911;  -52.300; -142.000; -112.000
349.044;  294.400;  471.000;  448.000
349.178;  156.300;-1069.000;-1006.000
349.311;  237.100;  141.000;  255.000
349.444;   -7.000; -927.000; -813.000
349.578;   -0.700; -347.000; -200.000
349.711; -187.300; -959.000; -862.000
349.845;  -35.500; -661.000; -591.000
349.978; -242.000;-1224.000;-1137.000
350.111; -159.600; -546.000; -612.000
350.244; -133.700; -596.000; -700.000
350.378;    3.500; -392.000; -393.000
350.511; -110.700; -393.000; -426.000
350.644; -192.900; -808.000; -806.000
350.778;   46.700;  168.000;  104.000
350.911;   27.000;  134.000;  140.000
351.044; -174.400; -685.000; -615.000
351.177;   -0.900; -321.000; -281.000
351.310;    2.900;    3.000; -131.000
351.444; -153.900; -888.000; -788.000
351.577;  198.400;  140.000;   90.000
351.710;  235.100;  593.000;  417.000
351.843;  -13.600; -165.000;  -77.000
351.976;   37.100;  149.000;  -79.000
352.109; -191.300; -621.000; -612.000
352.242;  -36.300; -464.000; -419.000
352.376; -107.300; -580.000; -636.000
352.509;  214.700; -437.000; -356.000
352.642;  -40.300; -654.000; -604.000
352.775;   72.400; -141.000;  -98.000
352.908; -223.200; -933.000; -904.000
353.041; -190.400; -814.000; -824.000
353.174;  -92.700; -551.000; -424.000
353.307; -137.200; -753.000; -764.000
353.440;  169.400;  541.000;  453.000
353.573; -222.300; -957.000;-1008.000
353.706;  -49.500; -384.000; -558.000
353.839;  -32.600; -264.000; -220.000
353.971; -135.400; -657.000; -512.000
354.104; -191.300; -896.000; -835.000
354.237;  -83.800; -627.000; -662.000
354.370; -180.800; -846.000; -879.000
354.503; -347.600;-1231.000;-1308.000
354.636;  -57.300; -529.000; -348.000
354.769; -238.400; -937.000; -860.000
354.902;   -6.600; -230.000; -139.000
355.034;   -7.300; -164.000; -220.000
355.167;    9.200; -262.000; -162.000
355.300; -167.700;-1061.000; -880.000
355.433; 1775.500;  -71.000;  -14.000
355.565; 2733.700; -402.000; -384.000
355.698;  733.800; -356.000; -296.000
355.831;  -38.400; -882.000; -801.000
355.964;  116.200; -285.000; -170.000
356.096; -147.400; -856.000; -843.000
356.229;  -12.300; -523.000; -530.000
356.362;  579.700; -373.000; -266.000
356.494; 1106.300; -229.000; -162.000
356.627;  772.600;  269.000;  377.000
356.760; 1237.100;  120.000;   53.000
356.892; 1711.600; -286.000; -601.000
357.025; 1023.700;  403.000;  389.000
357.157;  849.300; -167.000; -179.000
357.290; 1309.300; -856.000; -713.000
357.423;  356.800; -667.000; -556.000
357.555;  151.800; -217.000; -228.000
357.688;  177.900; -483.000; -364.000
357.820;  656.900; -870.000; -877.000
357.953; 5436.300; -563.000; -589.000
358.085; 1069.700; -632.000; -612.000
358.218; 1426.200;-1131.000; -932.000
358.350;  329.300;  -58.000;  312.000
358.483; -267.400;-1300.000;-1187.000
358.615;  -94.400;-1182.000;-1078.000
358.747; -158.400;-1187.000;-1058.000
358.880;  -32.200; -810.000; -744.000
359.012;  -34.700; -376.000; -202.000
359.145;  -64.000; -480.000; -511.000
359.277;   55.600; -962.000; -913.000
359.409; 4633.200;  536.000;  231.000
359.542; 1104.600; -738.000; -688.000
359.674;  135.300;   46.000;   13.000
359.806;  -89.400; -565.000; -438.000
359.939;  -72.600; -617.000; -516.000
360.071;   15.100; -583.000; -579.000
360.203;  -16.200; -411.000; -364.000
360.335;  145.000;  164.000;  -16.000
360.468;  321.400; -249.000; -307.000
360.600; 3673.300; -547.000; -454.000
360.732; 5185.200; -546.000; -423.000
360.864;  645.000;-1216.000;-1044.000
360.996;  368.900; -516.000; -554.000
361.129;   13.000; -389.000; -598.000
361.261;   40.300;  110.000; -113.000
361.393;  -21.600; -252.000; -214.000
361.525;  112.700;   94.000;  244.000
361.657; -107.400; -821.000; -703.000
361.789;   60.500; -139.000; -155.000
361.921;  268.600; -642.000; -593.000
362.053;  429.100;  524.000;  541.000
362.185;  117.500;  288.000;   72.000
362.318; -149.400; -709.000; -705.000
362.450;  249.100;  294.000;  444.000
362.582;   22.800; -913.000; -870.000
362.714;  -46.100; -353.000; -332.000
362.846; -145.100; -606.000; -490.000
362.978; -260.500; -941.000; -811.000
363.109;   44.100; -161.000; -260.000
363.241;  589.900; -739.000; -749.000
363.373;  788.000; -649.000; -564.000
363.505; 1320.000; -186.000;  -91.000
363.637;  273.500; -787.000; -601.000
363.769; -232.500;-1067.000;-1080.000
363.901; -111.500; -596.000; -654.000
364.033; -239.900;-1103.000;-1062.000
364.165;   22.600; -283.000; -283.000
364.296;  213.200; -316.000; -177.000
364.428;  136.400;-1344.000;-1220.000
364.560; -143.400; -679.000; -661.000
364.692;  -97.000; -738.000; -835.000
364.824;  363.200; -588.000; -456.000
364.955;  774.600; -402.000; -564.000
365.087; 1765.700;-1097.000; -852.000
365.219;   36.500; -686.000; -816.000
365.351; -124.100; -526.000; -572.000
365.482;  154.400;  300.000;  240.000
365.614;  -51.200; -402.000; -314.000
365.746; -160.100; -729.000; -752.000
365.877; -129.800; -706.000; -672.000
366.009;  505.100;  -35.000;  -62.000
366.141; -175.100;-1249.000;-1134.000
366.272; -150.000; -803.000; -719.000
366.404; -195.600;-1005.000; -874.000
366.535;   13.700; -139.000;  -12.000
366.667; -161.400; -644.000; -649.000
366.799;  128.600;  353.000;  203.000
366.930; -230.300; -862.000; -996.000
367.062;  247.800; -639.000; -613.000
367.193;  279.000; -872.000; -842.000
367.325;  -71.600; -580.000; -684.000
367.456;   88.900; -246.000;   31.000
367.588;  316.300; -371.000; -318.000
367.719;  121.700;  -44.000;  -45.000
367.851;  -21.300; -222.000; -241.000
367.982;  -97.400; -875.000; -732.000
368.113;  126.800; -475.000; -358.000
368.245; -240.600; -960.000; -841.000
368.376;   11.400; -254.000; -302.000
368.508;  -24.200; -188.000; -263.000
368.639; -263.500;-1166.000;-1034.000
368.770;  -56.300; -670.000; -589.000
368.902; -138.800; -836.000; -926.000
369.033; -165.900; -906.000; -855.000
369.164;  -62.900; -720.000; -653.000
369.296; -184.200; -452.000; -601.000
369.427;  -41.900; -209.000; -144.000
369.558;  -66.900; -593.000; -377.000
369.689; -133.700; -721.000; -569.000
369.821; -245.100; -951.000; -845.000
369.952;   23.900;   42.000; -108.000
370.083;  -51.700; -229.000; -108.000
370.214; -146.000; -735.000; -650.000
370.345;   23.600;   65.000;   81.000
370.477; -142.400; -810.000; -790.000
370.608;  307.000; -328.000; -264.000
370.739; -154.500;-1233.000;-1292.000
370.870; -112.000;-1102.000; -923.000
371.001;  144.600; -378.000; -467.000
371.132; -157.000; -754.000; -735.000
371.263;   25.900;  -42.000; -148.000
371.394; -248.500; -841.000; -748.000
371.525;  103.800;  345.000;  225.000
371.657; -160.600; -808.000; -670.000
371.788;  169.700;  103.000;  199.000
371.919;  226.300; -384.000; -304.000
372.050; 5300.100;  -91.000; -156.000
372.181; 1547.900; -188.000; -294.000
372.311;  538.900;   42.000; -127.000
372.442;   22.500; -457.000; -451.000
372.573;  -24.000; -444.000; -340.000
372.704; -241.100;-1008.000; -980.000
372.835;  146.500; -228.000; -289.000
372.966; -123.100; -646.000; -554.000
373.097; -127.800; -575.000; -711.000
373.228; -102.400; -717.000; -542.000
373.359;  151.200; -824.000; -536.000
373.490; 1265.900; -881.000; -727.000
373.620; 1582.800;-1001.000; -803.000
373.751; 2449.900; -332.000; -396.000
373.882; 1049.700; -663.000; -733.000
374.013;   96.200; -449.000; -262.000
374.143;  -47.600; -581.000; -659.000
374.274; -196.200; -987.000; -908.000
374.405;  272.300; -388.000; -276.000
374.536;  627.200; -526.000; -387.000
374.666; 1460.300; -759.000; -807.000
374.797;  249.600; -817.000; -868.000
374.928; 1176.600; -710.000; -560.000
375.058; 1230.500; -535.000; -500.000
375.189;  148.300;  -59.000;  -93.000
375.320; -187.300; -928.000;-1034.000
375.450;  -82.200; -625.000; -616.000
375.581;  -92.300; -526.000; -436.000
375.712;  -21.900; -574.000; -250.000
375.842;  407.000; -438.000; -415.000
375.973;  286.600; -554.000; -513.000
376.103;  -63.600; -665.000; -648.000
376.234; -145.000; -531.000; -552.000
376.364; -104.800; -944.000; -867.000
376.495;  569.100;  925.000;  529.000
376.625;  -12.400; -472.000; -485.000
376.756;   65.300; -709.000; -678.000
376.886; -205.900;-1178.000;-1026.000
377.017;   75.000;-1048.000;-1061.000
377.147;  638.800; -786.000; -782.000
377.278;  179.200;  174.000;  228.000
377.408; -213.300; -801.000; -815.000
377.538; -179.200; -707.000; -693.000
377.669; -131.600; -537.000; -613.000
377.799; -122.900; -645.000; -635.000
377.929; -119.700; -610.000; -428.000
378.060; -206.800; -781.000; -847.000
378.190;  -86.800; -726.000; -531.000
378.320;  -74.000; -401.000; -406.000
378.451;    3.100; -131.000;  -22.000
378.581;  -12.300;  -67.000; -110.000
378.711;  316.700; 1035.000;  866.000
378.841;  -53.000; -533.000; -675.000
378.972; -158.600; -871.000; -751.000
379.102;  -40.900; -652.000; -579.000
379.232;   -6.700; -126.000;  -73.000
379.362; -225.800;-1001.000; -885.000
379.492;  -15.500; -373.000; -424.000
379.623;  206.800;    0.000;  111.000
379.753; -201.300;-1107.000; -974.000
379.883;  376.300;   59.000;  156.000
380.013;  -65.800;-1081.000;-1017.000
380.143; -216.200;-1097.000;-1056.000
380.273; -181.800; -985.000; -861.000
380.403;    0.700; -344.000; -257.000
380.533; -107.100; -651.000; -664.000
380.663;  161.300;  173.000;  128.000
380.793; -204.400;-1027.000;-1074.000
380.923;  -36.900; -103.000;  -34.000
381.053; -162.200; -613.000; -623.000
381.183;  -41.800; -106.000; -248.000
381.313;   45.000; -656.000; -470.000
381.443;   37.400; -692.000; -473.000
381.573;  286.800; -402.000; -409.000
381.703;  326.200;-1249.000;-1095.000
381.833; -278.600;-1454.000;-1336.000
381.963;  179.700; -134.000;  -87.000
382.093; 1990.600; -925.000; -909.000
382.223;  547.500; -713.000; -602.000
382.353;  -50.100; -801.000; -608.000
382.482;  464.800;-1091.000; -964.000
382.612; 1037.800; -872.000; -644.000
382.742;  554.500; -695.000; -622.000
382.872;  334.700; -565.000; -551.000
383.002;  145.600;  347.000; -132.000
383.131;  -10.800; -226.000; -160.000
383.261;  -58.000; -706.000; -768.000
383.391;  494.800; -552.000; -377.000
383.521; 6177.000;  451.000;  263.000
383.650; 1384.400; -947.000; -904.000
383.780;  -12.700; -783.000; -656.000
383.910;  286.600;  880.000;  802.000
384.039;  -14.500; -794.000; -656.000
384.169;  207.000;-1205.000;-1017.000
384.299;  -63.300; -650.000; -662.000
384.428; -176.300; -764.000; -680.000
384.558;  -38.300; -308.000; -275.000
384.687;  -41.300; -414.000; -334.000
384.817;   77.000;   75.000;   -2.000
384.947;   31.300; -234.000; -141.000
385.076;  559.400;  982.000;  912.000
385.206;  232.900;  369.000;  480.000
385.335;  -32.500; -549.000; -417.000
385.465; -143.400; -655.000; -663.000
385.594;  215.100;  -53.000;  -44.000
385.724;  546.200; -868.000; -838.000
385.853;  155.100; -296.000; -270.000
385.982; 1952.800; -743.000; -787.000
386.112; 2915.600;-1052.000; -871.000
386.241;  184.900; -307.000; -312.000
386.371;   67.700; -174.000;  -87.000
386.500;   24.300; -825.000; -789.000
386.629;   60.000; -874.000; -817.000
386.759;  114.300;  -43.000;   68.000
386.888;   37.000; -170.000; -250.000
387.017; -130.600; -648.000; -620.000
387.147; -166.000; -771.000; -798.000
387.276;  -20.900; -410.000; -397.000
387.405;   11.800; -398.000; -342.000
387.535;  -76.900; -452.000; -361.000
387.664;  -83.000; -692.000; -620.000
387.793;  156.300; -198.000; -113.000
387.922;  772.600;  255.000;  200.000
388.052;   -1.600; -576.000; -423.000
388.181;    8.100; -342.000; -472.000
388.310;  -80.700; -889.000; -710.000
388.439; -112.500; -749.000; -742.000
388.568;  268.800;  365.000;  244.000
388.697; 1410.800; -756.000; -653.000
388.826;  255.000; -768.000; -666.000
388.956;  101.300; -285.000; -307.000
389.085;  -38.900; -347.000; -287.000
389.214; -183.800; -842.000; -872.000
389.343;  -87.400; -645.000; -413.000
389.472;  825.400;  126.000;  149.000
389.601;  887.500;   91.000;    0.000
389.730;    5.800; -568.000; -687.000
389.859;  161.500;  226.000;   46.000
389.988;  299.200; -423.000; -408.000
390.117;  206.000; -168.000; -146.000
390.246;  -12.500; -331.000; -320.000
390.375;  166.000; -673.000; -626.000
390.504;  -84.800; -703.000; -621.000
390.633; -161.800; -672.000; -726.000
390.761; -126.600; -732.000; -645.000
390.890;   68.900;   -4.000; -130.000
391.019;  -52.100; -421.000; -441.000
391.148; -201.000; -826.000; -855.000
391.277; -130.600; -576.000; -493.000
391.406; -160.600; -821.000; -805.000
391.534;   66.800;  574.000; -301.000
391.663; -112.800; -583.000; -645.000
391.792; -142.400; -673.000; -701.000
391.921;  183.800;   -3.000;   15.000
392.050;  255.700; -287.000; -228.000
392.178; -161.400;-1206.000;-1061.000
392.307;  190.000; -758.000; -712.000
392.436;   55.000; -427.000; -641.000
392.564;   72.100;  166.000;   -6.000
392.693; -164.400; -860.000; -682.000
392.822;  325.400; -529.000; -534.000
392.950;  126.300; -880.000; -714.000
393.079;  508.900; -188.000; -328.000
393.208;    6.700; -488.000; -511.000
393.336;   23.300; -170.000; -145.000
393.465;  -74.400; -317.000; -199.000
393.593;   83.100;   62.000;   79.000
393.722; -289.800;-1121.000; -916.000
393.850;  -11.200; -188.000;  -61.000
393.979; -248.300; -926.000; -805.000
394.107;  -60.600; -517.000; -537.000
394.236;  -13.600; -570.000; -507.000
394.364;  475.300;  383.000;  206.000
394.493;  672.900; -911.000; -767.000
394.621;  -25.300; -955.000; -916.000
394.750; 1346.500; -873.000; -923.000
394.878; 5503.800; -247.000; -149.000
395.007; 7209.900; -721.000; -807.000
395.135;  508.500; -790.000; -721.000
395.263; -144.800;-1038.000;-1040.000
395.392;   46.000;  -25.000; -107.000
395.520; -167.100; -818.000; -679.000
395.648; -172.100; -865.000; -915.000
395.777;  -56.700; -366.000; -405.000
395.905;  -34.600; -449.000; -564.000
396.033;  101.000;  217.000;  172.000
396.162; 1219.100; -399.000; -453.000
396.290; 1022.400;  -17.000;   -2.000
396.418;  144.300; -555.000; -514.000
396.546; -169.600; -571.000; -466.000
396.674; -190.300; -850.000; -878.000
396.803;   78.100;  -72.000;  -23.000
396.931;  146.100; -179.000; -199.000
397.059;  -37.500;-1026.000; -989.000
397.187; -203.300;-1026.000; -975.000
397.315; -221.600; -884.000; -649.000
397.443; -159.600; -592.000; -443.000
397.572; -132.300; -578.000; -424.000
397.700;  -61.200; -607.000; -614.000
397.828;   39.500;  120.000;  -90.000
397.956;  -75.300; -508.000; -478.000
398.084; -113.100; -767.000; -626.000
398.212;   87.400;  137.000;  124.000
398.340;   68.100;  -56.000;  159.000
398.468;   46.000; -390.000; -169.000
398.596; -284.000; -993.000; -953.000
398.724; -214.000; -762.000; -767.000
398.852; -283.800;-1024.000; -976.000
398.980;  -88.700; -560.000; -560.000
399.108; -108.100; -982.000; -735.000
399.236;   66.600;   13.000;    8.000
399.363;   70.600;  222.000;  196.000
399.491;  -83.000; -404.000; -398.000
399.619; -205.100; -829.000; -800.000
399.747; -176.600; -859.000; -771.000
399.875;  168.500;  220.000;  234.000
400.003;  -65.100; -359.000; -284.000
400.130; -127.800; -421.000; -341.000
400.258;  -29.200;  -83.000;   38.000
400.386;  -79.900; -352.000; -168.000
400.514;  -62.700; -526.000; -587.000
400.641; -176.000; -928.000; -802.000
400.769; -245.700; -979.000; -888.000
400.897; -186.000; -838.000; -793.000
401.025;   -5.200; -166.000; -152.000
401.152;   53.500;  220.000;   38.000
401.280; -139.800; -430.000; -429.000
401.408; -182.300; -712.000; -576.000
401.535; -133.600; -735.000; -758.000
401.663; -329.700;-1134.000;-1054.000
401.790; -139.200; -514.000; -525.000
401.918;  162.800;  436.000;  405.000
402.046;   36.500;  134.000;  122.000
402.173;   14.200;  -18.000;    7.000
402.301;  -88.000; -519.000; -397.000
402.428;  121.200;  528.000;  383.000
402.556; -249.700;-1188.000; -913.000
402.683;   -6.400;  -20.000;   -1.000
402.811;   12.900;  -37.000; -206.000
402.938;   33.900;   20.000;   27.000
403.066;  243.400; -574.000; -558.000
403.193;  492.100;  299.000;  239.000
403.321;  359.400; -396.000; -574.000
403.448;  505.900;   83.000;   27.000
403.575;  201.900;  -90.000;  -46.000
403.703; -149.600; -732.000; -557.000
403.830;  -84.700; -531.000; -496.000
403.957; -235.700;-1117.000;-1023.000
404.085;   71.100;  -61.000; -172.000
404.212;  192.600;  -50.000;   63.000
404.339;  605.200; -566.000; -306.000
404.467;11033.800; -612.000; -524.000
404.594; 6507.400; -287.000; -227.000
404.721; 1399.700; -869.000; -764.000
404.848;  147.900; -113.000; -202.000
404.976; -178.500; -856.000; -783.000
405.103;   35.700;  -14.000;  -82.000
405.230;   54.800;  190.000;  226.000
405.357;   74.200;  117.000;   44.000
405.484;  533.500;  -49.000;    5.000
405.612;   91.400; -548.000; -563.000
405.739; -119.900; -488.000; -243.000
405.866;  233.500;  669.000;  385.000
405.993;  -43.900; -398.000; -102.000
406.120; -219.600; -801.000; -887.000
406.247;  -65.200; -323.000; -342.000
406.374;  730.300;  540.000;  629.000
406.501;   93.700; -632.000; -702.000
406.628; -120.500; -621.000; -589.000
406.755; -174.100; -803.000; -620.000
406.882;  -36.800; -228.000; -277.000
407.009; -183.400; -719.000; -628.000
407.136;   54.200; -480.000; -401.000
407.263;  136.000; -939.000; -829.000
407.390; -148.300; -692.000; -614.000
407.517; -318.400;-1139.000;-1187.000
407.644;  -83.600; -332.000; -256.000
407.771;  -94.000; -249.000; -287.000
407.898;   56.100;  168.000;  328.000
408.025; -107.600; -421.000; -313.000
408.151;   16.200;   82.000;  153.000
408.278;  -70.300; -267.000; -216.000
408.405; -201.900; -931.000; -899.000
408.532; -103.800; -549.000; -542.000
408.659; -153.700; -677.000; -648.000
408.785; -344.600;-1298.000;-1170.000
408.912;  -77.400; -412.000; -296.000
409.039; -175.200; -610.000; -686.000
409.166; -180.500; -591.000; -555.000
409.292; -154.600; -571.000; -534.000
409.419; -182.800; -665.000; -649.000
409.546;  -95.300; -431.000; -192.000
409.672; -199.600; -713.000; -545.000
409.799;    1.800;  -36.000;   34.000
409.926;  -32.800; -180.000; -179.000
410.052; -306.900;-1127.000;-1091.000
410.179;  -97.200; -368.000; -392.000
410.305; -115.300; -375.000; -493.000
410.432;  -55.900; -220.000; -333.000
410.558; -120.400; -305.000; -380.000
410.685; -167.800; -688.000; -431.000
410.812; -127.700; -409.000; -588.000
410.938; -225.100; -964.000; -808.000
411.065; -127.100; -671.000; -645.000
411.191;    1.800; -189.000; -174.000
411.317; -202.100; -823.000; -742.000
411.444; -118.100; -317.000; -246.000
411.570;  -85.400; -339.000; -294.000
411.697; -205.500; -758.000; -752.000
411.823; -279.400; -989.000; -999.000
411.949;  -11.200;  -56.000;   17.000
412.076; -177.100; -539.000; -519.000
412.202; -182.100; -758.000; -757.000
412.329; -210.500; -798.000; -752.000
412.455; -158.700; -821.000; -657.000
412.581;   22.500;  -15.000;  172.000
412.707; -113.800; -540.000; -457.000
412.834;   38.000;  156.000;  219.000
412.960; -173.500; -785.000; -784.000
413.086; -201.400; -743.000; -701.000
413.212;  296.500;  604.000;  578.000
413.339; -124.900; -685.000; -701.000
413.465;  -10.000; -364.000; -310.000
413.591; -169.700; -757.000; -474.000
413.717;  -83.000; -358.000; -366.000
413.843; -234.400; -839.000; -861.000
413.969;  -51.600;  -47.000; -292.000
414.096; -168.300; -679.000; -679.000
414.222;    6.100;  -33.000;   85.000
414.348;  -60.900; -652.000; -385.000
414.474;  177.300;   38.000;  -52.000
414.600;    5.000; -126.000; -144.000
414.726;    0.500;  -96.000;  -55.000
414.852;  -60.900; -365.000; -342.000
414.978;  118.600;  104.000;  -18.000
415.104;   94.800;   38.000;   80.000
415.230;   78.100; -329.000; -330.000
415.356;   98.500; -409.000; -514.000
415.482;  377.000;   13.000;  -35.000
415.608;  539.800; -247.000; -323.000
415.734; 1794.300;   67.000;   38.000
415.860;37805.900; -875.000; -767.000
415.986;24933.200; -685.000; -607.000
416.111; 2043.300; -798.000; -652.000
416.237;  468.300; -424.000; -571.000
416.363; 2281.700; -765.000; -733.000
416.489; 7660.000; -324.000; -251.000
416.615;  774.500; -707.000; -742.000
416.741;  -10.200; -677.000; -784.000
416.866; -131.200; -673.000; -736.000
416.992; -196.400; -801.000; -818.000
417.118;   -1.400;  -41.000;  -80.000
417.244; -115.700; -798.000; -531.000
417.369; -144.600; -801.000; -612.000
417.495;   19.500; -325.000; -254.000
417.621; -134.900;-1015.000; -803.000
417.746;   21.300; -579.000; -572.000
417.872;  138.200; -254.000; -144.000
417.998;  157.700; -515.000; -530.000
418.123; 2219.800;-1073.000; -845.000
418.249;10062.100; -512.000; -601.000
418.374; 1271.600; -916.000; -824.000
418.500;  238.700; -383.000; -482.000
418.626;  256.000;   70.000;  -59.000
418.751;  224.100; -549.000; -448.000
418.877;  353.100; -637.000; -643.000
419.002; 3732.700; -688.000; -560.000
419.128;23601.200; -930.000; -721.000
419.253; 5163.400; -967.000; -837.000
419.379;  753.500; -391.000; -338.000
419.504;  758.400;  325.000;  415.000
419.629;  974.700; -393.000; -212.000
419.755; 7367.000; -317.000; -254.000
419.880;39761.500;  -98.000;   67.000
420.006;21693.600; -280.000; -221.000
420.131;52173.700; -662.000; -775.000
420.256; 6782.400; -315.000; -316.000
420.382;  974.500; -665.000; -687.000
420.507;   97.200; -649.000; -778.000
420.632;  200.000; -337.000; -339.000
420.758;  307.700; -251.000; -425.000
420.883; -164.200; -876.000; -672.000
421.008; -143.400; -775.000; -619.000
421.133; -113.000; -509.000; -467.000
421.259;  -58.600; -325.000; -259.000
421.384; -200.200; -834.000; -693.000
421.509; -121.400;-1052.000; -862.000
421.634; 1535.700; -936.000; -820.000
421.759;  565.400; -359.000; -327.000
421.885;  -92.000; -717.000; -656.000
422.010; -106.800; -673.000; -542.000
422.135; -220.700; -695.000; -727.000
422.260;  127.900;  340.000;  280.000
422.385;   -1.200;   12.000;  -98.000
422.510;   63.000;  151.000;  -26.000
422.635;   89.800;  -87.000;  -43.000
422.760;  177.400; -766.000; -791.000
422.885;  133.400;  -57.000;  -80.000
423.010;  -24.800; -112.000; -169.000
423.135; -134.000; -481.000; -561.000
423.260;    4.400; -150.000; -245.000
423.385;  182.700;  476.000;  222.000
423.510;  113.100;   71.000;  -22.000
423.635;  165.700;  133.000;   45.000
423.760;  137.500;  383.000;  328.000
423.885;  177.800;  336.000;  391.000
424.010;   49.100;  -68.000;  -13.000
424.135;   37.300;    5.000;  -33.000
424.259; -133.700; -654.000; -457.000
424.384;  -62.800; -279.000; -272.000
424.509;   -0.500; -260.000; -186.000
424.634; -146.300; -761.000; -623.000
424.759;  -26.800; -688.000; -544.000
424.883;   13.000; -506.000; -527.000
425.008;  371.000; -502.000; -410.000
425.133; 3779.700; -679.000; -653.000
425.258; 1597.200; -517.000; -381.000
425.382; 1650.600; -867.000; -774.000
425.507; 3678.700; -487.000; -543.000
425.632;  651.700; -802.000; -663.000
425.756;  866.500; -256.000; -146.000
425.881;13590.300; -831.000; -857.000
426.006;33053.100; -604.000; -355.000
426.130; 4583.200; -696.000; -508.000
426.255;  626.800; -611.000; -491.000
426.379;  360.400; -189.000; -577.000
426.504;  772.900;  660.000;  544.000
426.629; 7648.200; -519.000; -466.000
426.753; 4709.700;   64.000;  -46.000
426.878;  538.700; -252.000; -288.000
427.002;  364.800; -651.000; -668.000
427.127; 3167.800;  -35.000; -158.000
427.251;21553.100;  372.000;  401.000
427.375; 5360.100; -191.000; -173.000
427.500; 3473.900; -616.000; -610.000
427.624;  997.400; -234.000; -400.000
427.749;  153.000; -216.000; -225.000
427.873;  -53.400; -499.000; -412.000
427.997;  -60.500; -222.000; -230.000
428.122;  200.100;  795.000;  703.000
428.246;  187.900;  433.000;  434.000
428.371; -218.400; -869.000; -773.000
428.495; -138.000; -624.000; -646.000
428.619;  -22.500; -186.000; -117.000
428.743;   72.100;   65.000;  132.000
428.868;   34.000; -732.000; -643.000
428.992; 2028.000; -219.000; -326.000
429.116;  771.600; -329.000; -357.000
429.240;  443.600;  419.000;  426.000
429.365;    5.300; -454.000; -574.000
429.489;  -48.400; -638.000; -647.000
429.613;  105.900; -236.000; -177.000
429.737;  123.100; -563.000; -432.000
429.861;  536.200; -247.000; -133.000
429.985;10889.500; -425.000; -305.000
430.109;10761.200; -770.000; -908.000
430.234; 1213.000;   76.000;  -50.000
430.358;  130.600; -250.000; -160.000
430.482; -109.200; -672.000; -564.000
430.606;  -76.200; -655.000; -375.000
430.730;   54.200; -437.000; -388.000
430.854;  123.600; -909.000; -835.000
430.978; -116.600; -795.000; -764.000
431.102; -131.200; -499.000; -422.000
431.226; -198.800; -874.000; -815.000
431.350;  115.300;  345.000;  422.000
431.474; -111.000; -661.000; -373.000
431.597; -237.300;-1060.000; -848.000
431.721; -112.200; -276.000; -267.000
431.845; -188.400; -704.000; -472.000
431.969;  -89.500; -304.000; -349.000
432.093; -126.200; -395.000; -317.000
432.217;   42.300;   32.000;   82.000
432.341; -119.600; -523.000; -518.000
432.464;   29.500;   96.000;   40.000
432.588;  287.900; -401.000; -329.000
432.712;  211.100;  -52.000;  -52.000
432.836;  158.400;  213.000;  263.000
432.959;   20.100; -372.000; -311.000
433.083;  252.200;   11.000;    2.000
433.207;  808.300;  285.000;  930.000
433.330;10239.300; -391.000; -200.000
433.454;11241.700; -654.000; -638.000
433.578; 6487.500;  583.000;  278.000
433.701; 1082.700; -623.000; -675.000
433.825;  236.700; -292.000; -299.000
433.949;  246.300;   28.000;  -72.000
434.072;   91.400; -410.000; -323.000
434.196;    1.300; -309.000; -117.000
434.319; 7799.600;25482.000;25124.000
434.443; 1416.600; -656.000; -603.000
434.566; 4921.900;  281.000;   62.000
434.690;  738.900; -637.000; -383.000
434.813;  126.700; -251.000; -173.000
434.937; -122.400; -569.000; -696.000
435.060;  -42.400; -423.000; -332.000
435.184;  364.800; -492.000; -217.000
435.307;  246.900;  159.000;  102.000
435.431;   77.800;  -40.000;   24.000
435.554; -111.000; -399.000; -240.000
435.677;  -96.300; -350.000; -258.000
435.801;   -8.400;  -25.000;   49.000
435.924;   17.200;    1.000;  -67.000
436.048; -220.500;-1019.000; -732.000
436.171;  -63.600; -240.000;  -66.000
436.294;   12.900; -248.000; -229.000
436.417;  218.300; -963.000; -849.000
436.541; -136.500; -814.000; -840.000
436.664;  -50.900; -242.000; -316.000
436.787;   37.800;   13.000;  113.000
436.910; -177.500; -792.000; -422.000
437.034;   66.000;  142.000;  143.000
437.157;   91.700;  -11.000;    0.000
437.280;  -99.700; -392.000; -292.000
437.403; -141.800; -982.000; -869.000
437.526;  866.400; -903.000; -865.000
437.649; 2791.400; -505.000; -332.000
437.772;  320.200; -692.000; -540.000
437.896;  285.600;  700.000;  544.000
438.019; -157.400; -758.000; -503.000
438.142; -146.700; -596.000; -506.000
438.265;  -43.300; -639.000; -670.000
438.388;  771.300; -520.000; -410.000
438.511;   90.700; -597.000; -394.000
438.634;  -91.300; -247.000; -125.000
438.757; -199.300; -693.000; -619.000
438.880;    2.300;  -34.000;  -57.000
439.003; -121.200; -417.000; -437.000
439.126;  -45.700; -287.000; -167.000
439.248;  -64.600;  -98.000; -139.000
439.371;   -2.700;    9.000;  -53.000
439.494;  128.200;  510.000;  439.000
439.617;  -41.700;   65.000;  -88.000
439.740; -302.200; -968.000; -816.000
439.863; -245.400; -755.000; -595.000
439.986; -199.100; -476.000; -431.000
440.108;  -59.100; -161.000; -112.000
440.231; -291.400; -950.000; -836.000
440.354;   -8.200;  -64.000; -150.000
440.477;   18.300; -566.000; -542.000
440.599;    8.700; -200.000; -225.000
440.722; -178.300; -709.000; -586.000
440.845;  190.400;  751.000;  928.000
440.968; -166.800; -415.000; -311.000
441.090;  -53.000; -199.000;  -33.000
441.213; -284.500;-1021.000; -825.000
441.336;  -36.900; -159.000;   -5.000
441.458; -107.700; -549.000; -396.000
441.581; -143.300; -628.000; -629.000
441.703;  -56.000; -152.000;   13.000
441.826; -174.900; -557.000; -400.000
441.948;  -51.400;   56.000;   51.000
442.071;  153.200;  555.000;  424.000
442.193; -189.200; -531.000; -485.000
442.316;   97.200;  152.000;   97.000
442.438;  141.000; -233.000;  -10.000
442.561;  190.900;  272.000;  262.000
442.683;  703.900; -809.000; -522.000
442.806; 1412.600;   -8.000;   74.000
442.928;  -33.900; -859.000; -604.000
443.051; -115.800; -577.000; -373.000
443.173; -143.700; -341.000; -339.000
443.295; -117.400; -263.000; -371.000
443.418;  -55.000; -321.000;  -29.000
443.540;   67.400; -106.000;   -4.000
443.662; -199.200; -563.000; -465.000
443.785;   41.600;  335.000;  199.000
443.907; -157.800; -362.000; -208.000
444.029; -195.400; -767.000; -494.000
444.152; -214.000; -644.000; -554.000
444.274;   10.500;  -18.000;  -24.000
444.396; -181.400; -461.000; -221.000
444.518; -205.300; -691.000; -454.000
444.640; -145.000; -268.000; -111.000
444.763;   25.100;  388.000;  249.000
444.885; -194.000; -432.000; -392.000
445.007;   -4.700;   35.000;   86.000
445.129; -186.900; -610.000; -515.000
445.251; -130.000; -372.000; -439.000
445.373; -202.200; -537.000; -386.000
445.495;   56.100;  242.000;  350.000
445.617;  183.300;  853.000;  753.000
445.739;  -86.000; -215.000;  -97.000
445.861;  -51.600; -245.000; -112.000
445.984;  -40.000; -267.000; -101.000
446.105;  279.500; -418.000; -251.000
446.227;  813.000; -176.000;  -19.000
446.349;  -15.300; -358.000; -249.000
446.471; -164.300; -615.000; -448.000
446.593;  -94.500; -316.000;   19.000
446.715;   18.700;  -67.000;   41.000
446.837;  178.900;  697.000;  832.000
446.959; -138.600; -457.000; -478.000
447.081; -250.100; -628.000; -518.000
447.203;  173.800;  862.000;  834.000
447.325;  -82.600; -270.000;   42.000
447.446;   67.000;  286.000;  530.000
447.568; -280.600; -921.000; -803.000
447.690; -109.000; -236.000; -245.000
447.812; -245.100; -798.000; -519.000
447.933;    9.500;  155.000;  127.000
448.055;  -89.000; -306.000; -261.000
448.177;  259.500;   31.000;   79.000
448.299;   35.400; -935.000; -727.000
448.420;   91.500;  -25.000;  159.000
448.542;  -48.200;   -3.000;   33.000
448.664;   38.200;  109.000;  322.000
448.785;  -11.400;  265.000;   83.000
448.907; -112.100; -614.000; -353.000
449.028;  -74.400; -771.000; -471.000
449.150;  158.500;  492.000;  589.000
449.272; -315.000;-1044.000; -913.000
449.393;  135.500;  612.000;  694.000
449.515; -215.100; -634.000; -581.000
449.636;  -33.400; -264.000; -155.000
449.758;  225.700;  763.000;  622.000
449.879; -126.800; -498.000; -396.000
450.001;  -87.700; -149.000;  -49.000
450.122;   -1.400;  -95.000;  162.000
450.244;    6.900;   37.000;  364.000
450.365; -151.500; -495.000; -301.000
450.486;   13.200;   80.000;  268.000
450.608;   91.800;  393.000;  326.000
450.729;  226.100;  578.000;  645.000
450.850;   52.900; -574.000; -466.000
450.972; 1623.400; -552.000; -389.000
451.093; 9762.000;  190.000;  588.000
451.214; 3670.800; -516.000; -337.000
451.336;  713.300;  773.000;  579.000
451.457;  190.000;  264.000;  393.000
451.578;  -17.800; -118.000;  -74.000
451.699; -191.700; -546.000; -540.000
451.821;  -36.000; -284.000;  -50.000
451.942;   51.000;  278.000;  285.000
452.063;  133.600;  228.000;  419.000
452.184; 1170.500;  -54.000;  -49.000
452.305; 2071.500;  103.000;  170.000
452.427;  225.900; -549.000; -301.000
452.548;    6.000;   23.000;   79.000
452.669;  -46.600; -257.000;  -89.000
452.790;  -12.200;    3.000;  -18.000
452.911;   31.600;  195.000;  259.000
453.032;  -77.500; -289.000;  -60.000
453.153;  -11.500;  -29.000;   81.000
453.274;  185.800;  737.000;  868.000
453.395;  -18.500;  -51.000;  175.000
453.516;  342.000; 1317.000; 1388.000
453.637;  -97.100; -205.000; -150.000
453.758;  -51.600;   15.000;   69.000
453.879; -147.600; -462.000; -250.000
454.000;  205.600; 1086.000;  948.000
454.121; -176.300; -554.000; -326.000
454.242; -172.900; -599.000; -383.000
454.362;  -60.900;  -99.000;  114.000
454.483;  -10.700; -309.000; -229.000
454.604;  170.500;  512.000;  580.000
454.725; -220.600; -627.000; -555.000
454.846; -181.000; -474.000; -406.000
454.967;   38.000;  230.000;  539.000
455.087;   -1.400;  179.000;  153.000
455.208;   82.200;  554.000;  856.000
455.329;  -56.600;  -22.000;   82.000
455.450;  201.600;  473.000;  633.000
455.570; -112.700; -234.000; -211.000
455.691;  -18.200;  201.000;  407.000
455.812; -145.800; -270.000;  -92.000
455.932;  -70.500;  107.000;  -97.000
456.053; -100.100;   36.000;   24.000
456.173; -167.400; -433.000; -355.000
456.294; -209.200; -476.000; -303.000
456.415;  -73.000;  -73.000;   70.000
456.535;   -3.100;  297.000;  273.000
456.656;  -24.400;  132.000;  240.000
456.776;  -59.000;    3.000;  298.000
456.897;   58.400;  308.000;  513.000
457.017;  -59.400; -153.000;   -3.000
457.138; -177.900; -402.000; -249.000
457.258;    7.900;  263.000;  224.000
457.379;   60.600;  509.000;  521.000
457.499;   20.000;  443.000;  432.000
457.620; -220.400; -407.000; -231.000
457.740; -137.300; -132.000;  -11.000
457.860;  -34.500;   87.000;   44.000
457.981;  -55.900;  132.000;  124.000
458.101;  -93.300;  -89.000;   40.000
458.221;   27.400;  336.000;  402.000
458.342;  -31.100;   -4.000;  -37.000
458.462;  130.700;  617.000;  352.000
458.582;   19.900; -302.000; -294.000
458.703;  106.600;  303.000;  154.000
458.823;   19.500;   22.000;  163.000
458.943;  106.000;  341.000;  467.000
459.063;   13.400; 1124.000;  192.000
459.183;   23.800;  328.000;  313.000
459.304;   74.700;  315.000;  517.000
459.424;  -39.500; -246.000;  -89.000
459.544;  706.600;  388.000;  764.000
459.664; 1643.500;  499.000;  506.000
459.784;  607.600; 1004.000; 1175.000
459.904;  185.000;  867.000;  744.000
460.024;  221.500;  867.000;  684.000
460.144;   30.600;  449.000;  554.000
460.264;   42.400;  515.000;  327.000
460.385; -135.000; -145.000; -119.000
460.505;  141.000;  905.000;  858.000
460.625; -126.800;  -17.000;  -68.000
460.745;   26.500;  396.000;  541.000
460.864;  -14.000;  153.000;  469.000
460.984;   60.700;  499.000;  573.000
461.104;  357.500; 1656.000; 1775.000
461.224;  130.400;  657.000;  650.000
461.344;   43.200;  431.000;  360.000
461.464;    7.100;  258.000;  513.000
461.584;   55.400;  283.000;  466.000
461.704;  -61.500;   58.000;  108.000
461.824;  -25.200;  238.000;  259.000
461.943;  -39.600;  191.000;  130.000
462.063; -117.200;    2.000;  324.000
462.183;  105.300;  639.000;  717.000
462.303;  246.900; 1678.000; 1230.000
462.422;  121.000;  781.000;  840.000
462.542;  -44.900;  271.000;  391.000
462.662;   96.900;  353.000;  380.000
462.782;  570.100;  833.000;  572.000
462.901;  955.300;  545.000;  717.000
463.021;  569.400; 1702.000; 1638.000
463.141;   75.100;  337.000;  770.000
463.260;   56.500;  614.000;  474.000
463.380;   89.000;  902.000;  884.000
463.499;   25.700;  342.000;  332.000
463.619;   -1.600;  581.000;  559.000
463.738;  305.900; 1644.000;  903.000
463.858;  118.900;  657.000;  811.000
463.978;   17.800;  542.000;  396.000
464.097;  168.300;  921.000; 1114.000
464.217;  332.700; 1196.000; 1143.000
464.336;  317.200; 1068.000; 1130.000
464.455;    3.000;  328.000;  659.000
464.575;  110.500;  597.000;  602.000
464.694;  380.400; 1204.000; 1179.000
464.814;  303.800; 1190.000; 1138.000
464.933;  218.400; 1095.000; 1027.000
465.052;  269.500; 1412.000; 1054.000
465.172;  236.100;  922.000;  799.000
465.291;  355.500; 1376.000; 1320.000
465.410;   89.600;  462.000;  735.000
465.530;  257.900; 1355.000; 1310.000
465.649;  207.200; 1209.000; 1273.000
465.768;  379.100; 1673.000; 1508.000
465.888;  178.300;  941.000; 1174.000
466.007;  301.900; 1335.000; 1440.000
466.126;   58.300;  721.000;  641.000
466.245;  174.200; 1176.000; 1187.000
466.364;  110.000;  950.000; 1060.000
466.484;  182.700; 1024.000; 1213.000
466.603;  118.700; 1101.000; 1222.000
466.722;  303.500; 1490.000; 1769.000
466.841;  243.500; 1151.000; 1401.000
466.960;  147.700; 1069.000;  972.000
467.079;  360.800; 1971.000; 1786.000
467.198;  185.700; 1238.000; 1181.000
467.317;  240.700; 1768.000; 1162.000
467.436;  177.300; 1709.000; 1261.000
467.555;  354.400; 1796.000; 1746.000
467.674;  210.600; 1227.000; 1329.000
467.793;  180.200; 1376.000; 1374.000
467.912;  279.600; 1658.000; 1539.000
468.031;  372.800; 2038.000; 1930.000
468.150;  357.900; 1842.000; 1837.000
468.269;  424.200; 2313.000; 2090.000
468.388;  438.200; 2168.000; 2339.000
468.507;  575.900; 2884.000; 2903.000
468.626;  632.000; 2555.000; 2541.000
468.744;  342.300; 2018.000; 2174.000
468.863;  501.200; 2312.000; 2523.000
468.982;  254.600; 1503.000; 1555.000
469.101;  509.100; 2788.000; 2692.000
469.220;  379.400; 2333.000; 2176.000
469.338;  625.000; 2935.000; 3051.000
469.457;  457.300; 2719.000; 2545.000
469.576;  789.100; 3953.000; 3784.000
469.695;  542.600; 2877.000; 3066.000
469.813;  887.300; 4148.000; 4192.000
469.932;  904.900; 4255.000; 4485.000
470.051;  962.800; 4075.000; 4161.000
470.169; 1817.600; 4470.000; 4338.000
470.288; 2902.400; 4700.000; 4809.000
470.406; 1702.200; 5059.000; 5194.000
470.525; 1320.500; 6101.000; 5787.000
470.644; 1373.500; 6847.000; 6794.000
470.762; 1793.600; 8397.000; 7873.000
470.881; 1909.700; 8651.000; 8464.000
470.999; 2196.300; 9685.000; 9151.000
471.118; 2301.500;11174.000;10711.000

