
Integration time [ms]: 200.000
Averaging Nr. [scans]: 10
Smoothing Nr. [pixels]: 0
Data measured with spectrometer [name]: 2101012U2
Wave   ;Sample   ;Dark     ;Reference
[nm]   ;[counts] ;[counts] ;[counts] 

197.733;  111.200;  516.000;  404.000
197.879; -166.900; -610.000; -634.000
198.025;  -85.500; -475.000; -420.000
198.171; -191.700; -602.000; -612.000
198.317;  -85.000; -401.000; -316.000
198.463; -137.800; -655.000; -404.000
198.609;   25.100;  181.000; -137.000
198.755; -185.800; -644.000; -410.000
198.901; -140.100; -505.000; -424.000
199.047; -133.100; -615.000; -488.000
199.193; -101.000; -230.000; -468.000
199.339; -101.100; -222.000; -369.000
199.485;   72.300;  330.000;  271.000
199.631;   39.600;  227.000;  310.000
199.777;  -96.500; -466.000; -398.000
199.923; -145.900; -610.000; -424.000
200.069;  -20.800; -141.000;  -58.000
200.215;  113.000;  128.000;  453.000
200.361;  102.600;  243.000;  477.000
200.507; -157.400; -600.000; -373.000
200.653;  -39.900; -371.000; -194.000
200.798;  -86.500; -215.000; -125.000
200.944;   15.900; -146.000;  -41.000
201.090;   68.500;   61.000;  222.000
201.236;  -20.100; -116.000; -158.000
201.382;  236.400;  874.000;  903.000
201.528;    6.800;  -58.000;  -48.000
201.674; -123.600; -386.000; -293.000
201.819; -109.100; -540.000; -439.000
201.965; -183.300; -699.000; -447.000
202.111;  -32.400; -273.000; -226.000
202.257;  -83.900; -250.000; -238.000
202.402;   29.500;   13.000;  -36.000
202.548;  -96.300; -169.000; -116.000
202.694;  169.100;  410.000; -183.000
202.840; -205.300; -603.000; -531.000
202.985; -158.700; -681.000; -639.000
203.131; -240.300; -832.000; -666.000
203.277;  -21.500; -199.000; -262.000
203.423; -147.000; -434.000; -520.000
203.568;  -71.400; -462.000; -237.000
203.714; -134.100; -535.000; -542.000
203.860; -169.200; -682.000; -641.000
204.005;   31.000;  112.000;  167.000
204.151;  161.200;  561.000;  556.000
204.296; -126.900; -354.000; -221.000
204.442; -151.100; -600.000; -547.000
204.588; -194.600; -592.000; -579.000
204.733;   34.000;  178.000;  168.000
204.879; -284.400;-1018.000; -822.000
205.025;   29.400;  -99.000;  126.000
205.170;    0.400;  -17.000;   94.000
205.316;  166.100;  438.000;  661.000
205.461; -166.500; -698.000; -554.000
205.607;  195.700;  609.000;  665.000
205.752; -167.000; -626.000; -551.000
205.898; -121.100; -501.000; -391.000
206.043; -133.900; -578.000; -506.000
206.189;  -80.100; -243.000; -285.000
206.334;  129.700;  554.000;  606.000
206.480;  182.900;  409.000;  239.000
206.625; -157.600; -529.000; -552.000
206.771; -112.000; -451.000; -373.000
206.916;  -67.900; -210.000; -537.000
207.062; -172.300; -545.000; -591.000
207.207; -158.900; -546.000; -443.000
207.353;  119.400;  185.000;  460.000
207.498;   25.200;  196.000;   85.000
207.643;  -83.400; -501.000; -370.000
207.789; -267.900;-1069.000; -910.000
207.934; -229.200; -665.000; -713.000
208.080;  -72.200; -154.000;   66.000
208.225;    6.100;  -22.000;  -57.000
208.370; -190.300; -727.000; -619.000
208.516; -194.000; -741.000; -487.000
208.661;  -53.600; -127.000;  -69.000
208.806;  -68.000; -165.000; -171.000
208.952; -262.800;-1044.000; -731.000
209.097;  130.700;  378.000;  349.000
209.242; -118.300; -307.000; -382.000
209.387;  126.600;  392.000;  350.000
209.533; -124.900; -321.000; -350.000
209.678;  142.700;  472.000;  543.000
209.823; -138.400; -408.000; -310.000
209.969; -209.800; -860.000; -757.000
210.114; -229.900; -907.000; -719.000
210.259; -230.800; -939.000; -889.000
210.404;  -35.200; -171.000;  103.000
210.549;   30.000;  108.000;    3.000
210.695;  -35.400;   -3.000;  -95.000
210.840;   81.600;   94.000;   67.000
210.985; -146.200; -484.000; -303.000
211.130;  115.100;  268.000;  406.000
211.275;   33.700;  207.000;  199.000
211.420; -125.700; -300.000; -289.000
211.566; -175.000; -536.000; -489.000
211.711;   62.500;  218.000;  157.000
211.856; -160.800; -545.000; -519.000
212.001;   27.000;  151.000;   44.000
212.146;   -1.700;  153.000;   49.000
212.291;  -33.400; -210.000; -186.000
212.436;  -74.800; -280.000;   -6.000
212.581; -197.900; -685.000; -653.000
212.726; -180.100; -487.000; -538.000
212.871;  -99.100; -552.000; -217.000
213.016; -360.700;-1172.000;-1029.000
213.161;  117.800;  406.000;  291.000
213.306; -158.900; -435.000; -577.000
213.451; -196.500; -778.000; -689.000
213.596; -124.900; -455.000; -347.000
213.741; -125.200; -448.000; -538.000
213.886; -174.700; -498.000; -517.000
214.031;  -21.700; -294.000; -124.000
214.176; -147.700; -408.000; -341.000
214.321;  -39.000; -296.000; -157.000
214.466;  -71.200; -163.000;  -43.000
214.611;    0.200;  -61.000;  -10.000
214.756; -261.000; -948.000; -858.000
214.901;  -66.300; -388.000; -226.000
215.046; -270.000; -797.000; -825.000
215.191;   26.500;  128.000;   35.000
215.336;  -34.700; -157.000;  -19.000
215.480; -126.100; -684.000; -505.000
215.625;  -19.300; -175.000;  -19.000
215.770; -177.900; -757.000; -662.000
215.915;  -27.600;   -5.000;  -97.000
216.060;    7.800; -113.000;  -21.000
216.205; -251.100; -731.000; -779.000
216.349; -151.800; -470.000; -533.000
216.494; -300.900; -939.000; -867.000
216.639; -256.500; -823.000; -888.000
216.784; -190.400; -577.000; -525.000
216.929;  126.800;  392.000;  281.000
217.073;  -24.700; -244.000;  -31.000
217.218;   22.900;   78.000;  -47.000
217.363; -203.000; -656.000; -618.000
217.507; -158.400; -623.000; -588.000
217.652; -272.200; -845.000; -874.000
217.797; -174.200; -708.000; -659.000
217.942; -259.500; -856.000; -720.000
218.086;  191.400;  608.000;  539.000
218.231;  -52.700; -174.000;  -26.000
218.376;  -95.400; -337.000; -229.000
218.520;  -20.300;  -41.000;   96.000
218.665;  -43.200; -338.000; -204.000
218.810;  -66.300; -275.000; -233.000
218.954;   24.900;  201.000;   35.000
219.099; -251.000; -713.000; -963.000
219.243; -152.400; -589.000; -554.000
219.388;  -82.500; -264.000; -136.000
219.532;  -39.300; -116.000; -116.000
219.677; -190.000; -564.000; -521.000
219.822;   19.700;   33.000;   89.000
219.966;   12.700;   17.000;  -99.000
220.111;  -55.000; -328.000;  -40.000
220.255; -200.100; -797.000; -750.000
220.400;  -58.200; -180.000; -146.000
220.544; -163.700; -516.000; -450.000
220.689; -156.800; -422.000; -451.000
220.833;  -43.000; -123.000;  -58.000
220.978; -103.300; -393.000; -563.000
221.122;   50.400;  319.000;  307.000
221.267; -242.100; -906.000; -837.000
221.411; -125.400; -478.000; -394.000
221.555;    3.200; -104.000;  -23.000
221.700; -100.200; -329.000; -222.000
221.844;   82.600;  255.000;  272.000
221.989; -101.400; -328.000; -311.000
222.133;  -66.700; -289.000; -307.000
222.277;    3.100;    5.000;   78.000
222.422;   35.800;  227.000;  113.000
222.566;  -96.100; -381.000; -214.000
222.711; -112.600; -414.000; -479.000
222.855; -168.700; -643.000; -586.000
222.999; -176.100; -642.000; -717.000
223.144;  -90.500; -195.000; -194.000
223.288;  150.900;  423.000;  251.000
223.432;   20.700;  184.000;  230.000
223.576;   44.800;  152.000;  -21.000
223.721;   91.400;  364.000;  273.000
223.865; -110.200; -472.000; -475.000
224.009;  580.500; 1673.000; 1631.000
224.153; -158.300; -660.000; -671.000
224.298; -146.500; -531.000; -489.000
224.442;  -16.400;  -74.000;  -33.000
224.586;  -32.000; -169.000; -106.000
224.730; -219.900; -858.000; -670.000
224.875; -236.000; -739.000; -688.000
225.019;   57.700;  102.000;  188.000
225.163;  101.900;  208.000;  341.000
225.307;   34.400;   97.000;  -91.000
225.451;   90.400;  360.000;  481.000
225.595;   74.100;  264.000;  176.000
225.739;  -42.300; -170.000;  -94.000
225.884;   43.000;   86.000;    5.000
226.028; -210.200; -760.000; -626.000
226.172;  -73.300; -260.000; -273.000
226.316; -226.600; -941.000; -902.000
226.460; -139.700; -645.000; -493.000
226.604; -130.500; -406.000; -400.000
226.748; -206.400; -836.000; -733.000
226.892;  -78.400; -227.000; -181.000
227.036; -101.000; -537.000; -447.000
227.180; -106.800; -551.000; -375.000
227.324; -134.000; -561.000; -580.000
227.468; -236.400; -819.000; -717.000
227.612;   45.800;  242.000;  -28.000
227.756; -233.200; -845.000; -698.000
227.900;  101.300;  342.000;  441.000
228.044; -148.100; -509.000; -290.000
228.188;  111.400;  448.000;  568.000
228.332; -195.100; -546.000; -472.000
228.476;  -47.900; -223.000; -149.000
228.620;  -78.800; -210.000; -150.000
228.764;  152.500;  431.000;  349.000
228.908;  -36.000; -155.000;   30.000
229.052; -133.100; -615.000; -528.000
229.195;  -15.000; -172.000;   13.000
229.339;  -45.100; -235.000; -305.000
229.483;  -49.100;    5.000; -162.000
229.627;    8.600; -156.000;  139.000
229.771; -112.100; -218.000; -294.000
229.915;   29.500;  230.000;   79.000
230.059; -210.600; -648.000; -663.000
230.202; -110.000; -370.000; -317.000
230.346;  -50.500; -107.000;  107.000
230.490; -121.700; -489.000; -521.000
230.634; -239.900; -736.000; -553.000
230.777;  118.900;  478.000;  509.000
230.921; -128.100; -450.000; -359.000
231.065;  -75.600; -246.000; -286.000
231.209;   65.800;  261.000;  265.000
231.352;   59.100;   54.000;   40.000
231.496;   48.900;  568.000;  188.000
231.640; -169.300; -693.000; -621.000
231.783;  121.100;  546.000;  525.000
231.927;  -81.300; -294.000; -365.000
232.071; -292.600; -962.000; -736.000
232.214; -262.200; -980.000; -764.000
232.358; -202.800; -683.000; -599.000
232.502;   17.800;  -19.000;    7.000
232.645; -290.700;-1090.000; -927.000
232.789;  -40.300; -257.000; -218.000
232.933;  -91.900; -407.000; -224.000
233.076; -244.300;-1038.000; -897.000
233.220; -232.500; -752.000; -777.000
233.363; -146.400; -669.000; -477.000
233.507;  111.500;  371.000;  129.000
233.650; -222.600; -764.000; -834.000
233.794;   93.200;  438.000;  461.000
233.938; -129.500; -530.000; -362.000
234.081;  -66.900;  -93.000;   31.000
234.225; -114.800; -631.000; -539.000
234.368; -234.800; -773.000; -723.000
234.512;  -89.100; -385.000; -299.000
234.655; -215.200; -582.000; -555.000
234.798; -144.200; -493.000; -466.000
234.942; -248.700; -884.000;-1002.000
235.085; -133.100; -651.000; -443.000
235.229; -162.800; -405.000; -410.000
235.372; -107.400; -247.000; -191.000
235.516; -130.600; -397.000; -321.000
235.659;   53.300;   92.000;  121.000
235.802;  -36.000;  -38.000;  -22.000
235.946;   55.200;  335.000;  215.000
236.089;   69.800;  126.000;  250.000
236.233;  107.500;  275.000;  298.000
236.376; -117.700; -235.000; -378.000
236.519;  -72.000; -297.000; -319.000
236.663;  -32.500; -215.000; -117.000
236.806; -273.200;-1029.000; -999.000
236.949;  132.100;  543.000;  431.000
237.092;  134.500;  412.000;  391.000
237.236; -199.800; -589.000; -502.000
237.379;  163.500;  352.000;  428.000
237.522; -237.800; -879.000; -768.000
237.666;  -29.300; -271.000;   18.000
237.809; -300.700; -851.000; -823.000
237.952;   94.500;  469.000;  271.000
238.095; -136.900; -447.000; -442.000
238.238;  184.800;  688.000;  700.000
238.382;   11.300;  166.000;  103.000
238.525; -114.400; -598.000; -511.000
238.668; -327.200;-1060.000; -985.000
238.811; -166.600; -638.000; -643.000
238.954; -140.900; -483.000; -334.000
239.097;  185.100;  617.000;  664.000
239.241;   58.400;  394.000;  326.000
239.384;  -44.600; -254.000; -214.000
239.527; -109.600; -424.000; -224.000
239.670; -308.100; -994.000;-1091.000
239.813; -228.500; -696.000; -658.000
239.956;  195.600;  579.000;  473.000
240.099; -265.400; -778.000; -725.000
240.242;  132.100;  428.000;  432.000
240.385;  107.700;  466.000;  450.000
240.528; -142.100; -706.000; -473.000
240.671;   50.600;  189.000;  134.000
240.814;  -80.800; -441.000; -158.000
240.957; -217.900; -767.000; -578.000
241.100; -183.000; -779.000; -755.000
241.243; -321.500;-1234.000; -893.000
241.386; -118.400; -508.000; -379.000
241.529; -219.900; -735.000; -547.000
241.672; -146.400; -566.000; -495.000
241.815; -258.700; -832.000; -808.000
241.958;  -90.600; -125.000; -182.000
242.101; -166.000; -545.000; -390.000
242.244;  -91.000; -270.000; -325.000
242.387;  -79.500; -304.000; -246.000
242.530;  155.000;  470.000;  134.000
242.673; -100.000; -381.000; -309.000
242.815; -253.800; -925.000; -899.000
242.958; -161.000; -482.000; -381.000
243.101;   33.100;  132.000;  187.000
243.244; -179.200; -564.000; -521.000
243.387;  -95.300; -313.000; -316.000
243.530; -206.200; -657.000; -674.000
243.672;   12.400;   43.000;  -92.000
243.815; -102.200; -355.000; -283.000
243.958;   28.400;   98.000;  -26.000
244.101;   22.300;   59.000;  -16.000
244.243;  -15.700;  -47.000;  101.000
244.386; -224.600; -761.000; -630.000
244.529;  -57.200; -132.000; -139.000
244.672; -323.600;-1154.000; -951.000
244.814; -212.400; -621.000; -794.000
244.957;  -77.000; -380.000; -304.000
245.100; -144.400; -489.000; -489.000
245.242;  -96.900; -387.000; -374.000
245.385;  -11.800;  -59.000;  -39.000
245.528; -268.400; -871.000; -705.000
245.670;  178.900;  612.000;  634.000
245.813; -175.900; -599.000; -547.000
245.956;  -69.600; -324.000; -275.000
246.098; -165.900; -508.000; -650.000
246.241;   27.400;  194.000;   48.000
246.383;  -30.900; -119.000;  -73.000
246.526; -153.000; -454.000; -525.000
246.669; -253.400; -889.000; -780.000
246.811;   62.100;  172.000;   -1.000
246.954; -132.400; -512.000; -426.000
247.096;  -27.300;  -84.000;   -6.000
247.239; -159.000; -482.000; -445.000
247.381; -166.800; -647.000; -488.000
247.524;  175.300;  645.000;  679.000
247.666;    0.200;   58.000;   11.000
247.809; -257.200; -887.000; -691.000
247.951;   -6.300;  -75.000;  138.000
248.094;   65.100;  432.000;  308.000
248.236; -317.300;-1262.000;-1238.000
248.378; -110.200; -356.000;  -81.000
248.521; -107.500; -334.000; -337.000
248.663; -119.700; -236.000; -267.000
248.806;  -56.100; -300.000; -266.000
248.948; -264.200; -886.000; -763.000
249.090; -172.500; -428.000; -398.000
249.233; -145.900; -344.000; -381.000
249.375; -132.000; -474.000; -451.000
249.518;  -56.600;  -83.000; -133.000
249.660;   -7.400; -103.000;    3.000
249.802; -375.900;-1303.000;-1189.000
249.945; -169.500; -612.000; -540.000
250.087; -219.900; -834.000; -768.000
250.229; -102.600; -362.000; -480.000
250.371; -166.800; -494.000; -439.000
250.514;  -98.100; -310.000; -244.000
250.656;  -95.100;   69.000;  102.000
250.798; -223.500; -849.000; -800.000
250.940; -136.100; -322.000; -322.000
251.083;  -62.300; -335.000; -111.000
251.225;  133.200;  338.000;  310.000
251.367;  -93.600; -274.000; -373.000
251.509;  -93.600; -265.000; -210.000
251.651; -194.500; -731.000; -671.000
251.794;  117.500;  538.000;  632.000
251.936; -245.600; -821.000; -747.000
252.078; -167.600; -540.000; -461.000
252.220; -137.100; -645.000; -477.000
252.362;   64.700;  344.000;  462.000
252.504; -194.100; -677.000; -584.000
252.646; -228.200; -875.000; -722.000
252.788;  -23.000;   14.000; -128.000
252.931; -109.800; -257.000; -253.000
253.073;  -86.800; -376.000; -317.000
253.215;  -47.800;  141.000;  122.000
253.357;  -17.200;   82.000; -153.000
253.499; -122.800; -374.000; -234.000
253.641; -196.700; -749.000; -594.000
253.783; -189.200; -609.000; -527.000
253.925; -161.600; -586.000; -591.000
254.067; -217.500; -744.000; -667.000
254.209; -100.500; -391.000; -259.000
254.351; -293.200; -865.000; -883.000
254.493; -128.800; -441.000; -417.000
254.635; -255.600; -936.000; -818.000
254.777; -194.400; -752.000; -687.000
254.918; -174.000; -512.000; -430.000
255.060; -144.500; -551.000; -395.000
255.202; -153.800; -473.000; -261.000
255.344; -166.700; -658.000; -455.000
255.486; -130.000; -471.000; -406.000
255.628; -204.000; -780.000; -781.000
255.770; -198.000; -676.000; -536.000
255.912; -105.200; -559.000; -468.000
256.053; -190.800; -730.000; -508.000
256.195;  321.300; 1008.000;  903.000
256.337; -205.300; -861.000; -595.000
256.479;  120.300;  532.000;  416.000
256.621; -134.700; -394.000; -212.000
256.762; -210.400; -789.000; -742.000
256.904;   94.500;  485.000;  487.000
257.046;  -85.300; -381.000; -271.000
257.188;  -91.100; -351.000; -264.000
257.329; -140.800; -525.000; -464.000
257.471; -247.100; -939.000; -807.000
257.613; -138.400; -584.000; -498.000
257.755; -340.000;-1073.000; -982.000
257.896;   87.700;  286.000;  392.000
258.038; -121.300; -403.000; -352.000
258.180;  -98.000; -354.000; -279.000
258.321; -168.100; -581.000; -457.000
258.463;   12.000;  -71.000;  133.000
258.605; -198.800; -562.000; -570.000
258.746; -250.300; -886.000; -772.000
258.888; -326.800;-1026.000;-1020.000
259.029;   28.900;  121.000;   -8.000
259.171; -173.300; -614.000; -550.000
259.313;   11.600;  -49.000;  -47.000
259.454; -138.400; -536.000; -414.000
259.596;  -85.200; -483.000; -390.000
259.737; -169.100; -590.000; -474.000
259.879;   70.000;  217.000;  311.000
260.020;  182.700;  901.000;  636.000
260.162;  -43.700; -146.000; -253.000
260.303; -235.800; -768.000; -687.000
260.445; -159.400; -609.000; -613.000
260.586;   51.300;  392.000;  157.000
260.728; -102.600; -360.000; -248.000
260.869; -176.300; -350.000; -343.000
261.011;  179.700;  706.000;  537.000
261.152; -125.600; -479.000; -319.000
261.293; -149.900; -576.000; -595.000
261.435;  -69.900; -219.000; -184.000
261.576;  -91.000; -455.000; -325.000
261.718;  138.700;  420.000;  470.000
261.859; -268.300; -940.000; -949.000
262.000; -263.300; -951.000;-1016.000
262.142;   -3.000;  -52.000;  -60.000
262.283; -247.900; -808.000; -691.000
262.424; -188.900; -666.000; -625.000
262.566; -319.000;-1161.000; -983.000
262.707; -233.600; -840.000; -830.000
262.848; -271.600; -769.000; -726.000
262.990; -112.700; -362.000; -345.000
263.131;  161.800;  650.000;  681.000
263.272;   -2.100;  -61.000;  -41.000
263.413; -186.700; -589.000; -561.000
263.555; -146.800; -669.000; -143.000
263.696; -210.300; -550.000; -641.000
263.837; -123.300; -449.000; -551.000
263.978;    7.200;   -5.000;  -77.000
264.119;  -83.100; -283.000; -264.000
264.261; -257.900; -847.000; -630.000
264.402;   -2.100;   33.000;   40.000
264.543; -148.900; -509.000; -524.000
264.684;  -11.500;   61.000;  -50.000
264.825; -170.300; -816.000; -538.000
264.966;   12.100;  -84.000;  -67.000
265.107; -257.200; -646.000; -670.000
265.248; -237.200; -825.000; -812.000
265.390;  -10.100;  152.000;   -9.000
265.531;  -37.700; -238.000; -107.000
265.672; -193.900; -557.000; -630.000
265.813;  123.600;  563.000;  439.000
265.954; -314.200; -959.000; -940.000
266.095;  -29.000; -372.000; -322.000
266.236; -205.900; -686.000; -548.000
266.377;  -81.400; -243.000; -297.000
266.518; -141.900; -619.000; -547.000
266.659;   61.700;  170.000;  268.000
266.800;   -6.500;   83.000;   85.000
266.941; -152.300; -487.000; -478.000
267.082;   31.900;  354.000;   99.000
267.223; -100.300; -344.000; -273.000
267.364; -241.700; -892.000; -686.000
267.504;  -15.800;    3.000;  135.000
267.645;   -5.500;  160.000;   67.000
267.786;  -28.900; -147.000;  -86.000
267.927; -173.500; -473.000; -379.000
268.068;  -54.700; -186.000;  -61.000
268.209; -142.600; -175.000; -413.000
268.350; -117.800; -388.000; -532.000
268.490; -163.300; -648.000; -521.000
268.631;   58.400;  127.000;  225.000
268.772; -239.000; -874.000; -647.000
268.913;  -83.400; -328.000; -476.000
269.054;  -37.600; -117.000;   12.000
269.194; -113.200; -418.000; -402.000
269.335; -333.400;-1137.000;-1074.000
269.476;  -55.700;   33.000;  -35.000
269.617;  -88.400; -347.000; -392.000
269.757; -224.700; -713.000; -646.000
269.898; -238.000; -856.000; -613.000
270.039; -133.700; -415.000; -405.000
270.180; -294.700; -952.000; -816.000
270.320;  -88.700; -190.000; -250.000
270.461;  -83.500; -277.000; -249.000
270.602;  -11.600; -186.000; -156.000
270.742; -283.500; -868.000; -943.000
270.883; -133.900; -442.000; -390.000
271.023; -130.000; -358.000; -357.000
271.164; -130.500; -607.000; -528.000
271.305; -220.200; -666.000; -654.000
271.445; -186.600; -722.000; -683.000
271.586; -156.300; -462.000; -283.000
271.726; -105.100; -397.000; -322.000
271.867; -209.100; -594.000; -534.000
272.008;  -62.600; -473.000; -285.000
272.148;  102.300;  462.000;  468.000
272.289;  -48.100; -113.000; -181.000
272.429;  -20.900;   19.000;  185.000
272.570; -219.200; -633.000; -737.000
272.710; -252.700; -825.000; -775.000
272.851;  -44.200;  113.000; -130.000
272.991; -338.800;-1173.000;-1077.000
273.131; -155.600; -419.000; -459.000
273.272; -230.100; -683.000; -723.000
273.412;  -46.000; -143.000;  -31.000
273.553; -178.100; -488.000; -507.000
273.693;  230.600;  913.000;  858.000
273.834; -280.100; -894.000; -692.000
273.974; -170.100; -664.000; -615.000
274.114; -237.500; -772.000; -560.000
274.255;   96.100;  414.000;  373.000
274.395; -122.000; -180.000; -125.000
274.535;   82.500;  199.000;  350.000
274.676;   24.100;  225.000;   94.000
274.816;  -19.600;  110.000;   34.000
274.956; -225.600; -624.000; -690.000
275.097; -241.000;-1014.000; -922.000
275.237; -280.900; -913.000; -803.000
275.377; -229.700; -778.000; -689.000
275.517; -320.800; -878.000; -937.000
275.658; -174.800; -590.000; -555.000
275.798; -163.100; -606.000; -413.000
275.938;   55.200;  215.000;  323.000
276.078; -158.900; -626.000; -395.000
276.218;   17.600;   99.000;  104.000
276.359; -319.000;-1026.000;-1024.000
276.499; -159.900; -605.000; -446.000
276.639;  -54.200; -305.000; -151.000
276.779; -108.000; -475.000; -357.000
276.919; -242.400; -783.000; -624.000
277.059;  -38.100; -261.000; -212.000
277.199; -151.600; -357.000; -259.000
277.340;   38.500;  287.000;  175.000
277.480; -269.400; -840.000; -693.000
277.620;   23.700;  192.000;   16.000
277.760; -417.700;-1533.000;-1294.000
277.900;    5.700;  113.000;   33.000
278.040;   22.600;  137.000;  159.000
278.180;   46.000;  270.000;  170.000
278.320;  -13.200;   21.000;   56.000
278.460; -150.000; -443.000; -469.000
278.600; -187.300; -708.000; -598.000
278.740;  144.400;  448.000;  224.000
278.880; -291.300; -768.000; -791.000
279.020;  -13.500; -194.000; -144.000
279.160; -202.400; -672.000; -595.000
279.300; -246.400; -926.000; -873.000
279.440; -229.900; -709.000; -622.000
279.579; -277.100;-1014.000; -929.000
279.719; -165.900; -410.000; -394.000
279.859;   -8.700;   -4.000;   41.000
279.999;  -55.200; -208.000;  101.000
280.139; -123.200; -435.000; -387.000
280.279; -228.300; -708.000; -745.000
280.419;  -21.800; -229.000; -147.000
280.559; -113.000; -259.000; -180.000
280.698; -204.000; -790.000; -639.000
280.838; -275.900; -778.000; -800.000
280.978; -165.400; -846.000; -790.000
281.118; -240.200; -811.000; -704.000
281.257;  -19.800;   24.000;    6.000
281.397; -348.600;-1094.000; -960.000
281.537; -195.900; -599.000; -712.000
281.677;  -61.200; -150.000; -101.000
281.816; -191.300; -700.000; -630.000
281.956;  -63.600; -193.000; -257.000
282.096; -127.700; -539.000; -396.000
282.235; -240.900; -672.000; -638.000
282.375;  -52.200; -243.000;  -98.000
282.515; -234.100; -715.000; -707.000
282.654;   -1.400;   29.000;  106.000
282.794;   17.200;  388.000;  244.000
282.934; -136.100; -530.000; -491.000
283.073; -285.400;-1030.000; -857.000
283.213; -128.000; -460.000; -467.000
283.353; -150.700; -408.000; -349.000
283.492;  -67.500; -264.000; -296.000
283.632;  -99.900; -254.000; -168.000
283.771; -166.400; -859.000; -730.000
283.911; -139.000; -369.000; -260.000
284.050; -239.900; -794.000; -748.000
284.190; -360.700;-1229.000;-1096.000
284.329; -286.000;-1055.000; -964.000
284.469; -205.700; -516.000; -591.000
284.608; -137.000; -559.000; -598.000
284.748; -192.500; -614.000; -570.000
284.887;   -2.600;  -87.000;  -20.000
285.027; -263.600; -844.000; -892.000
285.166;  -82.200; -192.000; -249.000
285.306;  -55.500; -116.000;  -33.000
285.445;  -93.500; -229.000; -343.000
285.584; -197.500; -630.000; -494.000
285.724;  -78.200; -282.000; -322.000
285.863; -243.900; -857.000; -507.000
286.002; -104.300; -366.000; -276.000
286.142; -228.700; -715.000; -622.000
286.281; -145.300; -525.000; -493.000
286.420; -166.300; -554.000; -417.000
286.560;  225.600;  653.000;  623.000
286.699; -295.800; -958.000; -912.000
286.838; -178.200; -590.000; -591.000
286.978; -206.000; -533.000; -537.000
287.117; -299.500;-1085.000; -950.000
287.256;  -84.200; -228.000; -211.000
287.395; -117.900; -197.000; -378.000
287.535; -118.300; -370.000; -298.000
287.674; -153.200; -509.000; -484.000
287.813;  105.200;  661.000;  533.000
287.952; -280.000;-1010.000; -871.000
288.091; -348.900;-1049.000; -915.000
288.231;  -42.600;   13.000;   15.000
288.370; -360.800;-1217.000;-1200.000
288.509; -185.200; -728.000; -645.000
288.648; -184.400; -770.000; -548.000
288.787;  -76.200; -243.000;  -87.000
288.926; -142.100; -454.000; -475.000
289.065;  217.700;  859.000;  672.000
289.204;  -98.200; -377.000; -217.000
289.344; -202.300; -791.000; -690.000
289.483;   14.900;  416.000;  304.000
289.622;  -67.000; -291.000; -149.000
289.761;  -49.000; -309.000; -166.000
289.900; -241.400; -785.000; -626.000
290.039;  -30.300;  -12.000;  -95.000
290.178;  -64.400; -274.000; -180.000
290.317; -172.700; -618.000; -479.000
290.456; -142.800; -463.000; -451.000
290.595; -300.300; -961.000; -833.000
290.734; -302.900; -904.000; -891.000
290.873; -136.800; -456.000; -420.000
291.011; -245.200; -833.000; -843.000
291.150; -223.400; -770.000; -682.000
291.289;  -75.300; -343.000; -110.000
291.428; -235.700; -599.000; -480.000
291.567;  -77.400; -370.000; -442.000
291.706;  -18.300;  109.000;  154.000
291.845; -180.700; -597.000; -505.000
291.984; -371.000;-1234.000;-1061.000
292.122;  174.600;  602.000;  582.000
292.261;   84.900;  620.000;  463.000
292.400;    5.700; -144.000;  211.000
292.539; -266.900; -959.000; -813.000
292.678;  -70.300; -325.000; -300.000
292.816; -341.800;-1136.000; -965.000
292.955; -216.600; -844.000; -684.000
293.094;  -79.200; -173.000; -337.000
293.233; -107.700; -556.000; -400.000
293.371;  -77.800; -225.000;  -84.000
293.510; -217.600; -866.000; -780.000
293.649; -282.600; -959.000; -924.000
293.787; -297.300;-1083.000;-1012.000
293.926;  -56.100; -113.000;  -32.000
294.065;  -79.000; -379.000; -290.000
294.203;   83.600;  298.000;  406.000
294.342;   27.400;   74.000;  156.000
294.481;14958.600;51180.000; -836.000
294.619;  -61.500; -425.000; -582.000
294.758; -337.100;-1230.000;-1137.000
294.896;    9.300; -125.000;    5.000
295.035; -316.300;-1040.000;-1006.000
295.174; -284.000;-1082.000; -954.000
295.312; -123.900; -323.000; -203.000
295.451; -126.800; -307.000; -428.000
295.589; -166.800; -389.000; -518.000
295.728;   15.700; -292.000; -165.000
295.866;  -63.800;  -36.000;  -51.000
296.005; -188.200; -584.000; -341.000
296.143; -192.000; -558.000; -596.000
296.282; -243.200; -957.000; -881.000
296.420; -209.500; -657.000; -557.000
296.559; -223.100; -892.000; -633.000
296.697; -248.600; -847.000; -665.000
296.835; -330.400;-1141.000;-1002.000
296.974;   17.200;  -23.000;   39.000
297.112; -143.300; -443.000; -504.000
297.251; -255.000; -815.000; -755.000
297.389; -160.800; -576.000; -438.000
297.527;  -30.700; -145.000;  -83.000
297.666; -155.600; -486.000; -438.000
297.804; -164.000; -404.000; -264.000
297.942;   -1.800; -136.000; -161.000
298.081;  -43.900; -183.000;   63.000
298.219;  -38.200;  -17.000;  -19.000
298.357;  -83.300; -144.000;  -71.000
298.495; -234.000; -810.000; -812.000
298.634;   14.100;  245.000;  219.000
298.772;  -85.900; -220.000; -338.000
298.910; -149.900; -309.000; -182.000
299.048;  -10.500; -130.000; -153.000
299.187;  -80.800; -350.000; -250.000
299.325;  -17.100;   52.000;  122.000
299.463; -160.400; -389.000; -299.000
299.601; -101.800; -327.000; -271.000
299.739; -259.100; -908.000; -883.000
299.877; -195.800; -791.000; -703.000
300.016; -299.000;-1095.000; -935.000
300.154;  -30.000;  -19.000; -161.000
300.292; -142.900; -428.000; -348.000
300.430; -104.300; -408.000; -291.000
300.568; -289.100; -940.000; -874.000
300.706; -152.500; -366.000; -469.000
300.844; -350.900;-1108.000; -979.000
300.982;  107.000;  246.000;  282.000
301.120; -315.600; -965.000; -866.000
301.258; -190.700; -812.000; -705.000
301.396;    2.400;  104.000;  -41.000
301.534;  -67.000; -218.000; -293.000
301.672; -192.800; -664.000; -521.000
301.810; -172.300; -613.000; -545.000
301.948;   16.000;   53.000;  149.000
302.086;  -25.100; -250.000;  -32.000
302.224; -185.000; -610.000; -585.000
302.362; -172.100; -558.000; -622.000
302.500; -272.000; -923.000; -893.000
302.638;   23.100;  128.000;  245.000
302.776;  -95.100; -352.000; -408.000
302.913;  107.900;  447.000;  236.000
303.051; -102.900;  -86.000;  -23.000
303.189;   18.800;   90.000;  118.000
303.327; -125.200; -341.000; -256.000
303.465; -211.200; -832.000; -588.000
303.603; -232.600; -805.000; -604.000
303.740;  102.900;  417.000;  241.000
303.878; -256.900; -800.000; -759.000
304.016; -240.000; -915.000; -790.000
304.154; -374.400;-1123.000;-1152.000
304.291; -138.900; -505.000; -554.000
304.429;    6.500;  102.000;   74.000
304.567; -288.900; -908.000; -893.000
304.705; -151.800; -408.000; -515.000
304.842; -181.400; -616.000; -540.000
304.980;    8.100;  215.000;   35.000
305.118;  -76.400; -367.000; -365.000
305.255; -280.000; -945.000; -927.000
305.393;   76.600;  178.000;  239.000
305.531; -329.400;-1173.000; -956.000
305.668; -163.200; -663.000; -582.000
305.806; -141.500; -358.000; -439.000
305.943; -199.800; -629.000; -637.000
306.081; -117.300; -378.000; -267.000
306.219; -222.600; -863.000; -748.000
306.356;   -2.600;  158.000;   27.000
306.494;  254.400;  981.000;  761.000
306.631;  -43.900;  -11.000;  -55.000
306.769; -138.400; -613.000; -485.000
306.906; -125.400; -284.000; -258.000
307.044; -151.500; -473.000; -488.000
307.181; -146.000; -410.000; -332.000
307.319;   86.900;  112.000;   87.000
307.456; -399.800;-1191.000;-1153.000
307.594; -232.200; -980.000; -727.000
307.731; -114.600; -371.000; -164.000
307.868;    9.200;  -15.000;   20.000
308.006; -306.700; -961.000; -847.000
308.143; -159.100; -618.000; -330.000
308.281;  -80.100;  -37.000; -254.000
308.418; -198.800; -748.000; -640.000
308.555; -173.900; -400.000; -250.000
308.693; -166.300; -577.000; -573.000
308.830; -237.400; -712.000; -657.000
308.967;  -28.100; -215.000;  -95.000
309.105; -135.400; -507.000; -396.000
309.242;  -97.800; -468.000; -367.000
309.379; -226.700; -577.000; -655.000
309.517; -266.000; -936.000; -948.000
309.654; -280.600; -910.000; -734.000
309.791; -205.500; -662.000; -580.000
309.928; -301.100; -977.000; -914.000
310.065;  201.500;  819.000;  697.000
310.203; -290.100; -825.000; -850.000
310.340; -175.400; -465.000; -321.000
310.477; -191.800; -412.000; -516.000
310.614; -158.300; -383.000; -473.000
310.751; -218.800; -427.000; -518.000
310.889;  -44.900;    1.000;   11.000
311.026; -365.400;-1161.000; -939.000
311.163; -118.400; -386.000; -380.000
311.300; -191.600; -512.000; -479.000
311.437; -175.000; -658.000; -619.000
311.574; -384.900;-1226.000; -985.000
311.711; -145.500; -595.000; -433.000
311.848; -104.700; -380.000; -388.000
311.985;   35.100;  270.000;   93.000
312.122; -289.600; -932.000; -762.000
312.259; -274.100; -941.000; -994.000
312.396; -187.700; -508.000; -551.000
312.533; -206.700; -812.000; -790.000
312.670; -330.500;-1070.000; -898.000
312.807;  -97.900; -352.000; -367.000
312.944; -199.800; -513.000; -611.000
313.081;  -96.800; -150.000; -415.000
313.218; -316.300;-1111.000; -867.000
313.355; -105.600; -531.000; -449.000
313.492;  -96.800; -455.000; -292.000
313.629;  194.300;  815.000;  735.000
313.766; -344.700;-1176.000;-1008.000
313.902;  -31.800; -186.000;   21.000
314.039; -117.400; -372.000; -289.000
314.176;   47.500;  286.000;  192.000
314.313; -195.600; -569.000; -473.000
314.450; -218.700; -788.000; -684.000
314.587; -183.600; -468.000; -480.000
314.723;  -11.800;  -78.000;  130.000
314.860;   14.200;  318.000;  332.000
314.997;   31.700;  223.000;  142.000
315.134; -133.600; -385.000; -368.000
315.270; -143.500; -480.000; -496.000
315.407; -347.100;-1094.000; -967.000
315.544; -216.600; -657.000; -538.000
315.681; -225.500; -681.000; -565.000
315.817;  -36.500; -133.000; -176.000
315.954; -204.200; -613.000; -392.000
316.091; -328.600;-1045.000;-1023.000
316.227;  -71.700;  -71.000; -179.000
316.364;   -7.100;   23.000;    6.000
316.500; -109.700; -113.000; -300.000
316.637;  -97.500; -181.000; -302.000
316.774; -198.200; -625.000; -358.000
316.910; -213.900; -598.000; -629.000
317.047; -208.400; -487.000; -351.000
317.183; -174.300; -435.000; -566.000
317.320; -167.900; -367.000; -321.000
317.456; -220.200; -733.000; -805.000
317.593; -217.600; -598.000; -641.000
317.729;    2.900;  168.000;  -67.000
317.866; -421.200;-1434.000;-1285.000
318.002; -209.800; -708.000; -948.000
318.139; -260.100; -883.000; -867.000
318.275; -237.400;-1003.000; -738.000
318.412; -152.900; -517.000; -336.000
318.548; -192.700; -751.000; -720.000
318.685; -332.700; -985.000; -888.000
318.821; -219.500; -762.000; -735.000
318.957;  -56.300;   34.000;  -23.000
319.094;  105.200;  297.000;  154.000
319.230; -262.100; -756.000; -742.000
319.367; -141.600; -471.000; -520.000
319.503; -138.200; -538.000; -436.000
319.639; -251.700; -877.000; -793.000
319.775; -247.000; -750.000; -685.000
319.912; -145.900; -424.000; -519.000
320.048; -352.200;-1184.000;-1184.000
320.184;   17.800;   59.000;   70.000
320.321; -160.700; -497.000; -467.000
320.457;   97.300;  475.000;  662.000
320.593; -159.200; -375.000; -382.000
320.729; -227.100; -732.000; -734.000
320.866; -207.300; -577.000; -635.000
321.002; -235.700; -759.000; -809.000
321.138; -108.700; -135.000; -211.000
321.274;  -30.300; -148.000; -115.000
321.410; -185.400; -585.000; -353.000
321.546; -305.500;-1011.000; -911.000
321.683;   74.000;  400.000;  185.000
321.819;  -43.500;  -48.000; -117.000
321.955; -257.300; -743.000; -722.000
322.091; -144.400; -585.000; -540.000
322.227; -100.700; -382.000; -202.000
322.363;  -79.600; -320.000; -215.000
322.499; -100.500; -343.000; -331.000
322.635;  163.300;  636.000;  443.000
322.771;  -74.500; -139.000;   12.000
322.907;   79.000;  129.000;  327.000
323.043;  -95.000; -115.000; -206.000
323.179; -131.700; -394.000; -363.000
323.315; -169.100; -401.000; -371.000
323.451; -115.000; -328.000; -236.000
323.587;  -63.100;  -60.000;  -77.000
323.723; -186.100; -682.000; -601.000
323.859;  -73.500; -258.000;  -76.000
323.995; -118.200; -467.000; -409.000
324.131; -308.300; -967.000; -892.000
324.267;  -75.300; -254.000; -276.000
324.402; -311.400; -960.000; -983.000
324.538; -103.500; -279.000; -104.000
324.674;    7.400;  164.000;   77.000
324.810;   24.200;  226.000;  308.000
324.946; -142.900; -810.000; -658.000
325.082; -178.300; -568.000; -475.000
325.217;  -37.700;  -62.000;   16.000
325.353; -198.200; -764.000; -659.000
325.489; -200.000; -540.000; -506.000
325.625; -145.100; -579.000; -525.000
325.760;   12.600;  517.000;  376.000
325.896; -200.800; -515.000; -702.000
326.032; -118.400; -403.000; -352.000
326.168; -150.700; -462.000; -369.000
326.303; -136.400; -352.000; -461.000
326.439;  -71.500; -336.000; -276.000
326.575;  -47.900; -190.000;  -29.000
326.710;  -15.500; -156.000;  -30.000
326.846;  -34.800;  146.000;  103.000
326.982; -192.800; -530.000; -548.000
327.117; -161.100; -481.000; -442.000
327.253; -214.100; -745.000; -742.000
327.388; -343.300;-1137.000;-1153.000
327.524; -211.300; -811.000; -578.000
327.659;  -54.600;  -58.000;  -22.000
327.795;  -19.300;   69.000;   45.000
327.931; -204.300; -723.000; -499.000
328.066;  -80.000; -417.000; -276.000
328.202;  -70.000;   12.000; -129.000
328.337;  222.800;  957.000;  713.000
328.473;  -58.000;  -12.000;  -74.000
328.608;  -85.300; -256.000; -267.000
328.743; -261.900; -799.000; -664.000
328.879;   10.700;  214.000;  114.000
329.014; -170.200; -102.000; -122.000
329.150; -189.400; -358.000; -483.000
329.285; -184.100; -465.000; -466.000
329.421;  -75.000; -548.000; -246.000
329.556;  -49.700;  -36.000;   85.000
329.691; -207.000; -633.000; -615.000
329.827; -204.600; -626.000; -480.000
329.962;  -69.800;  131.000; -301.000
330.097; -209.700; -673.000; -585.000
330.233;  -95.600; -410.000; -223.000
330.368; -248.200; -839.000; -628.000
330.503;  -19.300;    3.000;   98.000
330.638;  -60.200;  -93.000; -125.000
330.774; -204.700; -609.000; -530.000
330.909; -138.300; -434.000; -244.000
331.044; -196.100; -714.000; -708.000
331.179; -375.000;-1217.000;-1109.000
331.315;   19.200;   77.000;   20.000
331.450;  -13.700;  157.000;  285.000
331.585; -191.400; -805.000; -706.000
331.720; -199.200; -510.000; -460.000
331.855;  -39.200;  -35.000; -102.000
331.990;  -47.600;   62.000;  138.000
332.126;   -6.000; -110.000;   71.000
332.261; -153.500; -379.000; -265.000
332.396;  -79.700; -135.000; -242.000
332.531; -343.000;-1074.000;-1031.000
332.666; -113.000; -519.000; -363.000
332.801; -247.500; -726.000; -807.000
332.936;  -23.200; -192.000; -122.000
333.071; -308.800; -870.000; -817.000
333.206;   32.900;  307.000;  379.000
333.341;   44.700;  344.000;  418.000
333.476; -182.700; -627.000; -623.000
333.611;  -94.300; -251.000; -173.000
333.746;  -72.200; -381.000; -464.000
333.881; -294.100; -973.000; -935.000
334.016; -284.800; -936.000; -917.000
334.151; -278.200; -746.000; -702.000
334.286;   15.800;  152.000;  186.000
334.421;  -86.300; -125.000; -178.000
334.556; -188.900; -611.000; -567.000
334.690; -230.700; -631.000; -577.000
334.825;  138.800;  381.000;   83.000
334.960; -170.300; -285.000; -413.000
335.095;    3.900;  135.000;  -91.000
335.230; -244.400; -722.000; -738.000
335.365; -311.800;-1084.000; -990.000
335.499; -347.700;-1108.000;-1037.000
335.634;   -1.400;    9.000;  534.000
335.769; -252.500; -755.000; -720.000
335.904; -199.700; -603.000; -561.000
336.038; -240.300; -735.000; -657.000
336.173; -332.900;-1206.000;-1194.000
336.308; -117.000; -116.000; -189.000
336.443; -167.800; -544.000; -634.000
336.577; -291.700; -936.000; -787.000
336.712;  -45.400;   -4.000;  -12.000
336.847; -257.500; -724.000; -607.000
336.981; -103.800; -272.000; -208.000
337.116;   93.900;  615.000;  501.000
337.250; -143.000; -434.000; -421.000
337.385; -156.000; -297.000; -208.000
337.520; -218.200; -632.000; -603.000
337.654; -108.200; -215.000; -126.000
337.789; -273.600; -989.000; -933.000
337.923;  -99.900; -104.000; -205.000
338.058; -252.700; -673.000; -738.000
338.192; -218.900; -611.000; -488.000
338.327;  -69.000;  -18.000; -155.000
338.461; -173.500; -299.000; -469.000
338.596; -188.500; -780.000; -638.000
338.730; -265.600; -767.000; -803.000
338.865;  -32.900;  -46.000; -140.000
338.999; -302.800; -846.000; -702.000
339.134; -200.700; -634.000; -536.000
339.268; -239.800; -741.000; -603.000
339.403; -251.800; -740.000; -775.000
339.537; -263.900; -894.000; -820.000
339.671; -272.900; -829.000; -813.000
339.806; -194.600; -556.000; -512.000
339.940;  -93.800; -261.000; -235.000
340.074; -228.800; -685.000; -510.000
340.209;  -95.000; -351.000; -230.000
340.343; -196.700; -517.000; -573.000
340.477;  300.400;  998.000; 1036.000
340.612; -303.900;-1033.000; -900.000
340.746; -113.900; -199.000; -243.000
340.880; -307.600; -924.000; -785.000
341.014;  -30.800;  -45.000; -154.000
341.149; -256.000; -756.000; -718.000
341.283; -254.000; -839.000; -754.000
341.417; -328.300;-1124.000; -938.000
341.551; -219.100; -768.000; -708.000
341.685; -227.300; -633.000; -611.000
341.820; -173.900; -562.000; -493.000
341.954; -181.800; -218.000; -349.000
342.088; -302.200;-1102.000;-1019.000
342.222;  117.600;  565.000;  618.000
342.356; -165.700; -395.000; -335.000
342.490; -266.300; -880.000; -841.000
342.624; -127.400; -339.000; -242.000
342.758; -134.300; -364.000; -312.000
342.892; -207.200; -710.000; -585.000
343.026;  -93.600;  -58.000; -116.000
343.160; -130.500; -426.000; -376.000
343.294; -181.000; -474.000; -337.000
343.428; -150.900; -488.000; -448.000
343.562;  -80.200; -172.000;  -23.000
343.696; -107.500; -385.000; -314.000
343.830; -114.500; -362.000; -356.000
343.964;  -98.600; -231.000; -168.000
344.098;    0.000;  199.000;   70.000
344.232;  -91.500; -266.000; -127.000
344.366; -198.600; -567.000; -453.000
344.500; -186.400; -665.000; -744.000
344.634; -117.200; -324.000; -164.000
344.768; -162.700; -531.000; -341.000
344.902;   38.400;  278.000;  256.000
345.035; -176.800; -556.000; -496.000
345.169; -309.400; -933.000; -656.000
345.303; -132.200; -308.000; -482.000
345.437; -225.600; -826.000; -717.000
345.571; -196.500; -675.000; -594.000
345.704; -176.900; -309.000; -532.000
345.838;  -74.000; -331.000; -284.000
345.972; -184.700; -543.000; -495.000
346.106;  -20.300; -179.000; -190.000
346.239;  -87.100; -312.000; -243.000
346.373; -102.800; -343.000; -302.000
346.507; -329.800; -950.000; -962.000
346.640;  -44.600;  -30.000;   13.000
346.774; -213.700; -650.000; -797.000
346.908;  -24.700; -138.000;  -11.000
347.041; -244.200; -646.000; -593.000
347.175;   16.100;  259.000;   27.000
347.309; -247.100; -698.000; -628.000
347.442; -239.100; -883.000; -732.000
347.576;  129.600;  670.000;  668.000
347.709;  -32.400; -123.000;  -52.000
347.843; -288.700; -933.000; -825.000
347.976;   66.100;  235.000;  294.000
348.110; -415.200;-1268.000;-1186.000
348.243; -216.700; -679.000; -772.000
348.377;  -43.100;  -26.000;   60.000
348.510;   81.000;  403.000;  540.000
348.644;  -99.000;  -37.000; -159.000
348.777;    5.500;  180.000;  191.000
348.911; -111.300; -142.000; -112.000
349.044;   89.500;  471.000;  448.000
349.178; -364.600;-1069.000;-1006.000
349.311;   16.600;  141.000;  255.000
349.444; -287.800; -927.000; -813.000
349.578;  -78.600; -347.000; -200.000
349.711; -287.800; -959.000; -862.000
349.845; -219.800; -661.000; -591.000
349.978; -387.500;-1224.000;-1137.000
350.111; -184.300; -546.000; -612.000
350.244; -235.300; -596.000; -700.000
350.378; -139.000; -392.000; -393.000
350.511; -152.000; -393.000; -426.000
350.644; -244.400; -808.000; -806.000
350.778;  -37.100;  168.000;  104.000
350.911;   32.400;  134.000;  140.000
351.044; -224.500; -685.000; -615.000
351.177;  -66.700; -321.000; -281.000
351.310;  -73.500;    3.000; -131.000
351.444; -246.900; -888.000; -788.000
351.577;  -38.800;  140.000;   90.000
351.710;  155.300;  593.000;  417.000
351.843;  -68.200; -165.000;  -77.000
351.976;    7.000;  149.000;  -79.000
352.109; -233.400; -621.000; -612.000
352.242; -143.600; -464.000; -419.000
352.376; -214.400; -580.000; -636.000
352.509; -134.100; -437.000; -356.000
352.642; -349.900; -654.000; -604.000
352.775;  -33.700; -141.000;  -98.000
352.908; -319.800; -933.000; -904.000
353.041; -242.600; -814.000; -824.000
353.174; -157.000; -551.000; -424.000
353.307; -242.600; -753.000; -764.000
353.440;   98.800;  541.000;  453.000
353.573; -313.200; -957.000;-1008.000
353.706; -185.200; -384.000; -558.000
353.839; -111.700; -264.000; -220.000
353.971; -220.000; -657.000; -512.000
354.104; -266.900; -896.000; -835.000
354.237; -245.200; -627.000; -662.000
354.370; -245.700; -846.000; -879.000
354.503; -407.800;-1231.000;-1308.000
354.636; -127.300; -529.000; -348.000
354.769; -312.200; -937.000; -860.000
354.902;  -97.900; -230.000; -139.000
355.034;  -99.400; -164.000; -220.000
355.167;  -63.300; -262.000; -162.000
355.300; -330.900;-1061.000; -880.000
355.433;  -18.400;  -71.000;  -14.000
355.565; -167.600; -402.000; -384.000
355.698; -100.800; -356.000; -296.000
355.831; -297.600; -882.000; -801.000
355.964; -100.000; -285.000; -170.000
356.096; -281.000; -856.000; -843.000
356.229; -185.300; -523.000; -530.000
356.362; -109.500; -373.000; -266.000
356.494;  -73.900; -229.000; -162.000
356.627;   38.500;  269.000;  377.000
356.760;   11.800;  120.000;   53.000
356.892; -226.700; -286.000; -601.000
357.025;  105.000;  403.000;  389.000
357.157; -103.000; -167.000; -179.000
357.290; -277.600; -856.000; -713.000
357.423; -247.400; -667.000; -556.000
357.555;  -62.200; -217.000; -228.000
357.688; -162.800; -483.000; -364.000
357.820; -276.600; -870.000; -877.000
357.953; -212.600; -563.000; -589.000
358.085; -227.600; -632.000; -612.000
358.218; -318.900;-1131.000; -932.000
358.350;   -4.100;  -58.000;  312.000
358.483; -398.800;-1300.000;-1187.000
358.615; -337.600;-1182.000;-1078.000
358.747; -376.500;-1187.000;-1058.000
358.880; -263.900; -810.000; -744.000
359.012; -151.100; -376.000; -202.000
359.145; -147.200; -480.000; -511.000
359.277; -327.000; -962.000; -913.000
359.409;   87.400;  536.000;  231.000
359.542; -279.100; -738.000; -688.000
359.674;  -17.000;   46.000;   13.000
359.806; -198.900; -565.000; -438.000
359.939; -155.200; -617.000; -516.000
360.071; -213.700; -583.000; -579.000
360.203; -101.600; -411.000; -364.000
360.335;  -27.300;  164.000;  -16.000
360.468;  -77.100; -249.000; -307.000
360.600; -208.900; -547.000; -454.000
360.732; -190.500; -546.000; -423.000
360.864; -377.700;-1216.000;-1044.000
360.996; -120.500; -516.000; -554.000
361.129; -216.600; -389.000; -598.000
361.261;  -19.600;  110.000; -113.000
361.393; -126.300; -252.000; -214.000
361.525;    8.400;   94.000;  244.000
361.657; -255.100; -821.000; -703.000
361.789;  -75.600; -139.000; -155.000
361.921; -219.800; -642.000; -593.000
362.053;  157.200;  524.000;  541.000
362.185;   -3.400;  288.000;   72.000
362.318; -252.800; -709.000; -705.000
362.450;   71.800;  294.000;  444.000
362.582; -298.300; -913.000; -870.000
362.714; -112.000; -353.000; -332.000
362.846; -181.400; -606.000; -490.000
362.978; -305.200; -941.000; -811.000
363.109; -101.600; -161.000; -260.000
363.241; -276.800; -739.000; -749.000
363.373; -205.500; -649.000; -564.000
363.505;  -86.200; -186.000;  -91.000
363.637; -202.700; -787.000; -601.000
363.769; -351.500;-1067.000;-1080.000
363.901; -186.700; -596.000; -654.000
364.033; -364.400;-1103.000;-1062.000
364.165;  -55.000; -283.000; -283.000
364.296; -112.100; -316.000; -177.000
364.428; -384.300;-1344.000;-1220.000
364.560; -198.800; -679.000; -661.000
364.692; -205.200; -738.000; -835.000
364.824; -183.900; -588.000; -456.000
364.955; -139.400; -402.000; -564.000
365.087; -341.700;-1097.000; -852.000
365.219; -245.700; -686.000; -816.000
365.351; -228.900; -526.000; -572.000
365.482;   22.800;  300.000;  240.000
365.614; -116.500; -402.000; -314.000
365.746; -272.100; -729.000; -752.000
365.877; -254.200; -706.000; -672.000
366.009;  -35.100;  -35.000;  -62.000
366.141; -360.300;-1249.000;-1134.000
366.272; -256.800; -803.000; -719.000
366.404; -289.100;-1005.000; -874.000
366.535;  -32.800; -139.000;  -12.000
366.667; -246.700; -644.000; -649.000
366.799;   92.200;  353.000;  203.000
366.930; -314.400; -862.000; -996.000
367.062; -155.200; -639.000; -613.000
367.193; -306.500; -872.000; -842.000
367.325; -158.000; -580.000; -684.000
367.456; -121.900; -246.000;   31.000
367.588; -112.000; -371.000; -318.000
367.719;  -75.700;  -44.000;  -45.000
367.851; -100.500; -222.000; -241.000
367.982; -286.800; -875.000; -732.000
368.113; -135.100; -475.000; -358.000
368.245; -342.200; -960.000; -841.000
368.376; -100.600; -254.000; -302.000
368.508; -139.100; -188.000; -263.000
368.639; -335.700;-1166.000;-1034.000
368.770; -236.900; -670.000; -589.000
368.902; -263.500; -836.000; -926.000
369.033; -308.500; -906.000; -855.000
369.164; -178.100; -720.000; -653.000
369.296; -258.700; -452.000; -601.000
369.427;  -53.400; -209.000; -144.000
369.558; -174.000; -593.000; -377.000
369.689; -200.800; -721.000; -569.000
369.821; -303.500; -951.000; -845.000
369.952;  -51.600;   42.000; -108.000
370.083; -107.400; -229.000; -108.000
370.214; -216.700; -735.000; -650.000
370.345;  -45.400;   65.000;   81.000
370.477; -257.200; -810.000; -790.000
370.608; -127.200; -328.000; -264.000
370.739; -372.100;-1233.000;-1292.000
370.870; -320.100;-1102.000; -923.000
371.001; -138.700; -378.000; -467.000
371.132; -240.400; -754.000; -735.000
371.263;  -38.700;  -42.000; -148.000
371.394; -304.900; -841.000; -748.000
371.525;   75.000;  345.000;  225.000
371.657; -274.800; -808.000; -670.000
371.788;   24.900;  103.000;  199.000
371.919; -148.700; -384.000; -304.000
372.050;  -40.500;  -91.000; -156.000
372.181;  -75.100; -188.000; -294.000
372.311;   10.200;   42.000; -127.000
372.442; -184.800; -457.000; -451.000
372.573;  -98.800; -444.000; -340.000
372.704; -315.200;-1008.000; -980.000
372.835; -113.500; -228.000; -289.000
372.966; -210.100; -646.000; -554.000
373.097; -206.900; -575.000; -711.000
373.228; -228.500; -717.000; -542.000
373.359; -222.300; -824.000; -536.000
373.490; -296.800; -881.000; -727.000
373.620; -274.200;-1001.000; -803.000
373.751; -195.600; -332.000; -396.000
373.882; -203.400; -663.000; -733.000
374.013; -146.400; -449.000; -262.000
374.143; -185.900; -581.000; -659.000
374.274; -323.300; -987.000; -908.000
374.405; -100.500; -388.000; -276.000
374.536; -179.800; -526.000; -387.000
374.666; -264.500; -759.000; -807.000
374.797; -286.400; -817.000; -868.000
374.928; -208.800; -710.000; -560.000
375.058; -214.700; -535.000; -500.000
375.189;  -44.800;  -59.000;  -93.000
375.320; -329.400; -928.000;-1034.000
375.450; -204.200; -625.000; -616.000
375.581; -170.100; -526.000; -436.000
375.712; -109.000; -574.000; -250.000
375.842; -180.000; -438.000; -415.000
375.973; -209.400; -554.000; -513.000
376.103; -233.300; -665.000; -648.000
376.234; -176.100; -531.000; -552.000
376.364; -323.800; -944.000; -867.000
376.495;  223.200;  925.000;  529.000
376.625; -209.200; -472.000; -485.000
376.756; -220.300; -709.000; -678.000
376.886; -394.900;-1178.000;-1026.000
377.017; -344.800;-1048.000;-1061.000
377.147; -315.600; -786.000; -782.000
377.278;    5.200;  174.000;  228.000
377.408; -316.800; -801.000; -815.000
377.538; -231.100; -707.000; -693.000
377.669; -197.000; -537.000; -613.000
377.799; -245.100; -645.000; -635.000
377.929; -197.900; -610.000; -428.000
378.060; -301.900; -781.000; -847.000
378.190; -238.700; -726.000; -531.000
378.320; -149.000; -401.000; -406.000
378.451;  -40.400; -131.000;  -22.000
378.581;  -53.700;  -67.000; -110.000
378.711;  130.900; 1035.000;  866.000
378.841; -204.200; -533.000; -675.000
378.972; -296.600; -871.000; -751.000
379.102; -225.000; -652.000; -579.000
379.232; -118.700; -126.000;  -73.000
379.362; -305.400;-1001.000; -885.000
379.492; -173.400; -373.000; -424.000
379.623;   23.000;    0.000;  111.000
379.753; -333.600;-1107.000; -974.000
379.883;    4.700;   59.000;  156.000
380.013; -379.200;-1081.000;-1017.000
380.143; -336.600;-1097.000;-1056.000
380.273; -323.500; -985.000; -861.000
380.403;  -88.600; -344.000; -257.000
380.533; -264.900; -651.000; -664.000
380.663;   20.000;  173.000;  128.000
380.793; -364.900;-1027.000;-1074.000
380.923;  -73.000; -103.000;  -34.000
381.053; -212.700; -613.000; -623.000
381.183; -118.400; -106.000; -248.000
381.313; -217.400; -656.000; -470.000
381.443; -209.500; -692.000; -473.000
381.573; -198.400; -402.000; -409.000
381.703; -361.700;-1249.000;-1095.000
381.833; -449.600;-1454.000;-1336.000
381.963;  -27.400; -134.000;  -87.000
382.093; -310.600; -925.000; -909.000
382.223; -247.900; -713.000; -602.000
382.353; -277.900; -801.000; -608.000
382.482; -348.200;-1091.000; -964.000
382.612; -248.500; -872.000; -644.000
382.742; -212.800; -695.000; -622.000
382.872; -203.500; -565.000; -551.000
383.002;  -19.900;  347.000; -132.000
383.131; -124.700; -226.000; -160.000
383.261; -259.500; -706.000; -768.000
383.391; -183.200; -552.000; -377.000
383.521;   69.600;  451.000;  263.000
383.650; -337.400; -947.000; -904.000
383.780; -223.600; -783.000; -656.000
383.910;  170.400;  880.000;  802.000
384.039; -274.200; -794.000; -656.000
384.169; -387.900;-1205.000;-1017.000
384.299; -228.700; -650.000; -662.000
384.428; -260.100; -764.000; -680.000
384.558; -128.000; -308.000; -275.000
384.687; -155.200; -414.000; -334.000
384.817;  -19.700;   75.000;   -2.000
384.947; -121.000; -234.000; -141.000
385.076;  247.600;  982.000;  912.000
385.206;   46.400;  369.000;  480.000
385.335; -137.700; -549.000; -417.000
385.465; -251.900; -655.000; -663.000
385.594;  -18.000;  -53.000;  -44.000
385.724; -308.000; -868.000; -838.000
385.853; -115.700; -296.000; -270.000
385.982; -268.800; -743.000; -787.000
386.112; -283.500;-1052.000; -871.000
386.241; -167.400; -307.000; -312.000
386.371;  -65.400; -174.000;  -87.000
386.500; -284.600; -825.000; -789.000
386.629; -203.700; -874.000; -817.000
386.759;  -28.900;  -43.000;   68.000
386.888;  -51.100; -170.000; -250.000
387.017; -225.200; -648.000; -620.000
387.147; -232.800; -771.000; -798.000
387.276; -199.800; -410.000; -397.000
387.405; -139.400; -398.000; -342.000
387.535; -191.600; -452.000; -361.000
387.664; -219.500; -692.000; -620.000
387.793;  -88.300; -198.000; -113.000
387.922;   12.300;  255.000;  200.000
388.052; -235.000; -576.000; -423.000
388.181; -149.800; -342.000; -472.000
388.310; -290.600; -889.000; -710.000
388.439; -270.900; -749.000; -742.000
388.568;    3.600;  365.000;  244.000
388.697; -205.500; -756.000; -653.000
388.826; -226.700; -768.000; -666.000
388.956; -101.000; -285.000; -307.000
389.085; -149.800; -347.000; -287.000
389.214; -258.300; -842.000; -872.000
389.343; -228.800; -645.000; -413.000
389.472;   18.800;  126.000;  149.000
389.601;  -66.600;   91.000;    0.000
389.730; -201.600; -568.000; -687.000
389.859;   28.600;  226.000;   46.000
389.988; -136.800; -423.000; -408.000
390.117; -112.800; -168.000; -146.000
390.246; -123.900; -331.000; -320.000
390.375; -227.900; -673.000; -626.000
390.504; -232.400; -703.000; -621.000
390.633; -291.200; -672.000; -726.000
390.761; -240.200; -732.000; -645.000
390.890;  -75.000;   -4.000; -130.000
391.019; -167.400; -421.000; -441.000
391.148; -309.800; -826.000; -855.000
391.277; -175.000; -576.000; -493.000
391.406; -302.700; -821.000; -805.000
391.534;   19.000;  574.000; -301.000
391.663; -186.100; -583.000; -645.000
391.792; -234.900; -673.000; -701.000
391.921;  -66.800;   -3.000;   15.000
392.050; -109.500; -287.000; -228.000
392.178; -390.700;-1206.000;-1061.000
392.307; -240.500; -758.000; -712.000
392.436; -232.400; -427.000; -641.000
392.564;  -25.700;  166.000;   -6.000
392.693; -302.300; -860.000; -682.000
392.822; -198.500; -529.000; -534.000
392.950; -304.100; -880.000; -714.000
393.079; -124.200; -188.000; -328.000
393.208; -210.600; -488.000; -511.000
393.336;  -45.700; -170.000; -145.000
393.465; -126.200; -317.000; -199.000
393.593;  -19.800;   62.000;   79.000
393.722; -329.500;-1121.000; -916.000
393.850;  -72.500; -188.000;  -61.000
393.979; -324.500; -926.000; -805.000
394.107; -170.700; -517.000; -537.000
394.236; -212.000; -570.000; -507.000
394.364;   44.100;  383.000;  206.000
394.493; -283.400; -911.000; -767.000
394.621; -273.100; -955.000; -916.000
394.750; -291.300; -873.000; -923.000
394.878;  -74.500; -247.000; -149.000
395.007; -264.700; -721.000; -807.000
395.135; -226.800; -790.000; -721.000
395.263; -346.200;-1038.000;-1040.000
395.392;  -50.700;  -25.000; -107.000
395.520; -279.100; -818.000; -679.000
395.648; -295.800; -865.000; -915.000
395.777; -188.100; -366.000; -405.000
395.905; -147.200; -449.000; -564.000
396.033;  -20.200;  217.000;  172.000
396.162; -149.300; -399.000; -453.000
396.290;  -73.700;  -17.000;   -2.000
396.418; -184.900; -555.000; -514.000
396.546; -292.900; -571.000; -466.000
396.674; -271.600; -850.000; -878.000
396.803;  -46.000;  -72.000;  -23.000
396.931;  -80.300; -179.000; -199.000
397.059; -360.800;-1026.000; -989.000
397.187; -280.500;-1026.000; -975.000
397.315; -265.200; -884.000; -649.000
397.443; -193.600; -592.000; -443.000
397.572; -220.500; -578.000; -424.000
397.700; -221.600; -607.000; -614.000
397.828; -114.500;  120.000;  -90.000
397.956; -179.400; -508.000; -478.000
398.084; -269.400; -767.000; -626.000
398.212;  -17.700;  137.000;  124.000
398.340;  -52.400;  -56.000;  159.000
398.468; -147.500; -390.000; -169.000
398.596; -322.100; -993.000; -953.000
398.724; -267.800; -762.000; -767.000
398.852; -336.900;-1024.000; -976.000
398.980; -200.900; -560.000; -560.000
399.108; -239.800; -982.000; -735.000
399.236;   -3.600;   13.000;    8.000
399.363;   -4.700;  222.000;  196.000
399.491; -179.600; -404.000; -398.000
399.619; -300.400; -829.000; -800.000
399.747; -278.300; -859.000; -771.000
399.875;   -5.700;  220.000;  234.000
400.003; -138.000; -359.000; -284.000
400.130; -187.200; -421.000; -341.000
400.258;  -43.500;  -83.000;   38.000
400.386; -142.100; -352.000; -168.000
400.514; -200.500; -526.000; -587.000
400.641; -328.400; -928.000; -802.000
400.769; -294.600; -979.000; -888.000
400.897; -294.100; -838.000; -793.000
401.025;  -58.900; -166.000; -152.000
401.152;   -8.700;  220.000;   38.000
401.280; -177.200; -430.000; -429.000
401.408; -238.300; -712.000; -576.000
401.535; -221.900; -735.000; -758.000
401.663; -386.500;-1134.000;-1054.000
401.790; -175.100; -514.000; -525.000
401.918;   81.100;  436.000;  405.000
402.046;   -4.200;  134.000;  122.000
402.173;  -93.900;  -18.000;    7.000
402.301; -137.300; -519.000; -397.000
402.428;  109.900;  528.000;  383.000
402.556; -324.100;-1188.000; -913.000
402.683; -107.000;  -20.000;   -1.000
402.811;  -45.100;  -37.000; -206.000
402.938;  -60.200;   20.000;   27.000
403.066; -213.900; -574.000; -558.000
403.193;   -3.600;  299.000;  239.000
403.321; -184.400; -396.000; -574.000
403.448;  -21.400;   83.000;   27.000
403.575;  -24.400;  -90.000;  -46.000
403.703; -252.300; -732.000; -557.000
403.830; -184.200; -531.000; -496.000
403.957; -346.200;-1117.000;-1023.000
404.085;  -91.800;  -61.000; -172.000
404.212;  -48.100;  -50.000;   63.000
404.339; -128.500; -566.000; -306.000
404.467; -197.400; -612.000; -524.000
404.594; -102.300; -287.000; -227.000
404.721; -287.700; -869.000; -764.000
404.848;  -57.200; -113.000; -202.000
404.976; -296.100; -856.000; -783.000
405.103;  -34.100;  -14.000;  -82.000
405.230;  -32.800;  190.000;  226.000
405.357;  -52.500;  117.000;   44.000
405.484; -100.600;  -49.000;    5.000
405.612; -205.500; -548.000; -563.000
405.739; -142.400; -488.000; -243.000
405.866;  123.000;  669.000;  385.000
405.993; -158.200; -398.000; -102.000
406.120; -261.700; -801.000; -887.000
406.247; -175.800; -323.000; -342.000
406.374;  129.700;  540.000;  629.000
406.501; -244.200; -632.000; -702.000
406.628; -171.900; -621.000; -589.000
406.755; -253.500; -803.000; -620.000
406.882;  -84.000; -228.000; -277.000
407.009; -234.000; -719.000; -628.000
407.136; -140.000; -480.000; -401.000
407.263; -349.500; -939.000; -829.000
407.390; -206.100; -692.000; -614.000
407.517; -410.900;-1139.000;-1187.000
407.644; -138.100; -332.000; -256.000
407.771; -155.100; -249.000; -287.000
407.898;   32.100;  168.000;  328.000
408.025; -154.300; -421.000; -313.000
408.151;  -17.700;   82.000;  153.000
408.278; -146.800; -267.000; -216.000
408.405; -298.600; -931.000; -899.000
408.532; -237.400; -549.000; -542.000
408.659; -222.300; -677.000; -648.000
408.785; -405.200;-1298.000;-1170.000
408.912; -102.600; -412.000; -296.000
409.039; -208.300; -610.000; -686.000
409.166; -190.200; -591.000; -555.000
409.292; -251.000; -571.000; -534.000
409.419; -242.800; -665.000; -649.000
409.546; -134.300; -431.000; -192.000
409.672; -197.900; -713.000; -545.000
409.799;  -67.600;  -36.000;   34.000
409.926;  -98.400; -180.000; -179.000
410.052; -387.800;-1127.000;-1091.000
410.179; -160.600; -368.000; -392.000
410.305; -170.200; -375.000; -493.000
410.432; -121.100; -220.000; -333.000
410.558; -217.900; -305.000; -380.000
410.685; -199.900; -688.000; -431.000
410.812; -174.100; -409.000; -588.000
410.938; -279.300; -964.000; -808.000
411.065; -245.600; -671.000; -645.000
411.191;  -88.200; -189.000; -174.000
411.317; -305.400; -823.000; -742.000
411.444; -115.800; -317.000; -246.000
411.570; -138.500; -339.000; -294.000
411.697; -265.300; -758.000; -752.000
411.823; -372.100; -989.000; -999.000
411.949;  -76.700;  -56.000;   17.000
412.076; -270.700; -539.000; -519.000
412.202; -278.000; -758.000; -757.000
412.329; -252.200; -798.000; -752.000
412.455; -250.800; -821.000; -657.000
412.581;  -82.300;  -15.000;  172.000
412.707; -179.800; -540.000; -457.000
412.834;    3.600;  156.000;  219.000
412.960; -265.500; -785.000; -784.000
413.086; -254.900; -743.000; -701.000
413.212;  128.400;  604.000;  578.000
413.339; -253.800; -685.000; -701.000
413.465; -159.000; -364.000; -310.000
413.591; -277.500; -757.000; -474.000
413.717; -127.100; -358.000; -366.000
413.843; -339.400; -839.000; -861.000
413.969; -128.200;  -47.000; -292.000
414.096; -282.400; -679.000; -679.000
414.222;    5.100;  -33.000;   85.000
414.348; -236.600; -652.000; -385.000
414.474;  -56.800;   38.000;  -52.000
414.600; -114.200; -126.000; -144.000
414.726;  -58.700;  -96.000;  -55.000
414.852; -174.500; -365.000; -342.000
414.978;   -6.400;  104.000;  -18.000
415.104;  -36.000;   38.000;   80.000
415.230; -136.600; -329.000; -330.000
415.356; -250.000; -409.000; -514.000
415.482;  -50.700;   13.000;  -35.000
415.608; -151.700; -247.000; -323.000
415.734;  -42.700;   67.000;   38.000
415.860; -293.000; -875.000; -767.000
415.986; -254.300; -685.000; -607.000
416.111; -309.400; -798.000; -652.000
416.237; -182.600; -424.000; -571.000
416.363; -302.000; -765.000; -733.000
416.489; -119.400; -324.000; -251.000
416.615; -303.500; -707.000; -742.000
416.741; -259.600; -677.000; -784.000
416.866; -248.800; -673.000; -736.000
416.992; -298.800; -801.000; -818.000
417.118; -133.100;  -41.000;  -80.000
417.244; -234.100; -798.000; -531.000
417.369; -285.800; -801.000; -612.000
417.495; -125.200; -325.000; -254.000
417.621; -362.000;-1015.000; -803.000
417.746; -178.100; -579.000; -572.000
417.872;  -86.000; -254.000; -144.000
417.998; -165.000; -515.000; -530.000
418.123; -324.100;-1073.000; -845.000
418.249; -205.400; -512.000; -601.000
418.374; -340.800; -916.000; -824.000
418.500; -176.400; -383.000; -482.000
418.626;  -39.000;   70.000;  -59.000
418.751; -173.500; -549.000; -448.000
418.877; -255.000; -637.000; -643.000
419.002; -168.100; -688.000; -560.000
419.128; -315.600; -930.000; -721.000
419.253; -311.500; -967.000; -837.000
419.379; -229.400; -391.000; -338.000
419.504;   34.900;  325.000;  415.000
419.629; -149.700; -393.000; -212.000
419.755;  -83.000; -317.000; -254.000
419.880; -159.200;  -98.000;   67.000
420.006; -111.400; -280.000; -221.000
420.131; -226.100; -662.000; -775.000
420.256; -158.200; -315.000; -316.000
420.382; -251.600; -665.000; -687.000
420.507; -257.800; -649.000; -778.000
420.632; -164.700; -337.000; -339.000
420.758; -107.300; -251.000; -425.000
420.883; -287.500; -876.000; -672.000
421.008; -239.900; -775.000; -619.000
421.133; -194.500; -509.000; -467.000
421.259; -110.000; -325.000; -259.000
421.384; -301.900; -834.000; -693.000
421.509; -288.400;-1052.000; -862.000
421.634; -328.900; -936.000; -820.000
421.759; -160.000; -359.000; -327.000
421.885; -251.200; -717.000; -656.000
422.010; -184.800; -673.000; -542.000
422.135; -318.800; -695.000; -727.000
422.260;   68.000;  340.000;  280.000
422.385; -107.900;   12.000;  -98.000
422.510;   21.500;  151.000;  -26.000
422.635;  -98.000;  -87.000;  -43.000
422.760; -214.000; -766.000; -791.000
422.885;  -87.200;  -57.000;  -80.000
423.010;  -64.300; -112.000; -169.000
423.135; -210.300; -481.000; -561.000
423.260; -108.400; -150.000; -245.000
423.385;   11.600;  476.000;  222.000
423.510;    5.600;   71.000;  -22.000
423.635;  -38.000;  133.000;   45.000
423.760;   33.100;  383.000;  328.000
423.885;   15.500;  336.000;  391.000
424.010;  -66.600;  -68.000;  -13.000
424.135;  -80.100;    5.000;  -33.000
424.259; -181.400; -654.000; -457.000
424.384; -185.200; -279.000; -272.000
424.509; -114.200; -260.000; -186.000
424.634; -288.700; -761.000; -623.000
424.759; -234.000; -688.000; -544.000
424.883; -242.700; -506.000; -527.000
425.008; -197.100; -502.000; -410.000
425.133; -286.800; -679.000; -653.000
425.258; -195.200; -517.000; -381.000
425.382; -276.700; -867.000; -774.000
425.507; -184.000; -487.000; -543.000
425.632; -289.000; -802.000; -663.000
425.756; -122.400; -256.000; -146.000
425.881; -270.600; -831.000; -857.000
426.006; -163.700; -604.000; -355.000
426.130; -254.200; -696.000; -508.000
426.255; -173.400; -611.000; -491.000
426.379; -123.700; -189.000; -577.000
426.504;  131.600;  660.000;  544.000
426.629; -238.000; -519.000; -466.000
426.753;  -60.500;   64.000;  -46.000
426.878; -128.700; -252.000; -288.000
427.002; -197.400; -651.000; -668.000
427.127; -106.100;  -35.000; -158.000
427.251;   78.400;  372.000;  401.000
427.375; -157.200; -191.000; -173.000
427.500; -237.700; -616.000; -610.000
427.624; -195.400; -234.000; -400.000
427.749; -115.900; -216.000; -225.000
427.873; -191.100; -499.000; -412.000
427.997; -142.600; -222.000; -230.000
428.122;   93.900;  795.000;  703.000
428.246;   72.100;  433.000;  434.000
428.371; -319.900; -869.000; -773.000
428.495; -209.800; -624.000; -646.000
428.619; -131.300; -186.000; -117.000
428.743;    8.600;   65.000;  132.000
428.868; -293.300; -732.000; -643.000
428.992; -151.500; -219.000; -326.000
429.116; -160.100; -329.000; -357.000
429.240;   28.900;  419.000;  426.000
429.365; -195.100; -454.000; -574.000
429.489; -231.900; -638.000; -647.000
429.613; -107.400; -236.000; -177.000
429.737; -189.500; -563.000; -432.000
429.861; -144.900; -247.000; -133.000
429.985; -152.200; -425.000; -305.000
430.109; -337.900; -770.000; -908.000
430.234;    2.500;   76.000;  -50.000
430.358; -158.700; -250.000; -160.000
430.482; -279.600; -672.000; -564.000
430.606; -242.900; -655.000; -375.000
430.730; -182.500; -437.000; -388.000
430.854; -332.500; -909.000; -835.000
430.978; -275.700; -795.000; -764.000
431.102; -207.400; -499.000; -422.000
431.226; -290.400; -874.000; -815.000
431.350;   17.300;  345.000;  422.000
431.474; -203.800; -661.000; -373.000
431.597; -373.200;-1060.000; -848.000
431.721; -158.300; -276.000; -267.000
431.845; -257.400; -704.000; -472.000
431.969; -141.300; -304.000; -349.000
432.093; -188.900; -395.000; -317.000
432.217;    6.500;   32.000;   82.000
432.341; -235.800; -523.000; -518.000
432.464;  -63.700;   96.000;   40.000
432.588; -207.700; -401.000; -329.000
432.712;  -97.100;  -52.000;  -52.000
432.836;   12.900;  213.000;  263.000
432.959; -147.300; -372.000; -311.000
433.083;  -59.000;   11.000;    2.000
433.207;   90.400;  285.000;  930.000
433.330; -113.900; -391.000; -200.000
433.454; -219.300; -654.000; -638.000
433.578;   31.400;  583.000;  278.000
433.701; -250.100; -623.000; -675.000
433.825; -184.600; -292.000; -299.000
433.949;  -75.000;   28.000;  -72.000
434.072; -156.100; -410.000; -323.000
434.196; -108.700; -309.000; -117.000
434.319; 7716.300;25482.000;25124.000
434.443; -246.900; -656.000; -603.000
434.566;  -56.100;  281.000;   62.000
434.690; -204.800; -637.000; -383.000
434.813; -121.500; -251.000; -173.000
434.937; -215.600; -569.000; -696.000
435.060; -189.400; -423.000; -332.000
435.184; -157.500; -492.000; -217.000
435.307;  -52.700;  159.000;  102.000
435.431;  -40.800;  -40.000;   24.000
435.554; -146.100; -399.000; -240.000
435.677; -125.100; -350.000; -258.000
435.801;  -63.200;  -25.000;   49.000
435.924;  -30.600;    1.000;  -67.000
436.048; -312.900;-1019.000; -732.000
436.171; -141.200; -240.000;  -66.000
436.294; -142.900; -248.000; -229.000
436.417; -358.300; -963.000; -849.000
436.541; -319.200; -814.000; -840.000
436.664;  -75.900; -242.000; -316.000
436.787;  -47.500;   13.000;  113.000
436.910; -227.800; -792.000; -422.000
437.034;  -29.400;  142.000;  143.000
437.157;  -21.700;  -11.000;    0.000
437.280; -222.900; -392.000; -292.000
437.403; -314.600; -982.000; -869.000
437.526; -324.500; -903.000; -865.000
437.649; -188.800; -505.000; -332.000
437.772; -247.700; -692.000; -540.000
437.896;  164.100;  700.000;  544.000
438.019; -269.800; -758.000; -503.000
438.142; -213.300; -596.000; -506.000
438.265; -259.700; -639.000; -670.000
438.388; -169.300; -520.000; -410.000
438.511; -228.500; -597.000; -394.000
438.634; -155.600; -247.000; -125.000
438.757; -281.100; -693.000; -619.000
438.880;  -80.300;  -34.000;  -57.000
439.003; -195.400; -417.000; -437.000
439.126; -121.900; -287.000; -167.000
439.248;  -99.300;  -98.000; -139.000
439.371;  -25.300;    9.000;  -53.000
439.494;  110.700;  510.000;  439.000
439.617;  -42.900;   65.000;  -88.000
439.740; -345.800; -968.000; -816.000
439.863; -243.500; -755.000; -595.000
439.986; -260.000; -476.000; -431.000
440.108;  -83.900; -161.000; -112.000
440.231; -345.700; -950.000; -836.000
440.354;  -76.000;  -64.000; -150.000
440.477; -242.200; -566.000; -542.000
440.599; -194.500; -200.000; -225.000
440.722; -291.900; -709.000; -586.000
440.845;  139.900;  751.000;  928.000
440.968; -201.100; -415.000; -311.000
441.090; -131.000; -199.000;  -33.000
441.213; -340.100;-1021.000; -825.000
441.336;  -88.600; -159.000;   -5.000
441.458; -196.300; -549.000; -396.000
441.581; -258.700; -628.000; -629.000
441.703; -123.700; -152.000;   13.000
441.826; -199.700; -557.000; -400.000
441.948;  -74.300;   56.000;   51.000
442.071;  105.800;  555.000;  424.000
442.193; -217.900; -531.000; -485.000
442.316;  -12.100;  152.000;   97.000
442.438; -139.600; -233.000;  -10.000
442.561;   36.100;  272.000;  262.000
442.683; -288.200; -809.000; -522.000
442.806;  -48.200;   -8.000;   74.000
442.928; -310.500; -859.000; -604.000
443.051; -239.500; -577.000; -373.000
443.173; -181.200; -341.000; -339.000
443.295; -178.900; -263.000; -371.000
443.418; -126.200; -321.000;  -29.000
443.540;  -84.800; -106.000;   -4.000
443.662; -266.900; -563.000; -465.000
443.785;    8.600;  335.000;  199.000
443.907; -202.900; -362.000; -208.000
444.029; -222.600; -767.000; -494.000
444.152; -295.400; -644.000; -554.000
444.274;  -51.300;  -18.000;  -24.000
444.396; -232.000; -461.000; -221.000
444.518; -261.500; -691.000; -454.000
444.640; -197.100; -268.000; -111.000
444.763;   27.600;  388.000;  249.000
444.885; -214.100; -432.000; -392.000
445.007;  -41.500;   35.000;   86.000
445.129; -223.500; -610.000; -515.000
445.251; -205.900; -372.000; -439.000
445.373; -308.200; -537.000; -386.000
445.495;   42.100;  242.000;  350.000
445.617;  152.900;  853.000;  753.000
445.739; -103.800; -215.000;  -97.000
445.861; -161.300; -245.000; -112.000
445.984; -150.100; -267.000; -101.000
446.105; -184.400; -418.000; -251.000
446.227;  -62.500; -176.000;  -19.000
446.349; -275.100; -358.000; -249.000
446.471; -241.700; -615.000; -448.000
446.593; -168.600; -316.000;   19.000
446.715;  -59.200;  -67.000;   41.000
446.837;  152.300;  697.000;  832.000
446.959; -193.100; -457.000; -478.000
447.081; -285.500; -628.000; -518.000
447.203;  175.000;  862.000;  834.000
447.325; -146.100; -270.000;   42.000
447.446;    5.700;  286.000;  530.000
447.568; -334.900; -921.000; -803.000
447.690; -145.500; -236.000; -245.000
447.812; -292.000; -798.000; -519.000
447.933;   -8.700;  155.000;  127.000
448.055; -134.400; -306.000; -261.000
448.177;  -21.900;   31.000;   79.000
448.299; -360.500; -935.000; -727.000
448.420;    3.300;  -25.000;  159.000
448.542;  -70.700;   -3.000;   33.000
448.664;   -5.500;  109.000;  322.000
448.785;  -54.300;  265.000;   83.000
448.907; -225.700; -614.000; -353.000
449.028; -241.300; -771.000; -471.000
449.150;  135.800;  492.000;  589.000
449.272; -367.600;-1044.000; -913.000
449.393;  106.600;  612.000;  694.000
449.515; -300.100; -634.000; -581.000
449.636; -169.400; -264.000; -155.000
449.758;  107.800;  763.000;  622.000
449.879; -186.800; -498.000; -396.000
450.001; -168.700; -149.000;  -49.000
450.122;  -42.100;  -95.000;  162.000
450.244;  -31.800;   37.000;  364.000
450.365; -180.100; -495.000; -301.000
450.486; -102.200;   80.000;  268.000
450.608;   15.300;  393.000;  326.000
450.729;   51.800;  578.000;  645.000
450.850; -244.400; -574.000; -466.000
450.972; -268.300; -552.000; -389.000
451.093;   42.800;  190.000;  588.000
451.214; -211.300; -516.000; -337.000
451.336;   57.700;  773.000;  579.000
451.457;   32.700;  264.000;  393.000
451.578;  -97.700; -118.000;  -74.000
451.699; -227.700; -546.000; -540.000
451.821; -136.200; -284.000;  -50.000
451.942;  -31.800;  278.000;  285.000
452.063;   21.200;  228.000;  419.000
452.184; -145.000;  -54.000;  -49.000
452.305;  -21.900;  103.000;  170.000
452.427; -214.700; -549.000; -301.000
452.548; -101.600;   23.000;   79.000
452.669; -128.800; -257.000;  -89.000
452.790; -125.400;    3.000;  -18.000
452.911;  -21.900;  195.000;  259.000
453.032; -129.500; -289.000;  -60.000
453.153;  -90.800;  -29.000;   81.000
453.274;  147.200;  737.000;  868.000
453.395; -106.200;  -51.000;  175.000
453.516;  260.300; 1317.000; 1388.000
453.637; -206.500; -205.000; -150.000
453.758;  -76.300;   15.000;   69.000
453.879; -214.800; -462.000; -250.000
454.000;  197.300; 1086.000;  948.000
454.121; -254.400; -554.000; -326.000
454.242; -242.300; -599.000; -383.000
454.362; -111.700;  -99.000;  114.000
454.483; -164.600; -309.000; -229.000
454.604;   25.000;  512.000;  580.000
454.725; -258.200; -627.000; -555.000
454.846; -241.100; -474.000; -406.000
454.967;  -27.000;  230.000;  539.000
455.087;  -59.200;  179.000;  153.000
455.208;   91.900;  554.000;  856.000
455.329; -111.600;  -22.000;   82.000
455.450;   75.800;  473.000;  633.000
455.570; -175.800; -234.000; -211.000
455.691;  -50.000;  201.000;  407.000
455.812; -198.900; -270.000;  -92.000
455.932;  -79.600;  107.000;  -97.000
456.053; -131.400;   36.000;   24.000
456.173; -180.200; -433.000; -355.000
456.294; -234.000; -476.000; -303.000
456.415;  -99.000;  -73.000;   70.000
456.535;  -24.000;  297.000;  273.000
456.656;  -72.500;  132.000;  240.000
456.776; -109.400;    3.000;  298.000
456.897;   29.000;  308.000;  513.000
457.017; -150.900; -153.000;   -3.000
457.138; -218.300; -402.000; -249.000
457.258;  -70.600;  263.000;  224.000
457.379;   28.400;  509.000;  521.000
457.499;   14.200;  443.000;  432.000
457.620; -183.700; -407.000; -231.000
457.740; -161.900; -132.000;  -11.000
457.860;  -54.500;   87.000;   44.000
457.981;  -82.900;  132.000;  124.000
458.101; -145.100;  -89.000;   40.000
458.221;  -14.400;  336.000;  402.000
458.342; -109.300;   -4.000;  -37.000
458.462;  -15.200;  617.000;  352.000
458.582; -205.500; -302.000; -294.000
458.703; -109.300;  303.000;  154.000
458.823;  -95.200;   22.000;  163.000
458.943;  -20.700;  341.000;  467.000
459.063;  -52.300; 1124.000;  192.000
459.183;  -75.100;  328.000;  313.000
459.304;   42.800;  315.000;  517.000
459.424; -148.700; -246.000;  -89.000
459.544;   47.300;  388.000;  764.000
459.664;   21.500;  499.000;  506.000
459.784;  188.400; 1004.000; 1175.000
459.904;   75.500;  867.000;  744.000
460.024;  129.200;  867.000;  684.000
460.144;   20.800;  449.000;  554.000
460.264;   -0.400;  515.000;  327.000
460.385; -136.200; -145.000; -119.000
460.505;  182.400;  905.000;  858.000
460.625; -162.900;  -17.000;  -68.000
460.745;    6.100;  396.000;  541.000
460.864;  -60.200;  153.000;  469.000
460.984;   32.900;  499.000;  573.000
461.104;  259.800; 1656.000; 1775.000
461.224;   71.200;  657.000;  650.000
461.344;  -62.300;  431.000;  360.000
461.464;  -73.700;  258.000;  513.000
461.584;  -50.700;  283.000;  466.000
461.704; -108.100;   58.000;  108.000
461.824; -118.400;  238.000;  259.000
461.943;  -67.200;  191.000;  130.000
462.063; -125.100;    2.000;  324.000
462.183;   71.300;  639.000;  717.000
462.303;  262.400; 1678.000; 1230.000
462.422;   96.200;  781.000;  840.000
462.542;  -77.900;  271.000;  391.000
462.662;   -4.800;  353.000;  380.000
462.782;   30.700;  833.000;  572.000
462.901;   42.600;  545.000;  717.000
463.021;  283.900; 1702.000; 1638.000
463.141;  -38.500;  337.000;  770.000
463.260;   -1.000;  614.000;  474.000
463.380;   85.200;  902.000;  884.000
463.499;  -28.500;  342.000;  332.000
463.619;  -25.300;  581.000;  559.000
463.738;  264.200; 1644.000;  903.000
463.858;   82.700;  657.000;  811.000
463.978;    1.300;  542.000;  396.000
464.097;  128.400;  921.000; 1114.000
464.217;  190.200; 1196.000; 1143.000
464.336;  190.900; 1068.000; 1130.000
464.455;  -84.600;  328.000;  659.000
464.575;   20.800;  597.000;  602.000
464.694;  139.300; 1204.000; 1179.000
464.814;   87.000; 1190.000; 1138.000
464.933;  138.500; 1095.000; 1027.000
465.052;  248.400; 1412.000; 1054.000
465.172;   81.100;  922.000;  799.000
465.291;  242.500; 1376.000; 1320.000
465.410;   21.600;  462.000;  735.000
465.530;  241.600; 1355.000; 1310.000
465.649;  146.600; 1209.000; 1273.000
465.768;  317.100; 1673.000; 1508.000
465.888;  109.100;  941.000; 1174.000
466.007;  232.600; 1335.000; 1440.000
466.126;  -10.700;  721.000;  641.000
466.245;  111.200; 1176.000; 1187.000
466.364;   68.700;  950.000; 1060.000
466.484;  163.300; 1024.000; 1213.000
466.603;  122.900; 1101.000; 1222.000
466.722;  259.900; 1490.000; 1769.000
466.841;  145.000; 1151.000; 1401.000
466.960;  104.500; 1069.000;  972.000
467.079;  317.100; 1971.000; 1786.000
467.198;  145.700; 1238.000; 1181.000
467.317;  253.100; 1768.000; 1162.000
467.436;  172.300; 1709.000; 1261.000
467.555;  290.400; 1796.000; 1746.000
467.674;  223.400; 1227.000; 1329.000
467.793;  122.600; 1376.000; 1374.000
467.912;  218.300; 1658.000; 1539.000
468.031;  279.100; 2038.000; 1930.000
468.150;  338.000; 1842.000; 1837.000
468.269;  433.000; 2313.000; 2090.000
468.388;  408.400; 2168.000; 2339.000
468.507;  534.800; 2884.000; 2903.000
468.626;  618.500; 2555.000; 2541.000
468.744;  313.700; 2018.000; 2174.000
468.863;  429.400; 2312.000; 2523.000
468.982;  211.000; 1503.000; 1555.000
469.101;  506.700; 2788.000; 2692.000
469.220;  358.000; 2333.000; 2176.000
469.338;  544.900; 2935.000; 3051.000
469.457;  467.000; 2719.000; 2545.000
469.576;  742.300; 3953.000; 3784.000
469.695;  491.700; 2877.000; 3066.000
469.813;  886.000; 4148.000; 4192.000
469.932;  804.100; 4255.000; 4485.000
470.051;  792.900; 4075.000; 4161.000
470.169;  832.400; 4470.000; 4338.000
470.288;  938.200; 4700.000; 4809.000
470.406; 1009.200; 5059.000; 5194.000
470.525; 1192.400; 6101.000; 5787.000
470.644; 1302.200; 6847.000; 6794.000
470.762; 1725.900; 8397.000; 7873.000
470.881; 1745.600; 8651.000; 8464.000
470.999; 2002.400; 9685.000; 9151.000
471.118; 2276.300;11174.000;10711.000

