
Integration time [ms]: 200.000
Averaging Nr. [scans]: 10
Smoothing Nr. [pixels]: 0
Data measured with spectrometer [name]: 2101012U2
Wave   ;Sample   ;Dark     ;Reference
[nm]   ;[counts] ;[counts] ;[counts] 

197.733;  146.400;  516.000;  404.000
197.879; -144.100; -610.000; -634.000
198.025; -111.900; -475.000; -420.000
198.171; -132.200; -602.000; -612.000
198.317;  -45.600; -401.000; -316.000
198.463; -105.500; -655.000; -404.000
198.609;   33.200;  181.000; -137.000
198.755; -144.000; -644.000; -410.000
198.901; -114.000; -505.000; -424.000
199.047; -134.300; -615.000; -488.000
199.193;  -75.900; -230.000; -468.000
199.339;  -77.500; -222.000; -369.000
199.485;   89.100;  330.000;  271.000
199.631;   23.900;  227.000;  310.000
199.777; -104.100; -466.000; -398.000
199.923; -121.100; -610.000; -424.000
200.069;    3.500; -141.000;  -58.000
200.215;  112.800;  128.000;  453.000
200.361;  127.500;  243.000;  477.000
200.507; -155.500; -600.000; -373.000
200.653;  -38.200; -371.000; -194.000
200.798;  -44.700; -215.000; -125.000
200.944;   -0.800; -146.000;  -41.000
201.090;   99.200;   61.000;  222.000
201.236;   -2.300; -116.000; -158.000
201.382;  262.800;  874.000;  903.000
201.528;   -4.900;  -58.000;  -48.000
201.674;  -69.800; -386.000; -293.000
201.819; -138.800; -540.000; -439.000
201.965; -177.600; -699.000; -447.000
202.111;  -48.100; -273.000; -226.000
202.257;  -61.700; -250.000; -238.000
202.402;   15.500;   13.000;  -36.000
202.548;  -51.100; -169.000; -116.000
202.694;  174.600;  410.000; -183.000
202.840; -157.800; -603.000; -531.000
202.985; -155.600; -681.000; -639.000
203.131; -228.600; -832.000; -666.000
203.277;  -42.600; -199.000; -262.000
203.423;  -95.500; -434.000; -520.000
203.568;  -81.200; -462.000; -237.000
203.714; -132.000; -535.000; -542.000
203.860; -167.000; -682.000; -641.000
204.005;   53.800;  112.000;  167.000
204.151;  163.300;  561.000;  556.000
204.296; -107.600; -354.000; -221.000
204.442; -143.200; -600.000; -547.000
204.588; -152.000; -592.000; -579.000
204.733;   84.500;  178.000;  168.000
204.879; -256.100;-1018.000; -822.000
205.025;   26.000;  -99.000;  126.000
205.170;  -36.900;  -17.000;   94.000
205.316;  185.300;  438.000;  661.000
205.461; -186.500; -698.000; -554.000
205.607;  197.300;  609.000;  665.000
205.752; -124.600; -626.000; -551.000
205.898; -125.700; -501.000; -391.000
206.043; -129.500; -578.000; -506.000
206.189;  -98.500; -243.000; -285.000
206.334;  142.600;  554.000;  606.000
206.480;  171.200;  409.000;  239.000
206.625; -181.900; -529.000; -552.000
206.771;  -97.400; -451.000; -373.000
206.916;  -34.200; -210.000; -537.000
207.062; -153.900; -545.000; -591.000
207.207; -115.800; -546.000; -443.000
207.353;  100.100;  185.000;  460.000
207.498;   41.200;  196.000;   85.000
207.643;  -96.200; -501.000; -370.000
207.789; -268.100;-1069.000; -910.000
207.934; -217.900; -665.000; -713.000
208.080;  -64.900; -154.000;   66.000
208.225;   22.000;  -22.000;  -57.000
208.370; -190.400; -727.000; -619.000
208.516; -142.800; -741.000; -487.000
208.661;  -60.100; -127.000;  -69.000
208.806;  -29.800; -165.000; -171.000
208.952; -257.700;-1044.000; -731.000
209.097;  166.200;  378.000;  349.000
209.242; -110.000; -307.000; -382.000
209.387;  100.500;  392.000;  350.000
209.533;  -80.300; -321.000; -350.000
209.678;  197.100;  472.000;  543.000
209.823; -106.600; -408.000; -310.000
209.969; -210.400; -860.000; -757.000
210.114; -233.600; -907.000; -719.000
210.259; -257.200; -939.000; -889.000
210.404;  -16.400; -171.000;  103.000
210.549;   33.900;  108.000;    3.000
210.695;  -26.300;   -3.000;  -95.000
210.840;   60.000;   94.000;   67.000
210.985; -119.800; -484.000; -303.000
211.130;  169.900;  268.000;  406.000
211.275;   62.100;  207.000;  199.000
211.420;  -97.500; -300.000; -289.000
211.566; -129.700; -536.000; -489.000
211.711;   40.900;  218.000;  157.000
211.856; -135.300; -545.000; -519.000
212.001;   20.400;  151.000;   44.000
212.146;   22.300;  153.000;   49.000
212.291;  -67.700; -210.000; -186.000
212.436;  -42.200; -280.000;   -6.000
212.581; -163.000; -685.000; -653.000
212.726; -130.100; -487.000; -538.000
212.871; -101.100; -552.000; -217.000
213.016; -305.300;-1172.000;-1029.000
213.161;  153.100;  406.000;  291.000
213.306; -133.300; -435.000; -577.000
213.451; -220.600; -778.000; -689.000
213.596;  -85.400; -455.000; -347.000
213.741;  -91.100; -448.000; -538.000
213.886; -139.900; -498.000; -517.000
214.031;  -33.000; -294.000; -124.000
214.176; -103.500; -408.000; -341.000
214.321;  -48.800; -296.000; -157.000
214.466;  -67.100; -163.000;  -43.000
214.611;    4.300;  -61.000;  -10.000
214.756; -273.200; -948.000; -858.000
214.901;  -31.800; -388.000; -226.000
215.046; -236.600; -797.000; -825.000
215.191;   53.900;  128.000;   35.000
215.336;  -24.000; -157.000;  -19.000
215.480; -103.000; -684.000; -505.000
215.625;   -9.600; -175.000;  -19.000
215.770; -167.900; -757.000; -662.000
215.915;  -17.000;   -5.000;  -97.000
216.060;   -3.500; -113.000;  -21.000
216.205; -227.100; -731.000; -779.000
216.349; -120.400; -470.000; -533.000
216.494; -287.000; -939.000; -867.000
216.639; -232.900; -823.000; -888.000
216.784; -176.100; -577.000; -525.000
216.929;   99.000;  392.000;  281.000
217.073;   42.100; -244.000;  -31.000
217.218;   32.200;   78.000;  -47.000
217.363; -144.200; -656.000; -618.000
217.507; -150.300; -623.000; -588.000
217.652; -240.100; -845.000; -874.000
217.797; -189.200; -708.000; -659.000
217.942; -228.800; -856.000; -720.000
218.086;  169.900;  608.000;  539.000
218.231;  -48.500; -174.000;  -26.000
218.376;  -76.700; -337.000; -229.000
218.520;   36.600;  -41.000;   96.000
218.665;  -46.400; -338.000; -204.000
218.810;  -76.500; -275.000; -233.000
218.954;   35.100;  201.000;   35.000
219.099; -224.400; -713.000; -963.000
219.243; -137.300; -589.000; -554.000
219.388;  -68.000; -264.000; -136.000
219.532;  -13.000; -116.000; -116.000
219.677; -129.300; -564.000; -521.000
219.822;   37.000;   33.000;   89.000
219.966;   27.900;   17.000;  -99.000
220.111;  -59.200; -328.000;  -40.000
220.255; -181.200; -797.000; -750.000
220.400;   -1.700; -180.000; -146.000
220.544; -174.400; -516.000; -450.000
220.689;  -79.400; -422.000; -451.000
220.833;  -52.300; -123.000;  -58.000
220.978;  -67.800; -393.000; -563.000
221.122;   61.100;  319.000;  307.000
221.267; -222.400; -906.000; -837.000
221.411; -130.500; -478.000; -394.000
221.555;  -22.300; -104.000;  -23.000
221.700;  -80.700; -329.000; -222.000
221.844;  114.100;  255.000;  272.000
221.989; -103.000; -328.000; -311.000
222.133;  -50.500; -289.000; -307.000
222.277;   -7.800;    5.000;   78.000
222.422;   57.400;  227.000;  113.000
222.566;  -80.900; -381.000; -214.000
222.711; -111.800; -414.000; -479.000
222.855; -180.600; -643.000; -586.000
222.999; -174.200; -642.000; -717.000
223.144;  -50.500; -195.000; -194.000
223.288;  120.500;  423.000;  251.000
223.432;   23.400;  184.000;  230.000
223.576;   50.600;  152.000;  -21.000
223.721;  109.600;  364.000;  273.000
223.865; -115.000; -472.000; -475.000
224.009;  482.600; 1673.000; 1631.000
224.153; -156.800; -660.000; -671.000
224.298; -105.900; -531.000; -489.000
224.442;  -41.300;  -74.000;  -33.000
224.586;  -33.300; -169.000; -106.000
224.730; -222.400; -858.000; -670.000
224.875; -222.900; -739.000; -688.000
225.019;   43.800;  102.000;  188.000
225.163;  128.100;  208.000;  341.000
225.307;   55.600;   97.000;  -91.000
225.451;  127.500;  360.000;  481.000
225.595;   79.400;  264.000;  176.000
225.739;  -36.400; -170.000;  -94.000
225.884;   40.600;   86.000;    5.000
226.028; -179.400; -760.000; -626.000
226.172;  -56.700; -260.000; -273.000
226.316; -232.300; -941.000; -902.000
226.460; -136.700; -645.000; -493.000
226.604; -113.200; -406.000; -400.000
226.748; -202.300; -836.000; -733.000
226.892;  -49.100; -227.000; -181.000
227.036; -107.600; -537.000; -447.000
227.180; -103.400; -551.000; -375.000
227.324; -124.000; -561.000; -580.000
227.468; -227.700; -819.000; -717.000
227.612;   48.900;  242.000;  -28.000
227.756; -207.900; -845.000; -698.000
227.900;  129.300;  342.000;  441.000
228.044; -103.600; -509.000; -290.000
228.188;  142.700;  448.000;  568.000
228.332; -185.500; -546.000; -472.000
228.476;  -45.700; -223.000; -149.000
228.620;  -70.500; -210.000; -150.000
228.764;  174.500;  431.000;  349.000
228.908;  -11.800; -155.000;   30.000
229.052; -108.100; -615.000; -528.000
229.195;  -17.400; -172.000;   13.000
229.339;  -66.700; -235.000; -305.000
229.483;  -33.300;    5.000; -162.000
229.627;    0.500; -156.000;  139.000
229.771;  -72.700; -218.000; -294.000
229.915;   46.600;  230.000;   79.000
230.059; -192.400; -648.000; -663.000
230.202;  -62.800; -370.000; -317.000
230.346;  -37.500; -107.000;  107.000
230.490; -136.500; -489.000; -521.000
230.634; -210.300; -736.000; -553.000
230.777;  161.500;  478.000;  509.000
230.921;  -74.900; -450.000; -359.000
231.065;  -75.000; -246.000; -286.000
231.209;   66.300;  261.000;  265.000
231.352;   48.200;   54.000;   40.000
231.496;   74.600;  568.000;  188.000
231.640; -148.100; -693.000; -621.000
231.783;  180.200;  546.000;  525.000
231.927;  -89.600; -294.000; -365.000
232.071; -254.500; -962.000; -736.000
232.214; -229.600; -980.000; -764.000
232.358; -225.900; -683.000; -599.000
232.502;   41.700;  -19.000;    7.000
232.645; -260.800;-1090.000; -927.000
232.789;  -27.300; -257.000; -218.000
232.933;  -79.000; -407.000; -224.000
233.076; -253.100;-1038.000; -897.000
233.220; -240.500; -752.000; -777.000
233.363; -164.900; -669.000; -477.000
233.507;  118.700;  371.000;  129.000
233.650; -157.500; -764.000; -834.000
233.794;  117.100;  438.000;  461.000
233.938; -125.000; -530.000; -362.000
234.081;  -13.800;  -93.000;   31.000
234.225; -140.300; -631.000; -539.000
234.368; -242.600; -773.000; -723.000
234.512;  -59.100; -385.000; -299.000
234.655; -184.200; -582.000; -555.000
234.798; -122.600; -493.000; -466.000
234.942; -267.000; -884.000;-1002.000
235.085; -140.600; -651.000; -443.000
235.229; -135.200; -405.000; -410.000
235.372;  -82.800; -247.000; -191.000
235.516; -123.900; -397.000; -321.000
235.659;   89.200;   92.000;  121.000
235.802;  -10.000;  -38.000;  -22.000
235.946;   62.400;  335.000;  215.000
236.089;  104.900;  126.000;  250.000
236.233;  116.500;  275.000;  298.000
236.376;  -67.400; -235.000; -378.000
236.519;  -85.100; -297.000; -319.000
236.663;  -45.400; -215.000; -117.000
236.806; -267.600;-1029.000; -999.000
236.949;  146.200;  543.000;  431.000
237.092;  136.700;  412.000;  391.000
237.236; -153.500; -589.000; -502.000
237.379;  143.800;  352.000;  428.000
237.522; -240.400; -879.000; -768.000
237.666;   -1.100; -271.000;   18.000
237.809; -261.500; -851.000; -823.000
237.952;   82.800;  469.000;  271.000
238.095; -131.500; -447.000; -442.000
238.238;  209.600;  688.000;  700.000
238.382;   24.600;  166.000;  103.000
238.525; -135.600; -598.000; -511.000
238.668; -262.500;-1060.000; -985.000
238.811; -146.400; -638.000; -643.000
238.954;  -88.200; -483.000; -334.000
239.097;  196.900;  617.000;  664.000
239.241;   48.300;  394.000;  326.000
239.384;  -65.700; -254.000; -214.000
239.527; -123.200; -424.000; -224.000
239.670; -283.000; -994.000;-1091.000
239.813; -228.500; -696.000; -658.000
239.956;  207.600;  579.000;  473.000
240.099; -217.100; -778.000; -725.000
240.242;  155.500;  428.000;  432.000
240.385;  113.700;  466.000;  450.000
240.528; -142.600; -706.000; -473.000
240.671;   54.700;  189.000;  134.000
240.814;  -77.400; -441.000; -158.000
240.957; -189.900; -767.000; -578.000
241.100; -179.600; -779.000; -755.000
241.243; -299.600;-1234.000; -893.000
241.386; -149.700; -508.000; -379.000
241.529; -188.200; -735.000; -547.000
241.672; -134.100; -566.000; -495.000
241.815; -257.700; -832.000; -808.000
241.958;  -76.400; -125.000; -182.000
242.101; -169.200; -545.000; -390.000
242.244;  -50.200; -270.000; -325.000
242.387;  -66.100; -304.000; -246.000
242.530;  161.900;  470.000;  134.000
242.673;  -73.300; -381.000; -309.000
242.815; -242.500; -925.000; -899.000
242.958; -122.800; -482.000; -381.000
243.101;   41.800;  132.000;  187.000
243.244; -163.300; -564.000; -521.000
243.387;  -80.200; -313.000; -316.000
243.530; -223.300; -657.000; -674.000
243.672;   10.700;   43.000;  -92.000
243.815;  -82.000; -355.000; -283.000
243.958;   26.700;   98.000;  -26.000
244.101;   33.100;   59.000;  -16.000
244.243;    2.500;  -47.000;  101.000
244.386; -232.200; -761.000; -630.000
244.529;  -59.200; -132.000; -139.000
244.672; -295.400;-1154.000; -951.000
244.814; -218.100; -621.000; -794.000
244.957; -109.800; -380.000; -304.000
245.100; -147.400; -489.000; -489.000
245.242; -126.300; -387.000; -374.000
245.385;    7.900;  -59.000;  -39.000
245.528; -218.100; -871.000; -705.000
245.670;  223.100;  612.000;  634.000
245.813; -152.500; -599.000; -547.000
245.956;  -42.400; -324.000; -275.000
246.098; -137.100; -508.000; -650.000
246.241;   20.900;  194.000;   48.000
246.383;  -24.000; -119.000;  -73.000
246.526; -165.800; -454.000; -525.000
246.669; -239.500; -889.000; -780.000
246.811;   43.800;  172.000;   -1.000
246.954; -132.600; -512.000; -426.000
247.096;    5.800;  -84.000;   -6.000
247.239; -126.000; -482.000; -445.000
247.381; -116.100; -647.000; -488.000
247.524;  193.100;  645.000;  679.000
247.666;    8.300;   58.000;   11.000
247.809; -223.900; -887.000; -691.000
247.951;  -11.700;  -75.000;  138.000
248.094;   92.800;  432.000;  308.000
248.236; -322.400;-1262.000;-1238.000
248.378;   30.000; -356.000;  -81.000
248.521;  -33.100; -334.000; -337.000
248.663;  -36.700; -236.000; -267.000
248.806;  -62.800; -300.000; -266.000
248.948; -216.600; -886.000; -763.000
249.090;  -82.300; -428.000; -398.000
249.233; -104.000; -344.000; -381.000
249.375; -129.800; -474.000; -451.000
249.518;  -32.400;  -83.000; -133.000
249.660;   -5.700; -103.000;    3.000
249.802; -354.000;-1303.000;-1189.000
249.945; -140.200; -612.000; -540.000
250.087; -225.200; -834.000; -768.000
250.229;  -90.300; -362.000; -480.000
250.371; -129.800; -494.000; -439.000
250.514; -109.700; -310.000; -244.000
250.656;    2.100;   69.000;  102.000
250.798; -235.300; -849.000; -800.000
250.940; -125.400; -322.000; -322.000
251.083;  -56.400; -335.000; -111.000
251.225;  127.900;  338.000;  310.000
251.367;  -87.700; -274.000; -373.000
251.509;  -15.100; -265.000; -210.000
251.651; -197.500; -731.000; -671.000
251.794;  144.300;  538.000;  632.000
251.936; -193.800; -821.000; -747.000
252.078; -120.700; -540.000; -461.000
252.220; -140.400; -645.000; -477.000
252.362;  180.400;  344.000;  462.000
252.504; -173.200; -677.000; -584.000
252.646; -202.700; -875.000; -722.000
252.788;   22.500;   14.000; -128.000
252.931;  -69.200; -257.000; -253.000
253.073;  -70.200; -376.000; -317.000
253.215;    7.900;  141.000;  122.000
253.357;   -1.700;   82.000; -153.000
253.499; -100.800; -374.000; -234.000
253.641; -146.100; -749.000; -594.000
253.783; -178.600; -609.000; -527.000
253.925; -159.700; -586.000; -591.000
254.067; -194.700; -744.000; -667.000
254.209;  -31.900; -391.000; -259.000
254.351; -273.800; -865.000; -883.000
254.493; -105.700; -441.000; -417.000
254.635; -206.700; -936.000; -818.000
254.777; -188.200; -752.000; -687.000
254.918; -146.400; -512.000; -430.000
255.060;  -98.100; -551.000; -395.000
255.202;  -95.600; -473.000; -261.000
255.344; -142.300; -658.000; -455.000
255.486; -129.200; -471.000; -406.000
255.628; -226.100; -780.000; -781.000
255.770; -187.700; -676.000; -536.000
255.912; -106.900; -559.000; -468.000
256.053; -184.400; -730.000; -508.000
256.195;  355.700; 1008.000;  903.000
256.337; -163.800; -861.000; -595.000
256.479;  176.100;  532.000;  416.000
256.621;  -62.200; -394.000; -212.000
256.762; -179.200; -789.000; -742.000
256.904;  113.100;  485.000;  487.000
257.046;  -78.100; -381.000; -271.000
257.188;  -49.400; -351.000; -264.000
257.329; -108.700; -525.000; -464.000
257.471; -223.700; -939.000; -807.000
257.613;  -98.400; -584.000; -498.000
257.755; -292.400;-1073.000; -982.000
257.896;   96.200;  286.000;  392.000
258.038; -142.900; -403.000; -352.000
258.180;  -83.600; -354.000; -279.000
258.321; -118.600; -581.000; -457.000
258.463;   30.300;  -71.000;  133.000
258.605; -165.100; -562.000; -570.000
258.746; -200.100; -886.000; -772.000
258.888; -271.200;-1026.000;-1020.000
259.029;   43.500;  121.000;   -8.000
259.171; -183.500; -614.000; -550.000
259.313;   -2.800;  -49.000;  -47.000
259.454; -139.900; -536.000; -414.000
259.596; -113.900; -483.000; -390.000
259.737; -134.300; -590.000; -474.000
259.879;  118.000;  217.000;  311.000
260.020;  201.600;  901.000;  636.000
260.162;  -52.300; -146.000; -253.000
260.303; -224.200; -768.000; -687.000
260.445; -136.600; -609.000; -613.000
260.586;   78.200;  392.000;  157.000
260.728;  -94.400; -360.000; -248.000
260.869;  -98.900; -350.000; -343.000
261.011;  195.700;  706.000;  537.000
261.152; -117.900; -479.000; -319.000
261.293; -140.600; -576.000; -595.000
261.435;  -49.400; -219.000; -184.000
261.576; -100.600; -455.000; -325.000
261.718;  115.900;  420.000;  470.000
261.859; -224.700; -940.000; -949.000
262.000; -250.700; -951.000;-1016.000
262.142;  -12.200;  -52.000;  -60.000
262.283; -218.400; -808.000; -691.000
262.424; -194.600; -666.000; -625.000
262.566; -323.800;-1161.000; -983.000
262.707; -228.200; -840.000; -830.000
262.848; -211.900; -769.000; -726.000
262.990;  -79.100; -362.000; -345.000
263.131;  210.700;  650.000;  681.000
263.272;   16.600;  -61.000;  -41.000
263.413; -170.000; -589.000; -561.000
263.555; -134.800; -669.000; -143.000
263.696; -148.100; -550.000; -641.000
263.837;  -89.600; -449.000; -551.000
263.978;   28.700;   -5.000;  -77.000
264.119;  -37.900; -283.000; -264.000
264.261; -202.300; -847.000; -630.000
264.402;   53.900;   33.000;   40.000
264.543; -135.900; -509.000; -524.000
264.684;   19.900;   61.000;  -50.000
264.825; -139.900; -816.000; -538.000
264.966;   18.900;  -84.000;  -67.000
265.107; -228.500; -646.000; -670.000
265.248; -242.700; -825.000; -812.000
265.390;    2.700;  152.000;   -9.000
265.531;    0.900; -238.000; -107.000
265.672; -150.000; -557.000; -630.000
265.813;  125.200;  563.000;  439.000
265.954; -304.700; -959.000; -940.000
266.095;   -4.700; -372.000; -322.000
266.236; -188.300; -686.000; -548.000
266.377;  -68.300; -243.000; -297.000
266.518; -119.700; -619.000; -547.000
266.659;   86.300;  170.000;  268.000
266.800;   43.300;   83.000;   85.000
266.941; -130.800; -487.000; -478.000
267.082;   39.100;  354.000;   99.000
267.223; -120.600; -344.000; -273.000
267.364; -234.500; -892.000; -686.000
267.504;  -20.400;    3.000;  135.000
267.645;   15.200;  160.000;   67.000
267.786;  -43.200; -147.000;  -86.000
267.927; -110.200; -473.000; -379.000
268.068;  -15.600; -186.000;  -61.000
268.209;  -89.000; -175.000; -413.000
268.350;  -89.600; -388.000; -532.000
268.490; -132.800; -648.000; -521.000
268.631;   89.200;  127.000;  225.000
268.772; -218.700; -874.000; -647.000
268.913; -118.100; -328.000; -476.000
269.054;   -7.800; -117.000;   12.000
269.194; -103.100; -418.000; -402.000
269.335; -304.900;-1137.000;-1074.000
269.476;   11.200;   33.000;  -35.000
269.617;  -72.400; -347.000; -392.000
269.757; -178.800; -713.000; -646.000
269.898; -205.400; -856.000; -613.000
270.039; -116.900; -415.000; -405.000
270.180; -262.200; -952.000; -816.000
270.320;   -7.300; -190.000; -250.000
270.461;  -63.900; -277.000; -249.000
270.602;  -42.900; -186.000; -156.000
270.742; -245.600; -868.000; -943.000
270.883;  -82.300; -442.000; -390.000
271.023; -110.000; -358.000; -357.000
271.164; -112.000; -607.000; -528.000
271.305; -184.600; -666.000; -654.000
271.445; -179.600; -722.000; -683.000
271.586; -115.800; -462.000; -283.000
271.726;  -78.800; -397.000; -322.000
271.867; -113.700; -594.000; -534.000
272.008;  268.500; -473.000; -285.000
272.148;  238.600;  462.000;  468.000
272.289;   19.200; -113.000; -181.000
272.429;   56.600;   19.000;  185.000
272.570; -175.800; -633.000; -737.000
272.710; -163.300; -825.000; -775.000
272.851;   -5.700;  113.000; -130.000
272.991; -315.600;-1173.000;-1077.000
273.131; -106.700; -419.000; -459.000
273.272; -164.600; -683.000; -723.000
273.412;   19.500; -143.000;  -31.000
273.553; -108.800; -488.000; -507.000
273.693;  308.700;  913.000;  858.000
273.834; -189.900; -894.000; -692.000
273.974; -126.400; -664.000; -615.000
274.114; -164.100; -772.000; -560.000
274.255;  149.600;  414.000;  373.000
274.395;    4.900; -180.000; -125.000
274.535;   92.800;  199.000;  350.000
274.676;   88.000;  225.000;   94.000
274.816;   42.000;  110.000;   34.000
274.956; -156.900; -624.000; -690.000
275.097; -129.900;-1014.000; -922.000
275.237; -203.200; -913.000; -803.000
275.377; -205.700; -778.000; -689.000
275.517; -292.500; -878.000; -937.000
275.658;  -94.400; -590.000; -555.000
275.798; -156.300; -606.000; -413.000
275.938;   49.100;  215.000;  323.000
276.078; -161.600; -626.000; -395.000
276.218;   32.000;   99.000;  104.000
276.359; -253.500;-1026.000;-1024.000
276.499; -148.500; -605.000; -446.000
276.639;  -64.500; -305.000; -151.000
276.779; -107.500; -475.000; -357.000
276.919; -211.000; -783.000; -624.000
277.059;   -8.600; -261.000; -212.000
277.199;  -62.600; -357.000; -259.000
277.340;  123.500;  287.000;  175.000
277.480; -210.100; -840.000; -693.000
277.620;  107.300;  192.000;   16.000
277.760; -416.000;-1533.000;-1294.000
277.900;   53.700;  113.000;   33.000
278.040;   56.900;  137.000;  159.000
278.180;  114.900;  270.000;  170.000
278.320;   43.800;   21.000;   56.000
278.460; -123.000; -443.000; -469.000
278.600; -184.800; -708.000; -598.000
278.740;  165.800;  448.000;  224.000
278.880; -124.400; -768.000; -791.000
279.020;   59.400; -194.000; -144.000
279.160; -149.200; -672.000; -595.000
279.300; -209.500; -926.000; -873.000
279.440; -177.200; -709.000; -622.000
279.579;  -68.300;-1014.000; -929.000
279.719;  -83.900; -410.000; -394.000
279.859;  157.800;   -4.000;   41.000
279.999;   65.700; -208.000;  101.000
280.139;  -22.100; -435.000; -387.000
280.279; -145.500; -708.000; -745.000
280.419;    1.100; -229.000; -147.000
280.559;  -52.300; -259.000; -180.000
280.698; -152.700; -790.000; -639.000
280.838; -174.500; -778.000; -800.000
280.978; -166.400; -846.000; -790.000
281.118; -205.200; -811.000; -704.000
281.257;   51.700;   24.000;    6.000
281.397; -235.500;-1094.000; -960.000
281.537; -137.700; -599.000; -712.000
281.677;  -20.500; -150.000; -101.000
281.816; -182.600; -700.000; -630.000
281.956;  -30.000; -193.000; -257.000
282.096;  -86.600; -539.000; -396.000
282.235; -182.600; -672.000; -638.000
282.375;  -19.700; -243.000;  -98.000
282.515; -187.000; -715.000; -707.000
282.654;  107.100;   29.000;  106.000
282.794;  103.600;  388.000;  244.000
282.934;  -92.600; -530.000; -491.000
283.073; -264.200;-1030.000; -857.000
283.213;  -75.400; -460.000; -467.000
283.353;  -31.500; -408.000; -349.000
283.492;  -61.000; -264.000; -296.000
283.632;  -74.800; -254.000; -168.000
283.771; -188.600; -859.000; -730.000
283.911; -102.600; -369.000; -260.000
284.050; -208.300; -794.000; -748.000
284.190; -299.700;-1229.000;-1096.000
284.329; -257.000;-1055.000; -964.000
284.469; -111.300; -516.000; -591.000
284.608;  -82.300; -559.000; -598.000
284.748; -144.600; -614.000; -570.000
284.887;   11.500;  -87.000;  -20.000
285.027; -198.100; -844.000; -892.000
285.166;  -38.300; -192.000; -249.000
285.306;   74.800; -116.000;  -33.000
285.445;  -40.300; -229.000; -343.000
285.584; -176.600; -630.000; -494.000
285.724;  -69.300; -282.000; -322.000
285.863; -201.900; -857.000; -507.000
286.002;  -82.000; -366.000; -276.000
286.142; -204.700; -715.000; -622.000
286.281; -118.600; -525.000; -493.000
286.420; -133.500; -554.000; -417.000
286.560;  220.800;  653.000;  623.000
286.699; -260.200; -958.000; -912.000
286.838; -144.100; -590.000; -591.000
286.978; -176.400; -533.000; -537.000
287.117; -240.900;-1085.000; -950.000
287.256;   -5.100; -228.000; -211.000
287.395;  -63.600; -197.000; -378.000
287.535;  -85.400; -370.000; -298.000
287.674; -145.400; -509.000; -484.000
287.813;  132.400;  661.000;  533.000
287.952; -251.400;-1010.000; -871.000
288.091; -252.400;-1049.000; -915.000
288.231;   68.900;   13.000;   15.000
288.370; -351.300;-1217.000;-1200.000
288.509; -138.600; -728.000; -645.000
288.648; -184.500; -770.000; -548.000
288.787;  -40.300; -243.000;  -87.000
288.926;  -99.400; -454.000; -475.000
289.065;  260.000;  859.000;  672.000
289.204;  -91.000; -377.000; -217.000
289.344; -175.100; -791.000; -690.000
289.483;   96.300;  416.000;  304.000
289.622;  -34.700; -291.000; -149.000
289.761;   -1.400; -309.000; -166.000
289.900; -240.800; -785.000; -626.000
290.039;   -4.200;  -12.000;  -95.000
290.178;  -41.100; -274.000; -180.000
290.317; -139.400; -618.000; -479.000
290.456; -111.200; -463.000; -451.000
290.595; -275.900; -961.000; -833.000
290.734; -251.700; -904.000; -891.000
290.873; -125.400; -456.000; -420.000
291.011; -174.400; -833.000; -843.000
291.150; -192.200; -770.000; -682.000
291.289;  -12.300; -343.000; -110.000
291.428; -188.900; -599.000; -480.000
291.567; -123.200; -370.000; -442.000
291.706;   39.200;  109.000;  154.000
291.845; -140.800; -597.000; -505.000
291.984; -338.800;-1234.000;-1061.000
292.122;  163.900;  602.000;  582.000
292.261;  151.900;  620.000;  463.000
292.400;   78.500; -144.000;  211.000
292.539; -213.300; -959.000; -813.000
292.678;  -50.100; -325.000; -300.000
292.816; -280.500;-1136.000; -965.000
292.955; -163.900; -844.000; -684.000
293.094;  -16.900; -173.000; -337.000
293.233; -109.700; -556.000; -400.000
293.371;  -25.000; -225.000;  -84.000
293.510; -204.800; -866.000; -780.000
293.649; -236.400; -959.000; -924.000
293.787; -123.700;-1083.000;-1012.000
293.926;   28.800; -113.000;  -32.000
294.065;  -47.500; -379.000; -290.000
294.203;  130.500;  298.000;  406.000
294.342;   37.100;   74.000;  156.000
294.481;12090.300;51180.000; -836.000
294.619;  -29.000; -425.000; -582.000
294.758; -261.900;-1230.000;-1137.000
294.896;  164.100; -125.000;    5.000
295.035; -221.400;-1040.000;-1006.000
295.174; -244.100;-1082.000; -954.000
295.312;  -45.300; -323.000; -203.000
295.451;  -25.500; -307.000; -428.000
295.589;  -81.000; -389.000; -518.000
295.728;   93.400; -292.000; -165.000
295.866;   34.600;  -36.000;  -51.000
296.005; -134.400; -584.000; -341.000
296.143; -112.200; -558.000; -596.000
296.282; -180.400; -957.000; -881.000
296.420; -158.700; -657.000; -557.000
296.559; -140.500; -892.000; -633.000
296.697;   19.300; -847.000; -665.000
296.835;   92.100;-1141.000;-1002.000
296.974;  113.200;  -23.000;   39.000
297.112;   56.300; -443.000; -504.000
297.251; -134.800; -815.000; -755.000
297.389;  162.100; -576.000; -438.000
297.527;  133.600; -145.000;  -83.000
297.666;  -95.100; -486.000; -438.000
297.804;  -88.800; -404.000; -264.000
297.942;   33.600; -136.000; -161.000
298.081;   34.800; -183.000;   63.000
298.219;  143.200;  -17.000;  -19.000
298.357;  120.800; -144.000;  -71.000
298.495;   60.900; -810.000; -812.000
298.634;  138.900;  245.000;  219.000
298.772;  125.300; -220.000; -338.000
298.910;  -60.500; -309.000; -182.000
299.048;   -2.400; -130.000; -153.000
299.187;  -59.200; -350.000; -250.000
299.325;   72.200;   52.000;  122.000
299.463;   73.300; -389.000; -299.000
299.601;  224.300; -327.000; -271.000
299.739; -211.100; -908.000; -883.000
299.877; -139.200; -791.000; -703.000
300.016; -125.900;-1095.000; -935.000
300.154;  300.200;  -19.000; -161.000
300.292;   87.300; -428.000; -348.000
300.430;   50.900; -408.000; -291.000
300.568; -200.100; -940.000; -874.000
300.706;  -84.100; -366.000; -469.000
300.844; -193.300;-1108.000; -979.000
300.982;  276.600;  246.000;  282.000
301.120; -187.700; -965.000; -866.000
301.258; -138.400; -812.000; -705.000
301.396;   87.200;  104.000;  -41.000
301.534;  135.300; -218.000; -293.000
301.672;   -6.500; -664.000; -521.000
301.810;   42.700; -613.000; -545.000
301.948;  318.400;   53.000;  149.000
302.086; 1062.700; -250.000;  -32.000
302.224; 1683.300; -610.000; -585.000
302.362;  108.700; -558.000; -622.000
302.500;  -10.100; -923.000; -893.000
302.638;  235.300;  128.000;  245.000
302.776;   29.300; -352.000; -408.000
302.913;  106.100;  447.000;  236.000
303.051;   28.400;  -86.000;  -23.000
303.189;  150.500;   90.000;  118.000
303.327;  -24.100; -341.000; -256.000
303.465; -128.200; -832.000; -588.000
303.603; -182.100; -805.000; -604.000
303.740;  204.000;  417.000;  241.000
303.878;   17.200; -800.000; -759.000
304.016; -173.500; -915.000; -790.000
304.154; -273.200;-1123.000;-1152.000
304.291;  -40.500; -505.000; -554.000
304.429;   57.600;  102.000;   74.000
304.567; -241.200; -908.000; -893.000
304.705;  -84.700; -408.000; -515.000
304.842;  212.300; -616.000; -540.000
304.980;  135.900;  215.000;   35.000
305.118;   79.000; -367.000; -365.000
305.255; -137.400; -945.000; -927.000
305.393;  129.100;  178.000;  239.000
305.531; -184.200;-1173.000; -956.000
305.668; -110.600; -663.000; -582.000
305.806;  242.600; -358.000; -439.000
305.943;  194.600; -629.000; -637.000
306.081;  125.900; -378.000; -267.000
306.219; -176.400; -863.000; -748.000
306.356;   45.200;  158.000;   27.000
306.494;  264.200;  981.000;  761.000
306.631;   49.200;  -11.000;  -55.000
306.769;   29.700; -613.000; -485.000
306.906;    9.200; -284.000; -258.000
307.044;  -79.000; -473.000; -488.000
307.181;  -59.200; -410.000; -332.000
307.319;   76.300;  112.000;   87.000
307.456; -326.900;-1191.000;-1153.000
307.594; -175.800; -980.000; -727.000
307.731;   26.600; -371.000; -164.000
307.868;   47.500;  -15.000;   20.000
308.006; -219.700; -961.000; -847.000
308.143;  -94.100; -618.000; -330.000
308.281;  426.300;  -37.000; -254.000
308.418;   38.200; -748.000; -640.000
308.555;  -98.400; -400.000; -250.000
308.693; -133.000; -577.000; -573.000
308.830; -203.100; -712.000; -657.000
308.967;    7.200; -215.000;  -95.000
309.105;  -42.300; -507.000; -396.000
309.242;   96.800; -468.000; -367.000
309.379;  851.000; -577.000; -655.000
309.517;  -47.900; -936.000; -948.000
309.654; -170.600; -910.000; -734.000
309.791; -112.700; -662.000; -580.000
309.928; -208.000; -977.000; -914.000
310.065;  357.200;  819.000;  697.000
310.203;   12.100; -825.000; -850.000
310.340;   11.300; -465.000; -321.000
310.477; -130.700; -412.000; -516.000
310.614; -120.000; -383.000; -473.000
310.751; -117.700; -427.000; -518.000
310.889;  -14.200;    1.000;   11.000
311.026; -283.100;-1161.000; -939.000
311.163;  -48.500; -386.000; -380.000
311.300; -130.800; -512.000; -479.000
311.437; -106.300; -658.000; -619.000
311.574; -270.100;-1226.000; -985.000
311.711;  -72.300; -595.000; -433.000
311.848;  -32.300; -380.000; -388.000
311.985;   42.800;  270.000;   93.000
312.122; -196.300; -932.000; -762.000
312.259; -229.300; -941.000; -994.000
312.396; -127.800; -508.000; -551.000
312.533; -164.400; -812.000; -790.000
312.670; -222.400;-1070.000; -898.000
312.807;  -39.700; -352.000; -367.000
312.944; -133.300; -513.000; -611.000
313.081;  -14.000; -150.000; -415.000
313.218; -188.200;-1111.000; -867.000
313.355;   53.900; -531.000; -449.000
313.492;   57.500; -455.000; -292.000
313.629;  308.700;  815.000;  735.000
313.766; -279.800;-1176.000;-1008.000
313.902;    5.900; -186.000;   21.000
314.039;  -80.900; -372.000; -289.000
314.176;   98.200;  286.000;  192.000
314.313; -112.800; -569.000; -473.000
314.450; -117.400; -788.000; -684.000
314.587;  -79.800; -468.000; -480.000
314.723;   46.500;  -78.000;  130.000
314.860;  100.400;  318.000;  332.000
314.997;  115.900;  223.000;  142.000
315.134;  -11.200; -385.000; -368.000
315.270;  -26.200; -480.000; -496.000
315.407; -242.000;-1094.000; -967.000
315.544;  -78.300; -657.000; -538.000
315.681; -103.900; -681.000; -565.000
315.817;   98.100; -133.000; -176.000
315.954;   76.300; -613.000; -392.000
316.091; -235.200;-1045.000;-1023.000
316.227;  -15.500;  -71.000; -179.000
316.364;   42.600;   23.000;    6.000
316.500;  -39.500; -113.000; -300.000
316.637;  -38.900; -181.000; -302.000
316.774; -132.900; -625.000; -358.000
316.910; -174.600; -598.000; -629.000
317.047; -107.400; -487.000; -351.000
317.183; -101.000; -435.000; -566.000
317.320;   11.300; -367.000; -321.000
317.456; -106.100; -733.000; -805.000
317.593; -153.200; -598.000; -641.000
317.729;   53.900;  168.000;  -67.000
317.866; -393.000;-1434.000;-1285.000
318.002; -146.900; -708.000; -948.000
318.139; -178.300; -883.000; -867.000
318.275; -183.600;-1003.000; -738.000
318.412;  -89.300; -517.000; -336.000
318.548;  -31.100; -751.000; -720.000
318.685; -195.900; -985.000; -888.000
318.821; -187.900; -762.000; -735.000
318.957;   -2.000;   34.000;  -23.000
319.094;  125.700;  297.000;  154.000
319.230;  -93.000; -756.000; -742.000
319.367;  231.700; -471.000; -520.000
319.503;  130.100; -538.000; -436.000
319.639; -172.800; -877.000; -793.000
319.775; -105.300; -750.000; -685.000
319.912;  -84.900; -424.000; -519.000
320.048; -169.900;-1184.000;-1184.000
320.184;  185.900;   59.000;   70.000
320.321; -103.300; -497.000; -467.000
320.457;  203.300;  475.000;  662.000
320.593;  -93.000; -375.000; -382.000
320.729; -175.600; -732.000; -734.000
320.866; -106.300; -577.000; -635.000
321.002; -115.500; -759.000; -809.000
321.138;   13.800; -135.000; -211.000
321.274;  168.200; -148.000; -115.000
321.410;  -22.400; -585.000; -353.000
321.546;  -54.600;-1011.000; -911.000
321.683;  122.900;  400.000;  185.000
321.819;   47.800;  -48.000; -117.000
321.955; -197.900; -743.000; -722.000
322.091;  -55.800; -585.000; -540.000
322.227;   20.900; -382.000; -202.000
322.363;  -34.500; -320.000; -215.000
322.499;  -50.400; -343.000; -331.000
322.635;  378.000;  636.000;  443.000
322.771;   97.200; -139.000;   12.000
322.907;  222.200;  129.000;  327.000
323.043;   15.900; -115.000; -206.000
323.179;  -43.600; -394.000; -363.000
323.315;   46.600; -401.000; -371.000
323.451;  228.400; -328.000; -236.000
323.587;  181.100;  -60.000;  -77.000
323.723;   34.500; -682.000; -601.000
323.859;  -34.000; -258.000;  -76.000
323.995;  -25.500; -467.000; -409.000
324.131; -218.400; -967.000; -892.000
324.267;  -35.100; -254.000; -276.000
324.402; -247.300; -960.000; -983.000
324.538;   -2.400; -279.000; -104.000
324.674;  106.500;  164.000;   77.000
324.810;  319.800;  226.000;  308.000
324.946;   46.300; -810.000; -658.000
325.082; -133.500; -568.000; -475.000
325.217;    6.500;  -62.000;   16.000
325.353; -151.200; -764.000; -659.000
325.489; -147.200; -540.000; -506.000
325.625;  -94.500; -579.000; -525.000
325.760;  147.900;  517.000;  376.000
325.896;  -27.200; -515.000; -702.000
326.032;  -71.700; -403.000; -352.000
326.168;  -84.600; -462.000; -369.000
326.303; -114.600; -352.000; -461.000
326.439;   -8.900; -336.000; -276.000
326.575;   37.700; -190.000;  -29.000
326.710;   29.700; -156.000;  -30.000
326.846;   34.800;  146.000;  103.000
326.982; -155.400; -530.000; -548.000
327.117;  -85.100; -481.000; -442.000
327.253; -140.700; -745.000; -742.000
327.388; -309.200;-1137.000;-1153.000
327.524;  -70.200; -811.000; -578.000
327.659;   -1.000;  -58.000;  -22.000
327.795;   24.500;   69.000;   45.000
327.931; -127.500; -723.000; -499.000
328.066;    6.000; -417.000; -276.000
328.202;   29.300;   12.000; -129.000
328.337;  247.700;  957.000;  713.000
328.473;   36.700;  -12.000;  -74.000
328.608;   -3.000; -256.000; -267.000
328.743; -166.100; -799.000; -664.000
328.879;   76.600;  214.000;  114.000
329.014;  -82.200; -102.000; -122.000
329.150; -151.100; -358.000; -483.000
329.285; -106.200; -465.000; -466.000
329.421;  -57.200; -548.000; -246.000
329.556;  -12.900;  -36.000;   85.000
329.691; -172.500; -633.000; -615.000
329.827; -141.700; -626.000; -480.000
329.962;  -33.300;  131.000; -301.000
330.097; -115.600; -673.000; -585.000
330.233; -117.500; -410.000; -223.000
330.368; -220.800; -839.000; -628.000
330.503;   21.100;    3.000;   98.000
330.638;   48.700;  -93.000; -125.000
330.774;  -59.100; -609.000; -530.000
330.909;  -54.700; -434.000; -244.000
331.044; -146.000; -714.000; -708.000
331.179; -296.000;-1217.000;-1109.000
331.315;   43.000;   77.000;   20.000
331.450;   76.100;  157.000;  285.000
331.585; -166.100; -805.000; -706.000
331.720; -113.600; -510.000; -460.000
331.855;   14.900;  -35.000; -102.000
331.990;  488.000;   62.000;  138.000
332.126;  297.600; -110.000;   71.000
332.261;  -32.600; -379.000; -265.000
332.396;    7.800; -135.000; -242.000
332.531; -194.000;-1074.000;-1031.000
332.666;  113.100; -519.000; -363.000
332.801; -173.100; -726.000; -807.000
332.936;    9.200; -192.000; -122.000
333.071; -286.900; -870.000; -817.000
333.206;   64.400;  307.000;  379.000
333.341;   77.300;  344.000;  418.000
333.476; -152.700; -627.000; -623.000
333.611;  -39.000; -251.000; -173.000
333.746;  -72.900; -381.000; -464.000
333.881; -194.400; -973.000; -935.000
334.016; -225.300; -936.000; -917.000
334.151; -202.300; -746.000; -702.000
334.286;   76.700;  152.000;  186.000
334.421;   13.900; -125.000; -178.000
334.556; -130.100; -611.000; -567.000
334.690; -120.000; -631.000; -577.000
334.825;  154.800;  381.000;   83.000
334.960;  -88.500; -285.000; -413.000
335.095;   84.600;  135.000;  -91.000
335.230; -177.500; -722.000; -738.000
335.365; -231.400;-1084.000; -990.000
335.499; -264.200;-1108.000;-1037.000
335.634;   99.500;    9.000;  534.000
335.769; -152.900; -755.000; -720.000
335.904; -104.800; -603.000; -561.000
336.038; -119.600; -735.000; -657.000
336.173; -195.100;-1206.000;-1194.000
336.308;   44.300; -116.000; -189.000
336.443;   76.000; -544.000; -634.000
336.577; -127.800; -936.000; -787.000
336.712;  160.600;   -4.000;  -12.000
336.847;  -52.900; -724.000; -607.000
336.981;  123.700; -272.000; -208.000
337.116;  575.400;  615.000;  501.000
337.250;  308.500; -434.000; -421.000
337.385;  480.400; -297.000; -208.000
337.520;  160.000; -632.000; -603.000
337.654;  -11.100; -215.000; -126.000
337.789; -202.700; -989.000; -933.000
337.923;  -35.400; -104.000; -205.000
338.058; -138.000; -673.000; -738.000
338.192;  -46.100; -611.000; -488.000
338.327;   36.900;  -18.000; -155.000
338.461;  -84.200; -299.000; -469.000
338.596; -135.800; -780.000; -638.000
338.730; -169.700; -767.000; -803.000
338.865;  173.400;  -46.000; -140.000
338.999;  -82.300; -846.000; -702.000
339.134;  -54.000; -634.000; -536.000
339.268;   36.300; -741.000; -603.000
339.403;  674.200; -740.000; -775.000
339.537;  223.700; -894.000; -820.000
339.671; -172.100; -829.000; -813.000
339.806;  -68.300; -556.000; -512.000
339.940;   70.100; -261.000; -235.000
340.074; -156.600; -685.000; -510.000
340.209;  -50.600; -351.000; -230.000
340.343; -133.900; -517.000; -573.000
340.477;  371.200;  998.000; 1036.000
340.612; -111.800;-1033.000; -900.000
340.746;  272.100; -199.000; -243.000
340.880; -142.000; -924.000; -785.000
341.014;   19.900;  -45.000; -154.000
341.149; -189.000; -756.000; -718.000
341.283; -211.100; -839.000; -754.000
341.417; -158.400;-1124.000; -938.000
341.551;  228.100; -768.000; -708.000
341.685;  -40.800; -633.000; -611.000
341.820; -110.800; -562.000; -493.000
341.954;  -63.700; -218.000; -349.000
342.088; -272.300;-1102.000;-1019.000
342.222;  156.700;  565.000;  618.000
342.356; -107.100; -395.000; -335.000
342.490; -168.500; -880.000; -841.000
342.624;  -68.200; -339.000; -242.000
342.758;   14.900; -364.000; -312.000
342.892; -105.200; -710.000; -585.000
343.026;  -28.900;  -58.000; -116.000
343.160;  -99.300; -426.000; -376.000
343.294; -124.400; -474.000; -337.000
343.428;  -26.600; -488.000; -448.000
343.562;    4.800; -172.000;  -23.000
343.696;  -25.200; -385.000; -314.000
343.830;   -0.400; -362.000; -356.000
343.964;   45.700; -231.000; -168.000
344.098; 1600.900;  199.000;   70.000
344.232; 1371.500; -266.000; -127.000
344.366;  173.100; -567.000; -453.000
344.500;  112.500; -665.000; -744.000
344.634;   95.900; -324.000; -164.000
344.768;   -2.400; -531.000; -341.000
344.902;  133.200;  278.000;  256.000
345.035;  -76.100; -556.000; -496.000
345.169; -248.700; -933.000; -656.000
345.303;  -16.600; -308.000; -482.000
345.437; -119.600; -826.000; -717.000
345.571;  -79.500; -675.000; -594.000
345.704;  -83.000; -309.000; -532.000
345.838;   26.900; -331.000; -284.000
345.972;  -36.700; -543.000; -495.000
346.106;  344.200; -179.000; -190.000
346.239;  823.200; -312.000; -243.000
346.373;   26.900; -343.000; -302.000
346.507; -267.500; -950.000; -962.000
346.640;  257.000;  -30.000;   13.000
346.774;  -46.200; -650.000; -797.000
346.908;    3.900; -138.000;  -11.000
347.041; -153.700; -646.000; -593.000
347.175;   60.100;  259.000;   27.000
347.309; -136.800; -698.000; -628.000
347.442; -174.200; -883.000; -732.000
347.576;  523.000;  670.000;  668.000
347.709;  386.100; -123.000;  -52.000
347.843; -145.900; -933.000; -825.000
347.976;  111.800;  235.000;  294.000
348.110; -316.300;-1268.000;-1186.000
348.243; -169.600; -679.000; -772.000
348.377;   40.100;  -26.000;   60.000
348.510;  132.600;  403.000;  540.000
348.644;  -22.400;  -37.000; -159.000
348.777;   66.900;  180.000;  191.000
348.911;  -56.200; -142.000; -112.000
349.044;  374.800;  471.000;  448.000
349.178;  266.500;-1069.000;-1006.000
349.311;  225.000;  141.000;  255.000
349.444;    0.700; -927.000; -813.000
349.578;   -5.000; -347.000; -200.000
349.711; -143.900; -959.000; -862.000
349.845;    5.400; -661.000; -591.000
349.978; -260.100;-1224.000;-1137.000
350.111; -132.100; -546.000; -612.000
350.244; -102.300; -596.000; -700.000
350.378;   60.900; -392.000; -393.000
350.511; -114.900; -393.000; -426.000
350.644; -186.100; -808.000; -806.000
350.778;   57.700;  168.000;  104.000
350.911;   70.400;  134.000;  140.000
351.044; -170.800; -685.000; -615.000
351.177;   -3.500; -321.000; -281.000
351.310;    6.500;    3.000; -131.000
351.444; -148.700; -888.000; -788.000
351.577;  237.000;  140.000;   90.000
351.710;  248.400;  593.000;  417.000
351.843;  -17.400; -165.000;  -77.000
351.976;   51.800;  149.000;  -79.000
352.109; -172.600; -621.000; -612.000
352.242;  -14.000; -464.000; -419.000
352.376;  -78.100; -580.000; -636.000
352.509;  308.900; -437.000; -356.000
352.642;   -2.100; -654.000; -604.000
352.775;  142.500; -141.000;  -98.000
352.908; -191.900; -933.000; -904.000
353.041; -181.000; -814.000; -824.000
353.174; -101.300; -551.000; -424.000
353.307; -162.000; -753.000; -764.000
353.440;  177.000;  541.000;  453.000
353.573; -205.200; -957.000;-1008.000
353.706;  -88.600; -384.000; -558.000
353.839;   20.900; -264.000; -220.000
353.971; -152.900; -657.000; -512.000
354.104; -144.200; -896.000; -835.000
354.237;  -29.100; -627.000; -662.000
354.370; -152.700; -846.000; -879.000
354.503; -328.100;-1231.000;-1308.000
354.636;  -28.900; -529.000; -348.000
354.769; -228.900; -937.000; -860.000
354.902;   62.400; -230.000; -139.000
355.034;    1.600; -164.000; -220.000
355.167;  -15.400; -262.000; -162.000
355.300; -163.900;-1061.000; -880.000
355.433; 1847.500;  -71.000;  -14.000
355.565; 2807.300; -402.000; -384.000
355.698;  672.400; -356.000; -296.000
355.831;    2.800; -882.000; -801.000
355.964;  164.300; -285.000; -170.000
356.096; -155.600; -856.000; -843.000
356.229;   16.700; -523.000; -530.000
356.362;  621.200; -373.000; -266.000
356.494; 1116.900; -229.000; -162.000
356.627;  943.800;  269.000;  377.000
356.760; 1270.100;  120.000;   53.000
356.892; 1754.700; -286.000; -601.000
357.025; 1253.600;  403.000;  389.000
357.157; 1101.000; -167.000; -179.000
357.290; 1232.200; -856.000; -713.000
357.423;  344.500; -667.000; -556.000
357.555;  301.800; -217.000; -228.000
357.688;  216.200; -483.000; -364.000
357.820;  766.900; -870.000; -877.000
357.953; 6400.900; -563.000; -589.000
358.085; 1378.100; -632.000; -612.000
358.218; 2037.900;-1131.000; -932.000
358.350;  387.700;  -58.000;  312.000
358.483; -218.700;-1300.000;-1187.000
358.615;  -21.900;-1182.000;-1078.000
358.747;  -86.900;-1187.000;-1058.000
358.880;   48.400; -810.000; -744.000
359.012;   10.800; -376.000; -202.000
359.145;  -45.300; -480.000; -511.000
359.277;  130.900; -962.000; -913.000
359.409; 5369.900;  536.000;  231.000
359.542; 1324.900; -738.000; -688.000
359.674;  148.500;   46.000;   13.000
359.806;  -79.400; -565.000; -438.000
359.939;  -35.600; -617.000; -516.000
360.071;   -8.300; -583.000; -579.000
360.203;  -15.300; -411.000; -364.000
360.335;  150.700;  164.000;  -16.000
360.468;  377.400; -249.000; -307.000
360.600; 4288.600; -547.000; -454.000
360.732; 5184.800; -546.000; -423.000
360.864;  697.100;-1216.000;-1044.000
360.996;  524.700; -516.000; -554.000
361.129;  108.200; -389.000; -598.000
361.261;   91.400;  110.000; -113.000
361.393;   -5.600; -252.000; -214.000
361.525;  106.800;   94.000;  244.000
361.657;  -48.000; -821.000; -703.000
361.789;   62.700; -139.000; -155.000
361.921;  451.300; -642.000; -593.000
362.053;  536.600;  524.000;  541.000
362.185;  136.500;  288.000;   72.000
362.318; -137.900; -709.000; -705.000
362.450;  292.400;  294.000;  444.000
362.582;  207.600; -913.000; -870.000
362.714;  -12.700; -353.000; -332.000
362.846; -131.900; -606.000; -490.000
362.978; -245.200; -941.000; -811.000
363.109;  114.300; -161.000; -260.000
363.241;  842.700; -739.000; -749.000
363.373;  804.900; -649.000; -564.000
363.505; 1306.100; -186.000;  -91.000
363.637;  321.300; -787.000; -601.000
363.769; -221.100;-1067.000;-1080.000
363.901;  -99.500; -596.000; -654.000
364.033; -202.400;-1103.000;-1062.000
364.165;   -2.300; -283.000; -283.000
364.296;  184.700; -316.000; -177.000
364.428;  128.800;-1344.000;-1220.000
364.560; -119.000; -679.000; -661.000
364.692;  -95.700; -738.000; -835.000
364.824;  501.900; -588.000; -456.000
364.955;  865.800; -402.000; -564.000
365.087; 1653.000;-1097.000; -852.000
365.219;   42.200; -686.000; -816.000
365.351;  -97.800; -526.000; -572.000
365.482;  138.700;  300.000;  240.000
365.614;  -32.000; -402.000; -314.000
365.746; -176.500; -729.000; -752.000
365.877; -141.000; -706.000; -672.000
366.009;  521.200;  -35.000;  -62.000
366.141; -186.200;-1249.000;-1134.000
366.272; -183.100; -803.000; -719.000
366.404; -194.200;-1005.000; -874.000
366.535;   14.400; -139.000;  -12.000
366.667; -181.000; -644.000; -649.000
366.799;  138.000;  353.000;  203.000
366.930; -213.300; -862.000; -996.000
367.062;  178.200; -639.000; -613.000
367.193;  292.000; -872.000; -842.000
367.325;  -62.200; -580.000; -684.000
367.456;  106.300; -246.000;   31.000
367.588;  331.000; -371.000; -318.000
367.719;  110.300;  -44.000;  -45.000
367.851;   18.600; -222.000; -241.000
367.982;  -60.500; -875.000; -732.000
368.113;  240.900; -475.000; -358.000
368.245; -185.200; -960.000; -841.000
368.376;    8.100; -254.000; -302.000
368.508;  -14.600; -188.000; -263.000
368.639; -255.500;-1166.000;-1034.000
368.770;   15.700; -670.000; -589.000
368.902; -108.200; -836.000; -926.000
369.033; -175.500; -906.000; -855.000
369.164;  -46.300; -720.000; -653.000
369.296; -189.000; -452.000; -601.000
369.427;   50.200; -209.000; -144.000
369.558; -122.500; -593.000; -377.000
369.689; -113.800; -721.000; -569.000
369.821; -223.700; -951.000; -845.000
369.952;   28.200;   42.000; -108.000
370.083;  -42.600; -229.000; -108.000
370.214; -150.700; -735.000; -650.000
370.345;   48.700;   65.000;   81.000
370.477; -132.600; -810.000; -790.000
370.608;  433.900; -328.000; -264.000
370.739;  -89.500;-1233.000;-1292.000
370.870;  -43.700;-1102.000; -923.000
371.001;  181.600; -378.000; -467.000
371.132; -135.800; -754.000; -735.000
371.263;   17.800;  -42.000; -148.000
371.394; -231.300; -841.000; -748.000
371.525;  108.500;  345.000;  225.000
371.657; -138.400; -808.000; -670.000
371.788;  159.800;  103.000;  199.000
371.919;  274.000; -384.000; -304.000
372.050; 6405.800;  -91.000; -156.000
372.181; 1839.800; -188.000; -294.000
372.311;  743.900;   42.000; -127.000
372.442;   81.200; -457.000; -451.000
372.573;  -19.200; -444.000; -340.000
372.704; -208.500;-1008.000; -980.000
372.835;  195.100; -228.000; -289.000
372.966;  -96.000; -646.000; -554.000
373.097;  -95.000; -575.000; -711.000
373.228;  -60.100; -717.000; -542.000
373.359;  255.600; -824.000; -536.000
373.490; 1718.800; -881.000; -727.000
373.620; 2039.400;-1001.000; -803.000
373.751; 3166.300; -332.000; -396.000
373.882; 1364.700; -663.000; -733.000
374.013;  121.900; -449.000; -262.000
374.143;  -38.900; -581.000; -659.000
374.274; -159.900; -987.000; -908.000
374.405;  354.700; -388.000; -276.000
374.536;  858.800; -526.000; -387.000
374.666; 1961.500; -759.000; -807.000
374.797;  393.100; -817.000; -868.000
374.928; 1582.200; -710.000; -560.000
375.058; 1627.200; -535.000; -500.000
375.189;  171.100;  -59.000;  -93.000
375.320; -147.200; -928.000;-1034.000
375.450;  -42.800; -625.000; -616.000
375.581;  -69.200; -526.000; -436.000
375.712;   -5.900; -574.000; -250.000
375.842;  585.000; -438.000; -415.000
375.973;  398.300; -554.000; -513.000
376.103;  -39.800; -665.000; -648.000
376.234; -107.200; -531.000; -552.000
376.364;  -56.800; -944.000; -867.000
376.495;  653.700;  925.000;  529.000
376.625;   27.700; -472.000; -485.000
376.756;  144.900; -709.000; -678.000
376.886; -156.900;-1178.000;-1026.000
377.017;  136.800;-1048.000;-1061.000
377.147;  689.200; -786.000; -782.000
377.278;  148.600;  174.000;  228.000
377.408; -226.300; -801.000; -815.000
377.538; -131.600; -707.000; -693.000
377.669; -111.200; -537.000; -613.000
377.799; -129.000; -645.000; -635.000
377.929; -101.700; -610.000; -428.000
378.060; -242.800; -781.000; -847.000
378.190;  -70.000; -726.000; -531.000
378.320;  -67.000; -401.000; -406.000
378.451;   17.700; -131.000;  -22.000
378.581;   17.700;  -67.000; -110.000
378.711;  382.000; 1035.000;  866.000
378.841;   -7.100; -533.000; -675.000
378.972; -114.900; -871.000; -751.000
379.102;    9.800; -652.000; -579.000
379.232;  -37.300; -126.000;  -73.000
379.362; -133.300;-1001.000; -885.000
379.492;   59.700; -373.000; -424.000
379.623;  275.700;    0.000;  111.000
379.753; -168.400;-1107.000; -974.000
379.883;  475.100;   59.000;  156.000
380.013;   23.700;-1081.000;-1017.000
380.143; -151.300;-1097.000;-1056.000
380.273; -175.700; -985.000; -861.000
380.403;   41.800; -344.000; -257.000
380.533;  -19.200; -651.000; -664.000
380.663;  198.900;  173.000;  128.000
380.793; -158.700;-1027.000;-1074.000
380.923;   -9.600; -103.000;  -34.000
381.053; -170.400; -613.000; -623.000
381.183;   -9.700; -106.000; -248.000
381.313;  113.100; -656.000; -470.000
381.443;  104.300; -692.000; -473.000
381.573;  369.600; -402.000; -409.000
381.703;  484.400;-1249.000;-1095.000
381.833; -225.200;-1454.000;-1336.000
381.963;  251.000; -134.000;  -87.000
382.093; 2513.000; -925.000; -909.000
382.223;  716.000; -713.000; -602.000
382.353;    1.100; -801.000; -608.000
382.482;  634.400;-1091.000; -964.000
382.612; 1398.900; -872.000; -644.000
382.742;  771.400; -695.000; -622.000
382.872;  511.800; -565.000; -551.000
383.002;  188.700;  347.000; -132.000
383.131;   15.200; -226.000; -160.000
383.261;  -50.100; -706.000; -768.000
383.391;  597.300; -552.000; -377.000
383.521; 6067.600;  451.000;  263.000
383.650; 1326.900; -947.000; -904.000
383.780;  -34.400; -783.000; -656.000
383.910;  267.300;  880.000;  802.000
384.039;   77.800; -794.000; -656.000
384.169;  389.100;-1205.000;-1017.000
384.299;  -11.500; -650.000; -662.000
384.428; -132.100; -764.000; -680.000
384.558;  -20.100; -308.000; -275.000
384.687;  -38.300; -414.000; -334.000
384.817;  102.000;   75.000;   -2.000
384.947;   52.600; -234.000; -141.000
385.076;  642.400;  982.000;  912.000
385.206;  275.900;  369.000;  480.000
385.335;  -44.200; -549.000; -417.000
385.465; -125.100; -655.000; -663.000
385.594;  312.900;  -53.000;  -44.000
385.724;  765.200; -868.000; -838.000
385.853;  260.400; -296.000; -270.000
385.982; 2522.800; -743.000; -787.000
386.112; 3654.900;-1052.000; -871.000
386.241;  266.800; -307.000; -312.000
386.371;   76.000; -174.000;  -87.000
386.500;   39.800; -825.000; -789.000
386.629;   83.300; -874.000; -817.000
386.759;  164.900;  -43.000;   68.000
386.888;   51.100; -170.000; -250.000
387.017;  -94.900; -648.000; -620.000
387.147; -138.600; -771.000; -798.000
387.276;   45.100; -410.000; -397.000
387.405;   70.600; -398.000; -342.000
387.535;  -24.600; -452.000; -361.000
387.664;  -77.100; -692.000; -620.000
387.793;  180.500; -198.000; -113.000
387.922; 1023.900;  255.000;  200.000
388.052;   43.100; -576.000; -423.000
388.181;   59.200; -342.000; -472.000
388.310;   56.900; -889.000; -710.000
388.439;  -82.800; -749.000; -742.000
388.568;  377.200;  365.000;  244.000
388.697; 1870.300; -756.000; -653.000
388.826;  388.500; -768.000; -666.000
388.956;  179.900; -285.000; -307.000
389.085;  -10.400; -347.000; -287.000
389.214; -155.800; -842.000; -872.000
389.343;  -98.900; -645.000; -413.000
389.472;  830.300;  126.000;  149.000
389.601;  974.700;   91.000;    0.000
389.730;   43.500; -568.000; -687.000
389.859;  191.800;  226.000;   46.000
389.988;  350.300; -423.000; -408.000
390.117;  290.800; -168.000; -146.000
390.246;   24.900; -331.000; -320.000
390.375;  204.000; -673.000; -626.000
390.504;  -77.000; -703.000; -621.000
390.633; -148.300; -672.000; -726.000
390.761; -111.700; -732.000; -645.000
390.890;   96.600;   -4.000; -130.000
391.019;  -21.300; -421.000; -441.000
391.148; -219.200; -826.000; -855.000
391.277; -108.900; -576.000; -493.000
391.406; -131.400; -821.000; -805.000
391.534;   89.800;  574.000; -301.000
391.663;  -73.700; -583.000; -645.000
391.792; -154.300; -673.000; -701.000
391.921;  223.900;   -3.000;   15.000
392.050;  367.900; -287.000; -228.000
392.178; -104.600;-1206.000;-1061.000
392.307;  272.100; -758.000; -712.000
392.436;  166.300; -427.000; -641.000
392.564;   95.600;  166.000;   -6.000
392.693; -124.300; -860.000; -682.000
392.822;  392.200; -529.000; -534.000
392.950;  198.500; -880.000; -714.000
393.079;  615.500; -188.000; -328.000
393.208;   53.900; -488.000; -511.000
393.336;   24.400; -170.000; -145.000
393.465;  -31.000; -317.000; -199.000
393.593;   52.300;   62.000;   79.000
393.722; -267.400;-1121.000; -916.000
393.850;  -14.800; -188.000;  -61.000
393.979; -257.100; -926.000; -805.000
394.107;  -54.300; -517.000; -537.000
394.236;   17.500; -570.000; -507.000
394.364;  571.600;  383.000;  206.000
394.493;  931.000; -911.000; -767.000
394.621;   13.100; -955.000; -916.000
394.750; 1439.900; -873.000; -923.000
394.878; 5732.800; -247.000; -149.000
395.007; 7323.300; -721.000; -807.000
395.135;  565.200; -790.000; -721.000
395.263; -182.400;-1038.000;-1040.000
395.392;   73.400;  -25.000; -107.000
395.520; -243.400; -818.000; -679.000
395.648; -174.100; -865.000; -915.000
395.777;   42.100; -366.000; -405.000
395.905;  -39.800; -449.000; -564.000
396.033;   93.300;  217.000;  172.000
396.162; 1518.500; -399.000; -453.000
396.290; 1279.900;  -17.000;   -2.000
396.418;  214.400; -555.000; -514.000
396.546; -124.800; -571.000; -466.000
396.674; -172.400; -850.000; -878.000
396.803;   70.200;  -72.000;  -23.000
396.931;  230.500; -179.000; -199.000
397.059;   66.700;-1026.000; -989.000
397.187; -200.300;-1026.000; -975.000
397.315; -245.500; -884.000; -649.000
397.443; -124.200; -592.000; -443.000
397.572; -122.300; -578.000; -424.000
397.700;   26.200; -607.000; -614.000
397.828;   60.800;  120.000;  -90.000
397.956;  -23.700; -508.000; -478.000
398.084;  -76.800; -767.000; -626.000
398.212;  105.500;  137.000;  124.000
398.340;  111.400;  -56.000;  159.000
398.468;   94.900; -390.000; -169.000
398.596; -244.300; -993.000; -953.000
398.724; -210.400; -762.000; -767.000
398.852; -262.000;-1024.000; -976.000
398.980;  -58.000; -560.000; -560.000
399.108;  -54.900; -982.000; -735.000
399.236;   81.100;   13.000;    8.000
399.363;   95.700;  222.000;  196.000
399.491;  -82.100; -404.000; -398.000
399.619; -203.800; -829.000; -800.000
399.747; -175.300; -859.000; -771.000
399.875;  206.300;  220.000;  234.000
400.003;  -86.900; -359.000; -284.000
400.130; -120.200; -421.000; -341.000
400.258;    2.900;  -83.000;   38.000
400.386;  -67.200; -352.000; -168.000
400.514;  -36.100; -526.000; -587.000
400.641; -123.000; -928.000; -802.000
400.769; -221.400; -979.000; -888.000
400.897; -147.600; -838.000; -793.000
401.025;   15.700; -166.000; -152.000
401.152;   30.900;  220.000;   38.000
401.280; -109.100; -430.000; -429.000
401.408; -189.000; -712.000; -576.000
401.535; -172.200; -735.000; -758.000
401.663; -320.900;-1134.000;-1054.000
401.790; -126.500; -514.000; -525.000
401.918;  185.500;  436.000;  405.000
402.046;   43.500;  134.000;  122.000
402.173;   -1.700;  -18.000;    7.000
402.301;  -41.400; -519.000; -397.000
402.428;  143.900;  528.000;  383.000
402.556; -231.600;-1188.000; -913.000
402.683;   -2.800;  -20.000;   -1.000
402.811;   31.500;  -37.000; -206.000
402.938;   31.100;   20.000;   27.000
403.066;  382.800; -574.000; -558.000
403.193;  608.900;  299.000;  239.000
403.321;  509.300; -396.000; -574.000
403.448;  598.700;   83.000;   27.000
403.575;  259.800;  -90.000;  -46.000
403.703; -166.900; -732.000; -557.000
403.830; -103.900; -531.000; -496.000
403.957; -247.500;-1117.000;-1023.000
404.085;   80.100;  -61.000; -172.000
404.212;  298.100;  -50.000;   63.000
404.339;  521.100; -566.000; -306.000
404.467;11203.200; -612.000; -524.000
404.594; 6830.500; -287.000; -227.000
404.721; 1613.700; -869.000; -764.000
404.848;  184.200; -113.000; -202.000
404.976; -187.600; -856.000; -783.000
405.103;   31.700;  -14.000;  -82.000
405.230;   50.800;  190.000;  226.000
405.357;  110.100;  117.000;   44.000
405.484;  548.600;  -49.000;    5.000
405.612;  128.000; -548.000; -563.000
405.739;  -67.300; -488.000; -243.000
405.866;  256.200;  669.000;  385.000
405.993;  -71.000; -398.000; -102.000
406.120; -225.600; -801.000; -887.000
406.247;  -39.300; -323.000; -342.000
406.374;  899.700;  540.000;  629.000
406.501;  216.800; -632.000; -702.000
406.628; -107.200; -621.000; -589.000
406.755; -125.500; -803.000; -620.000
406.882;  -40.400; -228.000; -277.000
407.009; -170.000; -719.000; -628.000
407.136;  153.400; -480.000; -401.000
407.263;  222.700; -939.000; -829.000
407.390; -110.400; -692.000; -614.000
407.517; -284.200;-1139.000;-1187.000
407.644;  -49.800; -332.000; -256.000
407.771;  -92.500; -249.000; -287.000
407.898;   86.400;  168.000;  328.000
408.025;  -75.800; -421.000; -313.000
408.151;   46.900;   82.000;  153.000
408.278;  -94.900; -267.000; -216.000
408.405; -165.800; -931.000; -899.000
408.532; -101.800; -549.000; -542.000
408.659; -172.000; -677.000; -648.000
408.785; -353.600;-1298.000;-1170.000
408.912;  -56.700; -412.000; -296.000
409.039; -175.300; -610.000; -686.000
409.166; -142.900; -591.000; -555.000
409.292; -168.200; -571.000; -534.000
409.419; -156.100; -665.000; -649.000
409.546; -106.600; -431.000; -192.000
409.672; -177.000; -713.000; -545.000
409.799;   19.000;  -36.000;   34.000
409.926;  -19.300; -180.000; -179.000
410.052; -285.100;-1127.000;-1091.000
410.179;  -38.400; -368.000; -392.000
410.305; -126.000; -375.000; -493.000
410.432;  -61.700; -220.000; -333.000
410.558; -109.300; -305.000; -380.000
410.685; -177.200; -688.000; -431.000
410.812; -144.400; -409.000; -588.000
410.938; -244.000; -964.000; -808.000
411.065; -161.300; -671.000; -645.000
411.191;   29.200; -189.000; -174.000
411.317; -165.300; -823.000; -742.000
411.444;  -85.900; -317.000; -246.000
411.570;  -87.000; -339.000; -294.000
411.697; -199.100; -758.000; -752.000
411.823; -300.700; -989.000; -999.000
411.949;   -3.100;  -56.000;   17.000
412.076; -166.500; -539.000; -519.000
412.202; -163.800; -758.000; -757.000
412.329; -192.700; -798.000; -752.000
412.455; -190.400; -821.000; -657.000
412.581;   25.300;  -15.000;  172.000
412.707; -111.100; -540.000; -457.000
412.834;   84.500;  156.000;  219.000
412.960; -108.600; -785.000; -784.000
413.086; -133.700; -743.000; -701.000
413.212;  355.000;  604.000;  578.000
413.339;  -85.900; -685.000; -701.000
413.465;   55.800; -364.000; -310.000
413.591; -168.300; -757.000; -474.000
413.717;  -45.500; -358.000; -366.000
413.843; -249.500; -839.000; -861.000
413.969;  -94.600;  -47.000; -292.000
414.096; -168.100; -679.000; -679.000
414.222;   33.200;  -33.000;   85.000
414.348;  -20.000; -652.000; -385.000
414.474;  232.600;   38.000;  -52.000
414.600;   19.600; -126.000; -144.000
414.726;   12.900;  -96.000;  -55.000
414.852;  -20.200; -365.000; -342.000
414.978;  111.300;  104.000;  -18.000
415.104;  170.400;   38.000;   80.000
415.230;   89.700; -329.000; -330.000
415.356;  152.700; -409.000; -514.000
415.482;  448.400;   13.000;  -35.000
415.608;  553.700; -247.000; -323.000
415.734; 2019.300;   67.000;   38.000
415.860;39646.800; -875.000; -767.000
415.986;25889.300; -685.000; -607.000
416.111; 2167.100; -798.000; -652.000
416.237;  486.700; -424.000; -571.000
416.363; 2364.900; -765.000; -733.000
416.489; 7801.600; -324.000; -251.000
416.615;  787.500; -707.000; -742.000
416.741;  -11.300; -677.000; -784.000
416.866; -168.000; -673.000; -736.000
416.992; -190.700; -801.000; -818.000
417.118;   25.200;  -41.000;  -80.000
417.244;  -84.700; -798.000; -531.000
417.369; -159.400; -801.000; -612.000
417.495;   39.500; -325.000; -254.000
417.621; -173.200;-1015.000; -803.000
417.746;   60.900; -579.000; -572.000
417.872;  125.300; -254.000; -144.000
417.998;  168.100; -515.000; -530.000
418.123; 2239.200;-1073.000; -845.000
418.249;10140.400; -512.000; -601.000
418.374; 1318.400; -916.000; -824.000
418.500;  239.600; -383.000; -482.000
418.626;  257.800;   70.000;  -59.000
418.751;  249.200; -549.000; -448.000
418.877;  397.800; -637.000; -643.000
419.002; 3823.500; -688.000; -560.000
419.128;23917.200; -930.000; -721.000
419.253; 5226.100; -967.000; -837.000
419.379;  758.800; -391.000; -338.000
419.504;  814.600;  325.000;  415.000
419.629; 1024.200; -393.000; -212.000
419.755; 7432.800; -317.000; -254.000
419.880;39468.300;  -98.000;   67.000
420.006;22110.700; -280.000; -221.000
420.131;53946.300; -662.000; -775.000
420.256; 6998.500; -315.000; -316.000
420.382;  976.500; -665.000; -687.000
420.507;  159.100; -649.000; -778.000
420.632;  279.800; -337.000; -339.000
420.758;  462.300; -251.000; -425.000
420.883; -102.500; -876.000; -672.000
421.008; -155.700; -775.000; -619.000
421.133; -117.500; -509.000; -467.000
421.259;  -27.800; -325.000; -259.000
421.384; -169.800; -834.000; -693.000
421.509;  -47.600;-1052.000; -862.000
421.634; 2074.400; -936.000; -820.000
421.759;  795.900; -359.000; -327.000
421.885; -101.400; -717.000; -656.000
422.010;  -81.100; -673.000; -542.000
422.135; -254.900; -695.000; -727.000
422.260;  142.200;  340.000;  280.000
422.385;   -7.300;   12.000;  -98.000
422.510;   95.200;  151.000;  -26.000
422.635;  118.700;  -87.000;  -43.000
422.760;  232.900; -766.000; -791.000
422.885;  134.100;  -57.000;  -80.000
423.010;   16.400; -112.000; -169.000
423.135; -145.200; -481.000; -561.000
423.260;   -1.200; -150.000; -245.000
423.385;  211.700;  476.000;  222.000
423.510;  122.600;   71.000;  -22.000
423.635;  183.600;  133.000;   45.000
423.760;  159.100;  383.000;  328.000
423.885;  188.200;  336.000;  391.000
424.010;   87.500;  -68.000;  -13.000
424.135;   42.100;    5.000;  -33.000
424.259; -143.700; -654.000; -457.000
424.384;  -38.800; -279.000; -272.000
424.509;   15.700; -260.000; -186.000
424.634; -128.000; -761.000; -623.000
424.759;   13.100; -688.000; -544.000
424.883;   41.000; -506.000; -527.000
425.008;  330.600; -502.000; -410.000
425.133; 4047.800; -679.000; -653.000
425.258; 1680.900; -517.000; -381.000
425.382; 1979.500; -867.000; -774.000
425.507; 4441.000; -487.000; -543.000
425.632;  705.500; -802.000; -663.000
425.756;  909.300; -256.000; -146.000
425.881;13417.100; -831.000; -857.000
426.006;32326.100; -604.000; -355.000
426.130; 4594.300; -696.000; -508.000
426.255;  595.400; -611.000; -491.000
426.379;  341.800; -189.000; -577.000
426.504;  812.400;  660.000;  544.000
426.629; 8085.800; -519.000; -466.000
426.753; 5045.900;   64.000;  -46.000
426.878;  649.200; -252.000; -288.000
427.002;  315.700; -651.000; -668.000
427.127; 3411.100;  -35.000; -158.000
427.251;21994.600;  372.000;  401.000
427.375; 5529.100; -191.000; -173.000
427.500; 4106.100; -616.000; -610.000
427.624; 1276.500; -234.000; -400.000
427.749;  223.800; -216.000; -225.000
427.873;  -45.700; -499.000; -412.000
427.997;  -43.500; -222.000; -230.000
428.122;  263.900;  795.000;  703.000
428.246;  182.400;  433.000;  434.000
428.371; -185.600; -869.000; -773.000
428.495; -136.600; -624.000; -646.000
428.619;   18.900; -186.000; -117.000
428.743;  115.000;   65.000;  132.000
428.868;   52.000; -732.000; -643.000
428.992; 2458.700; -219.000; -326.000
429.116;  919.100; -329.000; -357.000
429.240;  541.100;  419.000;  426.000
429.365;   -1.800; -454.000; -574.000
429.489;  -23.700; -638.000; -647.000
429.613;  104.400; -236.000; -177.000
429.737;  119.900; -563.000; -432.000
429.861;  609.800; -247.000; -133.000
429.985;11329.400; -425.000; -305.000
430.109;11099.800; -770.000; -908.000
430.234; 1262.200;   76.000;  -50.000
430.358;  185.500; -250.000; -160.000
430.482;  -57.700; -672.000; -564.000
430.606;  -80.400; -655.000; -375.000
430.730;   72.400; -437.000; -388.000
430.854;  246.100; -909.000; -835.000
430.978;  -99.900; -795.000; -764.000
431.102; -112.700; -499.000; -422.000
431.226; -190.900; -874.000; -815.000
431.350;  152.900;  345.000;  422.000
431.474; -104.600; -661.000; -373.000
431.597; -256.400;-1060.000; -848.000
431.721; -106.200; -276.000; -267.000
431.845; -205.100; -704.000; -472.000
431.969; -126.300; -304.000; -349.000
432.093; -141.500; -395.000; -317.000
432.217;   15.200;   32.000;   82.000
432.341; -100.500; -523.000; -518.000
432.464;   50.700;   96.000;   40.000
432.588;  412.700; -401.000; -329.000
432.712;  219.600;  -52.000;  -52.000
432.836;  195.900;  213.000;  263.000
432.959;   12.600; -372.000; -311.000
433.083;  211.900;   11.000;    2.000
433.207;  777.900;  285.000;  930.000
433.330;10220.200; -391.000; -200.000
433.454;11427.500; -654.000; -638.000
433.578; 6773.600;  583.000;  278.000
433.701; 1127.500; -623.000; -675.000
433.825;  288.900; -292.000; -299.000
433.949;  375.800;   28.000;  -72.000
434.072;  121.800; -410.000; -323.000
434.196;   44.100; -309.000; -117.000
434.319; 7911.500;25482.000;25124.000
434.443; 1535.700; -656.000; -603.000
434.566; 5017.300;  281.000;   62.000
434.690;  771.500; -637.000; -383.000
434.813;  146.300; -251.000; -173.000
434.937;  -94.100; -569.000; -696.000
435.060;  -19.600; -423.000; -332.000
435.184;  581.000; -492.000; -217.000
435.307;  321.700;  159.000;  102.000
435.431;   50.500;  -40.000;   24.000
435.554;  -85.600; -399.000; -240.000
435.677; -119.100; -350.000; -258.000
435.801;  -36.500;  -25.000;   49.000
435.924;   42.200;    1.000;  -67.000
436.048; -191.200;-1019.000; -732.000
436.171;  -75.800; -240.000;  -66.000
436.294;   14.300; -248.000; -229.000
436.417;  226.300; -963.000; -849.000
436.541; -126.800; -814.000; -840.000
436.664;  -32.600; -242.000; -316.000
436.787;   14.300;   13.000;  113.000
436.910; -163.800; -792.000; -422.000
437.034;   86.700;  142.000;  143.000
437.157;  144.100;  -11.000;    0.000
437.280;  -62.600; -392.000; -292.000
437.403; -139.400; -982.000; -869.000
437.526; 1180.800; -903.000; -865.000
437.649; 3833.800; -505.000; -332.000
437.772;  470.500; -692.000; -540.000
437.896;  247.500;  700.000;  544.000
438.019; -156.800; -758.000; -503.000
438.142; -129.900; -596.000; -506.000
438.265;   20.800; -639.000; -670.000
438.388; 1063.800; -520.000; -410.000
438.511;  149.800; -597.000; -394.000
438.634;  -41.800; -247.000; -125.000
438.757; -202.100; -693.000; -619.000
438.880;   -3.900;  -34.000;  -57.000
439.003;  -90.100; -417.000; -437.000
439.126;  -60.100; -287.000; -167.000
439.248;  -49.400;  -98.000; -139.000
439.371;  -45.900;    9.000;  -53.000
439.494;  182.200;  510.000;  439.000
439.617;   -9.400;   65.000;  -88.000
439.740; -291.300; -968.000; -816.000
439.863; -262.800; -755.000; -595.000
439.986; -185.000; -476.000; -431.000
440.108;  -24.100; -161.000; -112.000
440.231; -270.900; -950.000; -836.000
440.354;  -16.800;  -64.000; -150.000
440.477;  114.700; -566.000; -542.000
440.599;   64.500; -200.000; -225.000
440.722; -191.000; -709.000; -586.000
440.845;  233.400;  751.000;  928.000
440.968; -152.900; -415.000; -311.000
441.090;  -56.000; -199.000;  -33.000
441.213; -258.900;-1021.000; -825.000
441.336;  -53.600; -159.000;   -5.000
441.458;  -59.300; -549.000; -396.000
441.581; -152.300; -628.000; -629.000
441.703;  -80.900; -152.000;   13.000
441.826; -155.800; -557.000; -400.000
441.948;  -11.900;   56.000;   51.000
442.071;  124.800;  555.000;  424.000
442.193; -150.700; -531.000; -485.000
442.316;  101.600;  152.000;   97.000
442.438;  146.200; -233.000;  -10.000
442.561;  207.200;  272.000;  262.000
442.683; 1028.400; -809.000; -522.000
442.806; 1980.800;   -8.000;   74.000
442.928;    0.100; -859.000; -604.000
443.051;  -89.200; -577.000; -373.000
443.173; -117.800; -341.000; -339.000
443.295; -104.200; -263.000; -371.000
443.418;  -89.600; -321.000;  -29.000
443.540;   61.900; -106.000;   -4.000
443.662; -220.600; -563.000; -465.000
443.785;   76.000;  335.000;  199.000
443.907; -172.500; -362.000; -208.000
444.029; -202.900; -767.000; -494.000
444.152; -219.900; -644.000; -554.000
444.274;   -0.600;  -18.000;  -24.000
444.396; -164.700; -461.000; -221.000
444.518; -201.700; -691.000; -454.000
444.640; -138.000; -268.000; -111.000
444.763;   51.500;  388.000;  249.000
444.885; -174.300; -432.000; -392.000
445.007;   -6.300;   35.000;   86.000
445.129; -199.400; -610.000; -515.000
445.251; -182.500; -372.000; -439.000
445.373; -236.800; -537.000; -386.000
445.495;   81.400;  242.000;  350.000
445.617;  210.300;  853.000;  753.000
445.739;  -62.600; -215.000;  -97.000
445.861;  -11.200; -245.000; -112.000
445.984;  -39.100; -267.000; -101.000
446.105;  438.800; -418.000; -251.000
446.227; 1083.300; -176.000;  -19.000
446.349;   35.400; -358.000; -249.000
446.471; -166.200; -615.000; -448.000
446.593;  -61.800; -316.000;   19.000
446.715;   46.900;  -67.000;   41.000
446.837;  204.100;  697.000;  832.000
446.959; -115.900; -457.000; -478.000
447.081; -228.800; -628.000; -518.000
447.203;  182.000;  862.000;  834.000
447.325; -115.000; -270.000;   42.000
447.446;   68.400;  286.000;  530.000
447.568; -244.000; -921.000; -803.000
447.690; -101.900; -236.000; -245.000
447.812; -235.900; -798.000; -519.000
447.933;   34.400;  155.000;  127.000
448.055;  -65.100; -306.000; -261.000
448.177;  343.800;   31.000;   79.000
448.299;  167.000; -935.000; -727.000
448.420;   66.800;  -25.000;  159.000
448.542;  -15.800;   -3.000;   33.000
448.664;   16.000;  109.000;  322.000
448.785;   16.200;  265.000;   83.000
448.907; -130.500; -614.000; -353.000
449.028;   -9.700; -771.000; -471.000
449.150;  176.600;  492.000;  589.000
449.272; -316.500;-1044.000; -913.000
449.393;  138.100;  612.000;  694.000
449.515; -263.500; -634.000; -581.000
449.636;  -56.300; -264.000; -155.000
449.758;  198.900;  763.000;  622.000
449.879; -112.300; -498.000; -396.000
450.001;  -79.300; -149.000;  -49.000
450.122;  -30.200;  -95.000;  162.000
450.244;   38.200;   37.000;  364.000
450.365; -137.300; -495.000; -301.000
450.486;   21.500;   80.000;  268.000
450.608;  114.600;  393.000;  326.000
450.729;  207.000;  578.000;  645.000
450.850;   56.700; -574.000; -466.000
450.972; 1597.000; -552.000; -389.000
451.093; 9672.900;  190.000;  588.000
451.214; 3641.800; -516.000; -337.000
451.336;  786.200;  773.000;  579.000
451.457;  160.000;  264.000;  393.000
451.578;  -16.700; -118.000;  -74.000
451.699; -162.100; -546.000; -540.000
451.821;  -82.600; -284.000;  -50.000
451.942;   25.400;  278.000;  285.000
452.063;  140.200;  228.000;  419.000
452.184; 1179.300;  -54.000;  -49.000
452.305; 2094.200;  103.000;  170.000
452.427;  242.000; -549.000; -301.000
452.548;   -9.600;   23.000;   79.000
452.669;  -51.000; -257.000;  -89.000
452.790;  -18.500;    3.000;  -18.000
452.911;   72.100;  195.000;  259.000
453.032;  -73.000; -289.000;  -60.000
453.153;  -36.100;  -29.000;   81.000
453.274;  222.800;  737.000;  868.000
453.395;  -37.900;  -51.000;  175.000
453.516;  330.800; 1317.000; 1388.000
453.637;  -73.400; -205.000; -150.000
453.758;  -42.700;   15.000;   69.000
453.879; -161.500; -462.000; -250.000
454.000;  267.000; 1086.000;  948.000
454.121; -179.100; -554.000; -326.000
454.242; -159.100; -599.000; -383.000
454.362;  -23.900;  -99.000;  114.000
454.483;  -14.600; -309.000; -229.000
454.604;  184.300;  512.000;  580.000
454.725; -221.100; -627.000; -555.000
454.846; -209.700; -474.000; -406.000
454.967;   30.000;  230.000;  539.000
455.087;  -24.800;  179.000;  153.000
455.208;  123.900;  554.000;  856.000
455.329;  -56.400;  -22.000;   82.000
455.450;  176.300;  473.000;  633.000
455.570;  -75.900; -234.000; -211.000
455.691;  -45.600;  201.000;  407.000
455.812; -151.000; -270.000;  -92.000
455.932;  -68.900;  107.000;  -97.000
456.053;  -79.300;   36.000;   24.000
456.173; -160.500; -433.000; -355.000
456.294; -207.600; -476.000; -303.000
456.415;  -83.600;  -73.000;   70.000
456.535;   13.300;  297.000;  273.000
456.656;  -26.000;  132.000;  240.000
456.776;  -90.000;    3.000;  298.000
456.897;   77.400;  308.000;  513.000
457.017;  -92.700; -153.000;   -3.000
457.138; -145.900; -402.000; -249.000
457.258;   15.800;  263.000;  224.000
457.379;   57.000;  509.000;  521.000
457.499;   27.300;  443.000;  432.000
457.620; -165.100; -407.000; -231.000
457.740; -155.500; -132.000;  -11.000
457.860;  -20.000;   87.000;   44.000
457.981;  -20.200;  132.000;  124.000
458.101;  -74.700;  -89.000;   40.000
458.221;   43.000;  336.000;  402.000
458.342;  -68.600;   -4.000;  -37.000
458.462;  124.700;  617.000;  352.000
458.582;  -35.400; -302.000; -294.000
458.703;   96.700;  303.000;  154.000
458.823;    3.500;   22.000;  163.000
458.943;  130.300;  341.000;  467.000
459.063;   22.500; 1124.000;  192.000
459.183;  -19.000;  328.000;  313.000
459.304;   68.200;  315.000;  517.000
459.424;  -63.000; -246.000;  -89.000
459.544;  745.100;  388.000;  764.000
459.664; 1672.900;  499.000;  506.000
459.784;  596.500; 1004.000; 1175.000
459.904;  169.400;  867.000;  744.000
460.024;  203.900;  867.000;  684.000
460.144;   59.400;  449.000;  554.000
460.264;   47.900;  515.000;  327.000
460.385; -105.500; -145.000; -119.000
460.505;  151.500;  905.000;  858.000
460.625; -123.100;  -17.000;  -68.000
460.745;   31.800;  396.000;  541.000
460.864;  -40.400;  153.000;  469.000
460.984;  102.800;  499.000;  573.000
461.104;  375.200; 1656.000; 1775.000
461.224;   91.400;  657.000;  650.000
461.344;   19.100;  431.000;  360.000
461.464;   30.600;  258.000;  513.000
461.584;   28.500;  283.000;  466.000
461.704;  -23.000;   58.000;  108.000
461.824;  -47.500;  238.000;  259.000
461.943;  -34.700;  191.000;  130.000
462.063;  -65.100;    2.000;  324.000
462.183;  150.500;  639.000;  717.000
462.303;  291.100; 1678.000; 1230.000
462.422;  114.700;  781.000;  840.000
462.542;  -26.900;  271.000;  391.000
462.662;  143.000;  353.000;  380.000
462.782;  582.700;  833.000;  572.000
462.901; 1013.700;  545.000;  717.000
463.021;  619.000; 1702.000; 1638.000
463.141;   48.300;  337.000;  770.000
463.260;   43.600;  614.000;  474.000
463.380;  105.300;  902.000;  884.000
463.499;    4.500;  342.000;  332.000
463.619;   -5.300;  581.000;  559.000
463.738;  274.200; 1644.000;  903.000
463.858;  119.600;  657.000;  811.000
463.978;    2.900;  542.000;  396.000
464.097;  167.600;  921.000; 1114.000
464.217;  304.700; 1196.000; 1143.000
464.336;  277.900; 1068.000; 1130.000
464.455;   17.300;  328.000;  659.000
464.575;  147.000;  597.000;  602.000
464.694;  408.700; 1204.000; 1179.000
464.814;  304.400; 1190.000; 1138.000
464.933;  199.600; 1095.000; 1027.000
465.052;  278.600; 1412.000; 1054.000
465.172;  229.000;  922.000;  799.000
465.291;  335.900; 1376.000; 1320.000
465.410;   92.200;  462.000;  735.000
465.530;  259.200; 1355.000; 1310.000
465.649;  212.200; 1209.000; 1273.000
465.768;  352.600; 1673.000; 1508.000
465.888;  162.300;  941.000; 1174.000
466.007;  284.900; 1335.000; 1440.000
466.126;   39.800;  721.000;  641.000
466.245;  168.700; 1176.000; 1187.000
466.364;  140.300;  950.000; 1060.000
466.484;  169.700; 1024.000; 1213.000
466.603;  152.400; 1101.000; 1222.000
466.722;  339.200; 1490.000; 1769.000
466.841;  254.100; 1151.000; 1401.000
466.960;  147.800; 1069.000;  972.000
467.079;  400.900; 1971.000; 1786.000
467.198;  173.100; 1238.000; 1181.000
467.317;  264.800; 1768.000; 1162.000
467.436;  219.100; 1709.000; 1261.000
467.555;  332.400; 1796.000; 1746.000
467.674;  177.100; 1227.000; 1329.000
467.793;  119.800; 1376.000; 1374.000
467.912;  236.300; 1658.000; 1539.000
468.031;  355.600; 2038.000; 1930.000
468.150;  371.000; 1842.000; 1837.000
468.269;  460.300; 2313.000; 2090.000
468.388;  433.800; 2168.000; 2339.000
468.507;  558.700; 2884.000; 2903.000
468.626;  659.100; 2555.000; 2541.000
468.744;  380.800; 2018.000; 2174.000
468.863;  492.000; 2312.000; 2523.000
468.982;  263.600; 1503.000; 1555.000
469.101;  498.700; 2788.000; 2692.000
469.220;  344.500; 2333.000; 2176.000
469.338;  570.900; 2935.000; 3051.000
469.457;  511.800; 2719.000; 2545.000
469.576;  783.000; 3953.000; 3784.000
469.695;  577.300; 2877.000; 3066.000
469.813;  950.400; 4148.000; 4192.000
469.932;  888.000; 4255.000; 4485.000
470.051;  954.200; 4075.000; 4161.000
470.169; 1834.300; 4470.000; 4338.000
470.288; 2991.300; 4700.000; 4809.000
470.406; 1718.300; 5059.000; 5194.000
470.525; 1344.300; 6101.000; 5787.000
470.644; 1403.900; 6847.000; 6794.000
470.762; 1712.800; 8397.000; 7873.000
470.881; 1924.400; 8651.000; 8464.000
470.999; 2133.000; 9685.000; 9151.000
471.118; 2268.700;11174.000;10711.000

