
Integration time [ms]: 100.000
Averaging Nr. [scans]: 40
Smoothing Nr. [pixels]: 0
Data measured with spectrometer [name]: 2101012U2
Wave   ;Sample   ;Dark     ;Reference
[nm]   ;[counts] ;[counts] ;[counts] 

197.733;   55.350;  516.000;  404.000
197.879;  -69.725; -610.000; -634.000
198.025;  -53.950; -475.000; -420.000
198.171;  -79.375; -602.000; -612.000
198.317;  -20.700; -401.000; -316.000
198.463;  -60.000; -655.000; -404.000
198.609;   32.650;  181.000; -137.000
198.755;  -74.775; -644.000; -410.000
198.901;  -57.750; -505.000; -424.000
199.047;  -74.275; -615.000; -488.000
199.193;  -32.425; -230.000; -468.000
199.339;  -28.250; -222.000; -369.000
199.485;   31.775;  330.000;  271.000
199.631;   10.700;  227.000;  310.000
199.777;  -53.975; -466.000; -398.000
199.923;  -70.000; -610.000; -424.000
200.069;   -6.725; -141.000;  -58.000
200.215;   52.650;  128.000;  453.000
200.361;   43.925;  243.000;  477.000
200.507;  -70.850; -600.000; -373.000
200.653;  -21.625; -371.000; -194.000
200.798;  -26.850; -215.000; -125.000
200.944;  -12.425; -146.000;  -41.000
201.090;   32.225;   61.000;  222.000
201.236;   -1.950; -116.000; -158.000
201.382;  123.125;  874.000;  903.000
201.528;    5.100;  -58.000;  -48.000
201.674;  -56.800; -386.000; -293.000
201.819;  -59.900; -540.000; -439.000
201.965;  -76.375; -699.000; -447.000
202.111;  -21.525; -273.000; -226.000
202.257;  -44.325; -250.000; -238.000
202.402;    3.775;   13.000;  -36.000
202.548;  -29.850; -169.000; -116.000
202.694;   72.275;  410.000; -183.000
202.840;  -70.825; -603.000; -531.000
202.985;  -69.750; -681.000; -639.000
203.131;  -91.525; -832.000; -666.000
203.277;  -33.350; -199.000; -262.000
203.423;  -50.125; -434.000; -520.000
203.568;  -28.100; -462.000; -237.000
203.714;  -49.575; -535.000; -542.000
203.860;  -73.150; -682.000; -641.000
204.005;   10.375;  112.000;  167.000
204.151;   72.000;  561.000;  556.000
204.296;  -29.950; -354.000; -221.000
204.442;  -61.525; -600.000; -547.000
204.588;  -68.200; -592.000; -579.000
204.733;   11.850;  178.000;  168.000
204.879; -130.750;-1018.000; -822.000
205.025;    1.000;  -99.000;  126.000
205.170;    7.625;  -17.000;   94.000
205.316;   86.900;  438.000;  661.000
205.461;  -69.625; -698.000; -554.000
205.607;   70.675;  609.000;  665.000
205.752;  -72.875; -626.000; -551.000
205.898;  -46.525; -501.000; -391.000
206.043;  -56.950; -578.000; -506.000
206.189;  -50.525; -243.000; -285.000
206.334;   69.150;  554.000;  606.000
206.480;   75.550;  409.000;  239.000
206.625;  -69.925; -529.000; -552.000
206.771;  -29.250; -451.000; -373.000
206.916;  -33.875; -210.000; -537.000
207.062;  -63.550; -545.000; -591.000
207.207;  -68.025; -546.000; -443.000
207.353;   51.250;  185.000;  460.000
207.498;   20.850;  196.000;   85.000
207.643;  -47.725; -501.000; -370.000
207.789; -124.400;-1069.000; -910.000
207.934;  -85.675; -665.000; -713.000
208.080;  -15.325; -154.000;   66.000
208.225;  -25.325;  -22.000;  -57.000
208.370;  -88.875; -727.000; -619.000
208.516;  -67.225; -741.000; -487.000
208.661;  -24.125; -127.000;  -69.000
208.806;  -21.975; -165.000; -171.000
208.952; -114.175;-1044.000; -731.000
209.097;   85.525;  378.000;  349.000
209.242;  -43.075; -307.000; -382.000
209.387;   63.775;  392.000;  350.000
209.533;  -48.975; -321.000; -350.000
209.678;   75.725;  472.000;  543.000
209.823;  -44.900; -408.000; -310.000
209.969;  -88.675; -860.000; -757.000
210.114; -114.475; -907.000; -719.000
210.259; -116.700; -939.000; -889.000
210.404;  -15.875; -171.000;  103.000
210.549;    5.650;  108.000;    3.000
210.695;   -5.250;   -3.000;  -95.000
210.840;   28.675;   94.000;   67.000
210.985;  -57.950; -484.000; -303.000
211.130;   58.800;  268.000;  406.000
211.275;   15.150;  207.000;  199.000
211.420;  -57.350; -300.000; -289.000
211.566;  -77.150; -536.000; -489.000
211.711;   20.125;  218.000;  157.000
211.856;  -59.400; -545.000; -519.000
212.001;   19.425;  151.000;   44.000
212.146;   23.850;  153.000;   49.000
212.291;  -12.125; -210.000; -186.000
212.436;  -25.250; -280.000;   -6.000
212.581;  -83.075; -685.000; -653.000
212.726;  -82.100; -487.000; -538.000
212.871;  -40.825; -552.000; -217.000
213.016; -135.575;-1172.000;-1029.000
213.161;   63.025;  406.000;  291.000
213.306;  -84.000; -435.000; -577.000
213.451;  -96.925; -778.000; -689.000
213.596;  -44.750; -455.000; -347.000
213.741;  -47.350; -448.000; -538.000
213.886;  -73.000; -498.000; -517.000
214.031;  -23.125; -294.000; -124.000
214.176;  -47.000; -408.000; -341.000
214.321;   -8.525; -296.000; -157.000
214.466;  -31.975; -163.000;  -43.000
214.611;    4.825;  -61.000;  -10.000
214.756; -112.350; -948.000; -858.000
214.901;  -26.800; -388.000; -226.000
215.046; -119.900; -797.000; -825.000
215.191;   20.400;  128.000;   35.000
215.336;  -11.325; -157.000;  -19.000
215.480;  -63.850; -684.000; -505.000
215.625;   -7.875; -175.000;  -19.000
215.770;  -73.150; -757.000; -662.000
215.915;   -6.175;   -5.000;  -97.000
216.060;   -5.050; -113.000;  -21.000
216.205; -105.950; -731.000; -779.000
216.349;  -65.250; -470.000; -533.000
216.494; -119.825; -939.000; -867.000
216.639; -111.275; -823.000; -888.000
216.784;  -87.425; -577.000; -525.000
216.929;   55.625;  392.000;  281.000
217.073;  -13.575; -244.000;  -31.000
217.218;    6.850;   78.000;  -47.000
217.363;  -80.050; -656.000; -618.000
217.507;  -87.050; -623.000; -588.000
217.652; -122.450; -845.000; -874.000
217.797;  -78.850; -708.000; -659.000
217.942;  -91.075; -856.000; -720.000
218.086;   68.450;  608.000;  539.000
218.231;  -13.275; -174.000;  -26.000
218.376;  -28.175; -337.000; -229.000
218.520;   10.475;  -41.000;   96.000
218.665;  -28.375; -338.000; -204.000
218.810;  -41.575; -275.000; -233.000
218.954;    8.850;  201.000;   35.000
219.099; -107.425; -713.000; -963.000
219.243;  -62.600; -589.000; -554.000
219.388;  -40.600; -264.000; -136.000
219.532;  -16.850; -116.000; -116.000
219.677;  -84.625; -564.000; -521.000
219.822;    2.400;   33.000;   89.000
219.966;   13.875;   17.000;  -99.000
220.111;  -18.425; -328.000;  -40.000
220.255;  -89.200; -797.000; -750.000
220.400;  -31.600; -180.000; -146.000
220.544;  -64.725; -516.000; -450.000
220.689;  -53.200; -422.000; -451.000
220.833;  -23.600; -123.000;  -58.000
220.978;  -43.075; -393.000; -563.000
221.122;   11.825;  319.000;  307.000
221.267; -108.425; -906.000; -837.000
221.411;  -75.775; -478.000; -394.000
221.555;   -4.125; -104.000;  -23.000
221.700;  -46.275; -329.000; -222.000
221.844;   33.325;  255.000;  272.000
221.989;  -47.850; -328.000; -311.000
222.133;  -24.600; -289.000; -307.000
222.277;   -6.000;    5.000;   78.000
222.422;   19.000;  227.000;  113.000
222.566;  -34.650; -381.000; -214.000
222.711;  -52.600; -414.000; -479.000
222.855;  -75.875; -643.000; -586.000
222.999;  -88.775; -642.000; -717.000
223.144;  -24.125; -195.000; -194.000
223.288;   58.975;  423.000;  251.000
223.432;   30.700;  184.000;  230.000
223.576;   12.400;  152.000;  -21.000
223.721;   29.800;  364.000;  273.000
223.865;  -43.475; -472.000; -475.000
224.009;  229.250; 1673.000; 1631.000
224.153;  -86.175; -660.000; -671.000
224.298;  -69.375; -531.000; -489.000
224.442;   -5.250;  -74.000;  -33.000
224.586;   -0.150; -169.000; -106.000
224.730;  -86.675; -858.000; -670.000
224.875; -105.300; -739.000; -688.000
225.019;    3.825;  102.000;  188.000
225.163;   54.425;  208.000;  341.000
225.307;   26.100;   97.000;  -91.000
225.451;   36.225;  360.000;  481.000
225.595;   36.375;  264.000;  176.000
225.739;  -22.050; -170.000;  -94.000
225.884;   10.025;   86.000;    5.000
226.028;  -89.775; -760.000; -626.000
226.172;  -30.200; -260.000; -273.000
226.316; -109.975; -941.000; -902.000
226.460;  -66.125; -645.000; -493.000
226.604;  -60.525; -406.000; -400.000
226.748; -105.700; -836.000; -733.000
226.892;  -30.475; -227.000; -181.000
227.036;  -43.050; -537.000; -447.000
227.180;  -53.250; -551.000; -375.000
227.324;  -59.900; -561.000; -580.000
227.468; -119.650; -819.000; -717.000
227.612;   18.375;  242.000;  -28.000
227.756; -107.625; -845.000; -698.000
227.900;   50.175;  342.000;  441.000
228.044;  -58.050; -509.000; -290.000
228.188;   51.800;  448.000;  568.000
228.332;  -85.150; -546.000; -472.000
228.476;  -17.325; -223.000; -149.000
228.620;  -32.850; -210.000; -150.000
228.764;   62.925;  431.000;  349.000
228.908;  -12.400; -155.000;   30.000
229.052;  -59.075; -615.000; -528.000
229.195;  -21.200; -172.000;   13.000
229.339;  -23.975; -235.000; -305.000
229.483;  -20.250;    5.000; -162.000
229.627;    1.775; -156.000;  139.000
229.771;  -41.125; -218.000; -294.000
229.915;   11.300;  230.000;   79.000
230.059;  -92.550; -648.000; -663.000
230.202;  -37.450; -370.000; -317.000
230.346;  -12.850; -107.000;  107.000
230.490;  -63.450; -489.000; -521.000
230.634;  -98.600; -736.000; -553.000
230.777;   70.300;  478.000;  509.000
230.921;  -54.175; -450.000; -359.000
231.065;  -36.550; -246.000; -286.000
231.209;   29.275;  261.000;  265.000
231.352;   19.700;   54.000;   40.000
231.496;   24.225;  568.000;  188.000
231.640;  -77.800; -693.000; -621.000
231.783;   69.800;  546.000;  525.000
231.927;  -47.550; -294.000; -365.000
232.071; -112.025; -962.000; -736.000
232.214; -117.200; -980.000; -764.000
232.358;  -83.225; -683.000; -599.000
232.502;    3.900;  -19.000;    7.000
232.645; -132.525;-1090.000; -927.000
232.789;  -30.100; -257.000; -218.000
232.933;  -33.650; -407.000; -224.000
233.076; -114.525;-1038.000; -897.000
233.220; -110.475; -752.000; -777.000
233.363;  -67.250; -669.000; -477.000
233.507;   52.400;  371.000;  129.000
233.650; -109.525; -764.000; -834.000
233.794;   37.350;  438.000;  461.000
233.938;  -51.825; -530.000; -362.000
234.081;  -22.425;  -93.000;   31.000
234.225;  -68.175; -631.000; -539.000
234.368; -102.375; -773.000; -723.000
234.512;  -39.700; -385.000; -299.000
234.655;  -94.075; -582.000; -555.000
234.798;  -72.700; -493.000; -466.000
234.942; -124.200; -884.000;-1002.000
235.085;  -67.200; -651.000; -443.000
235.229;  -70.775; -405.000; -410.000
235.372;  -41.575; -247.000; -191.000
235.516;  -51.775; -397.000; -321.000
235.659;   15.650;   92.000;  121.000
235.802;  -16.875;  -38.000;  -22.000
235.946;   12.900;  335.000;  215.000
236.089;   19.150;  126.000;  250.000
236.233;   35.225;  275.000;  298.000
236.376;  -43.925; -235.000; -378.000
236.519;  -53.375; -297.000; -319.000
236.663;  -20.475; -215.000; -117.000
236.806; -122.875;-1029.000; -999.000
236.949;   39.550;  543.000;  431.000
237.092;   46.650;  412.000;  391.000
237.236;  -77.850; -589.000; -502.000
237.379;   57.300;  352.000;  428.000
237.522; -111.100; -879.000; -768.000
237.666;   -8.700; -271.000;   18.000
237.809; -126.400; -851.000; -823.000
237.952;   39.650;  469.000;  271.000
238.095;  -62.450; -447.000; -442.000
238.238;   78.850;  688.000;  700.000
238.382;  -17.925;  166.000;  103.000
238.525;  -55.100; -598.000; -511.000
238.668; -135.525;-1060.000; -985.000
238.811;  -81.650; -638.000; -643.000
238.954;  -51.750; -483.000; -334.000
239.097;   86.550;  617.000;  664.000
239.241;   11.350;  394.000;  326.000
239.384;  -22.925; -254.000; -214.000
239.527;  -72.375; -424.000; -224.000
239.670; -148.300; -994.000;-1091.000
239.813; -111.950; -696.000; -658.000
239.956;   74.375;  579.000;  473.000
240.099; -106.975; -778.000; -725.000
240.242;   51.950;  428.000;  432.000
240.385;   35.525;  466.000;  450.000
240.528;  -59.975; -706.000; -473.000
240.671;   20.350;  189.000;  134.000
240.814;  -39.375; -441.000; -158.000
240.957;  -97.200; -767.000; -578.000
241.100;  -83.575; -779.000; -755.000
241.243; -134.300;-1234.000; -893.000
241.386;  -55.125; -508.000; -379.000
241.529;  -88.425; -735.000; -547.000
241.672;  -62.675; -566.000; -495.000
241.815; -116.475; -832.000; -808.000
241.958;  -31.900; -125.000; -182.000
242.101;  -65.950; -545.000; -390.000
242.244;  -42.050; -270.000; -325.000
242.387;  -42.200; -304.000; -246.000
242.530;   45.700;  470.000;  134.000
242.673;  -42.375; -381.000; -309.000
242.815; -108.025; -925.000; -899.000
242.958;  -60.925; -482.000; -381.000
243.101;    1.375;  132.000;  187.000
243.244;  -76.775; -564.000; -521.000
243.387;  -48.175; -313.000; -316.000
243.530;  -83.750; -657.000; -674.000
243.672;   -1.425;   43.000;  -92.000
243.815;  -53.400; -355.000; -283.000
243.958;   -6.025;   98.000;  -26.000
244.101;  -12.125;   59.000;  -16.000
244.243;   -8.250;  -47.000;  101.000
244.386; -110.675; -761.000; -630.000
244.529;  -18.950; -132.000; -139.000
244.672; -145.100;-1154.000; -951.000
244.814;  -95.400; -621.000; -794.000
244.957;  -41.050; -380.000; -304.000
245.100;  -70.700; -489.000; -489.000
245.242;  -66.375; -387.000; -374.000
245.385;   -2.350;  -59.000;  -39.000
245.528; -105.650; -871.000; -705.000
245.670;   82.925;  612.000;  634.000
245.813;  -84.775; -599.000; -547.000
245.956;  -29.450; -324.000; -275.000
246.098;  -76.775; -508.000; -650.000
246.241;   -0.175;  194.000;   48.000
246.383;  -20.300; -119.000;  -73.000
246.526;  -69.525; -454.000; -525.000
246.669; -104.925; -889.000; -780.000
246.811;   10.275;  172.000;   -1.000
246.954;  -68.125; -512.000; -426.000
247.096;  -30.250;  -84.000;   -6.000
247.239;  -65.350; -482.000; -445.000
247.381;  -82.375; -647.000; -488.000
247.524;   85.800;  645.000;  679.000
247.666;   -3.000;   58.000;   11.000
247.809; -108.650; -887.000; -691.000
247.951;   -8.500;  -75.000;  138.000
248.094;   16.150;  432.000;  308.000
248.236; -147.875;-1262.000;-1238.000
248.378;  -14.625; -356.000;  -81.000
248.521;  -24.675; -334.000; -337.000
248.663;  -46.450; -236.000; -267.000
248.806;  -25.025; -300.000; -266.000
248.948; -113.825; -886.000; -763.000
249.090;  -40.175; -428.000; -398.000
249.233;  -61.200; -344.000; -381.000
249.375;  -64.925; -474.000; -451.000
249.518;  -29.000;  -83.000; -133.000
249.660;  -12.125; -103.000;    3.000
249.802; -173.350;-1303.000;-1189.000
249.945;  -70.650; -612.000; -540.000
250.087; -113.100; -834.000; -768.000
250.229;  -51.350; -362.000; -480.000
250.371;  -71.725; -494.000; -439.000
250.514;  -44.125; -310.000; -244.000
250.656;  -47.450;   69.000;  102.000
250.798; -114.175; -849.000; -800.000
250.940;  -64.475; -322.000; -322.000
251.083;  -36.075; -335.000; -111.000
251.225;   54.100;  338.000;  310.000
251.367;  -31.100; -274.000; -373.000
251.509;  -31.375; -265.000; -210.000
251.651;  -92.750; -731.000; -671.000
251.794;   50.325;  538.000;  632.000
251.936; -118.975; -821.000; -747.000
252.078;  -75.000; -540.000; -461.000
252.220;  -67.700; -645.000; -477.000
252.362;   77.275;  344.000;  462.000
252.504;  -80.625; -677.000; -584.000
252.646; -111.575; -875.000; -722.000
252.788;  -13.650;   14.000; -128.000
252.931;  -58.675; -257.000; -253.000
253.073;  -42.675; -376.000; -317.000
253.215;   -7.875;  141.000;  122.000
253.357;  -15.975;   82.000; -153.000
253.499;  -43.775; -374.000; -234.000
253.641;  -93.100; -749.000; -594.000
253.783;  -81.500; -609.000; -527.000
253.925;  -91.025; -586.000; -591.000
254.067; -107.950; -744.000; -667.000
254.209;  -31.250; -391.000; -259.000
254.351; -134.325; -865.000; -883.000
254.493;  -58.050; -441.000; -417.000
254.635; -121.900; -936.000; -818.000
254.777;  -90.725; -752.000; -687.000
254.918;  -57.175; -512.000; -430.000
255.060;  -65.875; -551.000; -395.000
255.202;  -55.600; -473.000; -261.000
255.344;  -65.850; -658.000; -455.000
255.486;  -77.350; -471.000; -406.000
255.628; -116.300; -780.000; -781.000
255.770;  -87.825; -676.000; -536.000
255.912;  -76.550; -559.000; -468.000
256.053;  -92.150; -730.000; -508.000
256.195;  143.075; 1008.000;  903.000
256.337;  -94.475; -861.000; -595.000
256.479;   54.575;  532.000;  416.000
256.621;  -50.000; -394.000; -212.000
256.762;  -94.200; -789.000; -742.000
256.904;   37.375;  485.000;  487.000
257.046;  -55.625; -381.000; -271.000
257.188;  -56.400; -351.000; -264.000
257.329;  -83.725; -525.000; -464.000
257.471; -115.600; -939.000; -807.000
257.613;  -67.375; -584.000; -498.000
257.755; -135.750;-1073.000; -982.000
257.896;   35.225;  286.000;  392.000
258.038;  -77.975; -403.000; -352.000
258.180;  -41.650; -354.000; -279.000
258.321;  -74.825; -581.000; -457.000
258.463;  -13.750;  -71.000;  133.000
258.605;  -79.075; -562.000; -570.000
258.746;  -98.725; -886.000; -772.000
258.888; -155.625;-1026.000;-1020.000
259.029;    8.675;  121.000;   -8.000
259.171;  -91.900; -614.000; -550.000
259.313;    3.425;  -49.000;  -47.000
259.454;  -70.675; -536.000; -414.000
259.596;  -63.200; -483.000; -390.000
259.737;  -81.625; -590.000; -474.000
259.879;   23.700;  217.000;  311.000
260.020;   73.450;  901.000;  636.000
260.162;  -27.550; -146.000; -253.000
260.303; -106.550; -768.000; -687.000
260.445;  -86.925; -609.000; -613.000
260.586;   24.425;  392.000;  157.000
260.728;  -38.650; -360.000; -248.000
260.869;  -81.725; -350.000; -343.000
261.011;   75.600;  706.000;  537.000
261.152;  -58.250; -479.000; -319.000
261.293;  -85.975; -576.000; -595.000
261.435;  -32.500; -219.000; -184.000
261.576;  -56.000; -455.000; -325.000
261.718;   49.975;  420.000;  470.000
261.859; -117.775; -940.000; -949.000
262.000; -129.225; -951.000;-1016.000
262.142;  -25.625;  -52.000;  -60.000
262.283; -110.775; -808.000; -691.000
262.424;  -82.175; -666.000; -625.000
262.566; -138.700;-1161.000; -983.000
262.707; -116.925; -840.000; -830.000
262.848; -120.200; -769.000; -726.000
262.990;  -42.100; -362.000; -345.000
263.131;   68.650;  650.000;  681.000
263.272;  -13.500;  -61.000;  -41.000
263.413;  -92.600; -589.000; -561.000
263.555;  -64.200; -669.000; -143.000
263.696;  -91.775; -550.000; -641.000
263.837;  -61.375; -449.000; -551.000
263.978;    3.400;   -5.000;  -77.000
264.119;  -55.200; -283.000; -264.000
264.261; -113.900; -847.000; -630.000
264.402;    8.425;   33.000;   40.000
264.543;  -80.950; -509.000; -524.000
264.684;  -18.275;   61.000;  -50.000
264.825;  -67.600; -816.000; -538.000
264.966;   -6.750;  -84.000;  -67.000
265.107; -120.925; -646.000; -670.000
265.248; -117.425; -825.000; -812.000
265.390;  -15.250;  152.000;   -9.000
265.531;  -35.325; -238.000; -107.000
265.672;  -91.525; -557.000; -630.000
265.813;   61.325;  563.000;  439.000
265.954; -140.325; -959.000; -940.000
266.095;  -19.125; -372.000; -322.000
266.236; -117.075; -686.000; -548.000
266.377;  -32.475; -243.000; -297.000
266.518;  -74.050; -619.000; -547.000
266.659;    8.375;  170.000;  268.000
266.800;   -7.625;   83.000;   85.000
266.941;  -69.050; -487.000; -478.000
267.082;   -0.450;  354.000;   99.000
267.223;  -44.900; -344.000; -273.000
267.364; -111.075; -892.000; -686.000
267.504;  -30.650;    3.000;  135.000
267.645;    2.100;  160.000;   67.000
267.786;  -46.200; -147.000;  -86.000
267.927;  -79.275; -473.000; -379.000
268.068;  -15.125; -186.000;  -61.000
268.209;  -58.200; -175.000; -413.000
268.350;  -62.950; -388.000; -532.000
268.490;  -89.000; -648.000; -521.000
268.631;   29.575;  127.000;  225.000
268.772; -109.700; -874.000; -647.000
268.913;  -56.900; -328.000; -476.000
269.054;  -25.300; -117.000;   12.000
269.194;  -44.575; -418.000; -402.000
269.335; -160.700;-1137.000;-1074.000
269.476;  -18.625;   33.000;  -35.000
269.617;  -57.825; -347.000; -392.000
269.757;  -89.725; -713.000; -646.000
269.898; -101.000; -856.000; -613.000
270.039;  -74.375; -415.000; -405.000
270.180; -136.275; -952.000; -816.000
270.320;  -34.950; -190.000; -250.000
270.461;  -46.275; -277.000; -249.000
270.602;  -17.675; -186.000; -156.000
270.742; -126.100; -868.000; -943.000
270.883;  -67.850; -442.000; -390.000
271.023;  -66.375; -358.000; -357.000
271.164;  -81.200; -607.000; -528.000
271.305; -103.550; -666.000; -654.000
271.445;  -95.050; -722.000; -683.000
271.586;  -73.825; -462.000; -283.000
271.726;  -48.000; -397.000; -322.000
271.867;  -79.850; -594.000; -534.000
272.008;   45.075; -473.000; -285.000
272.148;   77.275;  462.000;  468.000
272.289;    2.150; -113.000; -181.000
272.429;   -8.850;   19.000;  185.000
272.570; -113.600; -633.000; -737.000
272.710; -108.100; -825.000; -775.000
272.851;  -18.700;  113.000; -130.000
272.991; -162.825;-1173.000;-1077.000
273.131;  -67.875; -419.000; -459.000
273.272; -111.250; -683.000; -723.000
273.412;   -2.675; -143.000;  -31.000
273.553;  -62.500; -488.000; -507.000
273.693;  106.775;  913.000;  858.000
273.834; -130.550; -894.000; -692.000
273.974;  -92.400; -664.000; -615.000
274.114;  -98.800; -772.000; -560.000
274.255;   44.625;  414.000;  373.000
274.395;  -29.200; -180.000; -125.000
274.535;   30.950;  199.000;  350.000
274.676;   16.575;  225.000;   94.000
274.816;   -7.675;  110.000;   34.000
274.956;  -91.500; -624.000; -690.000
275.097;  -99.975;-1014.000; -922.000
275.237; -121.275; -913.000; -803.000
275.377;  -96.275; -778.000; -689.000
275.517; -145.025; -878.000; -937.000
275.658;  -73.100; -590.000; -555.000
275.798;  -80.550; -606.000; -413.000
275.938;   -1.025;  215.000;  323.000
276.078;  -85.925; -626.000; -395.000
276.218;    1.950;   99.000;  104.000
276.359; -140.300;-1026.000;-1024.000
276.499;  -77.925; -605.000; -446.000
276.639;  -43.675; -305.000; -151.000
276.779;  -65.000; -475.000; -357.000
276.919; -110.375; -783.000; -624.000
277.059;  -27.125; -261.000; -212.000
277.199;  -54.075; -357.000; -259.000
277.340;   29.400;  287.000;  175.000
277.480; -111.900; -840.000; -693.000
277.620;   40.125;  192.000;   16.000
277.760; -191.250;-1533.000;-1294.000
277.900;    1.850;  113.000;   33.000
278.040;    2.600;  137.000;  159.000
278.180;   12.325;  270.000;  170.000
278.320;   -9.050;   21.000;   56.000
278.460;  -69.300; -443.000; -469.000
278.600;  -85.450; -708.000; -598.000
278.740;   39.400;  448.000;  224.000
278.880; -111.875; -768.000; -791.000
279.020;  -26.675; -194.000; -144.000
279.160;  -93.575; -672.000; -595.000
279.300; -110.325; -926.000; -873.000
279.440;  -94.675; -709.000; -622.000
279.579;  -79.825;-1014.000; -929.000
279.719;  -71.675; -410.000; -394.000
279.859;   22.425;   -4.000;   41.000
279.999;  -16.000; -208.000;  101.000
280.139;  -42.025; -435.000; -387.000
280.279;  -84.275; -708.000; -745.000
280.419;   -9.000; -229.000; -147.000
280.559;  -44.425; -259.000; -180.000
280.698;  -88.075; -790.000; -639.000
280.838; -113.500; -778.000; -800.000
280.978;  -99.525; -846.000; -790.000
281.118; -111.375; -811.000; -704.000
281.257;   -0.100;   24.000;    6.000
281.397; -142.850;-1094.000; -960.000
281.537;  -93.175; -599.000; -712.000
281.677;  -39.075; -150.000; -101.000
281.816;  -92.425; -700.000; -630.000
281.956;  -35.975; -193.000; -257.000
282.096;  -63.800; -539.000; -396.000
282.235; -100.425; -672.000; -638.000
282.375;  -33.875; -243.000;  -98.000
282.515; -107.400; -715.000; -707.000
282.654;    9.575;   29.000;  106.000
282.794;   17.250;  388.000;  244.000
282.934;  -67.725; -530.000; -491.000
283.073; -146.875;-1030.000; -857.000
283.213;  -56.375; -460.000; -467.000
283.353;  -47.350; -408.000; -349.000
283.492;  -37.675; -264.000; -296.000
283.632;  -54.850; -254.000; -168.000
283.771;  -95.925; -859.000; -730.000
283.911;  -56.200; -369.000; -260.000
284.050; -101.625; -794.000; -748.000
284.190; -159.900;-1229.000;-1096.000
284.329; -145.625;-1055.000; -964.000
284.469;  -95.925; -516.000; -591.000
284.608;  -63.525; -559.000; -598.000
284.748;  -84.075; -614.000; -570.000
284.887;  -12.650;  -87.000;  -20.000
285.027; -124.000; -844.000; -892.000
285.166;  -35.550; -192.000; -249.000
285.306;  -12.700; -116.000;  -33.000
285.445;  -45.475; -229.000; -343.000
285.584;  -96.650; -630.000; -494.000
285.724;  -37.975; -282.000; -322.000
285.863; -110.175; -857.000; -507.000
286.002;  -67.600; -366.000; -276.000
286.142; -105.350; -715.000; -622.000
286.281;  -61.950; -525.000; -493.000
286.420;  -87.225; -554.000; -417.000
286.560;   83.025;  653.000;  623.000
286.699; -132.725; -958.000; -912.000
286.838;  -90.400; -590.000; -591.000
286.978; -101.325; -533.000; -537.000
287.117; -141.900;-1085.000; -950.000
287.256;  -31.275; -228.000; -211.000
287.395;  -45.800; -197.000; -378.000
287.535;  -53.350; -370.000; -298.000
287.674;  -90.900; -509.000; -484.000
287.813;   45.750;  661.000;  533.000
287.952; -134.400;-1010.000; -871.000
288.091; -142.725;-1049.000; -915.000
288.231;  -15.250;   13.000;   15.000
288.370; -182.800;-1217.000;-1200.000
288.509;  -90.550; -728.000; -645.000
288.648;  -89.850; -770.000; -548.000
288.787;  -37.500; -243.000;  -87.000
288.926;  -75.800; -454.000; -475.000
289.065;   95.875;  859.000;  672.000
289.204;  -61.775; -377.000; -217.000
289.344;  -90.950; -791.000; -690.000
289.483;    1.775;  416.000;  304.000
289.622;  -43.700; -291.000; -149.000
289.761;  -19.125; -309.000; -166.000
289.900; -110.250; -785.000; -626.000
290.039;  -34.250;  -12.000;  -95.000
290.178;  -48.300; -274.000; -180.000
290.317;  -93.075; -618.000; -479.000
290.456;  -72.650; -463.000; -451.000
290.595; -121.850; -961.000; -833.000
290.734; -132.400; -904.000; -891.000
290.873;  -71.700; -456.000; -420.000
291.011; -116.875; -833.000; -843.000
291.150; -113.525; -770.000; -682.000
291.289;  -41.475; -343.000; -110.000
291.428; -107.200; -599.000; -480.000
291.567;  -48.150; -370.000; -442.000
291.706;  -30.250;  109.000;  154.000
291.845;  -99.625; -597.000; -505.000
291.984; -172.400;-1234.000;-1061.000
292.122;   64.200;  602.000;  582.000
292.261;   26.825;  620.000;  463.000
292.400;  -11.075; -144.000;  211.000
292.539; -129.950; -959.000; -813.000
292.678;  -39.350; -325.000; -300.000
292.816; -155.125;-1136.000; -965.000
292.955; -106.150; -844.000; -684.000
293.094;  -33.550; -173.000; -337.000
293.233;  -55.650; -556.000; -400.000
293.371;  -45.725; -225.000;  -84.000
293.510; -103.825; -866.000; -780.000
293.649; -134.350; -959.000; -924.000
293.787; -111.900;-1083.000;-1012.000
293.926;   -7.600; -113.000;  -32.000
294.065;  -55.050; -379.000; -290.000
294.203;   19.175;  298.000;  406.000
294.342;   20.050;   74.000;  156.000
294.481; 5955.025;51180.000; -836.000
294.619;  -31.400; -425.000; -582.000
294.758; -150.075;-1230.000;-1137.000
294.896;    9.100; -125.000;    5.000
295.035; -129.300;-1040.000;-1006.000
295.174; -141.725;-1082.000; -954.000
295.312;  -48.200; -323.000; -203.000
295.451;  -51.150; -307.000; -428.000
295.589;  -77.800; -389.000; -518.000
295.728;    3.650; -292.000; -165.000
295.866;   -0.200;  -36.000;  -51.000
296.005;  -87.075; -584.000; -341.000
296.143;  -86.250; -558.000; -596.000
296.282; -115.100; -957.000; -881.000
296.420;  -81.525; -657.000; -557.000
296.559;  -99.550; -892.000; -633.000
296.697;  -68.150; -847.000; -665.000
296.835;  -93.550;-1141.000;-1002.000
296.974;    1.375;  -23.000;   39.000
297.112;  -44.825; -443.000; -504.000
297.251;  -93.425; -815.000; -755.000
297.389;  -24.525; -576.000; -438.000
297.527;   -3.925; -145.000;  -83.000
297.666;  -73.550; -486.000; -438.000
297.804;  -66.175; -404.000; -264.000
297.942;  -14.650; -136.000; -161.000
298.081;   -9.350; -183.000;   63.000
298.219;    4.875;  -17.000;  -19.000
298.357;  -14.550; -144.000;  -71.000
298.495;  -70.675; -810.000; -812.000
298.634;   18.575;  245.000;  219.000
298.772;  -39.575; -220.000; -338.000
298.910;  -50.950; -309.000; -182.000
299.048;  -18.050; -130.000; -153.000
299.187;  -40.800; -350.000; -250.000
299.325;   -8.275;   52.000;  122.000
299.463;  -46.000; -389.000; -299.000
299.601;    4.175; -327.000; -271.000
299.739; -128.350; -908.000; -883.000
299.877; -106.250; -791.000; -703.000
300.016; -114.875;-1095.000; -935.000
300.154;   26.650;  -19.000; -161.000
300.292;  -37.675; -428.000; -348.000
300.430;  -31.175; -408.000; -291.000
300.568; -120.150; -940.000; -874.000
300.706;  -56.200; -366.000; -469.000
300.844; -138.150;-1108.000; -979.000
300.982;   67.150;  246.000;  282.000
301.120; -125.950; -965.000; -866.000
301.258;  -89.425; -812.000; -705.000
301.396;  -10.600;  104.000;  -41.000
301.534;  -17.100; -218.000; -293.000
301.672;  -81.950; -664.000; -521.000
301.810;  -71.700; -613.000; -545.000
301.948;    9.025;   53.000;  149.000
302.086;  195.550; -250.000;  -32.000
302.224;  209.425; -610.000; -585.000
302.362;  -72.350; -558.000; -622.000
302.500; -111.950; -923.000; -893.000
302.638;   34.450;  128.000;  245.000
302.776;  -46.575; -352.000; -408.000
302.913;   27.775;  447.000;  236.000
303.051;  -36.450;  -86.000;  -23.000
303.189;   11.725;   90.000;  118.000
303.327;  -52.375; -341.000; -256.000
303.465; -100.925; -832.000; -588.000
303.603;  -93.300; -805.000; -604.000
303.740;   46.900;  417.000;  241.000
303.878;  -92.325; -800.000; -759.000
304.016; -102.475; -915.000; -790.000
304.154; -146.950;-1123.000;-1152.000
304.291;  -66.200; -505.000; -554.000
304.429;   -7.700;  102.000;   74.000
304.567; -127.675; -908.000; -893.000
304.705;  -73.425; -408.000; -515.000
304.842;  -18.375; -616.000; -540.000
304.980;   25.075;  215.000;   35.000
305.118;  -30.825; -367.000; -365.000
305.255; -126.825; -945.000; -927.000
305.393;   28.950;  178.000;  239.000
305.531; -142.700;-1173.000; -956.000
305.668;  -92.650; -663.000; -582.000
305.806;   -4.375; -358.000; -439.000
305.943;  -17.600; -629.000; -637.000
306.081;  -18.400; -378.000; -267.000
306.219; -112.025; -863.000; -748.000
306.356;   -4.050;  158.000;   27.000
306.494;  108.050;  981.000;  761.000
306.631;   -7.425;  -11.000;  -55.000
306.769;  -42.600; -613.000; -485.000
306.906;  -47.100; -284.000; -258.000
307.044;  -65.950; -473.000; -488.000
307.181;  -57.000; -410.000; -332.000
307.319;    2.000;  112.000;   87.000
307.456; -172.525;-1191.000;-1153.000
307.594; -123.050; -980.000; -727.000
307.731;  -37.075; -371.000; -164.000
307.868;  -19.000;  -15.000;   20.000
308.006; -131.050; -961.000; -847.000
308.143;  -71.475; -618.000; -330.000
308.281;   15.250;  -37.000; -254.000
308.418;  -64.450; -748.000; -640.000
308.555;  -85.925; -400.000; -250.000
308.693;  -68.150; -577.000; -573.000
308.830;  -98.075; -712.000; -657.000
308.967;  -21.025; -215.000;  -95.000
309.105;  -40.600; -507.000; -396.000
309.242;   -3.175; -468.000; -367.000
309.379;   25.850; -577.000; -655.000
309.517; -106.425; -936.000; -948.000
309.654; -115.550; -910.000; -734.000
309.791;  -65.575; -662.000; -580.000
309.928; -123.300; -977.000; -914.000
310.065;  110.600;  819.000;  697.000
310.203;  -89.900; -825.000; -850.000
310.340;  -55.975; -465.000; -321.000
310.477;  -88.575; -412.000; -516.000
310.614;  -68.325; -383.000; -473.000
310.751;  -73.025; -427.000; -518.000
310.889;  -15.100;    1.000;   11.000
311.026; -130.400;-1161.000; -939.000
311.163;  -40.225; -386.000; -380.000
311.300;  -90.500; -512.000; -479.000
311.437;  -83.125; -658.000; -619.000
311.574; -150.500;-1226.000; -985.000
311.711;  -66.175; -595.000; -433.000
311.848;  -40.375; -380.000; -388.000
311.985;    0.325;  270.000;   93.000
312.122; -117.650; -932.000; -762.000
312.259; -109.425; -941.000; -994.000
312.396;  -81.225; -508.000; -551.000
312.533;  -73.900; -812.000; -790.000
312.670; -145.175;-1070.000; -898.000
312.807;  -38.650; -352.000; -367.000
312.944;  -75.925; -513.000; -611.000
313.081;  -38.675; -150.000; -415.000
313.218;  -97.675;-1111.000; -867.000
313.355;  -11.000; -531.000; -449.000
313.492;  -22.975; -455.000; -292.000
313.629;  118.950;  815.000;  735.000
313.766; -155.050;-1176.000;-1008.000
313.902;  -17.550; -186.000;   21.000
314.039;  -58.725; -372.000; -289.000
314.176;   32.325;  286.000;  192.000
314.313;  -78.450; -569.000; -473.000
314.450;  -82.100; -788.000; -684.000
314.587;  -70.775; -468.000; -480.000
314.723;    9.350;  -78.000;  130.000
314.860;   28.650;  318.000;  332.000
314.997;   25.300;  223.000;  142.000
315.134;  -45.125; -385.000; -368.000
315.270;  -34.025; -480.000; -496.000
315.407; -117.750;-1094.000; -967.000
315.544;  -45.575; -657.000; -538.000
315.681;  -67.600; -681.000; -565.000
315.817;   33.800; -133.000; -176.000
315.954;   20.025; -613.000; -392.000
316.091; -120.525;-1045.000;-1023.000
316.227;  -24.025;  -71.000; -179.000
316.364;    2.550;   23.000;    6.000
316.500;  -50.850; -113.000; -300.000
316.637;  -35.700; -181.000; -302.000
316.774;  -85.550; -625.000; -358.000
316.910;  -85.850; -598.000; -629.000
317.047;  -80.825; -487.000; -351.000
317.183;  -64.100; -435.000; -566.000
317.320;   20.650; -367.000; -321.000
317.456;  -44.500; -733.000; -805.000
317.593;  -87.950; -598.000; -641.000
317.729;  -10.375;  168.000;  -67.000
317.866; -198.150;-1434.000;-1285.000
318.002;  -94.400; -708.000; -948.000
318.139; -133.775; -883.000; -867.000
318.275; -117.300;-1003.000; -738.000
318.412;  -73.450; -517.000; -336.000
318.548;  -77.725; -751.000; -720.000
318.685; -110.625; -985.000; -888.000
318.821;  -87.925; -762.000; -735.000
318.957;  -32.150;   34.000;  -23.000
319.094;   31.400;  297.000;  154.000
319.230;  -93.675; -756.000; -742.000
319.367;  -14.700; -471.000; -520.000
319.503;  -38.075; -538.000; -436.000
319.639; -108.150; -877.000; -793.000
319.775;  -97.750; -750.000; -685.000
319.912;  -60.125; -424.000; -519.000
320.048;  -94.875;-1184.000;-1184.000
320.184;   85.175;   59.000;   70.000
320.321;  -58.300; -497.000; -467.000
320.457;   58.700;  475.000;  662.000
320.593;  -61.500; -375.000; -382.000
320.729; -111.800; -732.000; -734.000
320.866;  -72.950; -577.000; -635.000
321.002; -103.025; -759.000; -809.000
321.138;  -36.400; -135.000; -211.000
321.274;   24.425; -148.000; -115.000
321.410;  -74.750; -585.000; -353.000
321.546; -112.675;-1011.000; -911.000
321.683;   17.875;  400.000;  185.000
321.819;  -24.500;  -48.000; -117.000
321.955; -107.575; -743.000; -722.000
322.091;  -76.900; -585.000; -540.000
322.227;  -44.350; -382.000; -202.000
322.363;  -54.225; -320.000; -215.000
322.499;  -73.975; -343.000; -331.000
322.635;   87.550;  636.000;  443.000
322.771;  -13.400; -139.000;   12.000
322.907;   44.725;  129.000;  327.000
323.043;  -43.825; -115.000; -206.000
323.179;  -58.700; -394.000; -363.000
323.315;  -60.075; -401.000; -371.000
323.451;   16.600; -328.000; -236.000
323.587;   26.225;  -60.000;  -77.000
323.723;  -59.675; -682.000; -601.000
323.859;  -25.750; -258.000;  -76.000
323.995;  -41.850; -467.000; -409.000
324.131; -128.450; -967.000; -892.000
324.267;  -42.000; -254.000; -276.000
324.402; -141.925; -960.000; -983.000
324.538;  -52.450; -279.000; -104.000
324.674;   -5.700;  164.000;   77.000
324.810;   42.575;  226.000;  308.000
324.946;  -47.350; -810.000; -658.000
325.082;  -73.250; -568.000; -475.000
325.217;  -26.150;  -62.000;   16.000
325.353; -110.925; -764.000; -659.000
325.489;  -89.675; -540.000; -506.000
325.625;  -76.375; -579.000; -525.000
325.760;   72.525;  517.000;  376.000
325.896;   16.775; -515.000; -702.000
326.032;  -51.575; -403.000; -352.000
326.168;  -73.775; -462.000; -369.000
326.303;  -72.550; -352.000; -461.000
326.439;  -26.000; -336.000; -276.000
326.575;  -15.625; -190.000;  -29.000
326.710;  -30.975; -156.000;  -30.000
326.846;  -28.650;  146.000;  103.000
326.982;  -86.850; -530.000; -548.000
327.117;  -68.675; -481.000; -442.000
327.253;  -91.725; -745.000; -742.000
327.388; -135.175;-1137.000;-1153.000
327.524;  -94.525; -811.000; -578.000
327.659;  -30.750;  -58.000;  -22.000
327.795;  -25.075;   69.000;   45.000
327.931;  -76.500; -723.000; -499.000
328.066;  -35.225; -417.000; -276.000
328.202;  -23.775;   12.000; -129.000
328.337;   89.700;  957.000;  713.000
328.473;   29.075;  -12.000;  -74.000
328.608;  -34.300; -256.000; -267.000
328.743; -112.100; -799.000; -664.000
328.879;    6.875;  214.000;  114.000
329.014;  -36.650; -102.000; -122.000
329.150;  -91.025; -358.000; -483.000
329.285;  -91.425; -465.000; -466.000
329.421;  -61.000; -548.000; -246.000
329.556;  -30.500;  -36.000;   85.000
329.691;  -94.450; -633.000; -615.000
329.827;  -91.050; -626.000; -480.000
329.962;  -44.050;  131.000; -301.000
330.097;  -85.250; -673.000; -585.000
330.233;  -35.650; -410.000; -223.000
330.368; -130.125; -839.000; -628.000
330.503;  -21.525;    3.000;   98.000
330.638;  -40.975;  -93.000; -125.000
330.774;  -85.125; -609.000; -530.000
330.909;  -56.325; -434.000; -244.000
331.044; -101.450; -714.000; -708.000
331.179; -163.450;-1217.000;-1109.000
331.315;    2.825;   77.000;   20.000
331.450;   -3.250;  157.000;  285.000
331.585;  -90.850; -805.000; -706.000
331.720;  -93.700; -510.000; -460.000
331.855;   15.875;  -35.000; -102.000
331.990;  400.600;   62.000;  138.000
332.126;  205.250; -110.000;   71.000
332.261;   19.050; -379.000; -265.000
332.396;   11.975; -135.000; -242.000
332.531;  -59.325;-1074.000;-1031.000
332.666;   88.650; -519.000; -363.000
332.801; -103.900; -726.000; -807.000
332.936;  -23.925; -192.000; -122.000
333.071; -137.250; -870.000; -817.000
333.206;    9.525;  307.000;  379.000
333.341;   12.125;  344.000;  418.000
333.476;  -99.200; -627.000; -623.000
333.611;  -53.075; -251.000; -173.000
333.746;  -71.775; -381.000; -464.000
333.881; -130.150; -973.000; -935.000
334.016; -126.400; -936.000; -917.000
334.151; -134.175; -746.000; -702.000
334.286;   10.875;  152.000;  186.000
334.421;  -16.950; -125.000; -178.000
334.556;  -91.025; -611.000; -567.000
334.690;  -97.225; -631.000; -577.000
334.825;   55.200;  381.000;   83.000
334.960;  -79.200; -285.000; -413.000
335.095;    0.875;  135.000;  -91.000
335.230; -101.925; -722.000; -738.000
335.365; -122.850;-1084.000; -990.000
335.499; -131.925;-1108.000;-1037.000
335.634;   -4.125;    9.000;  534.000
335.769;  -98.475; -755.000; -720.000
335.904;  -75.075; -603.000; -561.000
336.038;  -50.800; -735.000; -657.000
336.173; -111.600;-1206.000;-1194.000
336.308;   15.850; -116.000; -189.000
336.443;   34.425; -544.000; -634.000
336.577;  -48.400; -936.000; -787.000
336.712;   60.875;   -4.000;  -12.000
336.847;  -44.100; -724.000; -607.000
336.981;   50.350; -272.000; -208.000
337.116;  281.600;  615.000;  501.000
337.250;  119.150; -434.000; -421.000
337.385;  460.550; -297.000; -208.000
337.520;  224.575; -632.000; -603.000
337.654;  -27.350; -215.000; -126.000
337.789; -134.225; -989.000; -933.000
337.923;  -50.525; -104.000; -205.000
338.058; -112.025; -673.000; -738.000
338.192;  -57.675; -611.000; -488.000
338.327;  -23.825;  -18.000; -155.000
338.461;  -77.400; -299.000; -469.000
338.596;  -93.275; -780.000; -638.000
338.730;  -96.725; -767.000; -803.000
338.865;  152.125;  -46.000; -140.000
338.999;    2.275; -846.000; -702.000
339.134;   -1.750; -634.000; -536.000
339.268;   37.525; -741.000; -603.000
339.403;  549.900; -740.000; -775.000
339.537;  272.300; -894.000; -820.000
339.671;  -92.600; -829.000; -813.000
339.806;  -35.125; -556.000; -512.000
339.940;   27.575; -261.000; -235.000
340.074; -102.725; -685.000; -510.000
340.209;  -56.125; -351.000; -230.000
340.343;  -99.900; -517.000; -573.000
340.477;  138.750;  998.000; 1036.000
340.612;    7.000;-1033.000; -900.000
340.746;  231.350; -199.000; -243.000
340.880; -107.250; -924.000; -785.000
341.014;  -33.500;  -45.000; -154.000
341.149; -118.350; -756.000; -718.000
341.283; -119.625; -839.000; -754.000
341.417; -136.925;-1124.000; -938.000
341.551;  -33.375; -768.000; -708.000
341.685;  -68.000; -633.000; -611.000
341.820;  -38.500; -562.000; -493.000
341.954;  -63.600; -218.000; -349.000
342.088; -165.050;-1102.000;-1019.000
342.222;   36.500;  565.000;  618.000
342.356;  -78.650; -395.000; -335.000
342.490; -127.600; -880.000; -841.000
342.624;  -54.950; -339.000; -242.000
342.758;  -52.075; -364.000; -312.000
342.892; -112.150; -710.000; -585.000
343.026;  -39.125;  -58.000; -116.000
343.160;  -67.875; -426.000; -376.000
343.294; -102.775; -474.000; -337.000
343.428;  -78.200; -488.000; -448.000
343.562;  -35.275; -172.000;  -23.000
343.696;  -59.475; -385.000; -314.000
343.830;  -65.350; -362.000; -356.000
343.964;  -23.225; -231.000; -168.000
344.098;  268.750;  199.000;   70.000
344.232;  243.550; -266.000; -127.000
344.366;   63.975; -567.000; -453.000
344.500;  -49.600; -665.000; -744.000
344.634;  -44.025; -324.000; -164.000
344.768;  -78.150; -531.000; -341.000
344.902;  -10.625;  278.000;  256.000
345.035;  -82.775; -556.000; -496.000
345.169; -139.900; -933.000; -656.000
345.303;  -72.875; -308.000; -482.000
345.437; -105.250; -826.000; -717.000
345.571;  -75.625; -675.000; -594.000
345.704;  -70.275; -309.000; -532.000
345.838;  -16.275; -331.000; -284.000
345.972;  -60.225; -543.000; -495.000
346.106;  228.275; -179.000; -190.000
346.239;  469.325; -312.000; -243.000
346.373;  -18.100; -343.000; -302.000
346.507; -136.050; -950.000; -962.000
346.640;   27.275;  -30.000;   13.000
346.774; -101.300; -650.000; -797.000
346.908;  -34.575; -138.000;  -11.000
347.041;  -99.375; -646.000; -593.000
347.175;  -10.525;  259.000;   27.000
347.309; -106.050; -698.000; -628.000
347.442; -117.775; -883.000; -732.000
347.576;  102.525;  670.000;  668.000
347.709;   41.450; -123.000;  -52.000
347.843; -138.025; -933.000; -825.000
347.976;   26.675;  235.000;  294.000
348.110; -173.950;-1268.000;-1186.000
348.243; -107.175; -679.000; -772.000
348.377;   -9.975;  -26.000;   60.000
348.510;   41.800;  403.000;  540.000
348.644;  -51.350;  -37.000; -159.000
348.777;   -3.000;  180.000;  191.000
348.911;  -61.300; -142.000; -112.000
349.044;   84.875;  471.000;  448.000
349.178;  -35.700;-1069.000;-1006.000
349.311;  107.400;  141.000;  255.000
349.444;   24.075; -927.000; -813.000
349.578;  -31.425; -347.000; -200.000
349.711; -141.900; -959.000; -862.000
349.845;  -76.050; -661.000; -591.000
349.978; -167.400;-1224.000;-1137.000
350.111;  -84.600; -546.000; -612.000
350.244; -100.775; -596.000; -700.000
350.378;  -63.125; -392.000; -393.000
350.511;  -80.650; -393.000; -426.000
350.644; -106.175; -808.000; -806.000
350.778;   10.400;  168.000;  104.000
350.911;   -9.425;  134.000;  140.000
351.044; -111.750; -685.000; -615.000
351.177;  -65.375; -321.000; -281.000
351.310;  -37.900;    3.000; -131.000
351.444; -132.125; -888.000; -788.000
351.577;   25.575;  140.000;   90.000
351.710;   67.500;  593.000;  417.000
351.843;  -48.500; -165.000;  -77.000
351.976;  -17.850;  149.000;  -79.000
352.109; -106.850; -621.000; -612.000
352.242;  -49.825; -464.000; -419.000
352.376;  -87.150; -580.000; -636.000
352.509;   12.350; -437.000; -356.000
352.642; -111.250; -654.000; -604.000
352.775;   -4.950; -141.000;  -98.000
352.908; -122.825; -933.000; -904.000
353.041; -110.775; -814.000; -824.000
353.174;  -70.025; -551.000; -424.000
353.307; -104.250; -753.000; -764.000
353.440;   54.450;  541.000;  453.000
353.573; -105.675; -957.000;-1008.000
353.706;  -60.225; -384.000; -558.000
353.839;  -42.300; -264.000; -220.000
353.971; -112.875; -657.000; -512.000
354.104; -117.150; -896.000; -835.000
354.237;  -82.175; -627.000; -662.000
354.370; -106.150; -846.000; -879.000
354.503; -186.150;-1231.000;-1308.000
354.636;  -40.375; -529.000; -348.000
354.769; -129.925; -937.000; -860.000
354.902;  -38.100; -230.000; -139.000
355.034;  -17.900; -164.000; -220.000
355.167;  -21.300; -262.000; -162.000
355.300;  -76.400;-1061.000; -880.000
355.433; 1423.475;  -71.000;  -14.000
355.565; 2198.325; -402.000; -384.000
355.698;  572.025; -356.000; -296.000
355.831;   -9.625; -882.000; -801.000
355.964;    8.350; -285.000; -170.000
356.096;  -85.425; -856.000; -843.000
356.229;  -24.650; -523.000; -530.000
356.362;  514.375; -373.000; -266.000
356.494;  897.625; -229.000; -162.000
356.627;  320.475;  269.000;  377.000
356.760;  877.775;  120.000;   53.000
356.892; 1482.800; -286.000; -601.000
357.025;  327.950;  403.000;  389.000
357.157;  206.075; -167.000; -179.000
357.290; 1218.950; -856.000; -713.000
357.423;  355.450; -667.000; -556.000
357.555;   93.625; -217.000; -228.000
357.688;  125.375; -483.000; -364.000
357.820;  151.475; -870.000; -877.000
357.953; 1440.675; -563.000; -589.000
358.085;  220.200; -632.000; -612.000
358.218;   76.350;-1131.000; -932.000
358.350;   39.200;  -58.000;  312.000
358.483; -176.675;-1300.000;-1187.000
358.615; -148.700;-1182.000;-1078.000
358.747; -152.700;-1187.000;-1058.000
358.880;  -51.050; -810.000; -744.000
359.012;  -30.750; -376.000; -202.000
359.145;  -63.750; -480.000; -511.000
359.277;  -65.025; -962.000; -913.000
359.409; 1244.825;  536.000;  231.000
359.542;  257.175; -738.000; -688.000
359.674;   16.125;   46.000;   13.000
359.806;  -80.125; -565.000; -438.000
359.939;  -54.150; -617.000; -516.000
360.071;   23.600; -583.000; -579.000
360.203;  -22.275; -411.000; -364.000
360.335;   13.900;  164.000;  -16.000
360.468;   85.225; -249.000; -307.000
360.600; 1272.525; -547.000; -454.000
360.732; 4244.800; -546.000; -423.000
360.864;  632.900;-1216.000;-1044.000
360.996;   54.800; -516.000; -554.000
361.129;  -49.375; -389.000; -598.000
361.261;  -10.850;  110.000; -113.000
361.393;  -61.125; -252.000; -214.000
361.525;   -5.425;   94.000;  244.000
361.657; -116.750; -821.000; -703.000
361.789;  -25.600; -139.000; -155.000
361.921;  -53.900; -642.000; -593.000
362.053;   82.925;  524.000;  541.000
362.185;   -2.025;  288.000;   72.000
362.318; -112.250; -709.000; -705.000
362.450;   29.875;  294.000;  444.000
362.582;  -98.575; -913.000; -870.000
362.714;  -61.550; -353.000; -332.000
362.846;  -87.100; -606.000; -490.000
362.978; -154.375; -941.000; -811.000
363.109;  -25.825; -161.000; -260.000
363.241;  137.000; -739.000; -749.000
363.373;  618.850; -649.000; -564.000
363.505; 1032.950; -186.000;  -91.000
363.637;  214.325; -787.000; -601.000
363.769; -148.325;-1067.000;-1080.000
363.901;  -88.600; -596.000; -654.000
364.033; -145.825;-1103.000;-1062.000
364.165;  -37.825; -283.000; -283.000
364.296;   81.775; -316.000; -177.000
364.428;  185.475;-1344.000;-1220.000
364.560;  -65.950; -679.000; -661.000
364.692;  -80.650; -738.000; -835.000
364.824;  -12.475; -588.000; -456.000
364.955;  520.600; -402.000; -564.000
365.087; 1722.275;-1097.000; -852.000
365.219;  110.275; -686.000; -816.000
365.351;  -79.150; -526.000; -572.000
365.482;   13.875;  300.000;  240.000
365.614;  -69.700; -402.000; -314.000
365.746; -110.900; -729.000; -752.000
365.877;  -95.200; -706.000; -672.000
366.009;  431.300;  -35.000;  -62.000
366.141;  -31.300;-1249.000;-1134.000
366.272; -111.500; -803.000; -719.000
366.404; -129.475;-1005.000; -874.000
366.535;  -16.100; -139.000;  -12.000
366.667; -132.425; -644.000; -649.000
366.799;   19.675;  353.000;  203.000
366.930; -145.850; -862.000; -996.000
367.062;  180.925; -639.000; -613.000
367.193;  349.925; -872.000; -842.000
367.325;  -42.675; -580.000; -684.000
367.456;  -14.175; -246.000;   31.000
367.588;  265.950; -371.000; -318.000
367.719;   27.550;  -44.000;  -45.000
367.851;  -55.425; -222.000; -241.000
367.982; -120.125; -875.000; -732.000
368.113;  -19.975; -475.000; -358.000
368.245; -144.300; -960.000; -841.000
368.376;  -52.125; -254.000; -302.000
368.508;  -73.675; -188.000; -263.000
368.639; -166.575;-1166.000;-1034.000
368.770; -103.675; -670.000; -589.000
368.902; -107.225; -836.000; -926.000
369.033; -135.800; -906.000; -855.000
369.164;  -32.575; -720.000; -653.000
369.296; -113.675; -452.000; -601.000
369.427;  -44.925; -209.000; -144.000
369.558;  -88.425; -593.000; -377.000
369.689; -101.125; -721.000; -569.000
369.821; -136.750; -951.000; -845.000
369.952;  -34.625;   42.000; -108.000
370.083;  -61.450; -229.000; -108.000
370.214; -110.750; -735.000; -650.000
370.345;  -30.700;   65.000;   81.000
370.477; -118.700; -810.000; -790.000
370.608;    7.225; -328.000; -264.000
370.739; -139.375;-1233.000;-1292.000
370.870; -114.775;-1102.000; -923.000
371.001;  -28.600; -378.000; -467.000
371.132;  -95.725; -754.000; -735.000
371.263;  -43.875;  -42.000; -148.000
371.394; -148.550; -841.000; -748.000
371.525;   21.000;  345.000;  225.000
371.657; -120.450; -808.000; -670.000
371.788;   21.825;  103.000;  199.000
371.919;  -12.025; -384.000; -304.000
372.050; 1197.175;  -91.000; -156.000
372.181;  370.650; -188.000; -294.000
372.311;   85.800;   42.000; -127.000
372.442;  -61.700; -457.000; -451.000
372.573;  -60.675; -444.000; -340.000
372.704; -154.875;-1008.000; -980.000
372.835;  -40.825; -228.000; -289.000
372.966;  -96.025; -646.000; -554.000
373.097;  -88.725; -575.000; -711.000
373.228; -101.625; -717.000; -542.000
373.359;  -55.975; -824.000; -536.000
373.490;  155.425; -881.000; -727.000
373.620;  226.200;-1001.000; -803.000
373.751;  483.425; -332.000; -396.000
373.882;  188.300; -663.000; -733.000
374.013;  -39.100; -449.000; -262.000
374.143;  -70.675; -581.000; -659.000
374.274; -136.650; -987.000; -908.000
374.405;   50.250; -388.000; -276.000
374.536;   94.825; -526.000; -387.000
374.666;  232.850; -759.000; -807.000
374.797;  -33.225; -817.000; -868.000
374.928;  147.200; -710.000; -560.000
375.058;  182.125; -535.000; -500.000
375.189;   -1.950;  -59.000;  -93.000
375.320; -140.625; -928.000;-1034.000
375.450;  -55.400; -625.000; -616.000
375.581;  -67.475; -526.000; -436.000
375.712;  -64.650; -574.000; -250.000
375.842;   -1.000; -438.000; -415.000
375.973;  -11.925; -554.000; -513.000
376.103; -113.300; -665.000; -648.000
376.234; -108.075; -531.000; -552.000
376.364; -130.150; -944.000; -867.000
376.495;  127.400;  925.000;  529.000
376.625;  -73.500; -472.000; -485.000
376.756;  -69.250; -709.000; -678.000
376.886; -139.450;-1178.000;-1026.000
377.017;  138.325;-1048.000;-1061.000
377.147;  655.300; -786.000; -782.000
377.278;   77.975;  174.000;  228.000
377.408; -132.250; -801.000; -815.000
377.538; -110.275; -707.000; -693.000
377.669;  -94.975; -537.000; -613.000
377.799; -113.400; -645.000; -635.000
377.929;  -91.475; -610.000; -428.000
378.060; -131.050; -781.000; -847.000
378.190;  -66.975; -726.000; -531.000
378.320;  -60.800; -401.000; -406.000
378.451;  -28.225; -131.000;  -22.000
378.581;  -37.400;  -67.000; -110.000
378.711;   89.800; 1035.000;  866.000
378.841;  -91.075; -533.000; -675.000
378.972; -114.750; -871.000; -751.000
379.102;  -76.800; -652.000; -579.000
379.232;  -44.325; -126.000;  -73.000
379.362; -132.825;-1001.000; -885.000
379.492;  -74.875; -373.000; -424.000
379.623;   31.175;    0.000;  111.000
379.753; -128.800;-1107.000; -974.000
379.883;   55.100;   59.000;  156.000
380.013; -108.150;-1081.000;-1017.000
380.143; -142.800;-1097.000;-1056.000
380.273; -131.225; -985.000; -861.000
380.403;  -18.750; -344.000; -257.000
380.533;  -63.300; -651.000; -664.000
380.663;   12.675;  173.000;  128.000
380.793; -155.050;-1027.000;-1074.000
380.923;  -55.850; -103.000;  -34.000
381.053; -124.625; -613.000; -623.000
381.183;  -50.750; -106.000; -248.000
381.313;  -75.375; -656.000; -470.000
381.443;  -67.800; -692.000; -473.000
381.573;  -43.950; -402.000; -409.000
381.703;  -98.525;-1249.000;-1095.000
381.833; -209.350;-1454.000;-1336.000
381.963;    2.775; -134.000;  -87.000
382.093;  382.200; -925.000; -909.000
382.223;   78.500; -713.000; -602.000
382.353;  -99.875; -801.000; -608.000
382.482;   -9.425;-1091.000; -964.000
382.612;  135.325; -872.000; -644.000
382.742;   70.550; -695.000; -622.000
382.872;  -25.225; -565.000; -551.000
383.002;   18.325;  347.000; -132.000
383.131;  -38.925; -226.000; -160.000
383.261;  -49.925; -706.000; -768.000
383.391;  317.150; -552.000; -377.000
383.521; 5118.675;  451.000;  263.000
383.650; 1498.150; -947.000; -904.000
383.780;   26.725; -783.000; -656.000
383.910;   87.000;  880.000;  802.000
384.039;  -94.475; -794.000; -656.000
384.169; -103.575;-1205.000;-1017.000
384.299; -101.350; -650.000; -662.000
384.428; -136.600; -764.000; -680.000
384.558;  -67.075; -308.000; -275.000
384.687;  -78.250; -414.000; -334.000
384.817;  -17.200;   75.000;   -2.000
384.947;  -36.225; -234.000; -141.000
385.076;  143.925;  982.000;  912.000
385.206;   52.550;  369.000;  480.000
385.335;  -69.700; -549.000; -417.000
385.465; -110.925; -655.000; -663.000
385.594;    5.900;  -53.000;  -44.000
385.724;   11.150; -868.000; -838.000
385.853;  -12.325; -296.000; -270.000
385.982;  311.475; -743.000; -787.000
386.112;  608.525;-1052.000; -871.000
386.241;   -3.425; -307.000; -312.000
386.371;  -21.025; -174.000;  -87.000
386.500;  -73.575; -825.000; -789.000
386.629;   -5.500; -874.000; -817.000
386.759;   60.675;  -43.000;   68.000
386.888;  -52.850; -170.000; -250.000
387.017;  -98.250; -648.000; -620.000
387.147; -115.925; -771.000; -798.000
387.276;  -70.625; -410.000; -397.000
387.405;  -54.925; -398.000; -342.000
387.535;  -90.400; -452.000; -361.000
387.664;  -77.225; -692.000; -620.000
387.793;  -26.450; -198.000; -113.000
387.922;  138.450;  255.000;  200.000
388.052;  -69.750; -576.000; -423.000
388.181;  -70.650; -342.000; -472.000
388.310; -121.200; -889.000; -710.000
388.439; -118.525; -749.000; -742.000
388.568;   40.800;  365.000;  244.000
388.697;  222.725; -756.000; -653.000
388.826;  -11.975; -768.000; -666.000
388.956;  -40.050; -285.000; -307.000
389.085;  -77.050; -347.000; -287.000
389.214; -121.625; -842.000; -872.000
389.343;  -73.950; -645.000; -413.000
389.472;  527.800;  126.000;  149.000
389.601;  616.250;   91.000;    0.000
389.730;  -34.500; -568.000; -687.000
389.859;    2.900;  226.000;   46.000
389.988;   11.475; -423.000; -408.000
390.117;   15.675; -168.000; -146.000
390.246;  -58.250; -331.000; -320.000
390.375;  -67.525; -673.000; -626.000
390.504; -107.875; -703.000; -621.000
390.633; -122.375; -672.000; -726.000
390.761;  -93.525; -732.000; -645.000
390.890;  -48.525;   -4.000; -130.000
391.019;  -79.775; -421.000; -441.000
391.148; -144.550; -826.000; -855.000
391.277; -100.550; -576.000; -493.000
391.406; -120.050; -821.000; -805.000
391.534;    0.550;  574.000; -301.000
391.663;  -85.700; -583.000; -645.000
391.792; -119.725; -673.000; -701.000
391.921;  -19.975;   -3.000;   15.000
392.050;  -15.075; -287.000; -228.000
392.178; -151.300;-1206.000;-1061.000
392.307;  -44.475; -758.000; -712.000
392.436;  -48.925; -427.000; -641.000
392.564;  -17.475;  166.000;   -6.000
392.693; -114.000; -860.000; -682.000
392.822;  -18.900; -529.000; -534.000
392.950;  -48.875; -880.000; -714.000
393.079;   46.425; -188.000; -328.000
393.208;  -53.550; -488.000; -511.000
393.336;  -36.175; -170.000; -145.000
393.465;  -66.475; -317.000; -199.000
393.593;  -15.725;   62.000;   79.000
393.722; -150.550;-1121.000; -916.000
393.850;  -38.275; -188.000;  -61.000
393.979; -151.075; -926.000; -805.000
394.107;  -66.150; -517.000; -537.000
394.236;  -60.725; -570.000; -507.000
394.364;   88.325;  383.000;  206.000
394.493;   56.900; -911.000; -767.000
394.621;  -10.050; -955.000; -916.000
394.750; 1139.875; -873.000; -923.000
394.878; 4369.450; -247.000; -149.000
395.007; 6312.825; -721.000; -807.000
395.135;  553.825; -790.000; -721.000
395.263;  -65.900;-1038.000;-1040.000
395.392;   -3.750;  -25.000; -107.000
395.520; -144.375; -818.000; -679.000
395.648; -128.750; -865.000; -915.000
395.777;  -80.450; -366.000; -405.000
395.905;  -89.450; -449.000; -564.000
396.033;  -15.300;  217.000;  172.000
396.162;   87.875; -399.000; -453.000
396.290;   91.700;  -17.000;   -2.000
396.418;  -53.400; -555.000; -514.000
396.546; -120.225; -571.000; -466.000
396.674; -130.275; -850.000; -878.000
396.803;  -25.850;  -72.000;  -23.000
396.931;  -43.625; -179.000; -199.000
397.059; -142.300;-1026.000; -989.000
397.187; -148.075;-1026.000; -975.000
397.315; -145.500; -884.000; -649.000
397.443; -104.600; -592.000; -443.000
397.572; -102.600; -578.000; -424.000
397.700; -101.925; -607.000; -614.000
397.828;  -53.675;  120.000;  -90.000
397.956;  -57.775; -508.000; -478.000
398.084;  -36.300; -767.000; -626.000
398.212;   -3.500;  137.000;  124.000
398.340;  -32.200;  -56.000;  159.000
398.468;  -67.975; -390.000; -169.000
398.596; -145.050; -993.000; -953.000
398.724; -134.150; -762.000; -767.000
398.852; -167.850;-1024.000; -976.000
398.980;  -82.800; -560.000; -560.000
399.108; -113.750; -982.000; -735.000
399.236;  -15.975;   13.000;    8.000
399.363;  -15.950;  222.000;  196.000
399.491;  -67.800; -404.000; -398.000
399.619; -123.550; -829.000; -800.000
399.747; -115.925; -859.000; -771.000
399.875;   22.025;  220.000;  234.000
400.003;  -78.950; -359.000; -284.000
400.130;  -97.525; -421.000; -341.000
400.258;  -37.575;  -83.000;   38.000
400.386;  -65.925; -352.000; -168.000
400.514;  -89.750; -526.000; -587.000
400.641; -159.625; -928.000; -802.000
400.769; -152.350; -979.000; -888.000
400.897; -134.075; -838.000; -793.000
401.025;  -33.000; -166.000; -152.000
401.152;  -21.675;  220.000;   38.000
401.280;  -82.300; -430.000; -429.000
401.408; -137.450; -712.000; -576.000
401.535; -126.125; -735.000; -758.000
401.663; -195.875;-1134.000;-1054.000
401.790; -101.025; -514.000; -525.000
401.918;   19.700;  436.000;  405.000
402.046;  -15.350;  134.000;  122.000
402.173;  -46.450;  -18.000;    7.000
402.301;  -97.475; -519.000; -397.000
402.428;   15.225;  528.000;  383.000
402.556; -150.100;-1188.000; -913.000
402.683;  -37.375;  -20.000;   -1.000
402.811;  -35.875;  -37.000; -206.000
402.938;  -47.100;   20.000;   27.000
403.066;  -22.275; -574.000; -558.000
403.193;   93.675;  299.000;  239.000
403.321;   46.150; -396.000; -574.000
403.448;  108.300;   83.000;   27.000
403.575;   19.500;  -90.000;  -46.000
403.703; -120.925; -732.000; -557.000
403.830;  -74.000; -531.000; -496.000
403.957; -137.575;-1117.000;-1023.000
404.085;    5.750;  -61.000; -172.000
404.212;  101.750;  -50.000;   63.000
404.339;  413.375; -566.000; -306.000
404.467; 8747.425; -612.000; -524.000
404.594; 5268.100; -287.000; -227.000
404.721;  905.175; -869.000; -764.000
404.848;   98.000; -113.000; -202.000
404.976; -116.375; -856.000; -783.000
405.103;  -13.350;  -14.000;  -82.000
405.230;  -27.575;  190.000;  226.000
405.357;   10.775;  117.000;   44.000
405.484;  414.650;  -49.000;    5.000
405.612;   96.375; -548.000; -563.000
405.739;  -51.350; -488.000; -243.000
405.866;   61.575;  669.000;  385.000
405.993;  -60.850; -398.000; -102.000
406.120; -140.775; -801.000; -887.000
406.247;  -84.375; -323.000; -342.000
406.374;   99.300;  540.000;  629.000
406.501;  -84.575; -632.000; -702.000
406.628; -108.875; -621.000; -589.000
406.755; -115.475; -803.000; -620.000
406.882;  -66.700; -228.000; -277.000
407.009; -130.400; -719.000; -628.000
407.136;  -63.875; -480.000; -401.000
407.263;  -86.325; -939.000; -829.000
407.390; -114.425; -692.000; -614.000
407.517; -168.950;-1139.000;-1187.000
407.644;  -67.500; -332.000; -256.000
407.771;  -88.425; -249.000; -287.000
407.898;  -16.650;  168.000;  328.000
408.025;  -83.875; -421.000; -313.000
408.151;  -22.425;   82.000;  153.000
408.278;  -72.550; -267.000; -216.000
408.405; -148.575; -931.000; -899.000
408.532; -105.425; -549.000; -542.000
408.659; -128.150; -677.000; -648.000
408.785; -210.225;-1298.000;-1170.000
408.912;  -79.700; -412.000; -296.000
409.039; -108.100; -610.000; -686.000
409.166; -110.075; -591.000; -555.000
409.292; -108.950; -571.000; -534.000
409.419; -116.075; -665.000; -649.000
409.546;  -92.325; -431.000; -192.000
409.672; -112.650; -713.000; -545.000
409.799;  -47.825;  -36.000;   34.000
409.926;  -55.625; -180.000; -179.000
410.052; -197.375;-1127.000;-1091.000
410.179;  -83.700; -368.000; -392.000
410.305;  -84.325; -375.000; -493.000
410.432;  -49.200; -220.000; -333.000
410.558;  -93.050; -305.000; -380.000
410.685; -125.825; -688.000; -431.000
410.812; -123.925; -409.000; -588.000
410.938; -151.575; -964.000; -808.000
411.065; -107.050; -671.000; -645.000
411.191;  -43.475; -189.000; -174.000
411.317; -132.650; -823.000; -742.000
411.444;  -67.725; -317.000; -246.000
411.570;  -74.100; -339.000; -294.000
411.697; -135.600; -758.000; -752.000
411.823; -174.150; -989.000; -999.000
411.949;  -47.175;  -56.000;   17.000
412.076; -125.350; -539.000; -519.000
412.202; -143.800; -758.000; -757.000
412.329; -138.100; -798.000; -752.000
412.455; -134.025; -821.000; -657.000
412.581;  -25.150;  -15.000;  172.000
412.707;  -93.875; -540.000; -457.000
412.834;    4.225;  156.000;  219.000
412.960; -111.750; -785.000; -784.000
413.086; -126.300; -743.000; -701.000
413.212;   93.250;  604.000;  578.000
413.339; -112.900; -685.000; -701.000
413.465;  -68.225; -364.000; -310.000
413.591; -122.975; -757.000; -474.000
413.717;  -54.650; -358.000; -366.000
413.843; -133.025; -839.000; -861.000
413.969;  -57.825;  -47.000; -292.000
414.096; -108.175; -679.000; -679.000
414.222;  -24.150;  -33.000;   85.000
414.348;  -86.975; -652.000; -385.000
414.474;  -21.325;   38.000;  -52.000
414.600;  -36.025; -126.000; -144.000
414.726;   -5.750;  -96.000;  -55.000
414.852;  -49.400; -365.000; -342.000
414.978;   37.825;  104.000;  -18.000
415.104;   54.425;   38.000;   80.000
415.230;   26.000; -329.000; -330.000
415.356;   56.200; -409.000; -514.000
415.482;  208.700;   13.000;  -35.000
415.608;  380.350; -247.000; -323.000
415.734; 1278.075;   67.000;   38.000
415.860;26740.025; -875.000; -767.000
415.986;21681.450; -685.000; -607.000
416.111; 1984.050; -798.000; -652.000
416.237;  434.300; -424.000; -571.000
416.363; 1667.625; -765.000; -733.000
416.489; 6560.325; -324.000; -251.000
416.615;  885.300; -707.000; -742.000
416.741;   42.625; -677.000; -784.000
416.866;  -79.325; -673.000; -736.000
416.992; -108.850; -801.000; -818.000
417.118;  -26.650;  -41.000;  -80.000
417.244;  -82.075; -798.000; -531.000
417.369;  -98.275; -801.000; -612.000
417.495;  -28.550; -325.000; -254.000
417.621;  -93.425;-1015.000; -803.000
417.746;   -1.925; -579.000; -572.000
417.872;   53.425; -254.000; -144.000
417.998;  105.225; -515.000; -530.000
418.123; 1540.025;-1073.000; -845.000
418.249; 8340.800; -512.000; -601.000
418.374; 1384.050; -916.000; -824.000
418.500;  223.000; -383.000; -482.000
418.626;  166.225;   70.000;  -59.000
418.751;  163.875; -549.000; -448.000
418.877;  267.925; -637.000; -643.000
419.002; 2534.900; -688.000; -560.000
419.128;19097.025; -930.000; -721.000
419.253; 5290.350; -967.000; -837.000
419.379;  713.200; -391.000; -338.000
419.504;  581.525;  325.000;  415.000
419.629;  787.700; -393.000; -212.000
419.755; 5348.975; -317.000; -254.000
419.880;34186.975;  -98.000;   67.000
420.006;17138.125; -280.000; -221.000
420.131;42381.575; -662.000; -775.000
420.256; 6706.725; -315.000; -316.000
420.382;  925.500; -665.000; -687.000
420.507;  152.825; -649.000; -778.000
420.632;   25.175; -337.000; -339.000
420.758;   27.275; -251.000; -425.000
420.883; -101.950; -876.000; -672.000
421.008; -111.200; -775.000; -619.000
421.133;  -91.725; -509.000; -467.000
421.259;  -59.950; -325.000; -259.000
421.384; -136.475; -834.000; -693.000
421.509; -137.600;-1052.000; -862.000
421.634;  114.525; -936.000; -820.000
421.759;   58.100; -359.000; -327.000
421.885; -101.900; -717.000; -656.000
422.010;  -93.450; -673.000; -542.000
422.135; -171.600; -695.000; -727.000
422.260;    6.275;  340.000;  280.000
422.385;  -54.300;   12.000;  -98.000
422.510;   -8.700;  151.000;  -26.000
422.635;  -21.400;  -87.000;  -43.000
422.760;  -29.850; -766.000; -791.000
422.885;   16.900;  -57.000;  -80.000
423.010;  -44.125; -112.000; -169.000
423.135; -103.525; -481.000; -561.000
423.260;  -49.225; -150.000; -245.000
423.385;   25.600;  476.000;  222.000
423.510;  -11.750;   71.000;  -22.000
423.635;    4.575;  133.000;   45.000
423.760;   54.800;  383.000;  328.000
423.885;   19.000;  336.000;  391.000
424.010;    4.925;  -68.000;  -13.000
424.135;  -33.475;    5.000;  -33.000
424.259;  -89.400; -654.000; -457.000
424.384;  -55.125; -279.000; -272.000
424.509;  -32.900; -260.000; -186.000
424.634;  -95.700; -761.000; -623.000
424.759;  -28.450; -688.000; -544.000
424.883;  -16.000; -506.000; -527.000
425.008;  195.650; -502.000; -410.000
425.133; 2813.400; -679.000; -653.000
425.258; 1481.125; -517.000; -381.000
425.382;  467.575; -867.000; -774.000
425.507; 1079.525; -487.000; -543.000
425.632;  360.050; -802.000; -663.000
425.756;  677.100; -256.000; -146.000
425.881;10165.825; -831.000; -857.000
426.006;30733.150; -604.000; -355.000
426.130; 4988.125; -696.000; -508.000
426.255;  679.300; -611.000; -491.000
426.379;  269.050; -189.000; -577.000
426.504;  500.925;  660.000;  544.000
426.629; 5493.100; -519.000; -466.000
426.753; 4232.175;   64.000;  -46.000
426.878;  498.325; -252.000; -288.000
427.002;  289.825; -651.000; -668.000
427.127; 2039.450;  -35.000; -158.000
427.251;16952.200;  372.000;  401.000
427.375; 5376.250; -191.000; -173.000
427.500; 1250.750; -616.000; -610.000
427.624;  374.050; -234.000; -400.000
427.749;   70.075; -216.000; -225.000
427.873;  -32.150; -499.000; -412.000
427.997;  -46.850; -222.000; -230.000
428.122;   49.875;  795.000;  703.000
428.246;   34.750;  433.000;  434.000
428.371; -142.925; -869.000; -773.000
428.495; -122.800; -624.000; -646.000
428.619;  -55.850; -186.000; -117.000
428.743;  -16.275;   65.000;  132.000
428.868;  -83.075; -732.000; -643.000
428.992;  446.300; -219.000; -326.000
429.116;  150.600; -329.000; -357.000
429.240;   89.925;  419.000;  426.000
429.365;  -42.050; -454.000; -574.000
429.489;  -62.100; -638.000; -647.000
429.613;    9.150; -236.000; -177.000
429.737;   66.450; -563.000; -432.000
429.861;  350.925; -247.000; -133.000
429.985; 7801.550; -425.000; -305.000
430.109; 9691.525; -770.000; -908.000
430.234; 1179.175;   76.000;  -50.000
430.358;  134.950; -250.000; -160.000
430.482;  -66.950; -672.000; -564.000
430.606;  -78.850; -655.000; -375.000
430.730;  -61.325; -437.000; -388.000
430.854; -105.050; -909.000; -835.000
430.978; -102.825; -795.000; -764.000
431.102;  -91.625; -499.000; -422.000
431.226; -128.750; -874.000; -815.000
431.350;   17.100;  345.000;  422.000
431.474;  -96.375; -661.000; -373.000
431.597; -180.925;-1060.000; -848.000
431.721;  -82.525; -276.000; -267.000
431.845; -125.475; -704.000; -472.000
431.969;  -89.025; -304.000; -349.000
432.093;  -90.100; -395.000; -317.000
432.217;  -26.425;   32.000;   82.000
432.341;  -94.925; -523.000; -518.000
432.464;  -21.575;   96.000;   40.000
432.588;  -40.525; -401.000; -329.000
432.712;   14.225;  -52.000;  -52.000
432.836;   49.475;  213.000;  263.000
432.959;   34.325; -372.000; -311.000
433.083;  154.700;   11.000;    2.000
433.207;  546.400;  285.000;  930.000
433.330; 7541.925; -391.000; -200.000
433.454;10269.600; -654.000; -638.000
433.578; 5669.800;  583.000;  278.000
433.701; 1196.550; -623.000; -675.000
433.825;  127.100; -292.000; -299.000
433.949;   27.875;   28.000;  -72.000
434.072;  -25.125; -410.000; -323.000
434.196;  -11.425; -309.000; -117.000
434.319; 3531.825;25482.000;25124.000
434.443;  859.900; -656.000; -603.000
434.566; 4031.050;  281.000;   62.000
434.690;  838.775; -637.000; -383.000
434.813;  121.975; -251.000; -173.000
434.937;  -55.675; -569.000; -696.000
435.060;  -80.750; -423.000; -332.000
435.184;  -24.050; -492.000; -217.000
435.307;   -6.600;  159.000;  102.000
435.431;  -52.375;  -40.000;   24.000
435.554;  -85.000; -399.000; -240.000
435.677;  -82.825; -350.000; -258.000
435.801;  -53.975;  -25.000;   49.000
435.924;  -42.700;    1.000;  -67.000
436.048; -168.550;-1019.000; -732.000
436.171;  -75.375; -240.000;  -66.000
436.294;  -23.900; -248.000; -229.000
436.417;  202.950; -963.000; -849.000
436.541;  -33.350; -814.000; -840.000
436.664;  -48.550; -242.000; -316.000
436.787;  -40.775;   13.000;  113.000
436.910; -124.900; -792.000; -422.000
437.034;  -14.350;  142.000;  143.000
437.157;  -15.450;  -11.000;    0.000
437.280;  -97.275; -392.000; -292.000
437.403; -152.575; -982.000; -869.000
437.526;  -24.675; -903.000; -865.000
437.649;  380.350; -505.000; -332.000
437.772;  -29.725; -692.000; -540.000
437.896;   56.600;  700.000;  544.000
438.019; -122.525; -758.000; -503.000
438.142; -110.050; -596.000; -506.000
438.265; -118.700; -639.000; -670.000
438.388;    1.650; -520.000; -410.000
438.511;  -87.350; -597.000; -394.000
438.634;  -80.625; -247.000; -125.000
438.757; -138.125; -693.000; -619.000
438.880;  -61.125;  -34.000;  -57.000
439.003; -123.100; -417.000; -437.000
439.126;  -77.925; -287.000; -167.000
439.248;  -75.075;  -98.000; -139.000
439.371;  -53.075;    9.000;  -53.000
439.494;   11.625;  510.000;  439.000
439.617;  -56.375;   65.000;  -88.000
439.740; -189.400; -968.000; -816.000
439.863; -144.350; -755.000; -595.000
439.986; -119.875; -476.000; -431.000
440.108;  -50.250; -161.000; -112.000
440.231; -174.125; -950.000; -836.000
440.354;  -61.600;  -64.000; -150.000
440.477; -120.850; -566.000; -542.000
440.599;  -97.750; -200.000; -225.000
440.722; -132.975; -709.000; -586.000
440.845;   57.350;  751.000;  928.000
440.968; -103.700; -415.000; -311.000
441.090;  -75.850; -199.000;  -33.000
441.213; -171.800;-1021.000; -825.000
441.336;  -69.050; -159.000;   -5.000
441.458; -100.975; -549.000; -396.000
441.581; -117.850; -628.000; -629.000
441.703;  -80.625; -152.000;   13.000
441.826; -128.425; -557.000; -400.000
441.948;  -69.450;   56.000;   51.000
442.071;   16.700;  555.000;  424.000
442.193; -122.600; -531.000; -485.000
442.316;    6.275;  152.000;   97.000
442.438;   61.925; -233.000;  -10.000
442.561;   57.650;  272.000;  262.000
442.683;   22.450; -809.000; -522.000
442.806;  200.075;   -8.000;   74.000
442.928; -105.925; -859.000; -604.000
443.051;  -96.350; -577.000; -373.000
443.173; -102.900; -341.000; -339.000
443.295; -100.000; -263.000; -371.000
443.418;  -82.475; -321.000;  -29.000
443.540;  -43.075; -106.000;   -4.000
443.662; -120.700; -563.000; -465.000
443.785;  -19.900;  335.000;  199.000
443.907;  -95.900; -362.000; -208.000
444.029; -133.925; -767.000; -494.000
444.152; -153.525; -644.000; -554.000
444.274;  -44.975;  -18.000;  -24.000
444.396; -121.875; -461.000; -221.000
444.518; -125.625; -691.000; -454.000
444.640; -105.300; -268.000; -111.000
444.763;  -25.550;  388.000;  249.000
444.885; -125.475; -432.000; -392.000
445.007;  -46.400;   35.000;   86.000
445.129; -121.725; -610.000; -515.000
445.251; -118.125; -372.000; -439.000
445.373; -136.325; -537.000; -386.000
445.495;  -25.425;  242.000;  350.000
445.617;   29.275;  853.000;  753.000
445.739;  -79.325; -215.000;  -97.000
445.861;  -72.925; -245.000; -112.000
445.984;  -62.850; -267.000; -101.000
446.105;  -29.375; -418.000; -251.000
446.227;   73.850; -176.000;  -19.000
446.349;  -98.000; -358.000; -249.000
446.471; -134.100; -615.000; -448.000
446.593; -100.775; -316.000;   19.000
446.715;  -62.900;  -67.000;   41.000
446.837;   53.775;  697.000;  832.000
446.959; -119.350; -457.000; -478.000
447.081; -139.450; -628.000; -518.000
447.203;   42.125;  862.000;  834.000
447.325; -109.975; -270.000;   42.000
447.446;    0.550;  286.000;  530.000
447.568; -172.250; -921.000; -803.000
447.690;  -89.625; -236.000; -245.000
447.812; -156.325; -798.000; -519.000
447.933;  -39.275;  155.000;  127.000
448.055;  -79.525; -306.000; -261.000
448.177;   12.675;   31.000;   79.000
448.299; -101.700; -935.000; -727.000
448.420;  -19.175;  -25.000;  159.000
448.542;  -58.700;   -3.000;   33.000
448.664;  -29.400;  109.000;  322.000
448.785;  -40.600;  265.000;   83.000
448.907; -103.300; -614.000; -353.000
449.028;  -98.250; -771.000; -471.000
449.150;   43.400;  492.000;  589.000
449.272; -182.225;-1044.000; -913.000
449.393;   19.175;  612.000;  694.000
449.515; -137.425; -634.000; -581.000
449.636;  -82.900; -264.000; -155.000
449.758;   41.950;  763.000;  622.000
449.879;  -94.825; -498.000; -396.000
450.001;  -81.425; -149.000;  -49.000
450.122;  -33.525;  -95.000;  162.000
450.244;  -13.575;   37.000;  364.000
450.365;  -74.625; -495.000; -301.000
450.486;  -10.675;   80.000;  268.000
450.608;   35.300;  393.000;  326.000
450.729;  110.050;  578.000;  645.000
450.850;   81.375; -574.000; -466.000
450.972; 1180.525; -552.000; -389.000
451.093; 7848.625;  190.000;  588.000
451.214; 3951.975; -516.000; -337.000
451.336;  646.125;  773.000;  579.000
451.457;  102.175;  264.000;  393.000
451.578;  -13.025; -118.000;  -74.000
451.699; -115.500; -546.000; -540.000
451.821;  -54.375; -284.000;  -50.000
451.942;   -3.425;  278.000;  285.000
452.063;   57.450;  228.000;  419.000
452.184;  807.125;  -54.000;  -49.000
452.305; 1682.300;  103.000;  170.000
452.427;  323.575; -549.000; -301.000
452.548;    4.525;   23.000;   79.000
452.669;  -73.125; -257.000;  -89.000
452.790;  -70.350;    3.000;  -18.000
452.911;  -21.850;  195.000;  259.000
453.032;  -82.025; -289.000;  -60.000
453.153;  -57.800;  -29.000;   81.000
453.274;   46.850;  737.000;  868.000
453.395;  -66.325;  -51.000;  175.000
453.516;   84.625; 1317.000; 1388.000
453.637;  -88.675; -205.000; -150.000
453.758;  -66.700;   15.000;   69.000
453.879; -122.350; -462.000; -250.000
454.000;   55.475; 1086.000;  948.000
454.121; -134.400; -554.000; -326.000
454.242; -119.725; -599.000; -383.000
454.362;  -61.925;  -99.000;  114.000
454.483;  -16.275; -309.000; -229.000
454.604;   55.250;  512.000;  580.000
454.725; -122.975; -627.000; -555.000
454.846; -127.950; -474.000; -406.000
454.967;  -15.550;  230.000;  539.000
455.087;  -41.525;  179.000;  153.000
455.208;    7.975;  554.000;  856.000
455.329;  -57.125;  -22.000;   82.000
455.450;   55.450;  473.000;  633.000
455.570;  -78.825; -234.000; -211.000
455.691;  -39.875;  201.000;  407.000
455.812; -117.200; -270.000;  -92.000
455.932;  -69.075;  107.000;  -97.000
456.053;  -89.800;   36.000;   24.000
456.173; -100.100; -433.000; -355.000
456.294; -124.875; -476.000; -303.000
456.415;  -60.750;  -73.000;   70.000
456.535;  -48.525;  297.000;  273.000
456.656;  -33.975;  132.000;  240.000
456.776;  -74.250;    3.000;  298.000
456.897;  -16.650;  308.000;  513.000
457.017;  -74.850; -153.000;   -3.000
457.138; -116.250; -402.000; -249.000
457.258;  -38.475;  263.000;  224.000
457.379;  -13.225;  509.000;  521.000
457.499;  -36.275;  443.000;  432.000
457.620; -115.575; -407.000; -231.000
457.740;  -88.450; -132.000;  -11.000
457.860;  -53.100;   87.000;   44.000
457.981;  -41.875;  132.000;  124.000
458.101;  -70.250;  -89.000;   40.000
458.221;  -27.050;  336.000;  402.000
458.342;  -50.025;   -4.000;  -37.000
458.462;   54.150;  617.000;  352.000
458.582;    9.975; -302.000; -294.000
458.703;   70.575;  303.000;  154.000
458.823;   21.075;   22.000;  163.000
458.943;   44.400;  341.000;  467.000
459.063;    3.325; 1124.000;  192.000
459.183;  -32.875;  328.000;  313.000
459.304;   -3.525;  315.000;  517.000
459.424;  -39.050; -246.000;  -89.000
459.544;  476.000;  388.000;  764.000
459.664; 1283.975;  499.000;  506.000
459.784;  484.175; 1004.000; 1175.000
459.904;   80.475;  867.000;  744.000
460.024;   38.000;  867.000;  684.000
460.144;  -12.025;  449.000;  554.000
460.264;  -21.925;  515.000;  327.000
460.385;  -95.675; -145.000; -119.000
460.505;   34.750;  905.000;  858.000
460.625;  -93.100;  -17.000;  -68.000
460.745;  -26.925;  396.000;  541.000
460.864;  -45.900;  153.000;  469.000
460.984;   23.175;  499.000;  573.000
461.104;  135.400; 1656.000; 1775.000
461.224;   28.150;  657.000;  650.000
461.344;  -43.900;  431.000;  360.000
461.464;  -47.150;  258.000;  513.000
461.584;  -36.525;  283.000;  466.000
461.704;  -67.575;   58.000;  108.000
461.824;  -62.500;  238.000;  259.000
461.943;  -39.750;  191.000;  130.000
462.063;  -83.075;    2.000;  324.000
462.183;   13.700;  639.000;  717.000
462.303;   88.400; 1678.000; 1230.000
462.422;    3.500;  781.000;  840.000
462.542;  -38.875;  271.000;  391.000
462.662;   48.050;  353.000;  380.000
462.782;  328.700;  833.000;  572.000
462.901;  697.825;  545.000;  717.000
463.021;  373.425; 1702.000; 1638.000
463.141;   23.300;  337.000;  770.000
463.260;   -7.275;  614.000;  474.000
463.380;   31.075;  902.000;  884.000
463.499;  -35.550;  342.000;  332.000
463.619;  -43.400;  581.000;  559.000
463.738;  110.225; 1644.000;  903.000
463.858;   18.025;  657.000;  811.000
463.978;  -30.675;  542.000;  396.000
464.097;   65.325;  921.000; 1114.000
464.217;  160.025; 1196.000; 1143.000
464.336;  150.600; 1068.000; 1130.000
464.455;  -36.300;  328.000;  659.000
464.575;    2.750;  597.000;  602.000
464.694;  120.500; 1204.000; 1179.000
464.814;  165.775; 1190.000; 1138.000
464.933;   85.050; 1095.000; 1027.000
465.052;   99.250; 1412.000; 1054.000
465.172;   64.425;  922.000;  799.000
465.291;  113.575; 1376.000; 1320.000
465.410;    4.450;  462.000;  735.000
465.530;   74.225; 1355.000; 1310.000
465.649;   33.425; 1209.000; 1273.000
465.768;  143.375; 1673.000; 1508.000
465.888;   53.700;  941.000; 1174.000
466.007;  107.475; 1335.000; 1440.000
466.126;   -9.050;  721.000;  641.000
466.245;   36.200; 1176.000; 1187.000
466.364;    5.400;  950.000; 1060.000
466.484;   54.950; 1024.000; 1213.000
466.603;   32.375; 1101.000; 1222.000
466.722;   96.825; 1490.000; 1769.000
466.841;   54.000; 1151.000; 1401.000
466.960;   27.300; 1069.000;  972.000
467.079;  134.425; 1971.000; 1786.000
467.198;   43.850; 1238.000; 1181.000
467.317;   75.950; 1768.000; 1162.000
467.436;   66.850; 1709.000; 1261.000
467.555;  125.600; 1796.000; 1746.000
467.674;   58.075; 1227.000; 1329.000
467.793;   51.250; 1376.000; 1374.000
467.912;   84.800; 1658.000; 1539.000
468.031;  116.300; 2038.000; 1930.000
468.150;  122.325; 1842.000; 1837.000
468.269;  180.600; 2313.000; 2090.000
468.388;  167.850; 2168.000; 2339.000
468.507;  224.875; 2884.000; 2903.000
468.626;  260.125; 2555.000; 2541.000
468.744;  122.225; 2018.000; 2174.000
468.863;  195.275; 2312.000; 2523.000
468.982;  103.875; 1503.000; 1555.000
469.101;  216.425; 2788.000; 2692.000
469.220;  160.875; 2333.000; 2176.000
469.338;  259.650; 2935.000; 3051.000
469.457;  182.250; 2719.000; 2545.000
469.576;  327.300; 3953.000; 3784.000
469.695;  251.450; 2877.000; 3066.000
469.813;  406.575; 4148.000; 4192.000
469.932;  408.600; 4255.000; 4485.000
470.051;  430.300; 4075.000; 4161.000
470.169; 1006.000; 4470.000; 4338.000
470.288; 1995.500; 4700.000; 4809.000
470.406; 1144.350; 5059.000; 5194.000
470.525;  666.825; 6101.000; 5787.000
470.644;  662.675; 6847.000; 6794.000
470.762;  805.450; 8397.000; 7873.000
470.881;  898.350; 8651.000; 8464.000
470.999; 1104.875; 9685.000; 9151.000
471.118; 1130.950;11174.000;10711.000

