
Integration time [ms]: 100.000
Averaging Nr. [scans]: 40
Smoothing Nr. [pixels]: 0
Data measured with spectrometer [name]: 2101012U2
Wave   ;Sample   ;Dark     ;Reference
[nm]   ;[counts] ;[counts] ;[counts] 

197.733;   65.075;  516.000;  404.000
197.879;  -78.400; -610.000; -634.000
198.025;  -57.600; -475.000; -420.000
198.171;  -74.125; -602.000; -612.000
198.317;  -36.125; -401.000; -316.000
198.463;  -53.175; -655.000; -404.000
198.609;   23.700;  181.000; -137.000
198.755;  -74.700; -644.000; -410.000
198.901;  -73.525; -505.000; -424.000
199.047;  -75.700; -615.000; -488.000
199.193;  -37.875; -230.000; -468.000
199.339;  -35.575; -222.000; -369.000
199.485;   39.500;  330.000;  271.000
199.631;   16.075;  227.000;  310.000
199.777;  -50.400; -466.000; -398.000
199.923;  -69.650; -610.000; -424.000
200.069;   -6.925; -141.000;  -58.000
200.215;   57.400;  128.000;  453.000
200.361;   33.825;  243.000;  477.000
200.507;  -73.725; -600.000; -373.000
200.653;  -23.250; -371.000; -194.000
200.798;  -38.400; -215.000; -125.000
200.944;   -0.725; -146.000;  -41.000
201.090;   32.925;   61.000;  222.000
201.236;    0.750; -116.000; -158.000
201.382;  127.525;  874.000;  903.000
201.528;    7.075;  -58.000;  -48.000
201.674;  -37.350; -386.000; -293.000
201.819;  -54.975; -540.000; -439.000
201.965;  -88.050; -699.000; -447.000
202.111;  -19.500; -273.000; -226.000
202.257;  -37.175; -250.000; -238.000
202.402;    9.975;   13.000;  -36.000
202.548;  -25.775; -169.000; -116.000
202.694;   77.850;  410.000; -183.000
202.840;  -72.825; -603.000; -531.000
202.985;  -68.225; -681.000; -639.000
203.131; -115.675; -832.000; -666.000
203.277;   -4.550; -199.000; -262.000
203.423;  -60.275; -434.000; -520.000
203.568;  -39.925; -462.000; -237.000
203.714;  -63.325; -535.000; -542.000
203.860;  -86.100; -682.000; -641.000
204.005;   17.350;  112.000;  167.000
204.151;   82.950;  561.000;  556.000
204.296;  -57.000; -354.000; -221.000
204.442;  -73.900; -600.000; -547.000
204.588;  -72.675; -592.000; -579.000
204.733;   17.300;  178.000;  168.000
204.879; -130.275;-1018.000; -822.000
205.025;    8.150;  -99.000;  126.000
205.170;   -7.650;  -17.000;   94.000
205.316;   72.300;  438.000;  661.000
205.461;  -80.425; -698.000; -554.000
205.607;   89.275;  609.000;  665.000
205.752;  -93.750; -626.000; -551.000
205.898;  -54.325; -501.000; -391.000
206.043;  -61.025; -578.000; -506.000
206.189;  -47.900; -243.000; -285.000
206.334;   82.900;  554.000;  606.000
206.480;   81.275;  409.000;  239.000
206.625;  -95.925; -529.000; -552.000
206.771;  -43.950; -451.000; -373.000
206.916;  -29.700; -210.000; -537.000
207.062;  -84.675; -545.000; -591.000
207.207;  -56.950; -546.000; -443.000
207.353;   57.725;  185.000;  460.000
207.498;   12.625;  196.000;   85.000
207.643;  -54.600; -501.000; -370.000
207.789; -127.100;-1069.000; -910.000
207.934;  -92.800; -665.000; -713.000
208.080;  -12.050; -154.000;   66.000
208.225;  -11.675;  -22.000;  -57.000
208.370;  -84.125; -727.000; -619.000
208.516;  -69.575; -741.000; -487.000
208.661;  -28.200; -127.000;  -69.000
208.806;  -36.075; -165.000; -171.000
208.952; -115.175;-1044.000; -731.000
209.097;   79.250;  378.000;  349.000
209.242;  -43.825; -307.000; -382.000
209.387;   61.650;  392.000;  350.000
209.533;  -56.250; -321.000; -350.000
209.678;   77.200;  472.000;  543.000
209.823;  -50.200; -408.000; -310.000
209.969; -108.200; -860.000; -757.000
210.114; -101.900; -907.000; -719.000
210.259; -116.350; -939.000; -889.000
210.404;    3.725; -171.000;  103.000
210.549;   13.175;  108.000;    3.000
210.695;  -17.475;   -3.000;  -95.000
210.840;   27.900;   94.000;   67.000
210.985;  -72.800; -484.000; -303.000
211.130;   74.925;  268.000;  406.000
211.275;   22.725;  207.000;  199.000
211.420;  -46.125; -300.000; -289.000
211.566;  -64.250; -536.000; -489.000
211.711;   20.675;  218.000;  157.000
211.856;  -63.550; -545.000; -519.000
212.001;    3.700;  151.000;   44.000
212.146;    9.125;  153.000;   49.000
212.291;  -17.800; -210.000; -186.000
212.436;  -29.425; -280.000;   -6.000
212.581;  -80.775; -685.000; -653.000
212.726;  -65.275; -487.000; -538.000
212.871;  -59.475; -552.000; -217.000
213.016; -153.225;-1172.000;-1029.000
213.161;   62.900;  406.000;  291.000
213.306;  -67.625; -435.000; -577.000
213.451;  -96.650; -778.000; -689.000
213.596;  -38.450; -455.000; -347.000
213.741;  -47.825; -448.000; -538.000
213.886;  -72.000; -498.000; -517.000
214.031;  -25.625; -294.000; -124.000
214.176;  -46.700; -408.000; -341.000
214.321;  -23.400; -296.000; -157.000
214.466;  -35.450; -163.000;  -43.000
214.611;    5.425;  -61.000;  -10.000
214.756; -114.350; -948.000; -858.000
214.901;  -13.150; -388.000; -226.000
215.046; -116.100; -797.000; -825.000
215.191;   21.400;  128.000;   35.000
215.336;  -21.675; -157.000;  -19.000
215.480;  -64.900; -684.000; -505.000
215.625;  -27.550; -175.000;  -19.000
215.770;  -72.300; -757.000; -662.000
215.915;  -11.100;   -5.000;  -97.000
216.060;  -10.200; -113.000;  -21.000
216.205; -116.375; -731.000; -779.000
216.349;  -81.025; -470.000; -533.000
216.494; -135.225; -939.000; -867.000
216.639; -126.075; -823.000; -888.000
216.784;  -89.525; -577.000; -525.000
216.929;   42.700;  392.000;  281.000
217.073;  -16.925; -244.000;  -31.000
217.218;   14.725;   78.000;  -47.000
217.363;  -98.350; -656.000; -618.000
217.507;  -90.300; -623.000; -588.000
217.652; -131.250; -845.000; -874.000
217.797;  -91.925; -708.000; -659.000
217.942; -125.275; -856.000; -720.000
218.086;   78.600;  608.000;  539.000
218.231;  -20.850; -174.000;  -26.000
218.376;  -27.050; -337.000; -229.000
218.520;    2.250;  -41.000;   96.000
218.665;  -46.000; -338.000; -204.000
218.810;  -30.925; -275.000; -233.000
218.954;   34.625;  201.000;   35.000
219.099; -103.025; -713.000; -963.000
219.243;  -69.600; -589.000; -554.000
219.388;  -36.150; -264.000; -136.000
219.532;  -16.475; -116.000; -116.000
219.677;  -78.200; -564.000; -521.000
219.822;    3.900;   33.000;   89.000
219.966;    4.325;   17.000;  -99.000
220.111;  -42.225; -328.000;  -40.000
220.255;  -83.275; -797.000; -750.000
220.400;   -8.000; -180.000; -146.000
220.544;  -79.475; -516.000; -450.000
220.689;  -62.175; -422.000; -451.000
220.833;  -26.300; -123.000;  -58.000
220.978;  -44.125; -393.000; -563.000
221.122;   21.350;  319.000;  307.000
221.267; -105.850; -906.000; -837.000
221.411;  -62.250; -478.000; -394.000
221.555;   -1.875; -104.000;  -23.000
221.700;  -52.025; -329.000; -222.000
221.844;   38.600;  255.000;  272.000
221.989;  -39.900; -328.000; -311.000
222.133;  -35.525; -289.000; -307.000
222.277;  -15.000;    5.000;   78.000
222.422;   18.825;  227.000;  113.000
222.566;  -40.800; -381.000; -214.000
222.711;  -59.700; -414.000; -479.000
222.855;  -78.275; -643.000; -586.000
222.999;  -88.600; -642.000; -717.000
223.144;  -21.775; -195.000; -194.000
223.288;   53.425;  423.000;  251.000
223.432;   24.150;  184.000;  230.000
223.576;    6.425;  152.000;  -21.000
223.721;   42.625;  364.000;  273.000
223.865;  -64.300; -472.000; -475.000
224.009;  233.025; 1673.000; 1631.000
224.153;  -93.450; -660.000; -671.000
224.298;  -76.850; -531.000; -489.000
224.442;  -16.700;  -74.000;  -33.000
224.586;  -13.100; -169.000; -106.000
224.730;  -90.575; -858.000; -670.000
224.875; -105.600; -739.000; -688.000
225.019;   -6.350;  102.000;  188.000
225.163;   62.200;  208.000;  341.000
225.307;   21.450;   97.000;  -91.000
225.451;   42.975;  360.000;  481.000
225.595;   41.275;  264.000;  176.000
225.739;  -17.350; -170.000;  -94.000
225.884;    9.750;   86.000;    5.000
226.028; -104.075; -760.000; -626.000
226.172;  -41.900; -260.000; -273.000
226.316; -119.000; -941.000; -902.000
226.460;  -61.350; -645.000; -493.000
226.604;  -52.475; -406.000; -400.000
226.748;  -99.050; -836.000; -733.000
226.892;  -33.625; -227.000; -181.000
227.036;  -41.750; -537.000; -447.000
227.180;  -54.675; -551.000; -375.000
227.324;  -50.925; -561.000; -580.000
227.468; -120.425; -819.000; -717.000
227.612;   17.375;  242.000;  -28.000
227.756; -100.875; -845.000; -698.000
227.900;   66.675;  342.000;  441.000
228.044;  -58.675; -509.000; -290.000
228.188;   64.300;  448.000;  568.000
228.332;  -94.850; -546.000; -472.000
228.476;  -34.050; -223.000; -149.000
228.620;  -38.450; -210.000; -150.000
228.764;   65.525;  431.000;  349.000
228.908;  -24.075; -155.000;   30.000
229.052;  -69.025; -615.000; -528.000
229.195;  -11.375; -172.000;   13.000
229.339;  -28.000; -235.000; -305.000
229.483;  -20.975;    5.000; -162.000
229.627;  -16.525; -156.000;  139.000
229.771;  -32.450; -218.000; -294.000
229.915;    2.450;  230.000;   79.000
230.059;  -80.400; -648.000; -663.000
230.202;  -48.725; -370.000; -317.000
230.346;  -16.100; -107.000;  107.000
230.490;  -59.950; -489.000; -521.000
230.634; -107.050; -736.000; -553.000
230.777;   62.250;  478.000;  509.000
230.921;  -64.675; -450.000; -359.000
231.065;  -46.300; -246.000; -286.000
231.209;   34.225;  261.000;  265.000
231.352;   17.775;   54.000;   40.000
231.496;   25.400;  568.000;  188.000
231.640;  -81.775; -693.000; -621.000
231.783;   58.325;  546.000;  525.000
231.927;  -44.525; -294.000; -365.000
232.071; -125.350; -962.000; -736.000
232.214; -120.175; -980.000; -764.000
232.358; -108.625; -683.000; -599.000
232.502;    0.775;  -19.000;    7.000
232.645; -135.675;-1090.000; -927.000
232.789;  -21.600; -257.000; -218.000
232.933;  -53.275; -407.000; -224.000
233.076; -123.975;-1038.000; -897.000
233.220; -122.700; -752.000; -777.000
233.363;  -77.775; -669.000; -477.000
233.507;   55.725;  371.000;  129.000
233.650; -100.000; -764.000; -834.000
233.794;   45.500;  438.000;  461.000
233.938;  -60.100; -530.000; -362.000
234.081;  -25.050;  -93.000;   31.000
234.225;  -63.550; -631.000; -539.000
234.368;  -98.800; -773.000; -723.000
234.512;  -42.300; -385.000; -299.000
234.655;  -89.275; -582.000; -555.000
234.798;  -78.900; -493.000; -466.000
234.942; -117.375; -884.000;-1002.000
235.085;  -73.675; -651.000; -443.000
235.229;  -72.400; -405.000; -410.000
235.372;  -54.650; -247.000; -191.000
235.516;  -65.575; -397.000; -321.000
235.659;   41.175;   92.000;  121.000
235.802;  -14.975;  -38.000;  -22.000
235.946;   27.025;  335.000;  215.000
236.089;   36.275;  126.000;  250.000
236.233;   70.900;  275.000;  298.000
236.376;  -54.925; -235.000; -378.000
236.519;  -51.200; -297.000; -319.000
236.663;  -17.975; -215.000; -117.000
236.806; -151.100;-1029.000; -999.000
236.949;   59.200;  543.000;  431.000
237.092;   60.275;  412.000;  391.000
237.236; -100.525; -589.000; -502.000
237.379;   61.650;  352.000;  428.000
237.522; -122.075; -879.000; -768.000
237.666;  -34.650; -271.000;   18.000
237.809; -129.200; -851.000; -823.000
237.952;   23.450;  469.000;  271.000
238.095;  -71.100; -447.000; -442.000
238.238;   94.350;  688.000;  700.000
238.382;  -15.425;  166.000;  103.000
238.525;  -67.825; -598.000; -511.000
238.668; -146.675;-1060.000; -985.000
238.811;  -78.375; -638.000; -643.000
238.954;  -58.250; -483.000; -334.000
239.097;   79.950;  617.000;  664.000
239.241;   31.775;  394.000;  326.000
239.384;  -36.325; -254.000; -214.000
239.527;  -61.975; -424.000; -224.000
239.670; -149.725; -994.000;-1091.000
239.813; -117.150; -696.000; -658.000
239.956;   86.325;  579.000;  473.000
240.099; -111.475; -778.000; -725.000
240.242;   74.350;  428.000;  432.000
240.385;   50.750;  466.000;  450.000
240.528;  -66.250; -706.000; -473.000
240.671;   12.525;  189.000;  134.000
240.814;  -41.425; -441.000; -158.000
240.957; -100.675; -767.000; -578.000
241.100;  -89.275; -779.000; -755.000
241.243; -152.425;-1234.000; -893.000
241.386;  -66.700; -508.000; -379.000
241.529; -105.150; -735.000; -547.000
241.672;  -68.575; -566.000; -495.000
241.815; -119.300; -832.000; -808.000
241.958;  -24.300; -125.000; -182.000
242.101;  -82.150; -545.000; -390.000
242.244;  -45.625; -270.000; -325.000
242.387;  -43.425; -304.000; -246.000
242.530;   55.275;  470.000;  134.000
242.673;  -48.050; -381.000; -309.000
242.815; -135.850; -925.000; -899.000
242.958;  -75.650; -482.000; -381.000
243.101;   12.500;  132.000;  187.000
243.244;  -87.225; -564.000; -521.000
243.387;  -35.950; -313.000; -316.000
243.530;  -92.000; -657.000; -674.000
243.672;   13.225;   43.000;  -92.000
243.815;  -51.950; -355.000; -283.000
243.958;    4.475;   98.000;  -26.000
244.101;  -12.050;   59.000;  -16.000
244.243;  -20.250;  -47.000;  101.000
244.386; -118.025; -761.000; -630.000
244.529;  -31.875; -132.000; -139.000
244.672; -167.900;-1154.000; -951.000
244.814;  -86.050; -621.000; -794.000
244.957;  -40.525; -380.000; -304.000
245.100;  -77.950; -489.000; -489.000
245.242;  -73.700; -387.000; -374.000
245.385;  -12.775;  -59.000;  -39.000
245.528; -115.550; -871.000; -705.000
245.670;   82.325;  612.000;  634.000
245.813;  -95.050; -599.000; -547.000
245.956;  -27.675; -324.000; -275.000
246.098;  -68.300; -508.000; -650.000
246.241;   18.900;  194.000;   48.000
246.383;  -16.450; -119.000;  -73.000
246.526;  -80.250; -454.000; -525.000
246.669; -117.675; -889.000; -780.000
246.811;    2.650;  172.000;   -1.000
246.954;  -62.825; -512.000; -426.000
247.096;  -19.825;  -84.000;   -6.000
247.239;  -72.150; -482.000; -445.000
247.381;  -57.050; -647.000; -488.000
247.524;   84.625;  645.000;  679.000
247.666;  -11.975;   58.000;   11.000
247.809; -122.625; -887.000; -691.000
247.951;  -15.975;  -75.000;  138.000
248.094;   32.625;  432.000;  308.000
248.236; -170.800;-1262.000;-1238.000
248.378;   12.775; -356.000;  -81.000
248.521;  -15.500; -334.000; -337.000
248.663;  -37.125; -236.000; -267.000
248.806;  -28.475; -300.000; -266.000
248.948; -100.900; -886.000; -763.000
249.090;  -54.525; -428.000; -398.000
249.233;  -52.150; -344.000; -381.000
249.375;  -75.100; -474.000; -451.000
249.518;  -24.050;  -83.000; -133.000
249.660;   -7.250; -103.000;    3.000
249.802; -168.750;-1303.000;-1189.000
249.945;  -76.650; -612.000; -540.000
250.087; -118.850; -834.000; -768.000
250.229;  -46.250; -362.000; -480.000
250.371;  -64.775; -494.000; -439.000
250.514;  -41.425; -310.000; -244.000
250.656;   -8.225;   69.000;  102.000
250.798; -111.425; -849.000; -800.000
250.940;  -62.450; -322.000; -322.000
251.083;  -11.300; -335.000; -111.000
251.225;   58.025;  338.000;  310.000
251.367;  -42.375; -274.000; -373.000
251.509;  -41.375; -265.000; -210.000
251.651; -109.575; -731.000; -671.000
251.794;   80.350;  538.000;  632.000
251.936; -108.350; -821.000; -747.000
252.078;  -72.975; -540.000; -461.000
252.220;  -71.950; -645.000; -477.000
252.362;   82.300;  344.000;  462.000
252.504;  -68.600; -677.000; -584.000
252.646;  -88.300; -875.000; -722.000
252.788;   -2.500;   14.000; -128.000
252.931;  -28.225; -257.000; -253.000
253.073;  -34.050; -376.000; -317.000
253.215;  -13.225;  141.000;  122.000
253.357;  -14.400;   82.000; -153.000
253.499;  -51.950; -374.000; -234.000
253.641;  -85.275; -749.000; -594.000
253.783; -100.450; -609.000; -527.000
253.925;  -82.850; -586.000; -591.000
254.067; -114.150; -744.000; -667.000
254.209;  -13.775; -391.000; -259.000
254.351; -128.225; -865.000; -883.000
254.493;  -60.075; -441.000; -417.000
254.635; -134.600; -936.000; -818.000
254.777;  -83.350; -752.000; -687.000
254.918;  -69.500; -512.000; -430.000
255.060;  -61.325; -551.000; -395.000
255.202;  -56.175; -473.000; -261.000
255.344;  -76.100; -658.000; -455.000
255.486;  -70.425; -471.000; -406.000
255.628; -101.575; -780.000; -781.000
255.770;  -90.875; -676.000; -536.000
255.912;  -62.650; -559.000; -468.000
256.053;  -98.150; -730.000; -508.000
256.195;  145.850; 1008.000;  903.000
256.337; -102.200; -861.000; -595.000
256.479;   82.575;  532.000;  416.000
256.621;  -47.575; -394.000; -212.000
256.762;  -83.250; -789.000; -742.000
256.904;   53.075;  485.000;  487.000
257.046;  -34.550; -381.000; -271.000
257.188;  -49.150; -351.000; -264.000
257.329;  -67.175; -525.000; -464.000
257.471; -127.150; -939.000; -807.000
257.613;  -63.025; -584.000; -498.000
257.755; -148.900;-1073.000; -982.000
257.896;   41.375;  286.000;  392.000
258.038;  -70.900; -403.000; -352.000
258.180;  -42.375; -354.000; -279.000
258.321;  -78.550; -581.000; -457.000
258.463;    1.750;  -71.000;  133.000
258.605; -102.075; -562.000; -570.000
258.746;  -97.350; -886.000; -772.000
258.888; -148.950;-1026.000;-1020.000
259.029;    9.075;  121.000;   -8.000
259.171;  -93.350; -614.000; -550.000
259.313;  -13.225;  -49.000;  -47.000
259.454;  -77.925; -536.000; -414.000
259.596;  -55.075; -483.000; -390.000
259.737;  -82.150; -590.000; -474.000
259.879;   40.200;  217.000;  311.000
260.020;  114.075;  901.000;  636.000
260.162;  -34.175; -146.000; -253.000
260.303; -105.525; -768.000; -687.000
260.445;  -80.050; -609.000; -613.000
260.586;   22.575;  392.000;  157.000
260.728;  -33.225; -360.000; -248.000
260.869; -117.500; -350.000; -343.000
261.011;   81.725;  706.000;  537.000
261.152;  -65.700; -479.000; -319.000
261.293;  -86.925; -576.000; -595.000
261.435;  -38.100; -219.000; -184.000
261.576;  -47.150; -455.000; -325.000
261.718;   46.575;  420.000;  470.000
261.859; -129.650; -940.000; -949.000
262.000; -126.175; -951.000;-1016.000
262.142;  -13.800;  -52.000;  -60.000
262.283; -116.475; -808.000; -691.000
262.424;  -93.125; -666.000; -625.000
262.566; -155.525;-1161.000; -983.000
262.707; -118.675; -840.000; -830.000
262.848; -116.850; -769.000; -726.000
262.990;  -54.925; -362.000; -345.000
263.131;   88.575;  650.000;  681.000
263.272;   -3.025;  -61.000;  -41.000
263.413;  -91.350; -589.000; -561.000
263.555;  -54.375; -669.000; -143.000
263.696;  -90.225; -550.000; -641.000
263.837;  -56.250; -449.000; -551.000
263.978;   -9.325;   -5.000;  -77.000
264.119;  -48.250; -283.000; -264.000
264.261; -114.050; -847.000; -630.000
264.402;   -8.025;   33.000;   40.000
264.543;  -80.650; -509.000; -524.000
264.684;  -15.750;   61.000;  -50.000
264.825;  -68.975; -816.000; -538.000
264.966;   -3.550;  -84.000;  -67.000
265.107; -125.150; -646.000; -670.000
265.248; -123.325; -825.000; -812.000
265.390;    0.850;  152.000;   -9.000
265.531;  -18.650; -238.000; -107.000
265.672;  -68.300; -557.000; -630.000
265.813;   56.250;  563.000;  439.000
265.954; -162.750; -959.000; -940.000
266.095;  -15.800; -372.000; -322.000
266.236; -100.925; -686.000; -548.000
266.377;  -49.375; -243.000; -297.000
266.518;  -78.150; -619.000; -547.000
266.659;   29.650;  170.000;  268.000
266.800;    3.575;   83.000;   85.000
266.941;  -74.800; -487.000; -478.000
267.082;   18.125;  354.000;   99.000
267.223;  -62.975; -344.000; -273.000
267.364; -116.175; -892.000; -686.000
267.504;  -14.300;    3.000;  135.000
267.645;   -0.625;  160.000;   67.000
267.786;  -26.150; -147.000;  -86.000
267.927;  -74.575; -473.000; -379.000
268.068;   -7.300; -186.000;  -61.000
268.209;  -50.725; -175.000; -413.000
268.350;  -55.100; -388.000; -532.000
268.490;  -97.325; -648.000; -521.000
268.631;   24.450;  127.000;  225.000
268.772; -116.150; -874.000; -647.000
268.913;  -50.900; -328.000; -476.000
269.054;  -16.175; -117.000;   12.000
269.194;  -47.000; -418.000; -402.000
269.335; -147.250;-1137.000;-1074.000
269.476;  -24.725;   33.000;  -35.000
269.617;  -40.725; -347.000; -392.000
269.757;  -80.225; -713.000; -646.000
269.898; -113.925; -856.000; -613.000
270.039;  -61.100; -415.000; -405.000
270.180; -129.400; -952.000; -816.000
270.320;  -28.650; -190.000; -250.000
270.461;  -37.800; -277.000; -249.000
270.602;  -12.325; -186.000; -156.000
270.742; -118.875; -868.000; -943.000
270.883;  -68.675; -442.000; -390.000
271.023;  -65.800; -358.000; -357.000
271.164;  -75.825; -607.000; -528.000
271.305; -108.600; -666.000; -654.000
271.445;  -82.625; -722.000; -683.000
271.586;  -65.850; -462.000; -283.000
271.726;  -43.675; -397.000; -322.000
271.867;  -51.725; -594.000; -534.000
272.008;  207.975; -473.000; -285.000
272.148;  125.600;  462.000;  468.000
272.289;   19.300; -113.000; -181.000
272.429;   29.875;   19.000;  185.000
272.570;  -94.450; -633.000; -737.000
272.710;  -93.900; -825.000; -775.000
272.851;  -18.775;  113.000; -130.000
272.991; -160.525;-1173.000;-1077.000
273.131;  -66.125; -419.000; -459.000
273.272;  -98.350; -683.000; -723.000
273.412;   15.325; -143.000;  -31.000
273.553;  -41.675; -488.000; -507.000
273.693;  142.625;  913.000;  858.000
273.834;  -98.700; -894.000; -692.000
273.974;  -83.325; -664.000; -615.000
274.114; -106.550; -772.000; -560.000
274.255;   78.200;  414.000;  373.000
274.395;   16.000; -180.000; -125.000
274.535;   51.575;  199.000;  350.000
274.676;   21.200;  225.000;   94.000
274.816;   10.375;  110.000;   34.000
274.956;  -76.425; -624.000; -690.000
275.097;  -62.875;-1014.000; -922.000
275.237; -112.100; -913.000; -803.000
275.377;  -97.025; -778.000; -689.000
275.517; -134.975; -878.000; -937.000
275.658;  -64.550; -590.000; -555.000
275.798;  -55.425; -606.000; -413.000
275.938;   23.450;  215.000;  323.000
276.078; -109.850; -626.000; -395.000
276.218;    0.175;   99.000;  104.000
276.359; -127.550;-1026.000;-1024.000
276.499;  -67.500; -605.000; -446.000
276.639;  -40.625; -305.000; -151.000
276.779;  -40.775; -475.000; -357.000
276.919; -106.450; -783.000; -624.000
277.059;   -9.350; -261.000; -212.000
277.199;  -44.300; -357.000; -259.000
277.340;   38.500;  287.000;  175.000
277.480; -123.300; -840.000; -693.000
277.620;   26.825;  192.000;   16.000
277.760; -197.175;-1533.000;-1294.000
277.900;   17.225;  113.000;   33.000
278.040;   23.875;  137.000;  159.000
278.180;   36.125;  270.000;  170.000
278.320;    9.250;   21.000;   56.000
278.460;  -73.050; -443.000; -469.000
278.600;  -87.975; -708.000; -598.000
278.740;   56.600;  448.000;  224.000
278.880;  -60.075; -768.000; -791.000
279.020;   -6.275; -194.000; -144.000
279.160;  -97.175; -672.000; -595.000
279.300; -109.750; -926.000; -873.000
279.440;  -78.275; -709.000; -622.000
279.579;   -5.200;-1014.000; -929.000
279.719;  -47.275; -410.000; -394.000
279.859;   78.575;   -4.000;   41.000
279.999;   28.025; -208.000;  101.000
280.139;  -30.125; -435.000; -387.000
280.279;  -72.450; -708.000; -745.000
280.419;   -2.800; -229.000; -147.000
280.559;  -33.425; -259.000; -180.000
280.698;  -67.025; -790.000; -639.000
280.838; -100.950; -778.000; -800.000
280.978;  -93.675; -846.000; -790.000
281.118; -118.175; -811.000; -704.000
281.257;    9.850;   24.000;    6.000
281.397; -112.650;-1094.000; -960.000
281.537;  -75.625; -599.000; -712.000
281.677;  -18.975; -150.000; -101.000
281.816; -104.350; -700.000; -630.000
281.956;  -35.950; -193.000; -257.000
282.096;  -65.700; -539.000; -396.000
282.235; -103.900; -672.000; -638.000
282.375;   -9.075; -243.000;  -98.000
282.515;  -98.275; -715.000; -707.000
282.654;   43.275;   29.000;  106.000
282.794;   22.300;  388.000;  244.000
282.934;  -55.650; -530.000; -491.000
283.073; -133.700;-1030.000; -857.000
283.213;  -68.800; -460.000; -467.000
283.353;  -34.450; -408.000; -349.000
283.492;  -36.725; -264.000; -296.000
283.632;  -50.775; -254.000; -168.000
283.771;  -93.375; -859.000; -730.000
283.911;  -53.075; -369.000; -260.000
284.050; -104.250; -794.000; -748.000
284.190; -146.975;-1229.000;-1096.000
284.329; -134.500;-1055.000; -964.000
284.469;  -63.750; -516.000; -591.000
284.608;  -55.900; -559.000; -598.000
284.748;  -91.350; -614.000; -570.000
284.887;   -8.950;  -87.000;  -20.000
285.027; -134.850; -844.000; -892.000
285.166;  -31.675; -192.000; -249.000
285.306;    4.775; -116.000;  -33.000
285.445;  -42.875; -229.000; -343.000
285.584;  -99.250; -630.000; -494.000
285.724;  -45.525; -282.000; -322.000
285.863; -104.250; -857.000; -507.000
286.002;  -48.025; -366.000; -276.000
286.142; -104.600; -715.000; -622.000
286.281;  -85.450; -525.000; -493.000
286.420;  -67.625; -554.000; -417.000
286.560;   97.625;  653.000;  623.000
286.699; -131.950; -958.000; -912.000
286.838;  -84.925; -590.000; -591.000
286.978;  -83.675; -533.000; -537.000
287.117; -135.225;-1085.000; -950.000
287.256;  -37.875; -228.000; -211.000
287.395;  -49.075; -197.000; -378.000
287.535;  -36.425; -370.000; -298.000
287.674;  -72.375; -509.000; -484.000
287.813;   45.275;  661.000;  533.000
287.952; -123.350;-1010.000; -871.000
288.091; -153.575;-1049.000; -915.000
288.231;   19.125;   13.000;   15.000
288.370; -174.850;-1217.000;-1200.000
288.509;  -89.725; -728.000; -645.000
288.648;  -83.750; -770.000; -548.000
288.787;  -25.850; -243.000;  -87.000
288.926;  -63.300; -454.000; -475.000
289.065;  128.775;  859.000;  672.000
289.204;  -59.000; -377.000; -217.000
289.344;  -85.500; -791.000; -690.000
289.483;   20.175;  416.000;  304.000
289.622;  -19.075; -291.000; -149.000
289.761;  -17.275; -309.000; -166.000
289.900; -116.150; -785.000; -626.000
290.039;  -22.175;  -12.000;  -95.000
290.178;  -51.075; -274.000; -180.000
290.317;  -91.925; -618.000; -479.000
290.456;  -57.950; -463.000; -451.000
290.595; -154.225; -961.000; -833.000
290.734; -135.600; -904.000; -891.000
290.873;  -82.975; -456.000; -420.000
291.011; -100.125; -833.000; -843.000
291.150;  -98.125; -770.000; -682.000
291.289;  -29.500; -343.000; -110.000
291.428;  -97.325; -599.000; -480.000
291.567;  -49.850; -370.000; -442.000
291.706;  -13.300;  109.000;  154.000
291.845;  -94.050; -597.000; -505.000
291.984; -155.450;-1234.000;-1061.000
292.122;   76.725;  602.000;  582.000
292.261;   44.975;  620.000;  463.000
292.400;   21.700; -144.000;  211.000
292.539; -125.675; -959.000; -813.000
292.678;  -33.225; -325.000; -300.000
292.816; -150.950;-1136.000; -965.000
292.955;  -83.925; -844.000; -684.000
293.094;  -21.875; -173.000; -337.000
293.233;  -50.150; -556.000; -400.000
293.371;  -50.650; -225.000;  -84.000
293.510; -101.875; -866.000; -780.000
293.649; -121.775; -959.000; -924.000
293.787;  -53.775;-1083.000;-1012.000
293.926;   16.950; -113.000;  -32.000
294.065;  -46.050; -379.000; -290.000
294.203;   60.200;  298.000;  406.000
294.342;   19.675;   74.000;  156.000
294.481; 5485.175;51180.000; -836.000
294.619;  -30.475; -425.000; -582.000
294.758; -148.125;-1230.000;-1137.000
294.896;   78.175; -125.000;    5.000
295.035; -114.275;-1040.000;-1006.000
295.174; -110.875;-1082.000; -954.000
295.312;  -34.800; -323.000; -203.000
295.451;  -12.450; -307.000; -428.000
295.589;  -47.275; -389.000; -518.000
295.728;   25.550; -292.000; -165.000
295.866;  -15.725;  -36.000;  -51.000
296.005;  -63.900; -584.000; -341.000
296.143;  -63.225; -558.000; -596.000
296.282; -106.550; -957.000; -881.000
296.420;  -93.300; -657.000; -557.000
296.559;  -84.800; -892.000; -633.000
296.697;   38.550; -847.000; -665.000
296.835;   79.775;-1141.000;-1002.000
296.974;   53.100;  -23.000;   39.000
297.112;   22.125; -443.000; -504.000
297.251;  -75.050; -815.000; -755.000
297.389;  109.625; -576.000; -438.000
297.527;   44.150; -145.000;  -83.000
297.666;  -54.125; -486.000; -438.000
297.804;  -52.225; -404.000; -264.000
297.942;   -4.300; -136.000; -161.000
298.081;    2.025; -183.000;   63.000
298.219;   74.800;  -17.000;  -19.000
298.357;   67.350; -144.000;  -71.000
298.495;   38.875; -810.000; -812.000
298.634;   92.625;  245.000;  219.000
298.772;   86.250; -220.000; -338.000
298.910;  -18.300; -309.000; -182.000
299.048;   -7.075; -130.000; -153.000
299.187;  -31.550; -350.000; -250.000
299.325;   31.775;   52.000;  122.000
299.463;   75.325; -389.000; -299.000
299.601;  130.775; -327.000; -271.000
299.739; -103.625; -908.000; -883.000
299.877;  -80.575; -791.000; -703.000
300.016;  -30.625;-1095.000; -935.000
300.154;  187.375;  -19.000; -161.000
300.292;   68.750; -428.000; -348.000
300.430;   34.225; -408.000; -291.000
300.568;  -96.500; -940.000; -874.000
300.706;  -51.125; -366.000; -469.000
300.844;  -58.575;-1108.000; -979.000
300.982;  122.350;  246.000;  282.000
301.120; -110.775; -965.000; -866.000
301.258;  -54.625; -812.000; -705.000
301.396;   31.275;  104.000;  -41.000
301.534;   93.900; -218.000; -293.000
301.672;   11.300; -664.000; -521.000
301.810;   62.650; -613.000; -545.000
301.948;  128.400;   53.000;  149.000
302.086;  692.250; -250.000;  -32.000
302.224; 1065.525; -610.000; -585.000
302.362;   58.825; -558.000; -622.000
302.500;   -4.075; -923.000; -893.000
302.638;  120.075;  128.000;  245.000
302.776;   -2.775; -352.000; -408.000
302.913;   52.650;  447.000;  236.000
303.051;    7.475;  -86.000;  -23.000
303.189;   57.350;   90.000;  118.000
303.327;  -47.800; -341.000; -256.000
303.465;  -67.250; -832.000; -588.000
303.603;  -87.000; -805.000; -604.000
303.740;  120.725;  417.000;  241.000
303.878;   45.525; -800.000; -759.000
304.016;  -85.050; -915.000; -790.000
304.154; -114.275;-1123.000;-1152.000
304.291;  -38.050; -505.000; -554.000
304.429;    2.900;  102.000;   74.000
304.567; -126.775; -908.000; -893.000
304.705;  -49.450; -408.000; -515.000
304.842;  117.125; -616.000; -540.000
304.980;   59.675;  215.000;   35.000
305.118;   63.450; -367.000; -365.000
305.255;  -64.900; -945.000; -927.000
305.393;   66.225;  178.000;  239.000
305.531;  -89.550;-1173.000; -956.000
305.668;  -72.250; -663.000; -582.000
305.806;  123.625; -358.000; -439.000
305.943;  130.725; -629.000; -637.000
306.081;   70.375; -378.000; -267.000
306.219; -103.125; -863.000; -748.000
306.356;    3.875;  158.000;   27.000
306.494;  101.225;  981.000;  761.000
306.631;   -4.625;  -11.000;  -55.000
306.769;    7.325; -613.000; -485.000
306.906;   -5.150; -284.000; -258.000
307.044;  -60.400; -473.000; -488.000
307.181;  -63.175; -410.000; -332.000
307.319;    5.325;  112.000;   87.000
307.456; -176.225;-1191.000;-1153.000
307.594;  -96.750; -980.000; -727.000
307.731;  -13.825; -371.000; -164.000
307.868;  -12.475;  -15.000;   20.000
308.006; -131.825; -961.000; -847.000
308.143;  -61.400; -618.000; -330.000
308.281;  153.350;  -37.000; -254.000
308.418;   -8.650; -748.000; -640.000
308.555;  -72.125; -400.000; -250.000
308.693;  -71.550; -577.000; -573.000
308.830; -105.875; -712.000; -657.000
308.967;  -14.175; -215.000;  -95.000
309.105;  -58.300; -507.000; -396.000
309.242;   44.250; -468.000; -367.000
309.379;  333.775; -577.000; -655.000
309.517;  -69.650; -936.000; -948.000
309.654; -111.575; -910.000; -734.000
309.791;  -70.700; -662.000; -580.000
309.928; -124.750; -977.000; -914.000
310.065;  194.625;  819.000;  697.000
310.203;   21.975; -825.000; -850.000
310.340;    0.525; -465.000; -321.000
310.477;  -73.600; -412.000; -516.000
310.614;  -83.725; -383.000; -473.000
310.751;  -83.625; -427.000; -518.000
310.889;  -18.950;    1.000;   11.000
311.026; -154.100;-1161.000; -939.000
311.163;  -38.275; -386.000; -380.000
311.300;  -76.950; -512.000; -479.000
311.437;  -80.775; -658.000; -619.000
311.574; -157.450;-1226.000; -985.000
311.711;  -52.400; -595.000; -433.000
311.848;  -44.100; -380.000; -388.000
311.985;   10.150;  270.000;   93.000
312.122; -108.375; -932.000; -762.000
312.259; -128.175; -941.000; -994.000
312.396;  -83.025; -508.000; -551.000
312.533;  -93.600; -812.000; -790.000
312.670; -131.850;-1070.000; -898.000
312.807;  -32.025; -352.000; -367.000
312.944;  -79.175; -513.000; -611.000
313.081;  -25.550; -150.000; -415.000
313.218; -105.450;-1111.000; -867.000
313.355;   23.225; -531.000; -449.000
313.492;   28.000; -455.000; -292.000
313.629;  128.250;  815.000;  735.000
313.766; -150.825;-1176.000;-1008.000
313.902;  -21.900; -186.000;   21.000
314.039;  -55.250; -372.000; -289.000
314.176;   39.300;  286.000;  192.000
314.313;  -79.675; -569.000; -473.000
314.450;  -79.375; -788.000; -684.000
314.587;  -61.550; -468.000; -480.000
314.723;    0.550;  -78.000;  130.000
314.860;   38.900;  318.000;  332.000
314.997;   32.200;  223.000;  142.000
315.134;  -44.500; -385.000; -368.000
315.270;  -20.275; -480.000; -496.000
315.407; -114.950;-1094.000; -967.000
315.544;  -51.075; -657.000; -538.000
315.681;  -63.450; -681.000; -565.000
315.817;   20.850; -133.000; -176.000
315.954;   25.100; -613.000; -392.000
316.091; -119.400;-1045.000;-1023.000
316.227;  -27.600;  -71.000; -179.000
316.364;    8.500;   23.000;    6.000
316.500;  -40.475; -113.000; -300.000
316.637;  -42.350; -181.000; -302.000
316.774; -103.275; -625.000; -358.000
316.910;  -92.400; -598.000; -629.000
317.047;  -73.725; -487.000; -351.000
317.183;  -43.525; -435.000; -566.000
317.320;  -19.850; -367.000; -321.000
317.456;  -83.625; -733.000; -805.000
317.593;  -92.575; -598.000; -641.000
317.729;   17.575;  168.000;  -67.000
317.866; -207.400;-1434.000;-1285.000
318.002;  -84.600; -708.000; -948.000
318.139;  -82.575; -883.000; -867.000
318.275;  -88.125;-1003.000; -738.000
318.412;  -62.675; -517.000; -336.000
318.548;  -16.575; -751.000; -720.000
318.685; -102.300; -985.000; -888.000
318.821; -101.700; -762.000; -735.000
318.957;  -10.950;   34.000;  -23.000
319.094;   13.750;  297.000;  154.000
319.230;  -52.025; -756.000; -742.000
319.367;  150.250; -471.000; -520.000
319.503;   69.350; -538.000; -436.000
319.639;  -85.700; -877.000; -793.000
319.775;  -67.550; -750.000; -685.000
319.912;  -49.575; -424.000; -519.000
320.048;  -76.500;-1184.000;-1184.000
320.184;   70.650;   59.000;   70.000
320.321;  -56.275; -497.000; -467.000
320.457;   55.200;  475.000;  662.000
320.593;  -69.975; -375.000; -382.000
320.729; -108.325; -732.000; -734.000
320.866;  -71.050; -577.000; -635.000
321.002;  -73.775; -759.000; -809.000
321.138;  -18.025; -135.000; -211.000
321.274;   77.025; -148.000; -115.000
321.410;  -11.550; -585.000; -353.000
321.546;  -12.200;-1011.000; -911.000
321.683;   57.400;  400.000;  185.000
321.819;   10.925;  -48.000; -117.000
321.955; -106.050; -743.000; -722.000
322.091;  -40.200; -585.000; -540.000
322.227;  -17.350; -382.000; -202.000
322.363;    0.500; -320.000; -215.000
322.499;  -44.525; -343.000; -331.000
322.635;  171.825;  636.000;  443.000
322.771;   34.875; -139.000;   12.000
322.907;   99.775;  129.000;  327.000
323.043;  -19.825; -115.000; -206.000
323.179;  -30.000; -394.000; -363.000
323.315;   36.325; -401.000; -371.000
323.451;  114.850; -328.000; -236.000
323.587;   70.700;  -60.000;  -77.000
323.723;   43.500; -682.000; -601.000
323.859;  -13.775; -258.000;  -76.000
323.995;  -38.300; -467.000; -409.000
324.131; -123.225; -967.000; -892.000
324.267;  -43.975; -254.000; -276.000
324.402; -138.850; -960.000; -983.000
324.538;    1.075; -279.000; -104.000
324.674;   31.950;  164.000;   77.000
324.810;  140.975;  226.000;  308.000
324.946;   14.425; -810.000; -658.000
325.082;  -77.250; -568.000; -475.000
325.217;  -10.300;  -62.000;   16.000
325.353;  -89.800; -764.000; -659.000
325.489;  -75.700; -540.000; -506.000
325.625;  -82.025; -579.000; -525.000
325.760;   54.600;  517.000;  376.000
325.896;  -32.850; -515.000; -702.000
326.032;  -65.925; -403.000; -352.000
326.168;  -61.825; -462.000; -369.000
326.303;  -49.275; -352.000; -461.000
326.439;   -8.275; -336.000; -276.000
326.575;    1.725; -190.000;  -29.000
326.710;  -13.625; -156.000;  -30.000
326.846;  -15.000;  146.000;  103.000
326.982;  -86.950; -530.000; -548.000
327.117;  -67.550; -481.000; -442.000
327.253;  -92.850; -745.000; -742.000
327.388; -162.475;-1137.000;-1153.000
327.524;  -54.350; -811.000; -578.000
327.659;  -29.700;  -58.000;  -22.000
327.795;  -22.625;   69.000;   45.000
327.931;  -77.475; -723.000; -499.000
328.066;  -20.650; -417.000; -276.000
328.202;  -10.800;   12.000; -129.000
328.337;   97.575;  957.000;  713.000
328.473;   34.925;  -12.000;  -74.000
328.608;  -24.025; -256.000; -267.000
328.743;  -85.775; -799.000; -664.000
328.879;   12.650;  214.000;  114.000
329.014;  -42.125; -102.000; -122.000
329.150;  -78.175; -358.000; -483.000
329.285;  -82.800; -465.000; -466.000
329.421;  -61.350; -548.000; -246.000
329.556;  -27.575;  -36.000;   85.000
329.691;  -99.950; -633.000; -615.000
329.827;  -80.250; -626.000; -480.000
329.962;  -46.275;  131.000; -301.000
330.097;  -87.700; -673.000; -585.000
330.233;  -51.050; -410.000; -223.000
330.368; -125.600; -839.000; -628.000
330.503;  -15.600;    3.000;   98.000
330.638;    1.225;  -93.000; -125.000
330.774;  -52.500; -609.000; -530.000
330.909;  -49.600; -434.000; -244.000
331.044; -102.100; -714.000; -708.000
331.179; -169.800;-1217.000;-1109.000
331.315;   17.150;   77.000;   20.000
331.450;   22.300;  157.000;  285.000
331.585;  -84.025; -805.000; -706.000
331.720;  -83.925; -510.000; -460.000
331.855;  -13.275;  -35.000; -102.000
331.990;  221.575;   62.000;  138.000
332.126;  111.250; -110.000;   71.000
332.261;  -26.125; -379.000; -265.000
332.396;    9.825; -135.000; -242.000
332.531; -106.525;-1074.000;-1031.000
332.666;   28.350; -519.000; -363.000
332.801; -103.775; -726.000; -807.000
332.936;  -17.750; -192.000; -122.000
333.071; -156.325; -870.000; -817.000
333.206;   23.600;  307.000;  379.000
333.341;   20.950;  344.000;  418.000
333.476;  -83.200; -627.000; -623.000
333.611;  -39.950; -251.000; -173.000
333.746;  -41.900; -381.000; -464.000
333.881; -119.125; -973.000; -935.000
334.016; -124.775; -936.000; -917.000
334.151; -120.875; -746.000; -702.000
334.286;   24.650;  152.000;  186.000
334.421;  -22.625; -125.000; -178.000
334.556;  -67.625; -611.000; -567.000
334.690;  -80.100; -631.000; -577.000
334.825;   63.225;  381.000;   83.000
334.960;  -58.625; -285.000; -413.000
335.095;   10.875;  135.000;  -91.000
335.230; -102.675; -722.000; -738.000
335.365; -119.950;-1084.000; -990.000
335.499; -125.600;-1108.000;-1037.000
335.634;   18.925;    9.000;  534.000
335.769;  -95.475; -755.000; -720.000
335.904;  -50.025; -603.000; -561.000
336.038;  -53.150; -735.000; -657.000
336.173; -111.675;-1206.000;-1194.000
336.308;   15.975; -116.000; -189.000
336.443;   18.075; -544.000; -634.000
336.577;  -56.025; -936.000; -787.000
336.712;   83.100;   -4.000;  -12.000
336.847;  -20.500; -724.000; -607.000
336.981;   81.125; -272.000; -208.000
337.116;  320.600;  615.000;  501.000
337.250;  180.175; -434.000; -421.000
337.385;  229.575; -297.000; -208.000
337.520;   65.500; -632.000; -603.000
337.654;  -50.625; -215.000; -126.000
337.789; -116.750; -989.000; -933.000
337.923;  -34.425; -104.000; -205.000
338.058;  -81.575; -673.000; -738.000
338.192;  -26.925; -611.000; -488.000
338.327;   -6.025;  -18.000; -155.000
338.461;  -56.800; -299.000; -469.000
338.596;  -92.000; -780.000; -638.000
338.730;  -96.650; -767.000; -803.000
338.865;   91.775;  -46.000; -140.000
338.999;  -46.700; -846.000; -702.000
339.134;  -30.250; -634.000; -536.000
339.268;    7.875; -741.000; -603.000
339.403;  340.825; -740.000; -775.000
339.537;   85.525; -894.000; -820.000
339.671; -118.025; -829.000; -813.000
339.806;  -68.200; -556.000; -512.000
339.940;    2.300; -261.000; -235.000
340.074;  -99.825; -685.000; -510.000
340.209;  -42.525; -351.000; -230.000
340.343;  -92.075; -517.000; -573.000
340.477;  151.250;  998.000; 1036.000
340.612;  -62.675;-1033.000; -900.000
340.746;  138.125; -199.000; -243.000
340.880;  -66.200; -924.000; -785.000
341.014;  -26.400;  -45.000; -154.000
341.149; -116.250; -756.000; -718.000
341.283; -106.200; -839.000; -754.000
341.417;  -80.750;-1124.000; -938.000
341.551;  163.225; -768.000; -708.000
341.685;  -27.600; -633.000; -611.000
341.820;  -54.425; -562.000; -493.000
341.954;  -52.025; -218.000; -349.000
342.088; -161.100;-1102.000;-1019.000
342.222;   69.325;  565.000;  618.000
342.356;  -60.825; -395.000; -335.000
342.490;  -94.300; -880.000; -841.000
342.624;  -50.650; -339.000; -242.000
342.758;    0.250; -364.000; -312.000
342.892;  -61.575; -710.000; -585.000
343.026;  -42.725;  -58.000; -116.000
343.160;  -55.375; -426.000; -376.000
343.294;  -80.250; -474.000; -337.000
343.428;   -0.025; -488.000; -448.000
343.562;   -6.975; -172.000;  -23.000
343.696;  -16.800; -385.000; -314.000
343.830;  -15.875; -362.000; -356.000
343.964;    5.925; -231.000; -168.000
344.098; 1033.850;  199.000;   70.000
344.232;  862.150; -266.000; -127.000
344.366;   97.675; -567.000; -453.000
344.500;   68.875; -665.000; -744.000
344.634;   56.225; -324.000; -164.000
344.768;    3.075; -531.000; -341.000
344.902;   31.125;  278.000;  256.000
345.035;  -81.050; -556.000; -496.000
345.169; -135.225; -933.000; -656.000
345.303;  -23.200; -308.000; -482.000
345.437;  -61.025; -826.000; -717.000
345.571;  -72.275; -675.000; -594.000
345.704;  -69.450; -309.000; -532.000
345.838;  -10.975; -331.000; -284.000
345.972;  -31.200; -543.000; -495.000
346.106;  166.225; -179.000; -190.000
346.239;  422.800; -312.000; -243.000
346.373;   -5.650; -343.000; -302.000
346.507; -147.375; -950.000; -962.000
346.640;  171.050;  -30.000;   13.000
346.774;  -44.375; -650.000; -797.000
346.908;   -7.350; -138.000;  -11.000
347.041;  -81.175; -646.000; -593.000
347.175;    7.225;  259.000;   27.000
347.309;  -65.025; -698.000; -628.000
347.442;  -94.875; -883.000; -732.000
347.576;  321.950;  670.000;  668.000
347.709;  233.900; -123.000;  -52.000
347.843;  -80.725; -933.000; -825.000
347.976;   49.075;  235.000;  294.000
348.110; -183.225;-1268.000;-1186.000
348.243; -103.075; -679.000; -772.000
348.377;   -3.300;  -26.000;   60.000
348.510;   55.250;  403.000;  540.000
348.644;  -38.025;  -37.000; -159.000
348.777;    1.750;  180.000;  191.000
348.911;  -58.000; -142.000; -112.000
349.044;  207.425;  471.000;  448.000
349.178;  215.400;-1069.000;-1006.000
349.311;  119.500;  141.000;  255.000
349.444;   -5.125; -927.000; -813.000
349.578;   -5.500; -347.000; -200.000
349.711;  -93.000; -959.000; -862.000
349.845;   13.325; -661.000; -591.000
349.978; -134.400;-1224.000;-1137.000
350.111;  -80.850; -546.000; -612.000
350.244;  -71.900; -596.000; -700.000
350.378;    9.250; -392.000; -393.000
350.511;  -59.400; -393.000; -426.000
350.644; -109.475; -808.000; -806.000
350.778;    5.225;  168.000;  104.000
350.911;   -1.275;  134.000;  140.000
351.044;  -84.450; -685.000; -615.000
351.177;  -33.850; -321.000; -281.000
351.310;  -10.150;    3.000; -131.000
351.444;  -78.375; -888.000; -788.000
351.577;  139.725;  140.000;   90.000
351.710;  102.200;  593.000;  417.000
351.843;  -45.225; -165.000;  -77.000
351.976;    3.300;  149.000;  -79.000
352.109;  -96.475; -621.000; -612.000
352.242;  -15.550; -464.000; -419.000
352.376;  -55.675; -580.000; -636.000
352.509;  204.650; -437.000; -356.000
352.642;   45.225; -654.000; -604.000
352.775;   72.800; -141.000;  -98.000
352.908; -107.525; -933.000; -904.000
353.041; -111.500; -814.000; -824.000
353.174;  -46.650; -551.000; -424.000
353.307;  -89.950; -753.000; -764.000
353.440;   75.675;  541.000;  453.000
353.573; -104.625; -957.000;-1008.000
353.706;  -19.800; -384.000; -558.000
353.839;  -10.625; -264.000; -220.000
353.971;  -92.950; -657.000; -512.000
354.104;  -91.225; -896.000; -835.000
354.237;  -30.050; -627.000; -662.000
354.370;  -81.325; -846.000; -879.000
354.503; -186.800;-1231.000;-1308.000
354.636;  -35.350; -529.000; -348.000
354.769; -118.375; -937.000; -860.000
354.902;   -6.575; -230.000; -139.000
355.034;  -26.650; -164.000; -220.000
355.167;   -8.875; -262.000; -162.000
355.300;  -89.300;-1061.000; -880.000
355.433;  925.375;  -71.000;  -14.000
355.565; 1431.200; -402.000; -384.000
355.698;  364.575; -356.000; -296.000
355.831;   13.000; -882.000; -801.000
355.964;   98.325; -285.000; -170.000
356.096;  -76.275; -856.000; -843.000
356.229;    8.075; -523.000; -530.000
356.362;  293.550; -373.000; -266.000
356.494;  557.675; -229.000; -162.000
356.627;  522.325;  269.000;  377.000
356.760;  635.750;  120.000;   53.000
356.892;  911.450; -286.000; -601.000
357.025;  731.725;  403.000;  389.000
357.157;  674.400; -167.000; -179.000
357.290;  616.675; -856.000; -713.000
357.423;  179.650; -667.000; -556.000
357.555;  126.300; -217.000; -228.000
357.688;  137.725; -483.000; -364.000
357.820;  523.675; -870.000; -877.000
357.953; 4131.325; -563.000; -589.000
358.085;  915.250; -632.000; -612.000
358.218; 1385.850;-1131.000; -932.000
358.350;  250.475;  -58.000;  312.000
358.483;  -99.900;-1300.000;-1187.000
358.615;   -4.175;-1182.000;-1078.000
358.747;  -40.950;-1187.000;-1058.000
358.880;   30.825; -810.000; -744.000
359.012;    1.075; -376.000; -202.000
359.145;  -32.975; -480.000; -511.000
359.277;   98.700; -962.000; -913.000
359.409; 3376.700;  536.000;  231.000
359.542;  931.025; -738.000; -688.000
359.674;   89.750;   46.000;   13.000
359.806;  -57.050; -565.000; -438.000
359.939;  -40.750; -617.000; -516.000
360.071;  -10.425; -583.000; -579.000
360.203;   -6.525; -411.000; -364.000
360.335;   70.450;  164.000;  -16.000
360.468;  218.350; -249.000; -307.000
360.600; 2670.925; -547.000; -454.000
360.732; 2703.925; -546.000; -423.000
360.864;  365.800;-1216.000;-1044.000
360.996;  332.675; -516.000; -554.000
361.129;   42.450; -389.000; -598.000
361.261;   16.650;  110.000; -113.000
361.393;  -35.475; -252.000; -214.000
361.525;   25.425;   94.000;  244.000
361.657;  -35.150; -821.000; -703.000
361.789;   22.925; -139.000; -155.000
361.921;  270.575; -642.000; -593.000
362.053;  293.875;  524.000;  541.000
362.185;   59.450;  288.000;   72.000
362.318;  -81.225; -709.000; -705.000
362.450;  145.325;  294.000;  444.000
362.582;  164.750; -913.000; -870.000
362.714;  -41.675; -353.000; -332.000
362.846;  -92.775; -606.000; -490.000
362.978; -131.800; -941.000; -811.000
363.109;   65.725; -161.000; -260.000
363.241;  515.625; -739.000; -749.000
363.373;  405.925; -649.000; -564.000
363.505;  618.225; -186.000;  -91.000
363.637;  162.025; -787.000; -601.000
363.769; -113.775;-1067.000;-1080.000
363.901;  -76.800; -596.000; -654.000
364.033; -115.550;-1103.000;-1062.000
364.165;   -1.450; -283.000; -283.000
364.296;   76.425; -316.000; -177.000
364.428;   55.675;-1344.000;-1220.000
364.560;  -70.125; -679.000; -661.000
364.692;  -57.100; -738.000; -835.000
364.824;  332.025; -588.000; -456.000
364.955;  448.425; -402.000; -564.000
365.087;  822.550;-1097.000; -852.000
365.219;   30.750; -686.000; -816.000
365.351;  -68.825; -526.000; -572.000
365.482;   61.850;  300.000;  240.000
365.614;  -44.525; -402.000; -314.000
365.746; -106.850; -729.000; -752.000
365.877; -106.775; -706.000; -672.000
366.009;  234.900;  -35.000;  -62.000
366.141;  -96.775;-1249.000;-1134.000
366.272; -105.275; -803.000; -719.000
366.404; -118.125;-1005.000; -874.000
366.535;  -22.450; -139.000;  -12.000
366.667; -104.075; -644.000; -649.000
366.799;   49.575;  353.000;  203.000
366.930; -101.500; -862.000; -996.000
367.062;  122.825; -639.000; -613.000
367.193;  130.400; -872.000; -842.000
367.325;  -52.525; -580.000; -684.000
367.456;   75.550; -246.000;   31.000
367.588;  165.275; -371.000; -318.000
367.719;   32.025;  -44.000;  -45.000
367.851;  -15.700; -222.000; -241.000
367.982;  -34.625; -875.000; -732.000
368.113;  140.925; -475.000; -358.000
368.245; -119.375; -960.000; -841.000
368.376;  -15.950; -254.000; -302.000
368.508;  -34.150; -188.000; -263.000
368.639; -130.675;-1166.000;-1034.000
368.770;   -8.750; -670.000; -589.000
368.902;  -43.775; -836.000; -926.000
369.033; -103.950; -906.000; -855.000
369.164;  -48.200; -720.000; -653.000
369.296; -108.300; -452.000; -601.000
369.427;    3.775; -209.000; -144.000
369.558;  -47.825; -593.000; -377.000
369.689;  -80.700; -721.000; -569.000
369.821; -123.325; -951.000; -845.000
369.952;  -17.100;   42.000; -108.000
370.083;  -53.350; -229.000; -108.000
370.214;  -87.075; -735.000; -650.000
370.345;   -7.800;   65.000;   81.000
370.477;  -82.925; -810.000; -790.000
370.608;  264.825; -328.000; -264.000
370.739;  -52.400;-1233.000;-1292.000
370.870;  -19.875;-1102.000; -923.000
371.001;  119.950; -378.000; -467.000
371.132;  -69.300; -754.000; -735.000
371.263;   -3.325;  -42.000; -148.000
371.394; -132.500; -841.000; -748.000
371.525;   30.200;  345.000;  225.000
371.657;  -71.175; -808.000; -670.000
371.788;   76.175;  103.000;  199.000
371.919;  200.100; -384.000; -304.000
372.050; 4085.000;  -91.000; -156.000
372.181; 1252.100; -188.000; -294.000
372.311;  433.525;   42.000; -127.000
372.442;   49.400; -457.000; -451.000
372.573;   -1.600; -444.000; -340.000
372.704; -114.025;-1008.000; -980.000
372.835;  112.125; -228.000; -289.000
372.966;  -57.325; -646.000; -554.000
373.097;  -59.400; -575.000; -711.000
373.228;  -36.975; -717.000; -542.000
373.359;  166.025; -824.000; -536.000
373.490; 1064.175; -881.000; -727.000
373.620; 1346.450;-1001.000; -803.000
373.751; 2079.925; -332.000; -396.000
373.882;  915.875; -663.000; -733.000
374.013;   90.425; -449.000; -262.000
374.143;  -37.300; -581.000; -659.000
374.274;  -96.425; -987.000; -908.000
374.405;  211.200; -388.000; -276.000
374.536;  513.225; -526.000; -387.000
374.666; 1324.575; -759.000; -807.000
374.797;  293.525; -817.000; -868.000
374.928; 1015.375; -710.000; -560.000
375.058; 1026.100; -535.000; -500.000
375.189;  107.975;  -59.000;  -93.000
375.320;  -95.825; -928.000;-1034.000
375.450;  -26.750; -625.000; -616.000
375.581;  -52.325; -526.000; -436.000
375.712;  -27.625; -574.000; -250.000
375.842;  359.100; -438.000; -415.000
375.973;  270.225; -554.000; -513.000
376.103;  -29.475; -665.000; -648.000
376.234;  -77.150; -531.000; -552.000
376.364;  -14.500; -944.000; -867.000
376.495;  359.725;  925.000;  529.000
376.625;    0.025; -472.000; -485.000
376.756;   87.950; -709.000; -678.000
376.886;  -56.350;-1178.000;-1026.000
377.017;   28.425;-1048.000;-1061.000
377.147;  309.425; -786.000; -782.000
377.278;   57.375;  174.000;  228.000
377.408; -127.150; -801.000; -815.000
377.538; -101.650; -707.000; -693.000
377.669;  -63.800; -537.000; -613.000
377.799;  -87.200; -645.000; -635.000
377.929;  -48.750; -610.000; -428.000
378.060; -125.400; -781.000; -847.000
378.190;  -63.725; -726.000; -531.000
378.320;  -56.900; -401.000; -406.000
378.451;   -2.825; -131.000;  -22.000
378.581;   -6.000;  -67.000; -110.000
378.711;  168.625; 1035.000;  866.000
378.841;    5.850; -533.000; -675.000
378.972;  -72.775; -871.000; -751.000
379.102;   15.750; -652.000; -579.000
379.232;   -4.600; -126.000;  -73.000
379.362;  -94.800;-1001.000; -885.000
379.492;   33.750; -373.000; -424.000
379.623;  128.150;    0.000;  111.000
379.753;  -85.550;-1107.000; -974.000
379.883;  227.700;   59.000;  156.000
380.013;   32.250;-1081.000;-1017.000
380.143;  -89.125;-1097.000;-1056.000
380.273;  -93.000; -985.000; -861.000
380.403;    8.025; -344.000; -257.000
380.533;  -12.050; -651.000; -664.000
380.663;   83.950;  173.000;  128.000
380.793;  -78.575;-1027.000;-1074.000
380.923;  -28.550; -103.000;  -34.000
381.053;  -92.500; -613.000; -623.000
381.183;  -29.100; -106.000; -248.000
381.313;   53.150; -656.000; -470.000
381.443;   38.675; -692.000; -473.000
381.573;  235.550; -402.000; -409.000
381.703;  369.925;-1249.000;-1095.000
381.833; -115.300;-1454.000;-1336.000
381.963;  128.575; -134.000;  -87.000
382.093; 1596.675; -925.000; -909.000
382.223;  487.225; -713.000; -602.000
382.353;    9.875; -801.000; -608.000
382.482;  459.100;-1091.000; -964.000
382.612;  886.325; -872.000; -644.000
382.742;  511.850; -695.000; -622.000
382.872;  315.975; -565.000; -551.000
383.002;   64.425;  347.000; -132.000
383.131;  -17.975; -226.000; -160.000
383.261;  -26.225; -706.000; -768.000
383.391;  307.250; -552.000; -377.000
383.521; 2988.950;  451.000;  263.000
383.650;  672.475; -947.000; -904.000
383.780;  -18.450; -783.000; -656.000
383.910;  101.875;  880.000;  802.000
384.039;   34.225; -794.000; -656.000
384.169;  258.975;-1205.000;-1017.000
384.299;   -2.725; -650.000; -662.000
384.428;  -90.075; -764.000; -680.000
384.558;  -41.275; -308.000; -275.000
384.687;  -39.500; -414.000; -334.000
384.817;   11.175;   75.000;   -2.000
384.947;   19.625; -234.000; -141.000
385.076;  313.275;  982.000;  912.000
385.206;  114.475;  369.000;  480.000
385.335;  -20.275; -549.000; -417.000
385.465;  -66.425; -655.000; -663.000
385.594;  156.675;  -53.000;  -44.000
385.724;  505.000; -868.000; -838.000
385.853;  160.200; -296.000; -270.000
385.982; 1579.850; -743.000; -787.000
386.112; 2462.450;-1052.000; -871.000
386.241;  171.200; -307.000; -312.000
386.371;   15.825; -174.000;  -87.000
386.500;   17.125; -825.000; -789.000
386.629;   37.700; -874.000; -817.000
386.759;   67.200;  -43.000;   68.000
386.888;   -1.350; -170.000; -250.000
387.017;  -76.550; -648.000; -620.000
387.147;  -88.200; -771.000; -798.000
387.276;    2.325; -410.000; -397.000
387.405;   34.450; -398.000; -342.000
387.535;  -47.700; -452.000; -361.000
387.664;  -55.950; -692.000; -620.000
387.793;   78.325; -198.000; -113.000
387.922;  608.575;  255.000;  200.000
388.052;   39.225; -576.000; -423.000
388.181;   34.400; -342.000; -472.000
388.310;   14.825; -889.000; -710.000
388.439;  -26.550; -749.000; -742.000
388.568;  219.050;  365.000;  244.000
388.697; 1239.375; -756.000; -653.000
388.826;  264.650; -768.000; -666.000
388.956;   64.000; -285.000; -307.000
389.085;  -32.125; -347.000; -287.000
389.214; -114.025; -842.000; -872.000
389.343;  -58.400; -645.000; -413.000
389.472;  390.050;  126.000;  149.000
389.601;  510.400;   91.000;    0.000
389.730;   37.925; -568.000; -687.000
389.859;   68.425;  226.000;   46.000
389.988;  226.300; -423.000; -408.000
390.117;  166.500; -168.000; -146.000
390.246;    6.900; -331.000; -320.000
390.375;  139.725; -673.000; -626.000
390.504;  -59.975; -703.000; -621.000
390.633;  -93.750; -672.000; -726.000
390.761;  -51.875; -732.000; -645.000
390.890;   34.600;   -4.000; -130.000
391.019;  -31.375; -421.000; -441.000
391.148; -134.525; -826.000; -855.000
391.277;  -56.575; -576.000; -493.000
391.406;  -68.325; -821.000; -805.000
391.534;    6.700;  574.000; -301.000
391.663;  -58.875; -583.000; -645.000
391.792;  -84.250; -673.000; -701.000
391.921;  127.975;   -3.000;   15.000
392.050;  229.725; -287.000; -228.000
392.178;  -21.575;-1206.000;-1061.000
392.307;  184.925; -758.000; -712.000
392.436;   91.650; -427.000; -641.000
392.564;   29.025;  166.000;   -6.000
392.693;  -82.500; -860.000; -682.000
392.822;  247.800; -529.000; -534.000
392.950;  113.200; -880.000; -714.000
393.079;  380.025; -188.000; -328.000
393.208;   45.600; -488.000; -511.000
393.336;    2.075; -170.000; -145.000
393.465;  -56.575; -317.000; -199.000
393.593;   -2.950;   62.000;   79.000
393.722; -154.800;-1121.000; -916.000
393.850;  -34.075; -188.000;  -61.000
393.979; -150.275; -926.000; -805.000
394.107;  -58.375; -517.000; -537.000
394.236;  -16.825; -570.000; -507.000
394.364;  222.425;  383.000;  206.000
394.493;  349.625; -911.000; -767.000
394.621;  -17.275; -955.000; -916.000
394.750;  672.300; -873.000; -923.000
394.878; 2773.900; -247.000; -149.000
395.007; 3824.050; -721.000; -807.000
395.135;  296.350; -790.000; -721.000
395.263; -105.950;-1038.000;-1040.000
395.392;    3.950;  -25.000; -107.000
395.520; -140.050; -818.000; -679.000
395.648;  -72.400; -865.000; -915.000
395.777;   -9.700; -366.000; -405.000
395.905;  -44.775; -449.000; -564.000
396.033;   13.175;  217.000;  172.000
396.162;  585.575; -399.000; -453.000
396.290;  515.625;  -17.000;   -2.000
396.418;  120.350; -555.000; -514.000
396.546;  -62.500; -571.000; -466.000
396.674; -101.300; -850.000; -878.000
396.803;   11.550;  -72.000;  -23.000
396.931;  118.425; -179.000; -199.000
397.059;   85.125;-1026.000; -989.000
397.187; -107.500;-1026.000; -975.000
397.315; -126.975; -884.000; -649.000
397.443; -100.100; -592.000; -443.000
397.572; -100.950; -578.000; -424.000
397.700;   27.675; -607.000; -614.000
397.828;   14.350;  120.000;  -90.000
397.956;  -38.400; -508.000; -478.000
398.084;  -74.925; -767.000; -626.000
398.212;   34.250;  137.000;  124.000
398.340;   18.825;  -56.000;  159.000
398.468;   40.800; -390.000; -169.000
398.596; -137.025; -993.000; -953.000
398.724; -117.275; -762.000; -767.000
398.852; -169.500;-1024.000; -976.000
398.980;  -63.375; -560.000; -560.000
399.108;  -43.525; -982.000; -735.000
399.236;   50.475;   13.000;    8.000
399.363;    8.050;  222.000;  196.000
399.491;  -58.375; -404.000; -398.000
399.619; -133.175; -829.000; -800.000
399.747;  -91.075; -859.000; -771.000
399.875;  100.000;  220.000;  234.000
400.003;  -49.950; -359.000; -284.000
400.130;  -91.575; -421.000; -341.000
400.258;  -36.625;  -83.000;   38.000
400.386;  -74.925; -352.000; -168.000
400.514;  -39.300; -526.000; -587.000
400.641;  -83.675; -928.000; -802.000
400.769; -135.300; -979.000; -888.000
400.897; -102.825; -838.000; -793.000
401.025;  -21.600; -166.000; -152.000
401.152;    6.350;  220.000;   38.000
401.280;  -80.325; -430.000; -429.000
401.408; -124.450; -712.000; -576.000
401.535;  -99.550; -735.000; -758.000
401.663; -194.575;-1134.000;-1054.000
401.790;  -87.400; -514.000; -525.000
401.918;   28.675;  436.000;  405.000
402.046;  -26.375;  134.000;  122.000
402.173;  -34.950;  -18.000;    7.000
402.301;  -63.400; -519.000; -397.000
402.428;   39.675;  528.000;  383.000
402.556; -142.025;-1188.000; -913.000
402.683;  -41.750;  -20.000;   -1.000
402.811;  -22.425;  -37.000; -206.000
402.938;  -15.225;   20.000;   27.000
403.066;  235.825; -574.000; -558.000
403.193;  395.450;  299.000;  239.000
403.321;  307.575; -396.000; -574.000
403.448;  364.125;   83.000;   27.000
403.575;  166.875;  -90.000;  -46.000
403.703; -101.800; -732.000; -557.000
403.830;  -75.925; -531.000; -496.000
403.957; -146.025;-1117.000;-1023.000
404.085;   10.750;  -61.000; -172.000
404.212;  103.025;  -50.000;   63.000
404.339;  262.850; -566.000; -306.000
404.467; 5482.125; -612.000; -524.000
404.594; 3812.550; -287.000; -227.000
404.721;  937.450; -869.000; -764.000
404.848;   90.200; -113.000; -202.000
404.976; -103.375; -856.000; -783.000
405.103;  -24.325;  -14.000;  -82.000
405.230;   -4.825;  190.000;  226.000
405.357;   32.075;  117.000;   44.000
405.484;  255.675;  -49.000;    5.000
405.612;   30.450; -548.000; -563.000
405.739;  -49.575; -488.000; -243.000
405.866;   94.325;  669.000;  385.000
405.993;  -42.300; -398.000; -102.000
406.120; -133.700; -801.000; -887.000
406.247;  -62.575; -323.000; -342.000
406.374;  510.175;  540.000;  629.000
406.501;  142.900; -632.000; -702.000
406.628;  -74.800; -621.000; -589.000
406.755;  -99.675; -803.000; -620.000
406.882;  -39.150; -228.000; -277.000
407.009; -116.725; -719.000; -628.000
407.136;   69.375; -480.000; -401.000
407.263;  162.750; -939.000; -829.000
407.390;  -69.425; -692.000; -614.000
407.517; -173.275;-1139.000;-1187.000
407.644;  -61.725; -332.000; -256.000
407.771;  -58.400; -249.000; -287.000
407.898;    6.475;  168.000;  328.000
408.025;  -59.300; -421.000; -313.000
408.151;  -10.200;   82.000;  153.000
408.278;  -72.875; -267.000; -216.000
408.405; -120.875; -931.000; -899.000
408.532;  -66.325; -549.000; -542.000
408.659; -116.200; -677.000; -648.000
408.785; -206.325;-1298.000;-1170.000
408.912;  -58.875; -412.000; -296.000
409.039; -117.875; -610.000; -686.000
409.166; -111.725; -591.000; -555.000
409.292; -101.125; -571.000; -534.000
409.419; -127.175; -665.000; -649.000
409.546;  -96.825; -431.000; -192.000
409.672; -107.900; -713.000; -545.000
409.799;  -25.750;  -36.000;   34.000
409.926;  -48.700; -180.000; -179.000
410.052; -185.825;-1127.000;-1091.000
410.179;  -51.950; -368.000; -392.000
410.305;  -92.875; -375.000; -493.000
410.432;  -42.325; -220.000; -333.000
410.558;  -83.000; -305.000; -380.000
410.685; -108.400; -688.000; -431.000
410.812;  -92.600; -409.000; -588.000
410.938; -128.300; -964.000; -808.000
411.065;  -92.175; -671.000; -645.000
411.191;  -25.225; -189.000; -174.000
411.317; -129.350; -823.000; -742.000
411.444;  -71.775; -317.000; -246.000
411.570;  -57.775; -339.000; -294.000
411.697; -129.700; -758.000; -752.000
411.823; -176.250; -989.000; -999.000
411.949;  -30.850;  -56.000;   17.000
412.076; -108.825; -539.000; -519.000
412.202; -128.200; -758.000; -757.000
412.329; -138.775; -798.000; -752.000
412.455; -105.725; -821.000; -657.000
412.581;  -31.700;  -15.000;  172.000
412.707;  -62.675; -540.000; -457.000
412.834;   10.550;  156.000;  219.000
412.960;  -88.200; -785.000; -784.000
413.086; -117.600; -743.000; -701.000
413.212;  171.750;  604.000;  578.000
413.339;  -51.025; -685.000; -701.000
413.465;   17.775; -364.000; -310.000
413.591;  -76.850; -757.000; -474.000
413.717;  -34.000; -358.000; -366.000
413.843; -140.350; -839.000; -861.000
413.969;  -55.575;  -47.000; -292.000
414.096; -120.575; -679.000; -679.000
414.222;   -2.750;  -33.000;   85.000
414.348;  -24.275; -652.000; -385.000
414.474;  113.300;   38.000;  -52.000
414.600;  -14.200; -126.000; -144.000
414.726;   -4.025;  -96.000;  -55.000
414.852;  -52.700; -365.000; -342.000
414.978;   34.700;  104.000;  -18.000
415.104;   18.850;   38.000;   80.000
415.230;   23.750; -329.000; -330.000
415.356;   28.475; -409.000; -514.000
415.482;  194.600;   13.000;  -35.000
415.608;  255.950; -247.000; -323.000
415.734;  933.400;   67.000;   38.000
415.860;19426.550; -875.000; -767.000
415.986;14174.500; -685.000; -607.000
416.111; 1213.750; -798.000; -652.000
416.237;  248.675; -424.000; -571.000
416.363; 1070.525; -765.000; -733.000
416.489; 3987.625; -324.000; -251.000
416.615;  429.450; -707.000; -742.000
416.741;  -28.625; -677.000; -784.000
416.866; -103.400; -673.000; -736.000
416.992; -116.950; -801.000; -818.000
417.118;  -31.925;  -41.000;  -80.000
417.244;  -63.875; -798.000; -531.000
417.369;  -93.675; -801.000; -612.000
417.495;    3.450; -325.000; -254.000
417.621;  -89.675;-1015.000; -803.000
417.746;    4.600; -579.000; -572.000
417.872;   55.700; -254.000; -144.000
417.998;   40.400; -515.000; -530.000
418.123;  986.850;-1073.000; -845.000
418.249; 5207.750; -512.000; -601.000
418.374;  736.125; -916.000; -824.000
418.500;  110.875; -383.000; -482.000
418.626;  101.775;   70.000;  -59.000
418.751;  121.900; -549.000; -448.000
418.877;  190.675; -637.000; -643.000
419.002; 1721.475; -688.000; -560.000
419.128;11986.550; -930.000; -721.000
419.253; 2942.075; -967.000; -837.000
419.379;  376.400; -391.000; -338.000
419.504;  373.650;  325.000;  415.000
419.629;  504.700; -393.000; -212.000
419.755; 3331.900; -317.000; -254.000
419.880;19958.325;  -98.000;   67.000
420.006;10963.325; -280.000; -221.000
420.131;28388.800; -662.000; -775.000
420.256; 4151.225; -315.000; -316.000
420.382;  551.475; -665.000; -687.000
420.507;   61.175; -649.000; -778.000
420.632;  137.375; -337.000; -339.000
420.758;  305.725; -251.000; -425.000
420.883;  -85.625; -876.000; -672.000
421.008;  -97.100; -775.000; -619.000
421.133;  -76.150; -509.000; -467.000
421.259;  -51.625; -325.000; -259.000
421.384; -112.450; -834.000; -693.000
421.509;  -36.075;-1052.000; -862.000
421.634; 1370.125; -936.000; -820.000
421.759;  612.450; -359.000; -327.000
421.885;  -40.225; -717.000; -656.000
422.010;  -69.250; -673.000; -542.000
422.135; -148.050; -695.000; -727.000
422.260;   43.200;  340.000;  280.000
422.385;  -53.650;   12.000;  -98.000
422.510;   24.350;  151.000;  -26.000
422.635;   21.750;  -87.000;  -43.000
422.760;  119.475; -766.000; -791.000
422.885;   70.875;  -57.000;  -80.000
423.010;  -36.300; -112.000; -169.000
423.135; -100.475; -481.000; -561.000
423.260;   -6.525; -150.000; -245.000
423.385;   83.325;  476.000;  222.000
423.510;   44.200;   71.000;  -22.000
423.635;  103.775;  133.000;   45.000
423.760;   67.225;  383.000;  328.000
423.885;   50.500;  336.000;  391.000
424.010;   24.250;  -68.000;  -13.000
424.135;   -6.025;    5.000;  -33.000
424.259;  -83.825; -654.000; -457.000
424.384;  -65.475; -279.000; -272.000
424.509;  -39.200; -260.000; -186.000
424.634;  -95.425; -761.000; -623.000
424.759;  -32.575; -688.000; -544.000
424.883;  -27.425; -506.000; -527.000
425.008;  154.225; -502.000; -410.000
425.133; 1935.475; -679.000; -653.000
425.258;  912.950; -517.000; -381.000
425.382; 1135.025; -867.000; -774.000
425.507; 2961.075; -487.000; -543.000
425.632;  465.450; -802.000; -663.000
425.756;  438.150; -256.000; -146.000
425.881; 6087.275; -831.000; -857.000
426.006;16425.600; -604.000; -355.000
426.130; 2681.250; -696.000; -508.000
426.255;  342.475; -611.000; -491.000
426.379;  141.525; -189.000; -577.000
426.504;  359.700;  660.000;  544.000
426.629; 3880.525; -519.000; -466.000
426.753; 2728.575;   64.000;  -46.000
426.878;  303.725; -252.000; -288.000
427.002;  154.375; -651.000; -668.000
427.127; 1560.850;  -35.000; -158.000
427.251;10913.975;  372.000;  401.000
427.375; 3164.875; -191.000; -173.000
427.500; 2580.600; -616.000; -610.000
427.624;  862.350; -234.000; -400.000
427.749;  112.400; -216.000; -225.000
427.873;  -45.125; -499.000; -412.000
427.997;  -43.725; -222.000; -230.000
428.122;   75.175;  795.000;  703.000
428.246;   76.850;  433.000;  434.000
428.371; -123.625; -869.000; -773.000
428.495; -111.275; -624.000; -646.000
428.619;  -27.025; -186.000; -117.000
428.743;   13.050;   65.000;  132.000
428.868;   33.775; -732.000; -643.000
428.992; 1572.050; -219.000; -326.000
429.116;  675.300; -329.000; -357.000
429.240;  309.500;  419.000;  426.000
429.365;  -13.125; -454.000; -574.000
429.489;  -44.950; -638.000; -647.000
429.613;   11.900; -236.000; -177.000
429.737;   32.500; -563.000; -432.000
429.861;  244.900; -247.000; -133.000
429.985; 5338.650; -425.000; -305.000
430.109; 5915.175; -770.000; -908.000
430.234;  668.600;   76.000;  -50.000
430.358;   45.150; -250.000; -160.000
430.482;  -69.175; -672.000; -564.000
430.606;  -60.000; -655.000; -375.000
430.730;   24.675; -437.000; -388.000
430.854;  159.500; -909.000; -835.000
430.978;  -63.725; -795.000; -764.000
431.102;  -81.025; -499.000; -422.000
431.226; -115.600; -874.000; -815.000
431.350;   24.700;  345.000;  422.000
431.474;  -78.575; -661.000; -373.000
431.597; -148.175;-1060.000; -848.000
431.721;  -81.275; -276.000; -267.000
431.845; -153.925; -704.000; -472.000
431.969;  -81.975; -304.000; -349.000
432.093; -106.650; -395.000; -317.000
432.217;  -25.750;   32.000;   82.000
432.341;  -91.025; -523.000; -518.000
432.464;   -1.075;   96.000;   40.000
432.588;  243.575; -401.000; -329.000
432.712;  121.700;  -52.000;  -52.000
432.836;   47.400;  213.000;  263.000
432.959;  -17.350; -372.000; -311.000
433.083;   66.775;   11.000;    2.000
433.207;  349.150;  285.000;  930.000
433.330; 4803.925; -391.000; -200.000
433.454; 6022.025; -654.000; -638.000
433.578; 3441.700;  583.000;  278.000
433.701;  659.675; -623.000; -675.000
433.825;  159.675; -292.000; -299.000
433.949;  207.200;   28.000;  -72.000
434.072;   78.800; -410.000; -323.000
434.196;  -21.150; -309.000; -117.000
434.319; 3697.800;25482.000;25124.000
434.443;  729.025; -656.000; -603.000
434.566; 2556.575;  281.000;   62.000
434.690;  416.100; -637.000; -383.000
434.813;   58.600; -251.000; -173.000
434.937;  -82.125; -569.000; -696.000
435.060;  -36.425; -423.000; -332.000
435.184;  383.825; -492.000; -217.000
435.307;  211.850;  159.000;  102.000
435.431;   -4.325;  -40.000;   24.000
435.554;  -72.000; -399.000; -240.000
435.677;  -92.475; -350.000; -258.000
435.801;  -45.950;  -25.000;   49.000
435.924;   -7.100;    1.000;  -67.000
436.048; -102.450;-1019.000; -732.000
436.171;  -65.600; -240.000;  -66.000
436.294;  -25.025; -248.000; -229.000
436.417;   73.050; -963.000; -849.000
436.541;  -92.225; -814.000; -840.000
436.664;  -70.050; -242.000; -316.000
436.787;  -28.450;   13.000;  113.000
436.910; -107.675; -792.000; -422.000
437.034;   16.525;  142.000;  143.000
437.157;   65.425;  -11.000;    0.000
437.280;  -47.250; -392.000; -292.000
437.403;  -72.650; -982.000; -869.000
437.526;  753.300; -903.000; -865.000
437.649; 2721.650; -505.000; -332.000
437.772;  412.050; -692.000; -540.000
437.896;  135.825;  700.000;  544.000
438.019;  -99.000; -758.000; -503.000
438.142;  -74.950; -596.000; -506.000
438.265;   -6.750; -639.000; -670.000
438.388;  660.275; -520.000; -410.000
438.511;  125.100; -597.000; -394.000
438.634;  -55.700; -247.000; -125.000
438.757; -139.500; -693.000; -619.000
438.880;  -31.200;  -34.000;  -57.000
439.003;  -73.150; -417.000; -437.000
439.126;  -72.350; -287.000; -167.000
439.248;  -57.600;  -98.000; -139.000
439.371;  -56.275;    9.000;  -53.000
439.494;    2.975;  510.000;  439.000
439.617;  -56.900;   65.000;  -88.000
439.740; -190.850; -968.000; -816.000
439.863; -137.225; -755.000; -595.000
439.986; -129.750; -476.000; -431.000
440.108;  -54.625; -161.000; -112.000
440.231; -169.250; -950.000; -836.000
440.354;  -42.850;  -64.000; -150.000
440.477;   47.375; -566.000; -542.000
440.599;    8.925; -200.000; -225.000
440.722; -121.475; -709.000; -586.000
440.845;   61.600;  751.000;  928.000
440.968; -116.250; -415.000; -311.000
441.090;  -76.875; -199.000;  -33.000
441.213; -166.525;-1021.000; -825.000
441.336;  -59.000; -159.000;   -5.000
441.458;  -85.150; -549.000; -396.000
441.581;  -78.700; -628.000; -629.000
441.703;  -69.475; -152.000;   13.000
441.826; -109.600; -557.000; -400.000
441.948;  -58.225;   56.000;   51.000
442.071;   24.225;  555.000;  424.000
442.193; -112.350; -531.000; -485.000
442.316;   19.650;  152.000;   97.000
442.438;   39.300; -233.000;  -10.000
442.561;   72.150;  272.000;  262.000
442.683;  621.725; -809.000; -522.000
442.806; 1383.925;   -8.000;   74.000
442.928;   55.150; -859.000; -604.000
443.051;  -63.400; -577.000; -373.000
443.173;  -86.175; -341.000; -339.000
443.295;  -93.525; -263.000; -371.000
443.418;  -73.950; -321.000;  -29.000
443.540;   -5.075; -106.000;   -4.000
443.662; -106.250; -563.000; -465.000
443.785;  -13.350;  335.000;  199.000
443.907;  -90.400; -362.000; -208.000
444.029; -133.400; -767.000; -494.000
444.152; -147.350; -644.000; -554.000
444.274;  -33.325;  -18.000;  -24.000
444.396; -131.700; -461.000; -221.000
444.518; -131.300; -691.000; -454.000
444.640; -104.200; -268.000; -111.000
444.763;  -33.000;  388.000;  249.000
444.885; -134.525; -432.000; -392.000
445.007;  -33.025;   35.000;   86.000
445.129; -130.600; -610.000; -515.000
445.251;  -98.350; -372.000; -439.000
445.373; -139.450; -537.000; -386.000
445.495;   -7.125;  242.000;  350.000
445.617;   45.375;  853.000;  753.000
445.739;  -75.175; -215.000;  -97.000
445.861;  -33.175; -245.000; -112.000
445.984;  -35.275; -267.000; -101.000
446.105;  232.025; -418.000; -251.000
446.227;  729.750; -176.000;  -19.000
446.349;   26.050; -358.000; -249.000
446.471; -107.200; -615.000; -448.000
446.593;  -58.700; -316.000;   19.000
446.715;    4.750;  -67.000;   41.000
446.837;   68.225;  697.000;  832.000
446.959; -103.525; -457.000; -478.000
447.081; -136.575; -628.000; -518.000
447.203;   52.950;  862.000;  834.000
447.325;  -99.750; -270.000;   42.000
447.446;  -11.800;  286.000;  530.000
447.568; -156.650; -921.000; -803.000
447.690;  -69.875; -236.000; -245.000
447.812; -146.525; -798.000; -519.000
447.933;  -29.425;  155.000;  127.000
448.055;  -63.100; -306.000; -261.000
448.177;  175.125;   31.000;   79.000
448.299;  123.650; -935.000; -727.000
448.420;   37.075;  -25.000;  159.000
448.542;  -39.675;   -3.000;   33.000
448.664;  -23.550;  109.000;  322.000
448.785;  -43.175;  265.000;   83.000
448.907;  -86.775; -614.000; -353.000
449.028;  -17.250; -771.000; -471.000
449.150;   56.475;  492.000;  589.000
449.272; -171.775;-1044.000; -913.000
449.393;   22.850;  612.000;  694.000
449.515; -142.400; -634.000; -581.000
449.636;  -62.925; -264.000; -155.000
449.758;   79.700;  763.000;  622.000
449.879;  -91.675; -498.000; -396.000
450.001;  -89.550; -149.000;  -49.000
450.122;  -43.125;  -95.000;  162.000
450.244;  -23.325;   37.000;  364.000
450.365; -110.125; -495.000; -301.000
450.486;  -43.400;   80.000;  268.000
450.608;   12.525;  393.000;  326.000
450.729;   60.300;  578.000;  645.000
450.850;   -5.150; -574.000; -466.000
450.972;  692.350; -552.000; -389.000
451.093; 4608.975;  190.000;  588.000
451.214; 2021.925; -516.000; -337.000
451.336;  383.500;  773.000;  579.000
451.457;   54.075;  264.000;  393.000
451.578;  -50.100; -118.000;  -74.000
451.699; -134.325; -546.000; -540.000
451.821;  -65.400; -284.000;  -50.000
451.942;   -5.025;  278.000;  285.000
452.063;   24.900;  228.000;  419.000
452.184;  534.800;  -54.000;  -49.000
452.305; 1036.000;  103.000;  170.000
452.427;  120.075; -549.000; -301.000
452.548;  -28.025;   23.000;   79.000
452.669;  -49.300; -257.000;  -89.000
452.790;  -34.225;    3.000;  -18.000
452.911;   -4.275;  195.000;  259.000
453.032;  -76.325; -289.000;  -60.000
453.153;  -36.700;  -29.000;   81.000
453.274;   61.600;  737.000;  868.000
453.395;  -58.150;  -51.000;  175.000
453.516;  126.700; 1317.000; 1388.000
453.637;  -75.750; -205.000; -150.000
453.758;  -52.925;   15.000;   69.000
453.879; -125.250; -462.000; -250.000
454.000;   72.650; 1086.000;  948.000
454.121; -115.375; -554.000; -326.000
454.242; -119.775; -599.000; -383.000
454.362;  -51.050;  -99.000;  114.000
454.483;  -35.725; -309.000; -229.000
454.604;   66.900;  512.000;  580.000
454.725; -138.225; -627.000; -555.000
454.846; -132.725; -474.000; -406.000
454.967;  -22.775;  230.000;  539.000
455.087;  -61.800;  179.000;  153.000
455.208;   12.375;  554.000;  856.000
455.329;  -65.125;  -22.000;   82.000
455.450;   25.800;  473.000;  633.000
455.570;  -77.425; -234.000; -211.000
455.691;  -40.725;  201.000;  407.000
455.812; -110.250; -270.000;  -92.000
455.932;  -66.925;  107.000;  -97.000
456.053;  -84.450;   36.000;   24.000
456.173; -121.450; -433.000; -355.000
456.294; -141.575; -476.000; -303.000
456.415;  -67.775;  -73.000;   70.000
456.535;  -30.825;  297.000;  273.000
456.656;  -41.750;  132.000;  240.000
456.776;  -84.075;    3.000;  298.000
456.897;   -7.725;  308.000;  513.000
457.017;  -72.325; -153.000;   -3.000
457.138; -105.300; -402.000; -249.000
457.258;  -29.400;  263.000;  224.000
457.379;   -3.075;  509.000;  521.000
457.499;  -31.275;  443.000;  432.000
457.620; -137.275; -407.000; -231.000
457.740; -110.150; -132.000;  -11.000
457.860;  -65.550;   87.000;   44.000
457.981;  -49.125;  132.000;  124.000
458.101;  -73.400;  -89.000;   40.000
458.221;  -25.425;  336.000;  402.000
458.342;  -72.200;   -4.000;  -37.000
458.462;   16.025;  617.000;  352.000
458.582;  -44.500; -302.000; -294.000
458.703;    4.000;  303.000;  154.000
458.823;  -44.650;   22.000;  163.000
458.943;   14.275;  341.000;  467.000
459.063;  -35.525; 1124.000;  192.000
459.183;  -11.300;  328.000;  313.000
459.304;    2.625;  315.000;  517.000
459.424;  -70.625; -246.000;  -89.000
459.544;  307.400;  388.000;  764.000
459.664;  787.300;  499.000;  506.000
459.784;  302.275; 1004.000; 1175.000
459.904;   52.350;  867.000;  744.000
460.024;   76.600;  867.000;  684.000
460.144;   11.150;  449.000;  554.000
460.264;   -8.575;  515.000;  327.000
460.385; -103.150; -145.000; -119.000
460.505;   35.375;  905.000;  858.000
460.625;  -91.525;  -17.000;  -68.000
460.745;  -22.250;  396.000;  541.000
460.864;  -37.350;  153.000;  469.000
460.984;   15.425;  499.000;  573.000
461.104;  131.300; 1656.000; 1775.000
461.224;    6.275;  657.000;  650.000
461.344;  -32.775;  431.000;  360.000
461.464;  -47.475;  258.000;  513.000
461.584;   -6.300;  283.000;  466.000
461.704;  -38.775;   58.000;  108.000
461.824;  -57.825;  238.000;  259.000
461.943;  -39.100;  191.000;  130.000
462.063;  -77.875;    2.000;  324.000
462.183;   21.250;  639.000;  717.000
462.303;  101.500; 1678.000; 1230.000
462.422;   39.100;  781.000;  840.000
462.542;  -41.925;  271.000;  391.000
462.662;   36.000;  353.000;  380.000
462.782;  236.800;  833.000;  572.000
462.901;  450.525;  545.000;  717.000
463.021;  276.175; 1702.000; 1638.000
463.141;  -13.625;  337.000;  770.000
463.260;  -27.175;  614.000;  474.000
463.380;   21.200;  902.000;  884.000
463.499;  -42.050;  342.000;  332.000
463.619;  -32.050;  581.000;  559.000
463.738;  110.475; 1644.000;  903.000
463.858;    9.275;  657.000;  811.000
463.978;  -35.375;  542.000;  396.000
464.097;   45.275;  921.000; 1114.000
464.217;  108.600; 1196.000; 1143.000
464.336;   98.100; 1068.000; 1130.000
464.455;  -49.675;  328.000;  659.000
464.575;   56.450;  597.000;  602.000
464.694;  179.025; 1204.000; 1179.000
464.814;  145.975; 1190.000; 1138.000
464.933;   62.475; 1095.000; 1027.000
465.052;   84.475; 1412.000; 1054.000
465.172;   79.600;  922.000;  799.000
465.291;  151.250; 1376.000; 1320.000
465.410;   13.075;  462.000;  735.000
465.530;   90.050; 1355.000; 1310.000
465.649;   62.150; 1209.000; 1273.000
465.768;  138.725; 1673.000; 1508.000
465.888;   47.975;  941.000; 1174.000
466.007;   82.225; 1335.000; 1440.000
466.126;   -6.950;  721.000;  641.000
466.245;   37.225; 1176.000; 1187.000
466.364;   29.400;  950.000; 1060.000
466.484;   75.175; 1024.000; 1213.000
466.603;   28.300; 1101.000; 1222.000
466.722;  119.900; 1490.000; 1769.000
466.841;   85.050; 1151.000; 1401.000
466.960;   43.375; 1069.000;  972.000
467.079;  133.375; 1971.000; 1786.000
467.198;   45.850; 1238.000; 1181.000
467.317;   78.450; 1768.000; 1162.000
467.436;   66.100; 1709.000; 1261.000
467.555;  117.650; 1796.000; 1746.000
467.674;   68.500; 1227.000; 1329.000
467.793;   40.650; 1376.000; 1374.000
467.912;   95.125; 1658.000; 1539.000
468.031;  137.975; 2038.000; 1930.000
468.150;  145.050; 1842.000; 1837.000
468.269;  195.325; 2313.000; 2090.000
468.388;  191.750; 2168.000; 2339.000
468.507;  236.150; 2884.000; 2903.000
468.626;  236.575; 2555.000; 2541.000
468.744;  145.450; 2018.000; 2174.000
468.863;  192.150; 2312.000; 2523.000
468.982;   92.500; 1503.000; 1555.000
469.101;  219.625; 2788.000; 2692.000
469.220;  144.650; 2333.000; 2176.000
469.338;  249.650; 2935.000; 3051.000
469.457;  177.950; 2719.000; 2545.000
469.576;  341.725; 3953.000; 3784.000
469.695;  240.700; 2877.000; 3066.000
469.813;  444.500; 4148.000; 4192.000
469.932;  404.300; 4255.000; 4485.000
470.051;  424.375; 4075.000; 4161.000
470.169;  842.125; 4470.000; 4338.000
470.288; 1414.800; 4700.000; 4809.000
470.406;  845.775; 5059.000; 5194.000
470.525;  626.525; 6101.000; 5787.000
470.644;  655.600; 6847.000; 6794.000
470.762;  831.250; 8397.000; 7873.000
470.881;  915.125; 8651.000; 8464.000
470.999; 1061.825; 9685.000; 9151.000
471.118; 1127.475;11174.000;10711.000

