
Integration time [ms]: 200.000
Averaging Nr. [scans]: 10
Smoothing Nr. [pixels]: 0
Data measured with spectrometer [name]: 2101012U2
Wave   ;Sample   ;Dark     ;Reference
[nm]   ;[counts] ;[counts] ;[counts] 

197.733;  147.900;  516.000;  404.000
197.879; -180.500; -610.000; -634.000
198.025;  -80.600; -475.000; -420.000
198.171; -141.500; -602.000; -612.000
198.317;  -37.900; -401.000; -316.000
198.463;  -98.500; -655.000; -404.000
198.609;   32.200;  181.000; -137.000
198.755; -160.500; -644.000; -410.000
198.901; -115.900; -505.000; -424.000
199.047; -124.100; -615.000; -488.000
199.193;  -68.500; -230.000; -468.000
199.339;  -67.300; -222.000; -369.000
199.485;   92.200;  330.000;  271.000
199.631;   59.300;  227.000;  310.000
199.777;  -87.300; -466.000; -398.000
199.923; -131.300; -610.000; -424.000
200.069;   26.600; -141.000;  -58.000
200.215;  122.100;  128.000;  453.000
200.361;  130.800;  243.000;  477.000
200.507; -124.800; -600.000; -373.000
200.653;  -47.900; -371.000; -194.000
200.798;  -89.200; -215.000; -125.000
200.944;  -12.100; -146.000;  -41.000
201.090;  116.200;   61.000;  222.000
201.236;    4.200; -116.000; -158.000
201.382;  312.700;  874.000;  903.000
201.528;   21.400;  -58.000;  -48.000
201.674;  -90.200; -386.000; -293.000
201.819; -126.500; -540.000; -439.000
201.965; -154.100; -699.000; -447.000
202.111;  -61.000; -273.000; -226.000
202.257;  -45.400; -250.000; -238.000
202.402;   24.200;   13.000;  -36.000
202.548;  -29.700; -169.000; -116.000
202.694;  184.700;  410.000; -183.000
202.840; -164.100; -603.000; -531.000
202.985; -131.400; -681.000; -639.000
203.131; -221.800; -832.000; -666.000
203.277;  -26.900; -199.000; -262.000
203.423; -111.300; -434.000; -520.000
203.568;  -62.100; -462.000; -237.000
203.714; -105.700; -535.000; -542.000
203.860; -159.400; -682.000; -641.000
204.005;   68.100;  112.000;  167.000
204.151;  176.100;  561.000;  556.000
204.296;  -64.000; -354.000; -221.000
204.442; -136.000; -600.000; -547.000
204.588; -137.500; -592.000; -579.000
204.733;   57.400;  178.000;  168.000
204.879; -252.300;-1018.000; -822.000
205.025;   15.400;  -99.000;  126.000
205.170;    2.800;  -17.000;   94.000
205.316;  189.200;  438.000;  661.000
205.461; -187.800; -698.000; -554.000
205.607;  198.900;  609.000;  665.000
205.752; -155.600; -626.000; -551.000
205.898;  -94.500; -501.000; -391.000
206.043; -130.000; -578.000; -506.000
206.189;  -71.300; -243.000; -285.000
206.334;  181.400;  554.000;  606.000
206.480;  222.600;  409.000;  239.000
206.625; -148.000; -529.000; -552.000
206.771;  -63.100; -451.000; -373.000
206.916;  -27.700; -210.000; -537.000
207.062; -151.500; -545.000; -591.000
207.207; -104.100; -546.000; -443.000
207.353;   96.600;  185.000;  460.000
207.498;   42.900;  196.000;   85.000
207.643;  -97.100; -501.000; -370.000
207.789; -230.700;-1069.000; -910.000
207.934; -187.000; -665.000; -713.000
208.080;  -26.200; -154.000;   66.000
208.225;    4.100;  -22.000;  -57.000
208.370; -129.700; -727.000; -619.000
208.516; -167.100; -741.000; -487.000
208.661;  -45.300; -127.000;  -69.000
208.806;  -28.300; -165.000; -171.000
208.952; -263.300;-1044.000; -731.000
209.097;  175.500;  378.000;  349.000
209.242; -107.400; -307.000; -382.000
209.387;  117.700;  392.000;  350.000
209.533;  -96.600; -321.000; -350.000
209.678;  171.400;  472.000;  543.000
209.823; -127.400; -408.000; -310.000
209.969; -191.500; -860.000; -757.000
210.114; -172.800; -907.000; -719.000
210.259; -223.100; -939.000; -889.000
210.404;  -34.300; -171.000;  103.000
210.549;   46.900;  108.000;    3.000
210.695;    7.100;   -3.000;  -95.000
210.840;   80.800;   94.000;   67.000
210.985; -129.400; -484.000; -303.000
211.130;  150.900;  268.000;  406.000
211.275;   57.000;  207.000;  199.000
211.420;  -96.000; -300.000; -289.000
211.566; -120.400; -536.000; -489.000
211.711;   52.500;  218.000;  157.000
211.856; -120.300; -545.000; -519.000
212.001;   51.400;  151.000;   44.000
212.146;    0.300;  153.000;   49.000
212.291;  -25.600; -210.000; -186.000
212.436;   -8.400; -280.000;   -6.000
212.581; -167.800; -685.000; -653.000
212.726; -145.400; -487.000; -538.000
212.871;  -87.200; -552.000; -217.000
213.016; -293.600;-1172.000;-1029.000
213.161;  159.500;  406.000;  291.000
213.306; -130.100; -435.000; -577.000
213.451; -186.100; -778.000; -689.000
213.596;  -84.300; -455.000; -347.000
213.741; -115.100; -448.000; -538.000
213.886; -131.500; -498.000; -517.000
214.031;  -30.300; -294.000; -124.000
214.176; -104.400; -408.000; -341.000
214.321;  -22.600; -296.000; -157.000
214.466;  -28.300; -163.000;  -43.000
214.611;   -5.800;  -61.000;  -10.000
214.756; -246.600; -948.000; -858.000
214.901;    4.300; -388.000; -226.000
215.046; -234.200; -797.000; -825.000
215.191;   31.600;  128.000;   35.000
215.336;  -28.900; -157.000;  -19.000
215.480; -115.100; -684.000; -505.000
215.625;  -16.300; -175.000;  -19.000
215.770; -159.300; -757.000; -662.000
215.915;  -19.300;   -5.000;  -97.000
216.060;   20.600; -113.000;  -21.000
216.205; -210.300; -731.000; -779.000
216.349; -127.500; -470.000; -533.000
216.494; -272.400; -939.000; -867.000
216.639; -207.700; -823.000; -888.000
216.784; -164.300; -577.000; -525.000
216.929;  111.000;  392.000;  281.000
217.073;    3.900; -244.000;  -31.000
217.218;   51.000;   78.000;  -47.000
217.363; -168.600; -656.000; -618.000
217.507; -164.900; -623.000; -588.000
217.652; -266.300; -845.000; -874.000
217.797; -156.800; -708.000; -659.000
217.942; -219.300; -856.000; -720.000
218.086;  188.800;  608.000;  539.000
218.231;  -31.900; -174.000;  -26.000
218.376;  -51.000; -337.000; -229.000
218.520;   17.700;  -41.000;   96.000
218.665;  -35.100; -338.000; -204.000
218.810;  -63.200; -275.000; -233.000
218.954;   53.800;  201.000;   35.000
219.099; -223.100; -713.000; -963.000
219.243; -151.900; -589.000; -554.000
219.388;  -42.500; -264.000; -136.000
219.532;    2.000; -116.000; -116.000
219.677; -155.300; -564.000; -521.000
219.822;   23.600;   33.000;   89.000
219.966;   29.700;   17.000;  -99.000
220.111;  -36.200; -328.000;  -40.000
220.255; -203.300; -797.000; -750.000
220.400;  -15.100; -180.000; -146.000
220.544; -117.500; -516.000; -450.000
220.689;  -84.400; -422.000; -451.000
220.833;  -14.000; -123.000;  -58.000
220.978;  -98.200; -393.000; -563.000
221.122;   46.700;  319.000;  307.000
221.267; -229.700; -906.000; -837.000
221.411; -138.000; -478.000; -394.000
221.555;   30.300; -104.000;  -23.000
221.700;  -90.400; -329.000; -222.000
221.844;   77.800;  255.000;  272.000
221.989;  -73.500; -328.000; -311.000
222.133;  -54.100; -289.000; -307.000
222.277;   19.700;    5.000;   78.000
222.422;   77.100;  227.000;  113.000
222.566;  -41.800; -381.000; -214.000
222.711;  -97.500; -414.000; -479.000
222.855; -141.500; -643.000; -586.000
222.999; -178.300; -642.000; -717.000
223.144;  -21.200; -195.000; -194.000
223.288;   92.300;  423.000;  251.000
223.432;   55.800;  184.000;  230.000
223.576;   34.000;  152.000;  -21.000
223.721;  106.600;  364.000;  273.000
223.865; -101.300; -472.000; -475.000
224.009;  605.800; 1673.000; 1631.000
224.153; -134.500; -660.000; -671.000
224.298; -135.200; -531.000; -489.000
224.442;  -13.500;  -74.000;  -33.000
224.586;  -32.500; -169.000; -106.000
224.730; -195.600; -858.000; -670.000
224.875; -200.400; -739.000; -688.000
225.019;   60.600;  102.000;  188.000
225.163;  125.700;  208.000;  341.000
225.307;   61.300;   97.000;  -91.000
225.451;  129.800;  360.000;  481.000
225.595;   97.800;  264.000;  176.000
225.739;  -26.600; -170.000;  -94.000
225.884;   56.800;   86.000;    5.000
226.028; -162.300; -760.000; -626.000
226.172;  -77.500; -260.000; -273.000
226.316; -255.400; -941.000; -902.000
226.460; -121.600; -645.000; -493.000
226.604; -103.200; -406.000; -400.000
226.748; -173.200; -836.000; -733.000
226.892;  -47.800; -227.000; -181.000
227.036;  -79.700; -537.000; -447.000
227.180;  -88.100; -551.000; -375.000
227.324;  -98.900; -561.000; -580.000
227.468; -235.600; -819.000; -717.000
227.612;   46.100;  242.000;  -28.000
227.756; -247.900; -845.000; -698.000
227.900;  150.000;  342.000;  441.000
228.044;  -93.400; -509.000; -290.000
228.188;  152.100;  448.000;  568.000
228.332; -148.400; -546.000; -472.000
228.476;  -45.500; -223.000; -149.000
228.620;  -40.500; -210.000; -150.000
228.764;  164.900;  431.000;  349.000
228.908;  -52.200; -155.000;   30.000
229.052;  -90.800; -615.000; -528.000
229.195;   -6.200; -172.000;   13.000
229.339;  -55.500; -235.000; -305.000
229.483;  -54.700;    5.000; -162.000
229.627;   10.300; -156.000;  139.000
229.771;  -92.200; -218.000; -294.000
229.915;   35.600;  230.000;   79.000
230.059; -148.700; -648.000; -663.000
230.202;  -74.100; -370.000; -317.000
230.346;  -17.000; -107.000;  107.000
230.490; -112.100; -489.000; -521.000
230.634; -244.200; -736.000; -553.000
230.777;  167.600;  478.000;  509.000
230.921;  -82.900; -450.000; -359.000
231.065;  -73.400; -246.000; -286.000
231.209;   97.400;  261.000;  265.000
231.352;   79.200;   54.000;   40.000
231.496;   59.100;  568.000;  188.000
231.640; -152.700; -693.000; -621.000
231.783;  119.100;  546.000;  525.000
231.927;  -66.700; -294.000; -365.000
232.071; -234.600; -962.000; -736.000
232.214; -223.700; -980.000; -764.000
232.358; -162.200; -683.000; -599.000
232.502;   27.100;  -19.000;    7.000
232.645; -262.600;-1090.000; -927.000
232.789;  -45.300; -257.000; -218.000
232.933; -108.800; -407.000; -224.000
233.076; -229.300;-1038.000; -897.000
233.220; -190.500; -752.000; -777.000
233.363; -142.500; -669.000; -477.000
233.507;  126.300;  371.000;  129.000
233.650; -173.000; -764.000; -834.000
233.794;   99.200;  438.000;  461.000
233.938; -107.400; -530.000; -362.000
234.081;  -24.100;  -93.000;   31.000
234.225; -140.600; -631.000; -539.000
234.368; -201.700; -773.000; -723.000
234.512;  -60.300; -385.000; -299.000
234.655; -160.000; -582.000; -555.000
234.798; -127.900; -493.000; -466.000
234.942; -255.200; -884.000;-1002.000
235.085; -126.800; -651.000; -443.000
235.229; -141.600; -405.000; -410.000
235.372;  -66.400; -247.000; -191.000
235.516; -129.000; -397.000; -321.000
235.659;   41.300;   92.000;  121.000
235.802;    2.400;  -38.000;  -22.000
235.946;   66.300;  335.000;  215.000
236.089;   51.800;  126.000;  250.000
236.233;  139.300;  275.000;  298.000
236.376;  -92.500; -235.000; -378.000
236.519;  -74.700; -297.000; -319.000
236.663;  -12.100; -215.000; -117.000
236.806; -266.900;-1029.000; -999.000
236.949;  155.800;  543.000;  431.000
237.092;  157.900;  412.000;  391.000
237.236; -197.000; -589.000; -502.000
237.379;  172.600;  352.000;  428.000
237.522; -232.000; -879.000; -768.000
237.666;  -29.000; -271.000;   18.000
237.809; -264.700; -851.000; -823.000
237.952;  106.400;  469.000;  271.000
238.095; -118.200; -447.000; -442.000
238.238;  198.000;  688.000;  700.000
238.382;   27.200;  166.000;  103.000
238.525; -137.000; -598.000; -511.000
238.668; -268.100;-1060.000; -985.000
238.811; -163.900; -638.000; -643.000
238.954;  -88.300; -483.000; -334.000
239.097;  223.100;  617.000;  664.000
239.241;   61.400;  394.000;  326.000
239.384;  -35.700; -254.000; -214.000
239.527; -133.900; -424.000; -224.000
239.670; -269.900; -994.000;-1091.000
239.813; -205.300; -696.000; -658.000
239.956;  202.600;  579.000;  473.000
240.099; -247.600; -778.000; -725.000
240.242;  161.800;  428.000;  432.000
240.385;   93.400;  466.000;  450.000
240.528; -140.000; -706.000; -473.000
240.671;   55.600;  189.000;  134.000
240.814;  -64.400; -441.000; -158.000
240.957; -179.000; -767.000; -578.000
241.100; -191.200; -779.000; -755.000
241.243; -283.500;-1234.000; -893.000
241.386; -120.500; -508.000; -379.000
241.529; -175.500; -735.000; -547.000
241.672; -106.200; -566.000; -495.000
241.815; -249.800; -832.000; -808.000
241.958;  -39.300; -125.000; -182.000
242.101; -120.400; -545.000; -390.000
242.244;  -51.000; -270.000; -325.000
242.387;  -51.200; -304.000; -246.000
242.530;  146.800;  470.000;  134.000
242.673;  -53.100; -381.000; -309.000
242.815; -226.300; -925.000; -899.000
242.958; -137.900; -482.000; -381.000
243.101;   59.100;  132.000;  187.000
243.244; -146.000; -564.000; -521.000
243.387;  -81.500; -313.000; -316.000
243.530; -178.100; -657.000; -674.000
243.672;   16.000;   43.000;  -92.000
243.815;  -82.500; -355.000; -283.000
243.958;   43.800;   98.000;  -26.000
244.101;   29.700;   59.000;  -16.000
244.243;    0.600;  -47.000;  101.000
244.386; -220.800; -761.000; -630.000
244.529;  -15.700; -132.000; -139.000
244.672; -302.000;-1154.000; -951.000
244.814; -208.500; -621.000; -794.000
244.957; -119.400; -380.000; -304.000
245.100; -147.000; -489.000; -489.000
245.242;  -81.500; -387.000; -374.000
245.385;    1.000;  -59.000;  -39.000
245.528; -221.600; -871.000; -705.000
245.670;  188.800;  612.000;  634.000
245.813; -161.800; -599.000; -547.000
245.956;  -38.700; -324.000; -275.000
246.098; -127.800; -508.000; -650.000
246.241;   23.200;  194.000;   48.000
246.383;  -43.800; -119.000;  -73.000
246.526; -145.600; -454.000; -525.000
246.669; -221.700; -889.000; -780.000
246.811;   80.800;  172.000;   -1.000
246.954; -139.300; -512.000; -426.000
247.096;  -20.500;  -84.000;   -6.000
247.239; -125.800; -482.000; -445.000
247.381; -132.700; -647.000; -488.000
247.524;  193.100;  645.000;  679.000
247.666;  -37.400;   58.000;   11.000
247.809; -203.500; -887.000; -691.000
247.951;   -5.300;  -75.000;  138.000
248.094;   98.400;  432.000;  308.000
248.236; -304.600;-1262.000;-1238.000
248.378;   -8.900; -356.000;  -81.000
248.521;   -7.200; -334.000; -337.000
248.663;  -59.100; -236.000; -267.000
248.806;  -22.100; -300.000; -266.000
248.948; -180.100; -886.000; -763.000
249.090;  -85.900; -428.000; -398.000
249.233;  -78.100; -344.000; -381.000
249.375; -115.000; -474.000; -451.000
249.518;  -20.200;  -83.000; -133.000
249.660;   12.400; -103.000;    3.000
249.802; -360.800;-1303.000;-1189.000
249.945; -110.200; -612.000; -540.000
250.087; -222.800; -834.000; -768.000
250.229;  -79.000; -362.000; -480.000
250.371; -118.100; -494.000; -439.000
250.514;  -91.200; -310.000; -244.000
250.656; -118.700;   69.000;  102.000
250.798; -227.000; -849.000; -800.000
250.940; -104.900; -322.000; -322.000
251.083;  -48.400; -335.000; -111.000
251.225;  157.100;  338.000;  310.000
251.367;  -71.100; -274.000; -373.000
251.509;  -92.700; -265.000; -210.000
251.651; -163.800; -731.000; -671.000
251.794;  117.400;  538.000;  632.000
251.936; -215.200; -821.000; -747.000
252.078; -133.000; -540.000; -461.000
252.220; -128.200; -645.000; -477.000
252.362;  177.500;  344.000;  462.000
252.504;  -74.100; -677.000; -584.000
252.646; -190.800; -875.000; -722.000
252.788;    2.100;   14.000; -128.000
252.931;  -50.700; -257.000; -253.000
253.073;  -55.400; -376.000; -317.000
253.215;    2.900;  141.000;  122.000
253.357;  -12.800;   82.000; -153.000
253.499;  -92.800; -374.000; -234.000
253.641; -156.000; -749.000; -594.000
253.783; -157.800; -609.000; -527.000
253.925; -144.300; -586.000; -591.000
254.067; -174.400; -744.000; -667.000
254.209;  -56.900; -391.000; -259.000
254.351; -270.600; -865.000; -883.000
254.493; -129.600; -441.000; -417.000
254.635; -223.200; -936.000; -818.000
254.777; -170.700; -752.000; -687.000
254.918; -114.600; -512.000; -430.000
255.060;  -89.900; -551.000; -395.000
255.202;  -75.900; -473.000; -261.000
255.344; -139.200; -658.000; -455.000
255.486; -110.400; -471.000; -406.000
255.628; -225.900; -780.000; -781.000
255.770; -169.900; -676.000; -536.000
255.912; -115.800; -559.000; -468.000
256.053; -164.700; -730.000; -508.000
256.195;  336.000; 1008.000;  903.000
256.337; -208.500; -861.000; -595.000
256.479;  149.300;  532.000;  416.000
256.621;  -67.900; -394.000; -212.000
256.762; -185.300; -789.000; -742.000
256.904;  139.700;  485.000;  487.000
257.046;  -64.900; -381.000; -271.000
257.188;  -56.300; -351.000; -264.000
257.329; -107.500; -525.000; -464.000
257.471; -222.600; -939.000; -807.000
257.613; -122.200; -584.000; -498.000
257.755; -259.600;-1073.000; -982.000
257.896;   95.900;  286.000;  392.000
258.038; -129.700; -403.000; -352.000
258.180;  -39.300; -354.000; -279.000
258.321; -148.700; -581.000; -457.000
258.463;   10.400;  -71.000;  133.000
258.605; -164.200; -562.000; -570.000
258.746; -194.400; -886.000; -772.000
258.888; -279.400;-1026.000;-1020.000
259.029;   78.800;  121.000;   -8.000
259.171; -135.300; -614.000; -550.000
259.313;   52.500;  -49.000;  -47.000
259.454; -116.200; -536.000; -414.000
259.596; -122.400; -483.000; -390.000
259.737; -133.400; -590.000; -474.000
259.879;  121.800;  217.000;  311.000
260.020;  217.700;  901.000;  636.000
260.162;  -15.400; -146.000; -253.000
260.303; -215.300; -768.000; -687.000
260.445; -165.400; -609.000; -613.000
260.586;   98.800;  392.000;  157.000
260.728;  -65.700; -360.000; -248.000
260.869;  -91.800; -350.000; -343.000
261.011;  227.700;  706.000;  537.000
261.152;  -89.000; -479.000; -319.000
261.293; -148.100; -576.000; -595.000
261.435;  -34.700; -219.000; -184.000
261.576;  -69.100; -455.000; -325.000
261.718;  138.800;  420.000;  470.000
261.859; -224.100; -940.000; -949.000
262.000; -236.900; -951.000;-1016.000
262.142;  -34.200;  -52.000;  -60.000
262.283; -215.400; -808.000; -691.000
262.424; -133.300; -666.000; -625.000
262.566; -296.300;-1161.000; -983.000
262.707; -217.500; -840.000; -830.000
262.848; -217.000; -769.000; -726.000
262.990;  -91.800; -362.000; -345.000
263.131;  177.200;  650.000;  681.000
263.272;   -0.600;  -61.000;  -41.000
263.413; -149.400; -589.000; -561.000
263.555; -100.100; -669.000; -143.000
263.696; -160.100; -550.000; -641.000
263.837;  -96.600; -449.000; -551.000
263.978;    7.500;   -5.000;  -77.000
264.119;  -71.700; -283.000; -264.000
264.261; -236.400; -847.000; -630.000
264.402;   30.900;   33.000;   40.000
264.543; -123.500; -509.000; -524.000
264.684;  -23.100;   61.000;  -50.000
264.825; -124.800; -816.000; -538.000
264.966;   12.800;  -84.000;  -67.000
265.107; -185.700; -646.000; -670.000
265.248; -222.600; -825.000; -812.000
265.390;   -3.800;  152.000;   -9.000
265.531;    6.800; -238.000; -107.000
265.672; -128.200; -557.000; -630.000
265.813;  156.700;  563.000;  439.000
265.954; -291.200; -959.000; -940.000
266.095;    5.500; -372.000; -322.000
266.236; -197.600; -686.000; -548.000
266.377;  -64.000; -243.000; -297.000
266.518; -128.300; -619.000; -547.000
266.659;   64.500;  170.000;  268.000
266.800;   44.400;   83.000;   85.000
266.941; -108.400; -487.000; -478.000
267.082;   63.100;  354.000;   99.000
267.223;  -66.800; -344.000; -273.000
267.364; -232.500; -892.000; -686.000
267.504;   15.200;    3.000;  135.000
267.645;   38.700;  160.000;   67.000
267.786;  -15.500; -147.000;  -86.000
267.927;  -96.000; -473.000; -379.000
268.068;   15.100; -186.000;  -61.000
268.209;  -95.900; -175.000; -413.000
268.350;  -85.400; -388.000; -532.000
268.490; -153.700; -648.000; -521.000
268.631;   95.500;  127.000;  225.000
268.772; -221.100; -874.000; -647.000
268.913;  -75.500; -328.000; -476.000
269.054;  -27.900; -117.000;   12.000
269.194;  -67.700; -418.000; -402.000
269.335; -278.600;-1137.000;-1074.000
269.476;   15.000;   33.000;  -35.000
269.617;  -87.300; -347.000; -392.000
269.757; -137.100; -713.000; -646.000
269.898; -182.700; -856.000; -613.000
270.039; -106.900; -415.000; -405.000
270.180; -269.500; -952.000; -816.000
270.320;  -48.600; -190.000; -250.000
270.461;  -50.200; -277.000; -249.000
270.602;   10.900; -186.000; -156.000
270.742; -232.800; -868.000; -943.000
270.883;  -74.600; -442.000; -390.000
271.023;  -99.100; -358.000; -357.000
271.164; -139.000; -607.000; -528.000
271.305; -177.300; -666.000; -654.000
271.445; -162.600; -722.000; -683.000
271.586;  -67.700; -462.000; -283.000
271.726;  -69.200; -397.000; -322.000
271.867; -131.600; -594.000; -534.000
272.008;  340.200; -473.000; -285.000
272.148;  317.500;  462.000;  468.000
272.289;   56.600; -113.000; -181.000
272.429;   62.600;   19.000;  185.000
272.570; -172.300; -633.000; -737.000
272.710; -193.500; -825.000; -775.000
272.851;  -29.300;  113.000; -130.000
272.991; -338.400;-1173.000;-1077.000
273.131; -108.400; -419.000; -459.000
273.272; -166.300; -683.000; -723.000
273.412;   44.900; -143.000;  -31.000
273.553;  -64.600; -488.000; -507.000
273.693;  319.200;  913.000;  858.000
273.834; -216.900; -894.000; -692.000
273.974; -117.800; -664.000; -615.000
274.114; -188.500; -772.000; -560.000
274.255;  203.800;  414.000;  373.000
274.395;   36.200; -180.000; -125.000
274.535;  119.700;  199.000;  350.000
274.676;   73.200;  225.000;   94.000
274.816;   -4.100;  110.000;   34.000
274.956; -135.900; -624.000; -690.000
275.097; -151.700;-1014.000; -922.000
275.237; -199.800; -913.000; -803.000
275.377; -172.800; -778.000; -689.000
275.517; -288.100; -878.000; -937.000
275.658; -113.400; -590.000; -555.000
275.798; -103.800; -606.000; -413.000
275.938;   85.100;  215.000;  323.000
276.078; -142.000; -626.000; -395.000
276.218;   42.900;   99.000;  104.000
276.359; -235.300;-1026.000;-1024.000
276.499; -135.500; -605.000; -446.000
276.639;  -50.500; -305.000; -151.000
276.779;  -49.900; -475.000; -357.000
276.919; -194.500; -783.000; -624.000
277.059;  -31.000; -261.000; -212.000
277.199;  -70.400; -357.000; -259.000
277.340;  124.100;  287.000;  175.000
277.480; -204.100; -840.000; -693.000
277.620;   77.800;  192.000;   16.000
277.760; -380.100;-1533.000;-1294.000
277.900;   58.300;  113.000;   33.000
278.040;   83.500;  137.000;  159.000
278.180;  117.300;  270.000;  170.000
278.320;    7.800;   21.000;   56.000
278.460;  -98.100; -443.000; -469.000
278.600; -164.700; -708.000; -598.000
278.740;  114.400;  448.000;  224.000
278.880; -102.100; -768.000; -791.000
279.020;   63.200; -194.000; -144.000
279.160; -149.100; -672.000; -595.000
279.300; -218.100; -926.000; -873.000
279.440; -160.300; -709.000; -622.000
279.579;  -68.700;-1014.000; -929.000
279.719;  -77.100; -410.000; -394.000
279.859;  164.600;   -4.000;   41.000
279.999;   51.500; -208.000;  101.000
280.139;  -34.500; -435.000; -387.000
280.279; -129.200; -708.000; -745.000
280.419;    5.600; -229.000; -147.000
280.559;  -55.800; -259.000; -180.000
280.698; -123.800; -790.000; -639.000
280.838; -157.900; -778.000; -800.000
280.978; -194.800; -846.000; -790.000
281.118; -208.400; -811.000; -704.000
281.257;   30.000;   24.000;    6.000
281.397; -210.800;-1094.000; -960.000
281.537; -144.000; -599.000; -712.000
281.677;  -19.500; -150.000; -101.000
281.816; -152.400; -700.000; -630.000
281.956;  -22.100; -193.000; -257.000
282.096;  -75.300; -539.000; -396.000
282.235; -178.000; -672.000; -638.000
282.375;   20.200; -243.000;  -98.000
282.515; -151.000; -715.000; -707.000
282.654;  112.000;   29.000;  106.000
282.794;   64.700;  388.000;  244.000
282.934;  -92.300; -530.000; -491.000
283.073; -229.900;-1030.000; -857.000
283.213;  -63.200; -460.000; -467.000
283.353;  -31.700; -408.000; -349.000
283.492;  -46.300; -264.000; -296.000
283.632;  -41.200; -254.000; -168.000
283.771; -167.200; -859.000; -730.000
283.911;  -71.800; -369.000; -260.000
284.050; -187.400; -794.000; -748.000
284.190; -301.300;-1229.000;-1096.000
284.329; -254.500;-1055.000; -964.000
284.469; -121.300; -516.000; -591.000
284.608;  -61.200; -559.000; -598.000
284.748; -148.800; -614.000; -570.000
284.887;   21.800;  -87.000;  -20.000
285.027; -258.000; -844.000; -892.000
285.166;  -36.800; -192.000; -249.000
285.306;   45.300; -116.000;  -33.000
285.445;  -58.300; -229.000; -343.000
285.584; -153.400; -630.000; -494.000
285.724;  -63.400; -282.000; -322.000
285.863; -217.800; -857.000; -507.000
286.002;  -47.900; -366.000; -276.000
286.142; -199.400; -715.000; -622.000
286.281; -101.500; -525.000; -493.000
286.420; -149.300; -554.000; -417.000
286.560;  245.400;  653.000;  623.000
286.699; -256.100; -958.000; -912.000
286.838; -125.300; -590.000; -591.000
286.978; -180.200; -533.000; -537.000
287.117; -249.200;-1085.000; -950.000
287.256;  -27.600; -228.000; -211.000
287.395;  -64.500; -197.000; -378.000
287.535;  -69.400; -370.000; -298.000
287.674; -144.900; -509.000; -484.000
287.813;  147.400;  661.000;  533.000
287.952; -223.900;-1010.000; -871.000
288.091; -269.100;-1049.000; -915.000
288.231;   96.600;   13.000;   15.000
288.370; -335.600;-1217.000;-1200.000
288.509; -155.300; -728.000; -645.000
288.648; -124.900; -770.000; -548.000
288.787;  -18.900; -243.000;  -87.000
288.926; -124.200; -454.000; -475.000
289.065;  279.900;  859.000;  672.000
289.204;  -88.100; -377.000; -217.000
289.344; -155.300; -791.000; -690.000
289.483;   74.700;  416.000;  304.000
289.622;   -5.400; -291.000; -149.000
289.761;   -9.300; -309.000; -166.000
289.900; -181.000; -785.000; -626.000
290.039;    9.700;  -12.000;  -95.000
290.178;  -39.700; -274.000; -180.000
290.317; -138.200; -618.000; -479.000
290.456;  -76.100; -463.000; -451.000
290.595; -260.300; -961.000; -833.000
290.734; -248.100; -904.000; -891.000
290.873; -136.200; -456.000; -420.000
291.011; -164.100; -833.000; -843.000
291.150; -168.100; -770.000; -682.000
291.289;  -32.200; -343.000; -110.000
291.428; -140.400; -599.000; -480.000
291.567; -117.600; -370.000; -442.000
291.706;   14.200;  109.000;  154.000
291.845; -154.500; -597.000; -505.000
291.984; -315.800;-1234.000;-1061.000
292.122;  156.200;  602.000;  582.000
292.261;  126.100;  620.000;  463.000
292.400;   56.100; -144.000;  211.000
292.539; -231.100; -959.000; -813.000
292.678;  -14.900; -325.000; -300.000
292.816; -278.100;-1136.000; -965.000
292.955; -168.500; -844.000; -684.000
293.094;  -33.400; -173.000; -337.000
293.233;  -76.400; -556.000; -400.000
293.371;  -19.500; -225.000;  -84.000
293.510; -177.800; -866.000; -780.000
293.649; -234.300; -959.000; -924.000
293.787; -102.900;-1083.000;-1012.000
293.926;   44.600; -113.000;  -32.000
294.065;  -57.600; -379.000; -290.000
294.203;  127.100;  298.000;  406.000
294.342;   96.400;   74.000;  156.000
294.481;11659.000;51180.000; -836.000
294.619;  -51.900; -425.000; -582.000
294.758; -273.700;-1230.000;-1137.000
294.896;  191.500; -125.000;    5.000
295.035; -234.300;-1040.000;-1006.000
295.174; -206.400;-1082.000; -954.000
295.312;  -17.100; -323.000; -203.000
295.451;    2.100; -307.000; -428.000
295.589;  -62.400; -389.000; -518.000
295.728;   62.400; -292.000; -165.000
295.866;   48.300;  -36.000;  -51.000
296.005; -122.200; -584.000; -341.000
296.143; -111.000; -558.000; -596.000
296.282; -173.300; -957.000; -881.000
296.420; -150.100; -657.000; -557.000
296.559; -123.000; -892.000; -633.000
296.697;   67.000; -847.000; -665.000
296.835;   89.000;-1141.000;-1002.000
296.974;  111.100;  -23.000;   39.000
297.112;   39.100; -443.000; -504.000
297.251; -127.300; -815.000; -755.000
297.389;  183.800; -576.000; -438.000
297.527;  111.900; -145.000;  -83.000
297.666;  -48.800; -486.000; -438.000
297.804;  -70.800; -404.000; -264.000
297.942;    1.700; -136.000; -161.000
298.081;   55.900; -183.000;   63.000
298.219;  125.500;  -17.000;  -19.000
298.357;  132.500; -144.000;  -71.000
298.495;   40.800; -810.000; -812.000
298.634;  179.300;  245.000;  219.000
298.772;  152.100; -220.000; -338.000
298.910;  -24.900; -309.000; -182.000
299.048;   30.600; -130.000; -153.000
299.187;  -24.900; -350.000; -250.000
299.325;   38.400;   52.000;  122.000
299.463;  117.200; -389.000; -299.000
299.601;  211.600; -327.000; -271.000
299.739; -176.600; -908.000; -883.000
299.877; -132.300; -791.000; -703.000
300.016; -108.600;-1095.000; -935.000
300.154;  326.900;  -19.000; -161.000
300.292;  145.000; -428.000; -348.000
300.430;   71.900; -408.000; -291.000
300.568; -176.900; -940.000; -874.000
300.706;  -65.100; -366.000; -469.000
300.844; -163.100;-1108.000; -979.000
300.982;  258.000;  246.000;  282.000
301.120; -181.800; -965.000; -866.000
301.258; -109.500; -812.000; -705.000
301.396;  120.100;  104.000;  -41.000
301.534;  177.300; -218.000; -293.000
301.672;   -2.300; -664.000; -521.000
301.810;   73.000; -613.000; -545.000
301.948;  306.400;   53.000;  149.000
302.086; 1047.900; -250.000;  -32.000
302.224; 1770.700; -610.000; -585.000
302.362;  100.700; -558.000; -622.000
302.500;  -49.500; -923.000; -893.000
302.638;  240.100;  128.000;  245.000
302.776;   40.100; -352.000; -408.000
302.913;  135.500;  447.000;  236.000
303.051;   45.700;  -86.000;  -23.000
303.189;  115.300;   90.000;  118.000
303.327;  -10.600; -341.000; -256.000
303.465; -152.900; -832.000; -588.000
303.603; -171.100; -805.000; -604.000
303.740;  253.300;  417.000;  241.000
303.878;   60.100; -800.000; -759.000
304.016; -133.300; -915.000; -790.000
304.154; -244.600;-1123.000;-1152.000
304.291;  -38.200; -505.000; -554.000
304.429;   73.800;  102.000;   74.000
304.567; -202.700; -908.000; -893.000
304.705;  -70.900; -408.000; -515.000
304.842;  149.100; -616.000; -540.000
304.980;  138.400;  215.000;   35.000
305.118;  117.200; -367.000; -365.000
305.255; -104.000; -945.000; -927.000
305.393;  161.500;  178.000;  239.000
305.531; -208.700;-1173.000; -956.000
305.668; -131.400; -663.000; -582.000
305.806;  190.100; -358.000; -439.000
305.943;  204.600; -629.000; -637.000
306.081;   91.900; -378.000; -267.000
306.219; -157.200; -863.000; -748.000
306.356;   69.800;  158.000;   27.000
306.494;  282.600;  981.000;  761.000
306.631;   40.700;  -11.000;  -55.000
306.769;   54.300; -613.000; -485.000
306.906;   34.300; -284.000; -258.000
307.044;  -89.400; -473.000; -488.000
307.181;  -90.800; -410.000; -332.000
307.319;  135.300;  112.000;   87.000
307.456; -311.800;-1191.000;-1153.000
307.594; -181.300; -980.000; -727.000
307.731;   29.400; -371.000; -164.000
307.868;   51.100;  -15.000;   20.000
308.006; -188.000; -961.000; -847.000
308.143;  -86.100; -618.000; -330.000
308.281;  431.200;  -37.000; -254.000
308.418;   67.300; -748.000; -640.000
308.555;  -79.000; -400.000; -250.000
308.693;  -96.600; -577.000; -573.000
308.830; -175.100; -712.000; -657.000
308.967;   37.300; -215.000;  -95.000
309.105;  -22.400; -507.000; -396.000
309.242;  148.300; -468.000; -367.000
309.379;  768.700; -577.000; -655.000
309.517;  -51.900; -936.000; -948.000
309.654; -135.600; -910.000; -734.000
309.791; -117.300; -662.000; -580.000
309.928; -195.800; -977.000; -914.000
310.065;  416.700;  819.000;  697.000
310.203;    5.000; -825.000; -850.000
310.340;   37.600; -465.000; -321.000
310.477; -122.700; -412.000; -516.000
310.614;  -82.500; -383.000; -473.000
310.751;  -98.600; -427.000; -518.000
310.889;  -17.700;    1.000;   11.000
311.026; -289.800;-1161.000; -939.000
311.163;  -73.100; -386.000; -380.000
311.300; -118.200; -512.000; -479.000
311.437;  -93.700; -658.000; -619.000
311.574; -276.400;-1226.000; -985.000
311.711;  -88.600; -595.000; -433.000
311.848;   -9.100; -380.000; -388.000
311.985;   59.100;  270.000;   93.000
312.122; -180.300; -932.000; -762.000
312.259; -184.600; -941.000; -994.000
312.396;  -97.500; -508.000; -551.000
312.533;  -94.500; -812.000; -790.000
312.670; -234.800;-1070.000; -898.000
312.807;  -17.000; -352.000; -367.000
312.944;  -94.000; -513.000; -611.000
313.081;  -27.100; -150.000; -415.000
313.218; -173.600;-1111.000; -867.000
313.355;   80.600; -531.000; -449.000
313.492;   44.500; -455.000; -292.000
313.629;  317.500;  815.000;  735.000
313.766; -288.100;-1176.000;-1008.000
313.902;   36.000; -186.000;   21.000
314.039;  -21.200; -372.000; -289.000
314.176;  122.300;  286.000;  192.000
314.313;  -75.000; -569.000; -473.000
314.450;  -95.900; -788.000; -684.000
314.587;  -92.800; -468.000; -480.000
314.723;   53.200;  -78.000;  130.000
314.860;  121.900;  318.000;  332.000
314.997;  126.100;  223.000;  142.000
315.134;  -26.800; -385.000; -368.000
315.270;   20.100; -480.000; -496.000
315.407; -219.700;-1094.000; -967.000
315.544;  -61.600; -657.000; -538.000
315.681;  -75.100; -681.000; -565.000
315.817;   87.900; -133.000; -176.000
315.954;   70.600; -613.000; -392.000
316.091; -239.700;-1045.000;-1023.000
316.227;  -10.100;  -71.000; -179.000
316.364;   61.000;   23.000;    6.000
316.500;  -72.300; -113.000; -300.000
316.637;  -34.700; -181.000; -302.000
316.774; -113.000; -625.000; -358.000
316.910; -129.700; -598.000; -629.000
317.047;  -85.200; -487.000; -351.000
317.183;  -73.600; -435.000; -566.000
317.320;   39.900; -367.000; -321.000
317.456;  -80.700; -733.000; -805.000
317.593; -147.600; -598.000; -641.000
317.729;   67.600;  168.000;  -67.000
317.866; -384.100;-1434.000;-1285.000
318.002; -129.300; -708.000; -948.000
318.139; -143.500; -883.000; -867.000
318.275; -163.400;-1003.000; -738.000
318.412;  -70.700; -517.000; -336.000
318.548;  -27.600; -751.000; -720.000
318.685; -137.900; -985.000; -888.000
318.821; -150.200; -762.000; -735.000
318.957;   -1.700;   34.000;  -23.000
319.094;  120.600;  297.000;  154.000
319.230;  -90.300; -756.000; -742.000
319.367;  250.400; -471.000; -520.000
319.503;  122.900; -538.000; -436.000
319.639; -151.000; -877.000; -793.000
319.775; -110.300; -750.000; -685.000
319.912;  -64.000; -424.000; -519.000
320.048; -165.600;-1184.000;-1184.000
320.184;  202.800;   59.000;   70.000
320.321;  -87.300; -497.000; -467.000
320.457;  180.100;  475.000;  662.000
320.593; -118.500; -375.000; -382.000
320.729; -183.900; -732.000; -734.000
320.866;  -62.700; -577.000; -635.000
321.002;  -91.300; -759.000; -809.000
321.138;  -22.200; -135.000; -211.000
321.274;  173.900; -148.000; -115.000
321.410;   12.300; -585.000; -353.000
321.546;  -35.100;-1011.000; -911.000
321.683;  131.400;  400.000;  185.000
321.819;   64.300;  -48.000; -117.000
321.955; -177.400; -743.000; -722.000
322.091;  -45.100; -585.000; -540.000
322.227;   35.400; -382.000; -202.000
322.363;  -10.300; -320.000; -215.000
322.499;  -70.600; -343.000; -331.000
322.635;  321.900;  636.000;  443.000
322.771;   89.600; -139.000;   12.000
322.907;  239.500;  129.000;  327.000
323.043;  -12.700; -115.000; -206.000
323.179;  -42.100; -394.000; -363.000
323.315;   42.800; -401.000; -371.000
323.451;  169.700; -328.000; -236.000
323.587;  134.200;  -60.000;  -77.000
323.723;   56.400; -682.000; -601.000
323.859;   -5.100; -258.000;  -76.000
323.995;  -15.000; -467.000; -409.000
324.131; -225.200; -967.000; -892.000
324.267;  -55.200; -254.000; -276.000
324.402; -240.700; -960.000; -983.000
324.538;   -6.100; -279.000; -104.000
324.674;   64.200;  164.000;   77.000
324.810;  378.200;  226.000;  308.000
324.946;   69.400; -810.000; -658.000
325.082;  -75.900; -568.000; -475.000
325.217;   31.200;  -62.000;   16.000
325.353; -166.900; -764.000; -659.000
325.489; -166.400; -540.000; -506.000
325.625; -129.900; -579.000; -525.000
325.760;  202.600;  517.000;  376.000
325.896;  -25.700; -515.000; -702.000
326.032;  -74.900; -403.000; -352.000
326.168;  -67.900; -462.000; -369.000
326.303;  -89.000; -352.000; -461.000
326.439;  -22.200; -336.000; -276.000
326.575;   35.600; -190.000;  -29.000
326.710;   44.600; -156.000;  -30.000
326.846;   16.700;  146.000;  103.000
326.982; -143.400; -530.000; -548.000
327.117; -151.700; -481.000; -442.000
327.253; -133.700; -745.000; -742.000
327.388; -241.600;-1137.000;-1153.000
327.524;  -48.700; -811.000; -578.000
327.659;  -15.100;  -58.000;  -22.000
327.795;   13.500;   69.000;   45.000
327.931; -108.200; -723.000; -499.000
328.066;   20.700; -417.000; -276.000
328.202;   47.500;   12.000; -129.000
328.337;  264.500;  957.000;  713.000
328.473;   18.200;  -12.000;  -74.000
328.608;    6.100; -256.000; -267.000
328.743; -133.200; -799.000; -664.000
328.879;   76.300;  214.000;  114.000
329.014;  -86.700; -102.000; -122.000
329.150; -131.300; -358.000; -483.000
329.285; -140.400; -465.000; -466.000
329.421;  -53.300; -548.000; -246.000
329.556;  -14.000;  -36.000;   85.000
329.691; -144.800; -633.000; -615.000
329.827; -126.600; -626.000; -480.000
329.962;  -36.400;  131.000; -301.000
330.097; -149.400; -673.000; -585.000
330.233;  -50.800; -410.000; -223.000
330.368; -211.100; -839.000; -628.000
330.503;   37.600;    3.000;   98.000
330.638;   15.100;  -93.000; -125.000
330.774;  -73.700; -609.000; -530.000
330.909;  -51.600; -434.000; -244.000
331.044; -154.400; -714.000; -708.000
331.179; -293.700;-1217.000;-1109.000
331.315;   89.300;   77.000;   20.000
331.450;   92.200;  157.000;  285.000
331.585; -131.200; -805.000; -706.000
331.720; -131.000; -510.000; -460.000
331.855;   39.500;  -35.000; -102.000
331.990;  485.300;   62.000;  138.000
332.126;  278.100; -110.000;   71.000
332.261;    9.400; -379.000; -265.000
332.396;   43.600; -135.000; -242.000
332.531; -151.400;-1074.000;-1031.000
332.666;  126.600; -519.000; -363.000
332.801; -179.400; -726.000; -807.000
332.936;   23.800; -192.000; -122.000
333.071; -236.100; -870.000; -817.000
333.206;   90.800;  307.000;  379.000
333.341;  120.600;  344.000;  418.000
333.476; -143.600; -627.000; -623.000
333.611;   -9.400; -251.000; -173.000
333.746;  -48.200; -381.000; -464.000
333.881; -189.300; -973.000; -935.000
334.016; -227.300; -936.000; -917.000
334.151; -192.300; -746.000; -702.000
334.286;  103.100;  152.000;  186.000
334.421;   51.100; -125.000; -178.000
334.556;  -95.500; -611.000; -567.000
334.690; -115.200; -631.000; -577.000
334.825;  186.500;  381.000;   83.000
334.960;  -80.000; -285.000; -413.000
335.095;   39.500;  135.000;  -91.000
335.230; -162.800; -722.000; -738.000
335.365; -249.900;-1084.000; -990.000
335.499; -225.400;-1108.000;-1037.000
335.634;   97.400;    9.000;  534.000
335.769; -170.500; -755.000; -720.000
335.904;  -65.200; -603.000; -561.000
336.038;  -95.600; -735.000; -657.000
336.173; -192.000;-1206.000;-1194.000
336.308;   39.700; -116.000; -189.000
336.443;   64.500; -544.000; -634.000
336.577; -149.700; -936.000; -787.000
336.712;  146.600;   -4.000;  -12.000
336.847;  -46.200; -724.000; -607.000
336.981;  151.500; -272.000; -208.000
337.116;  555.200;  615.000;  501.000
337.250;  315.400; -434.000; -421.000
337.385;  501.100; -297.000; -208.000
337.520;  192.400; -632.000; -603.000
337.654;  -39.400; -215.000; -126.000
337.789; -217.000; -989.000; -933.000
337.923;   -2.400; -104.000; -205.000
338.058; -143.700; -673.000; -738.000
338.192;   -2.000; -611.000; -488.000
338.327;   33.700;  -18.000; -155.000
338.461;  -54.800; -299.000; -469.000
338.596; -153.800; -780.000; -638.000
338.730; -154.100; -767.000; -803.000
338.865;  216.400;  -46.000; -140.000
338.999;  -68.300; -846.000; -702.000
339.134;  -34.900; -634.000; -536.000
339.268;   98.000; -741.000; -603.000
339.403;  684.100; -740.000; -775.000
339.537;  217.200; -894.000; -820.000
339.671; -167.100; -829.000; -813.000
339.806; -113.800; -556.000; -512.000
339.940;   40.200; -261.000; -235.000
340.074; -142.900; -685.000; -510.000
340.209;  -65.400; -351.000; -230.000
340.343; -133.100; -517.000; -573.000
340.477;  417.200;  998.000; 1036.000
340.612;  -71.900;-1033.000; -900.000
340.746;  334.500; -199.000; -243.000
340.880; -125.300; -924.000; -785.000
341.014;    1.300;  -45.000; -154.000
341.149; -210.500; -756.000; -718.000
341.283; -166.100; -839.000; -754.000
341.417; -174.200;-1124.000; -938.000
341.551;  257.000; -768.000; -708.000
341.685;    3.700; -633.000; -611.000
341.820;  -90.000; -562.000; -493.000
341.954;  -52.200; -218.000; -349.000
342.088; -275.000;-1102.000;-1019.000
342.222;  129.900;  565.000;  618.000
342.356;  -66.000; -395.000; -335.000
342.490; -174.800; -880.000; -841.000
342.624;  -23.700; -339.000; -242.000
342.758;   46.200; -364.000; -312.000
342.892;  -85.800; -710.000; -585.000
343.026;  -21.100;  -58.000; -116.000
343.160;  -81.800; -426.000; -376.000
343.294; -134.600; -474.000; -337.000
343.428;   -8.900; -488.000; -448.000
343.562;   24.000; -172.000;  -23.000
343.696;   -7.400; -385.000; -314.000
343.830;  -11.400; -362.000; -356.000
343.964;   60.800; -231.000; -168.000
344.098; 1636.500;  199.000;   70.000
344.232; 1396.400; -266.000; -127.000
344.366;  203.000; -567.000; -453.000
344.500;  154.100; -665.000; -744.000
344.634;   61.100; -324.000; -164.000
344.768;   25.600; -531.000; -341.000
344.902;  129.300;  278.000;  256.000
345.035;  -89.900; -556.000; -496.000
345.169; -234.000; -933.000; -656.000
345.303;   -7.800; -308.000; -482.000
345.437; -115.100; -826.000; -717.000
345.571; -102.000; -675.000; -594.000
345.704;  -89.900; -309.000; -532.000
345.838;   45.400; -331.000; -284.000
345.972;   -6.700; -543.000; -495.000
346.106;  363.400; -179.000; -190.000
346.239;  854.500; -312.000; -243.000
346.373;   35.000; -343.000; -302.000
346.507; -255.900; -950.000; -962.000
346.640;  307.600;  -30.000;   13.000
346.774;  -29.200; -650.000; -797.000
346.908;   15.600; -138.000;  -11.000
347.041; -152.600; -646.000; -593.000
347.175;   79.600;  259.000;   27.000
347.309; -124.300; -698.000; -628.000
347.442; -151.200; -883.000; -732.000
347.576;  578.600;  670.000;  668.000
347.709;  438.200; -123.000;  -52.000
347.843; -135.500; -933.000; -825.000
347.976;  130.400;  235.000;  294.000
348.110; -322.900;-1268.000;-1186.000
348.243; -154.900; -679.000; -772.000
348.377;   43.700;  -26.000;   60.000
348.510;  163.400;  403.000;  540.000
348.644;  -25.000;  -37.000; -159.000
348.777;   60.300;  180.000;  191.000
348.911;  -11.400; -142.000; -112.000
349.044;  389.700;  471.000;  448.000
349.178;  270.200;-1069.000;-1006.000
349.311;  261.900;  141.000;  255.000
349.444;   45.000; -927.000; -813.000
349.578;   22.900; -347.000; -200.000
349.711; -170.300; -959.000; -862.000
349.845;   30.700; -661.000; -591.000
349.978; -257.900;-1224.000;-1137.000
350.111; -120.600; -546.000; -612.000
350.244;  -81.400; -596.000; -700.000
350.378;   38.400; -392.000; -393.000
350.511;  -45.700; -393.000; -426.000
350.644; -168.100; -808.000; -806.000
350.778;   53.600;  168.000;  104.000
350.911;   89.800;  134.000;  140.000
351.044; -159.600; -685.000; -615.000
351.177;    1.600; -321.000; -281.000
351.310;   45.400;    3.000; -131.000
351.444; -108.100; -888.000; -788.000
351.577;  301.200;  140.000;   90.000
351.710;  229.400;  593.000;  417.000
351.843;  -28.300; -165.000;  -77.000
351.976;   64.100;  149.000;  -79.000
352.109; -132.000; -621.000; -612.000
352.242;   -6.700; -464.000; -419.000
352.376;  -80.800; -580.000; -636.000
352.509;  323.100; -437.000; -356.000
352.642;   44.700; -654.000; -604.000
352.775;  151.300; -141.000;  -98.000
352.908; -185.700; -933.000; -904.000
353.041; -186.500; -814.000; -824.000
353.174;  -60.400; -551.000; -424.000
353.307; -144.300; -753.000; -764.000
353.440;  208.400;  541.000;  453.000
353.573; -164.700; -957.000;-1008.000
353.706;  -65.500; -384.000; -558.000
353.839;   35.300; -264.000; -220.000
353.971; -159.000; -657.000; -512.000
354.104; -142.000; -896.000; -835.000
354.237;  -56.100; -627.000; -662.000
354.370; -128.500; -846.000; -879.000
354.503; -340.500;-1231.000;-1308.000
354.636;   -0.400; -529.000; -348.000
354.769; -229.100; -937.000; -860.000
354.902;   16.500; -230.000; -139.000
355.034;   -6.100; -164.000; -220.000
355.167;   41.600; -262.000; -162.000
355.300; -154.600;-1061.000; -880.000
355.433; 1843.100;  -71.000;  -14.000
355.565; 2938.900; -402.000; -384.000
355.698;  758.700; -356.000; -296.000
355.831;   18.900; -882.000; -801.000
355.964;  187.800; -285.000; -170.000
356.096; -121.800; -856.000; -843.000
356.229;   60.600; -523.000; -530.000
356.362;  641.200; -373.000; -266.000
356.494; 1179.500; -229.000; -162.000
356.627;  930.100;  269.000;  377.000
356.760; 1291.700;  120.000;   53.000
356.892; 1835.200; -286.000; -601.000
357.025; 1238.100;  403.000;  389.000
357.157; 1168.900; -167.000; -179.000
357.290; 1279.100; -856.000; -713.000
357.423;  386.000; -667.000; -556.000
357.555;  236.900; -217.000; -228.000
357.688;  231.900; -483.000; -364.000
357.820;  811.400; -870.000; -877.000
357.953; 6469.000; -563.000; -589.000
358.085; 1434.900; -632.000; -612.000
358.218; 2116.800;-1131.000; -932.000
358.350;  458.400;  -58.000;  312.000
358.483; -212.000;-1300.000;-1187.000
358.615;  -31.100;-1182.000;-1078.000
358.747;  -91.100;-1187.000;-1058.000
358.880;   77.100; -810.000; -744.000
359.012;   35.000; -376.000; -202.000
359.145;  -48.100; -480.000; -511.000
359.277;   81.300; -962.000; -913.000
359.409; 5368.700;  536.000;  231.000
359.542; 1391.600; -738.000; -688.000
359.674;  181.100;   46.000;   13.000
359.806;  -74.600; -565.000; -438.000
359.939;  -20.800; -617.000; -516.000
360.071;    0.500; -583.000; -579.000
360.203;   -3.500; -411.000; -364.000
360.335;  141.600;  164.000;  -16.000
360.468;  394.800; -249.000; -307.000
360.600; 4321.100; -547.000; -454.000
360.732; 5280.200; -546.000; -423.000
360.864;  669.400;-1216.000;-1044.000
360.996;  581.000; -516.000; -554.000
361.129;  133.300; -389.000; -598.000
361.261;  126.400;  110.000; -113.000
361.393;  -39.600; -252.000; -214.000
361.525;  123.300;   94.000;  244.000
361.657;  -46.400; -821.000; -703.000
361.789;   61.500; -139.000; -155.000
361.921;  492.600; -642.000; -593.000
362.053;  536.600;  524.000;  541.000
362.185;  146.700;  288.000;   72.000
362.318; -101.500; -709.000; -705.000
362.450;  289.800;  294.000;  444.000
362.582;  212.400; -913.000; -870.000
362.714;  -18.200; -353.000; -332.000
362.846;  -91.400; -606.000; -490.000
362.978; -224.300; -941.000; -811.000
363.109;  117.100; -161.000; -260.000
363.241;  854.700; -739.000; -749.000
363.373;  861.300; -649.000; -564.000
363.505; 1305.700; -186.000;  -91.000
363.637;  325.800; -787.000; -601.000
363.769; -204.500;-1067.000;-1080.000
363.901;  -81.700; -596.000; -654.000
364.033; -179.600;-1103.000;-1062.000
364.165;   28.200; -283.000; -283.000
364.296;  207.700; -316.000; -177.000
364.428;  138.200;-1344.000;-1220.000
364.560; -107.900; -679.000; -661.000
364.692;  -81.900; -738.000; -835.000
364.824;  534.600; -588.000; -456.000
364.955;  899.600; -402.000; -564.000
365.087; 1731.900;-1097.000; -852.000
365.219;   95.300; -686.000; -816.000
365.351;  -70.100; -526.000; -572.000
365.482;  178.100;  300.000;  240.000
365.614;  -47.000; -402.000; -314.000
365.746; -146.000; -729.000; -752.000
365.877; -143.200; -706.000; -672.000
366.009;  535.500;  -35.000;  -62.000
366.141; -159.400;-1249.000;-1134.000
366.272; -174.400; -803.000; -719.000
366.404; -186.100;-1005.000; -874.000
366.535;   43.100; -139.000;  -12.000
366.667; -131.900; -644.000; -649.000
366.799;  147.400;  353.000;  203.000
366.930; -189.300; -862.000; -996.000
367.062;  262.700; -639.000; -613.000
367.193;  363.300; -872.000; -842.000
367.325;  -69.400; -580.000; -684.000
367.456;  147.200; -246.000;   31.000
367.588;  375.800; -371.000; -318.000
367.719;  126.100;  -44.000;  -45.000
367.851;   20.700; -222.000; -241.000
367.982;  -62.500; -875.000; -732.000
368.113;  213.900; -475.000; -358.000
368.245; -183.600; -960.000; -841.000
368.376;   16.000; -254.000; -302.000
368.508;  -23.200; -188.000; -263.000
368.639; -232.500;-1166.000;-1034.000
368.770;    5.000; -670.000; -589.000
368.902;  -79.900; -836.000; -926.000
369.033; -178.500; -906.000; -855.000
369.164;  -49.400; -720.000; -653.000
369.296; -160.300; -452.000; -601.000
369.427;   55.100; -209.000; -144.000
369.558;  -51.600; -593.000; -377.000
369.689; -117.900; -721.000; -569.000
369.821; -221.100; -951.000; -845.000
369.952;   25.000;   42.000; -108.000
370.083;  -33.400; -229.000; -108.000
370.214; -118.100; -735.000; -650.000
370.345;   11.600;   65.000;   81.000
370.477; -102.700; -810.000; -790.000
370.608;  452.600; -328.000; -264.000
370.739;  -57.700;-1233.000;-1292.000
370.870;  -23.800;-1102.000; -923.000
371.001;  200.200; -378.000; -467.000
371.132; -111.800; -754.000; -735.000
371.263;   29.900;  -42.000; -148.000
371.394; -198.200; -841.000; -748.000
371.525;  131.500;  345.000;  225.000
371.657; -127.900; -808.000; -670.000
371.788;  210.100;  103.000;  199.000
371.919;  362.100; -384.000; -304.000
372.050; 6475.800;  -91.000; -156.000
372.181; 1888.700; -188.000; -294.000
372.311;  674.600;   42.000; -127.000
372.442;   82.100; -457.000; -451.000
372.573;   16.200; -444.000; -340.000
372.704; -180.300;-1008.000; -980.000
372.835;  248.400; -228.000; -289.000
372.966;  -41.000; -646.000; -554.000
373.097;  -95.200; -575.000; -711.000
373.228;  -32.700; -717.000; -542.000
373.359;  271.900; -824.000; -536.000
373.490; 1724.400; -881.000; -727.000
373.620; 2095.900;-1001.000; -803.000
373.751; 3171.800; -332.000; -396.000
373.882; 1403.800; -663.000; -733.000
374.013;  177.200; -449.000; -262.000
374.143;  -33.300; -581.000; -659.000
374.274; -141.700; -987.000; -908.000
374.405;  363.700; -388.000; -276.000
374.536;  854.900; -526.000; -387.000
374.666; 2005.500; -759.000; -807.000
374.797;  389.900; -817.000; -868.000
374.928; 1610.700; -710.000; -560.000
375.058; 1650.100; -535.000; -500.000
375.189;  159.900;  -59.000;  -93.000
375.320; -152.400; -928.000;-1034.000
375.450;   -1.100; -625.000; -616.000
375.581;  -29.800; -526.000; -436.000
375.712;    1.700; -574.000; -250.000
375.842;  580.900; -438.000; -415.000
375.973;  421.900; -554.000; -513.000
376.103;  -18.600; -665.000; -648.000
376.234; -124.300; -531.000; -552.000
376.364;   -8.700; -944.000; -867.000
376.495;  678.600;  925.000;  529.000
376.625;   18.600; -472.000; -485.000
376.756;  160.200; -709.000; -678.000
376.886; -116.400;-1178.000;-1026.000
377.017;  152.300;-1048.000;-1061.000
377.147;  690.400; -786.000; -782.000
377.278;  202.900;  174.000;  228.000
377.408; -227.900; -801.000; -815.000
377.538; -165.600; -707.000; -693.000
377.669; -101.500; -537.000; -613.000
377.799; -133.600; -645.000; -635.000
377.929;  -67.100; -610.000; -428.000
378.060; -207.800; -781.000; -847.000
378.190;  -32.400; -726.000; -531.000
378.320;  -25.600; -401.000; -406.000
378.451;   69.400; -131.000;  -22.000
378.581;   51.900;  -67.000; -110.000
378.711;  374.300; 1035.000;  866.000
378.841;    1.100; -533.000; -675.000
378.972; -123.800; -871.000; -751.000
379.102;   28.400; -652.000; -579.000
379.232;   36.900; -126.000;  -73.000
379.362; -150.000;-1001.000; -885.000
379.492;   49.400; -373.000; -424.000
379.623;  234.700;    0.000;  111.000
379.753; -148.500;-1107.000; -974.000
379.883;  473.100;   59.000;  156.000
380.013;   19.700;-1081.000;-1017.000
380.143; -165.700;-1097.000;-1056.000
380.273; -147.300; -985.000; -861.000
380.403;   36.800; -344.000; -257.000
380.533;   -4.900; -651.000; -664.000
380.663;  195.500;  173.000;  128.000
380.793; -155.600;-1027.000;-1074.000
380.923;   38.700; -103.000;  -34.000
381.053; -127.500; -613.000; -623.000
381.183;   18.100; -106.000; -248.000
381.313;  103.900; -656.000; -470.000
381.443;  120.100; -692.000; -473.000
381.573;  415.600; -402.000; -409.000
381.703;  509.300;-1249.000;-1095.000
381.833; -233.600;-1454.000;-1336.000
381.963;  236.500; -134.000;  -87.000
382.093; 2548.100; -925.000; -909.000
382.223;  773.200; -713.000; -602.000
382.353;    2.500; -801.000; -608.000
382.482;  692.200;-1091.000; -964.000
382.612; 1406.400; -872.000; -644.000
382.742;  758.900; -695.000; -622.000
382.872;  523.700; -565.000; -551.000
383.002;  231.200;  347.000; -132.000
383.131;    0.900; -226.000; -160.000
383.261;   -3.700; -706.000; -768.000
383.391;  628.900; -552.000; -377.000
383.521; 6128.600;  451.000;  263.000
383.650; 1359.100; -947.000; -904.000
383.780;   14.200; -783.000; -656.000
383.910;  319.100;  880.000;  802.000
384.039;   87.700; -794.000; -656.000
384.169;  406.900;-1205.000;-1017.000
384.299;    0.200; -650.000; -662.000
384.428;  -72.400; -764.000; -680.000
384.558;   -8.000; -308.000; -275.000
384.687;    9.600; -414.000; -334.000
384.817;  159.900;   75.000;   -2.000
384.947;   98.300; -234.000; -141.000
385.076;  640.600;  982.000;  912.000
385.206;  277.700;  369.000;  480.000
385.335;   21.500; -549.000; -417.000
385.465; -108.300; -655.000; -663.000
385.594;  343.600;  -53.000;  -44.000
385.724;  791.800; -868.000; -838.000
385.853;  264.400; -296.000; -270.000
385.982; 2541.500; -743.000; -787.000
386.112; 3704.000;-1052.000; -871.000
386.241;  280.200; -307.000; -312.000
386.371;  100.500; -174.000;  -87.000
386.500;   66.900; -825.000; -789.000
386.629;  105.500; -874.000; -817.000
386.759;  208.200;  -43.000;   68.000
386.888;   83.000; -170.000; -250.000
387.017;  -77.600; -648.000; -620.000
387.147;  -87.100; -771.000; -798.000
387.276;   80.800; -410.000; -397.000
387.405;   95.300; -398.000; -342.000
387.535;   -5.500; -452.000; -361.000
387.664;  -54.300; -692.000; -620.000
387.793;  169.200; -198.000; -113.000
387.922; 1027.000;  255.000;  200.000
388.052;  106.100; -576.000; -423.000
388.181;   89.800; -342.000; -472.000
388.310;   47.600; -889.000; -710.000
388.439;  -16.900; -749.000; -742.000
388.568;  412.200;  365.000;  244.000
388.697; 1864.700; -756.000; -653.000
388.826;  355.400; -768.000; -666.000
388.956;  150.200; -285.000; -307.000
389.085;  -12.100; -347.000; -287.000
389.214; -153.000; -842.000; -872.000
389.343;  -72.000; -645.000; -413.000
389.472;  860.300;  126.000;  149.000
389.601; 1013.200;   91.000;    0.000
389.730;   68.300; -568.000; -687.000
389.859;  176.800;  226.000;   46.000
389.988;  402.900; -423.000; -408.000
390.117;  304.300; -168.000; -146.000
390.246;   21.500; -331.000; -320.000
390.375;  241.900; -673.000; -626.000
390.504;  -59.700; -703.000; -621.000
390.633; -112.600; -672.000; -726.000
390.761;  -56.500; -732.000; -645.000
390.890;   87.700;   -4.000; -130.000
391.019;    4.200; -421.000; -441.000
391.148; -196.700; -826.000; -855.000
391.277;  -72.800; -576.000; -493.000
391.406;  -98.700; -821.000; -805.000
391.534;  138.500;  574.000; -301.000
391.663;  -60.200; -583.000; -645.000
391.792; -109.400; -673.000; -701.000
391.921;  250.100;   -3.000;   15.000
392.050;  365.400; -287.000; -228.000
392.178;  -82.900;-1206.000;-1061.000
392.307;  272.400; -758.000; -712.000
392.436;  145.900; -427.000; -641.000
392.564;   81.100;  166.000;   -6.000
392.693; -128.000; -860.000; -682.000
392.822;  467.700; -529.000; -534.000
392.950;  173.100; -880.000; -714.000
393.079;  660.700; -188.000; -328.000
393.208;  110.700; -488.000; -511.000
393.336;   62.600; -170.000; -145.000
393.465;  -32.000; -317.000; -199.000
393.593;   63.800;   62.000;   79.000
393.722; -234.100;-1121.000; -916.000
393.850;   17.200; -188.000;  -61.000
393.979; -245.900; -926.000; -805.000
394.107;  -53.500; -517.000; -537.000
394.236;   38.200; -570.000; -507.000
394.364;  562.600;  383.000;  206.000
394.493;  845.500; -911.000; -767.000
394.621;   48.300; -955.000; -916.000
394.750; 1404.500; -873.000; -923.000
394.878; 5851.200; -247.000; -149.000
395.007; 7565.800; -721.000; -807.000
395.135;  547.900; -790.000; -721.000
395.263; -126.200;-1038.000;-1040.000
395.392;   61.200;  -25.000; -107.000
395.520; -150.900; -818.000; -679.000
395.648; -140.600; -865.000; -915.000
395.777;    6.300; -366.000; -405.000
395.905;  -39.700; -449.000; -564.000
396.033;  115.500;  217.000;  172.000
396.162; 1400.100; -399.000; -453.000
396.290; 1186.200;  -17.000;   -2.000
396.418;  237.100; -555.000; -514.000
396.546;  -95.200; -571.000; -466.000
396.674; -134.600; -850.000; -878.000
396.803;   67.200;  -72.000;  -23.000
396.931;  226.600; -179.000; -199.000
397.059;  106.500;-1026.000; -989.000
397.187; -159.900;-1026.000; -975.000
397.315; -195.500; -884.000; -649.000
397.443; -112.100; -592.000; -443.000
397.572; -104.800; -578.000; -424.000
397.700;    3.100; -607.000; -614.000
397.828;   98.400;  120.000;  -90.000
397.956;  -12.800; -508.000; -478.000
398.084;  -83.300; -767.000; -626.000
398.212;  188.200;  137.000;  124.000
398.340;  131.100;  -56.000;  159.000
398.468;   95.400; -390.000; -169.000
398.596; -234.000; -993.000; -953.000
398.724; -171.600; -762.000; -767.000
398.852; -257.000;-1024.000; -976.000
398.980;  -82.600; -560.000; -560.000
399.108;  -53.800; -982.000; -735.000
399.236;  131.200;   13.000;    8.000
399.363;  107.200;  222.000;  196.000
399.491;  -41.800; -404.000; -398.000
399.619; -199.200; -829.000; -800.000
399.747; -131.400; -859.000; -771.000
399.875;  213.800;  220.000;  234.000
400.003;  -57.900; -359.000; -284.000
400.130; -120.200; -421.000; -341.000
400.258;   10.400;  -83.000;   38.000
400.386;  -64.600; -352.000; -168.000
400.514;  -25.000; -526.000; -587.000
400.641; -140.200; -928.000; -802.000
400.769; -224.400; -979.000; -888.000
400.897; -106.700; -838.000; -793.000
401.025;   41.400; -166.000; -152.000
401.152;   48.600;  220.000;   38.000
401.280;  -90.100; -430.000; -429.000
401.408; -141.900; -712.000; -576.000
401.535; -144.500; -735.000; -758.000
401.663; -332.900;-1134.000;-1054.000
401.790; -111.400; -514.000; -525.000
401.918;  147.700;  436.000;  405.000
402.046;   37.400;  134.000;  122.000
402.173;   -1.500;  -18.000;    7.000
402.301;  -53.400; -519.000; -397.000
402.428;  175.900;  528.000;  383.000
402.556; -247.400;-1188.000; -913.000
402.683;    0.500;  -20.000;   -1.000
402.811;   69.100;  -37.000; -206.000
402.938;   67.100;   20.000;   27.000
403.066;  404.800; -574.000; -558.000
403.193;  599.600;  299.000;  239.000
403.321;  454.600; -396.000; -574.000
403.448;  605.300;   83.000;   27.000
403.575;  323.800;  -90.000;  -46.000
403.703; -103.200; -732.000; -557.000
403.830;  -75.200; -531.000; -496.000
403.957; -219.500;-1117.000;-1023.000
404.085;   93.400;  -61.000; -172.000
404.212;  274.600;  -50.000;   63.000
404.339;  604.300; -566.000; -306.000
404.467;11459.900; -612.000; -524.000
404.594; 7063.700; -287.000; -227.000
404.721; 1692.900; -869.000; -764.000
404.848;  188.300; -113.000; -202.000
404.976; -158.600; -856.000; -783.000
405.103;   54.500;  -14.000;  -82.000
405.230;   67.600;  190.000;  226.000
405.357;  146.900;  117.000;   44.000
405.484;  621.800;  -49.000;    5.000
405.612;  153.000; -548.000; -563.000
405.739;  -49.600; -488.000; -243.000
405.866;  261.300;  669.000;  385.000
405.993;  -27.600; -398.000; -102.000
406.120; -187.900; -801.000; -887.000
406.247;  -36.800; -323.000; -342.000
406.374;  952.600;  540.000;  629.000
406.501;  216.100; -632.000; -702.000
406.628;  -71.100; -621.000; -589.000
406.755; -119.800; -803.000; -620.000
406.882;    0.000; -228.000; -277.000
407.009; -149.900; -719.000; -628.000
407.136;  183.800; -480.000; -401.000
407.263;  281.200; -939.000; -829.000
407.390; -119.500; -692.000; -614.000
407.517; -277.500;-1139.000;-1187.000
407.644;  -45.000; -332.000; -256.000
407.771;  -64.800; -249.000; -287.000
407.898;   64.800;  168.000;  328.000
408.025;  -46.200; -421.000; -313.000
408.151;   73.100;   82.000;  153.000
408.278;  -65.600; -267.000; -216.000
408.405; -159.800; -931.000; -899.000
408.532;  -73.800; -549.000; -542.000
408.659; -159.900; -677.000; -648.000
408.785; -342.900;-1298.000;-1170.000
408.912;  -21.300; -412.000; -296.000
409.039; -136.400; -610.000; -686.000
409.166; -145.400; -591.000; -555.000
409.292; -156.900; -571.000; -534.000
409.419; -156.900; -665.000; -649.000
409.546; -102.100; -431.000; -192.000
409.672; -150.500; -713.000; -545.000
409.799;   25.100;  -36.000;   34.000
409.926;  -37.000; -180.000; -179.000
410.052; -295.900;-1127.000;-1091.000
410.179;  -38.000; -368.000; -392.000
410.305;  -95.000; -375.000; -493.000
410.432;  -21.200; -220.000; -333.000
410.558; -122.800; -305.000; -380.000
410.685; -137.300; -688.000; -431.000
410.812; -116.100; -409.000; -588.000
410.938; -230.500; -964.000; -808.000
411.065; -106.700; -671.000; -645.000
411.191;   16.400; -189.000; -174.000
411.317; -162.600; -823.000; -742.000
411.444;  -50.900; -317.000; -246.000
411.570;  -86.600; -339.000; -294.000
411.697; -195.700; -758.000; -752.000
411.823; -266.200; -989.000; -999.000
411.949;   19.700;  -56.000;   17.000
412.076; -136.100; -539.000; -519.000
412.202; -177.900; -758.000; -757.000
412.329; -212.800; -798.000; -752.000
412.455; -154.200; -821.000; -657.000
412.581;   48.500;  -15.000;  172.000
412.707;  -46.100; -540.000; -457.000
412.834;   83.500;  156.000;  219.000
412.960; -112.900; -785.000; -784.000
413.086; -140.100; -743.000; -701.000
413.212;  370.700;  604.000;  578.000
413.339;  -89.700; -685.000; -701.000
413.465;   98.500; -364.000; -310.000
413.591; -103.600; -757.000; -474.000
413.717;  -52.500; -358.000; -366.000
413.843; -210.100; -839.000; -861.000
413.969;  -20.900;  -47.000; -292.000
414.096; -129.200; -679.000; -679.000
414.222;   54.400;  -33.000;   85.000
414.348;   16.900; -652.000; -385.000
414.474;  264.700;   38.000;  -52.000
414.600;   49.400; -126.000; -144.000
414.726;   49.300;  -96.000;  -55.000
414.852;  -68.700; -365.000; -342.000
414.978;  154.900;  104.000;  -18.000
415.104;  144.600;   38.000;   80.000
415.230;  103.700; -329.000; -330.000
415.356;  138.300; -409.000; -514.000
415.482;  436.300;   13.000;  -35.000
415.608;  608.200; -247.000; -323.000
415.734; 2026.000;   67.000;   38.000
415.860;40323.500; -875.000; -767.000
415.986;26672.000; -685.000; -607.000
416.111; 2234.100; -798.000; -652.000
416.237;  518.800; -424.000; -571.000
416.363; 2436.600; -765.000; -733.000
416.489; 8039.200; -324.000; -251.000
416.615;  855.900; -707.000; -742.000
416.741;    5.500; -677.000; -784.000
416.866; -100.000; -673.000; -736.000
416.992; -145.700; -801.000; -818.000
417.118;   -1.500;  -41.000;  -80.000
417.244;  -72.300; -798.000; -531.000
417.369; -109.300; -801.000; -612.000
417.495;   52.400; -325.000; -254.000
417.621; -110.300;-1015.000; -803.000
417.746;   60.100; -579.000; -572.000
417.872;  161.600; -254.000; -144.000
417.998;  169.200; -515.000; -530.000
418.123; 2273.300;-1073.000; -845.000
418.249;10445.500; -512.000; -601.000
418.374; 1340.000; -916.000; -824.000
418.500;  272.100; -383.000; -482.000
418.626;  294.500;   70.000;  -59.000
418.751;  300.800; -549.000; -448.000
418.877;  463.000; -637.000; -643.000
419.002; 3920.500; -688.000; -560.000
419.128;24386.900; -930.000; -721.000
419.253; 5355.500; -967.000; -837.000
419.379;  835.000; -391.000; -338.000
419.504;  819.900;  325.000;  415.000
419.629; 1048.500; -393.000; -212.000
419.755; 7444.800; -317.000; -254.000
419.880;40050.100;  -98.000;   67.000
420.006;22551.100; -280.000; -221.000
420.131;54914.900; -662.000; -775.000
420.256; 7291.900; -315.000; -316.000
420.382;  990.700; -665.000; -687.000
420.507;  163.200; -649.000; -778.000
420.632;  305.300; -337.000; -339.000
420.758;  464.500; -251.000; -425.000
420.883; -104.300; -876.000; -672.000
421.008; -110.700; -775.000; -619.000
421.133;  -96.900; -509.000; -467.000
421.259;   10.000; -325.000; -259.000
421.384; -143.100; -834.000; -693.000
421.509;  -44.000;-1052.000; -862.000
421.634; 2181.600; -936.000; -820.000
421.759;  875.400; -359.000; -327.000
421.885;  -62.600; -717.000; -656.000
422.010; -100.300; -673.000; -542.000
422.135; -206.800; -695.000; -727.000
422.260;  173.000;  340.000;  280.000
422.385;    5.100;   12.000;  -98.000
422.510;   73.000;  151.000;  -26.000
422.635;  131.100;  -87.000;  -43.000
422.760;  240.400; -766.000; -791.000
422.885;  142.800;  -57.000;  -80.000
423.010;   -4.400; -112.000; -169.000
423.135; -112.500; -481.000; -561.000
423.260;   45.100; -150.000; -245.000
423.385;  206.300;  476.000;  222.000
423.510;  148.000;   71.000;  -22.000
423.635;  247.200;  133.000;   45.000
423.760;  173.200;  383.000;  328.000
423.885;  170.700;  336.000;  391.000
424.010;  103.500;  -68.000;  -13.000
424.135;   79.300;    5.000;  -33.000
424.259;  -65.500; -654.000; -457.000
424.384;  -63.700; -279.000; -272.000
424.509;   41.300; -260.000; -186.000
424.634; -145.300; -761.000; -623.000
424.759;    6.300; -688.000; -544.000
424.883;   15.100; -506.000; -527.000
425.008;  424.000; -502.000; -410.000
425.133; 3985.700; -679.000; -653.000
425.258; 1674.800; -517.000; -381.000
425.382; 1998.200; -867.000; -774.000
425.507; 4496.300; -487.000; -543.000
425.632;  820.700; -802.000; -663.000
425.756;  936.700; -256.000; -146.000
425.881;13507.400; -831.000; -857.000
426.006;32637.300; -604.000; -355.000
426.130; 4706.200; -696.000; -508.000
426.255;  649.900; -611.000; -491.000
426.379;  365.400; -189.000; -577.000
426.504;  863.100;  660.000;  544.000
426.629; 8295.200; -519.000; -466.000
426.753; 5097.500;   64.000;  -46.000
426.878;  671.800; -252.000; -288.000
427.002;  443.200; -651.000; -668.000
427.127; 3350.300;  -35.000; -158.000
427.251;22371.000;  372.000;  401.000
427.375; 5774.500; -191.000; -173.000
427.500; 4197.800; -616.000; -610.000
427.624; 1247.700; -234.000; -400.000
427.749;  236.100; -216.000; -225.000
427.873;  -10.300; -499.000; -412.000
427.997;   10.900; -222.000; -230.000
428.122;  257.700;  795.000;  703.000
428.246;  224.200;  433.000;  434.000
428.371; -195.400; -869.000; -773.000
428.495; -120.700; -624.000; -646.000
428.619;  -14.800; -186.000; -117.000
428.743;  173.200;   65.000;  132.000
428.868;  114.800; -732.000; -643.000
428.992; 2577.700; -219.000; -326.000
429.116;  983.000; -329.000; -357.000
429.240;  555.100;  419.000;  426.000
429.365;   49.800; -454.000; -574.000
429.489;    1.300; -638.000; -647.000
429.613;  131.600; -236.000; -177.000
429.737;  160.200; -563.000; -432.000
429.861;  585.700; -247.000; -133.000
429.985;11456.600; -425.000; -305.000
430.109;11455.800; -770.000; -908.000
430.234; 1317.700;   76.000;  -50.000
430.358;  187.600; -250.000; -160.000
430.482;  -27.200; -672.000; -564.000
430.606;  -15.400; -655.000; -375.000
430.730;  114.400; -437.000; -388.000
430.854;  273.700; -909.000; -835.000
430.978;  -41.900; -795.000; -764.000
431.102;  -69.800; -499.000; -422.000
431.226; -119.200; -874.000; -815.000
431.350;  147.900;  345.000;  422.000
431.474;  -80.800; -661.000; -373.000
431.597; -262.200;-1060.000; -848.000
431.721; -111.700; -276.000; -267.000
431.845; -169.500; -704.000; -472.000
431.969;  -82.300; -304.000; -349.000
432.093;  -95.600; -395.000; -317.000
432.217;   60.300;   32.000;   82.000
432.341; -103.600; -523.000; -518.000
432.464;   92.000;   96.000;   40.000
432.588;  436.100; -401.000; -329.000
432.712;  254.000;  -52.000;  -52.000
432.836;  180.500;  213.000;  263.000
432.959;   22.400; -372.000; -311.000
433.083;  250.300;   11.000;    2.000
433.207;  801.400;  285.000;  930.000
433.330;10499.800; -391.000; -200.000
433.454;11708.200; -654.000; -638.000
433.578; 6958.800;  583.000;  278.000
433.701; 1188.700; -623.000; -675.000
433.825;  339.100; -292.000; -299.000
433.949;  397.100;   28.000;  -72.000
434.072;  165.500; -410.000; -323.000
434.196;   45.200; -309.000; -117.000
434.319; 7878.300;25482.000;25124.000
434.443; 1556.200; -656.000; -603.000
434.566; 5146.400;  281.000;   62.000
434.690;  823.100; -637.000; -383.000
434.813;  159.000; -251.000; -173.000
434.937;  -78.600; -569.000; -696.000
435.060;    8.200; -423.000; -332.000
435.184;  664.800; -492.000; -217.000
435.307;  351.100;  159.000;  102.000
435.431;   23.800;  -40.000;   24.000
435.554;  -60.200; -399.000; -240.000
435.677;  -72.100; -350.000; -258.000
435.801;  -21.000;  -25.000;   49.000
435.924;   32.100;    1.000;  -67.000
436.048; -145.100;-1019.000; -732.000
436.171;  -37.500; -240.000;  -66.000
436.294;   25.900; -248.000; -229.000
436.417;  271.300; -963.000; -849.000
436.541;  -99.800; -814.000; -840.000
436.664;  -30.700; -242.000; -316.000
436.787;   50.300;   13.000;  113.000
436.910; -136.500; -792.000; -422.000
437.034;   90.900;  142.000;  143.000
437.157;  208.500;  -11.000;    0.000
437.280;  -34.300; -392.000; -292.000
437.403; -105.200; -982.000; -869.000
437.526; 1327.500; -903.000; -865.000
437.649; 3979.000; -505.000; -332.000
437.772;  480.000; -692.000; -540.000
437.896;  310.600;  700.000;  544.000
438.019; -127.600; -758.000; -503.000
438.142;  -96.000; -596.000; -506.000
438.265;   33.500; -639.000; -670.000
438.388; 1133.000; -520.000; -410.000
438.511;  195.300; -597.000; -394.000
438.634;  -34.300; -247.000; -125.000
438.757; -206.500; -693.000; -619.000
438.880;   36.900;  -34.000;  -57.000
439.003;  -70.100; -417.000; -437.000
439.126;  -52.600; -287.000; -167.000
439.248;  -71.200;  -98.000; -139.000
439.371;  -19.800;    9.000;  -53.000
439.494;  140.900;  510.000;  439.000
439.617;  -11.100;   65.000;  -88.000
439.740; -302.500; -968.000; -816.000
439.863; -216.600; -755.000; -595.000
439.986; -157.100; -476.000; -431.000
440.108;   -3.900; -161.000; -112.000
440.231; -258.100; -950.000; -836.000
440.354;   15.100;  -64.000; -150.000
440.477;  156.900; -566.000; -542.000
440.599;  113.900; -200.000; -225.000
440.722; -195.900; -709.000; -586.000
440.845;  250.400;  751.000;  928.000
440.968; -131.000; -415.000; -311.000
441.090;  -64.600; -199.000;  -33.000
441.213; -258.600;-1021.000; -825.000
441.336;  -31.400; -159.000;   -5.000
441.458;  -83.000; -549.000; -396.000
441.581;  -93.600; -628.000; -629.000
441.703;  -63.300; -152.000;   13.000
441.826; -172.100; -557.000; -400.000
441.948;  -17.400;   56.000;   51.000
442.071;  152.300;  555.000;  424.000
442.193; -155.800; -531.000; -485.000
442.316;  131.900;  152.000;   97.000
442.438;  163.600; -233.000;  -10.000
442.561;  196.100;  272.000;  262.000
442.683; 1119.500; -809.000; -522.000
442.806; 2047.000;   -8.000;   74.000
442.928;   41.400; -859.000; -604.000
443.051;  -88.200; -577.000; -373.000
443.173;  -94.300; -341.000; -339.000
443.295;  -88.000; -263.000; -371.000
443.418;  -76.900; -321.000;  -29.000
443.540;   27.700; -106.000;   -4.000
443.662; -139.600; -563.000; -465.000
443.785;   87.100;  335.000;  199.000
443.907; -131.500; -362.000; -208.000
444.029; -176.400; -767.000; -494.000
444.152; -237.900; -644.000; -554.000
444.274;    7.200;  -18.000;  -24.000
444.396; -148.400; -461.000; -221.000
444.518; -200.700; -691.000; -454.000
444.640; -140.500; -268.000; -111.000
444.763;   41.200;  388.000;  249.000
444.885; -136.600; -432.000; -392.000
445.007;   37.300;   35.000;   86.000
445.129; -143.200; -610.000; -515.000
445.251; -115.900; -372.000; -439.000
445.373; -163.500; -537.000; -386.000
445.495;   80.800;  242.000;  350.000
445.617;  178.200;  853.000;  753.000
445.739;  -58.900; -215.000;  -97.000
445.861;   22.400; -245.000; -112.000
445.984;   24.000; -267.000; -101.000
446.105;  419.000; -418.000; -251.000
446.227; 1161.200; -176.000;  -19.000
446.349;   63.300; -358.000; -249.000
446.471; -142.400; -615.000; -448.000
446.593;  -66.900; -316.000;   19.000
446.715;   63.000;  -67.000;   41.000
446.837;  205.900;  697.000;  832.000
446.959; -120.500; -457.000; -478.000
447.081; -218.500; -628.000; -518.000
447.203;  166.200;  862.000;  834.000
447.325;  -88.200; -270.000;   42.000
447.446;   59.800;  286.000;  530.000
447.568; -212.600; -921.000; -803.000
447.690; -108.200; -236.000; -245.000
447.812; -211.500; -798.000; -519.000
447.933;   37.300;  155.000;  127.000
448.055;  -45.100; -306.000; -261.000
448.177;  367.000;   31.000;   79.000
448.299;  189.000; -935.000; -727.000
448.420;  127.200;  -25.000;  159.000
448.542;    1.100;   -3.000;   33.000
448.664;   59.000;  109.000;  322.000
448.785;   27.400;  265.000;   83.000
448.907;  -56.600; -614.000; -353.000
449.028;   -1.000; -771.000; -471.000
449.150;  210.200;  492.000;  589.000
449.272; -291.200;-1044.000; -913.000
449.393;  170.700;  612.000;  694.000
449.515; -208.200; -634.000; -581.000
449.636;  -39.000; -264.000; -155.000
449.758;  227.600;  763.000;  622.000
449.879; -111.900; -498.000; -396.000
450.001;  -91.000; -149.000;  -49.000
450.122;   -6.900;  -95.000;  162.000
450.244;   13.500;   37.000;  364.000
450.365; -133.400; -495.000; -301.000
450.486;   17.800;   80.000;  268.000
450.608;  132.500;  393.000;  326.000
450.729;  224.600;  578.000;  645.000
450.850;   74.700; -574.000; -466.000
450.972; 1648.000; -552.000; -389.000
451.093; 9769.700;  190.000;  588.000
451.214; 3701.000; -516.000; -337.000
451.336;  777.400;  773.000;  579.000
451.457;  211.300;  264.000;  393.000
451.578;   -5.500; -118.000;  -74.000
451.699; -153.300; -546.000; -540.000
451.821;  -37.400; -284.000;  -50.000
451.942;  111.300;  278.000;  285.000
452.063;  160.500;  228.000;  419.000
452.184; 1235.100;  -54.000;  -49.000
452.305; 2116.800;  103.000;  170.000
452.427;  276.200; -549.000; -301.000
452.548;   64.900;   23.000;   79.000
452.669;   -9.900; -257.000;  -89.000
452.790;  -18.900;    3.000;  -18.000
452.911;   87.300;  195.000;  259.000
453.032;  -58.600; -289.000;  -60.000
453.153;  -15.600;  -29.000;   81.000
453.274;  209.600;  737.000;  868.000
453.395;   -7.100;  -51.000;  175.000
453.516;  352.300; 1317.000; 1388.000
453.637;  -39.000; -205.000; -150.000
453.758;   -5.900;   15.000;   69.000
453.879; -170.600; -462.000; -250.000
454.000;  272.400; 1086.000;  948.000
454.121; -144.100; -554.000; -326.000
454.242; -137.700; -599.000; -383.000
454.362;   -8.000;  -99.000;  114.000
454.483;    5.500; -309.000; -229.000
454.604;  229.900;  512.000;  580.000
454.725; -188.600; -627.000; -555.000
454.846; -208.000; -474.000; -406.000
454.967;    3.300;  230.000;  539.000
455.087;   -4.200;  179.000;  153.000
455.208;  103.800;  554.000;  856.000
455.329;  -40.600;  -22.000;   82.000
455.450;  168.100;  473.000;  633.000
455.570;  -84.500; -234.000; -211.000
455.691;   -0.500;  201.000;  407.000
455.812; -123.000; -270.000;  -92.000
455.932;  -40.700;  107.000;  -97.000
456.053;  -79.200;   36.000;   24.000
456.173; -167.300; -433.000; -355.000
456.294; -169.500; -476.000; -303.000
456.415;  -63.600;  -73.000;   70.000
456.535;   12.400;  297.000;  273.000
456.656;  -15.800;  132.000;  240.000
456.776;  -46.900;    3.000;  298.000
456.897;   99.900;  308.000;  513.000
457.017;  -62.500; -153.000;   -3.000
457.138; -123.200; -402.000; -249.000
457.258;   35.100;  263.000;  224.000
457.379;   46.600;  509.000;  521.000
457.499;   36.400;  443.000;  432.000
457.620; -163.400; -407.000; -231.000
457.740;  -91.900; -132.000;  -11.000
457.860;  -29.000;   87.000;   44.000
457.981;   -8.400;  132.000;  124.000
458.101;  -57.100;  -89.000;   40.000
458.221;   51.600;  336.000;  402.000
458.342;  -13.300;   -4.000;  -37.000
458.462;  127.800;  617.000;  352.000
458.582;  -14.800; -302.000; -294.000
458.703;   56.200;  303.000;  154.000
458.823;   59.500;   22.000;  163.000
458.943;  115.100;  341.000;  467.000
459.063;   40.000; 1124.000;  192.000
459.183;   41.600;  328.000;  313.000
459.304;   87.700;  315.000;  517.000
459.424;  -52.200; -246.000;  -89.000
459.544;  736.900;  388.000;  764.000
459.664; 1713.200;  499.000;  506.000
459.784;  667.700; 1004.000; 1175.000
459.904;  172.700;  867.000;  744.000
460.024;  240.700;  867.000;  684.000
460.144;  104.700;  449.000;  554.000
460.264;   72.100;  515.000;  327.000
460.385; -112.200; -145.000; -119.000
460.505;  190.600;  905.000;  858.000
460.625; -104.100;  -17.000;  -68.000
460.745;   58.000;  396.000;  541.000
460.864;    9.100;  153.000;  469.000
460.984;  120.500;  499.000;  573.000
461.104;  381.800; 1656.000; 1775.000
461.224;  135.000;  657.000;  650.000
461.344;   41.400;  431.000;  360.000
461.464;   25.100;  258.000;  513.000
461.584;   52.600;  283.000;  466.000
461.704;   -6.800;   58.000;  108.000
461.824;  -28.400;  238.000;  259.000
461.943;    6.400;  191.000;  130.000
462.063;  -68.900;    2.000;  324.000
462.183;  170.900;  639.000;  717.000
462.303;  275.400; 1678.000; 1230.000
462.422;  148.100;  781.000;  840.000
462.542;    4.700;  271.000;  391.000
462.662;  138.100;  353.000;  380.000
462.782;  605.900;  833.000;  572.000
462.901; 1059.200;  545.000;  717.000
463.021;  591.200; 1702.000; 1638.000
463.141;   62.700;  337.000;  770.000
463.260;   44.100;  614.000;  474.000
463.380;  122.000;  902.000;  884.000
463.499;   -2.400;  342.000;  332.000
463.619;   19.000;  581.000;  559.000
463.738;  316.300; 1644.000;  903.000
463.858;  113.700;  657.000;  811.000
463.978;   18.800;  542.000;  396.000
464.097;  249.300;  921.000; 1114.000
464.217;  297.700; 1196.000; 1143.000
464.336;  325.400; 1068.000; 1130.000
464.455;    4.600;  328.000;  659.000
464.575;  186.000;  597.000;  602.000
464.694;  390.800; 1204.000; 1179.000
464.814;  335.100; 1190.000; 1138.000
464.933;  249.300; 1095.000; 1027.000
465.052;  293.000; 1412.000; 1054.000
465.172;  243.900;  922.000;  799.000
465.291;  339.300; 1376.000; 1320.000
465.410;  112.100;  462.000;  735.000
465.530;  283.700; 1355.000; 1310.000
465.649;  227.200; 1209.000; 1273.000
465.768;  382.800; 1673.000; 1508.000
465.888;  145.400;  941.000; 1174.000
466.007;  256.600; 1335.000; 1440.000
466.126;   96.200;  721.000;  641.000
466.245;  172.300; 1176.000; 1187.000
466.364;  125.800;  950.000; 1060.000
466.484;  209.900; 1024.000; 1213.000
466.603;  171.100; 1101.000; 1222.000
466.722;  378.800; 1490.000; 1769.000
466.841;  250.500; 1151.000; 1401.000
466.960;  182.400; 1069.000;  972.000
467.079;  369.600; 1971.000; 1786.000
467.198;  212.700; 1238.000; 1181.000
467.317;  272.100; 1768.000; 1162.000
467.436;  216.100; 1709.000; 1261.000
467.555;  359.600; 1796.000; 1746.000
467.674;  235.200; 1227.000; 1329.000
467.793;  176.900; 1376.000; 1374.000
467.912;  270.800; 1658.000; 1539.000
468.031;  358.600; 2038.000; 1930.000
468.150;  375.000; 1842.000; 1837.000
468.269;  492.400; 2313.000; 2090.000
468.388;  465.700; 2168.000; 2339.000
468.507;  627.800; 2884.000; 2903.000
468.626;  636.800; 2555.000; 2541.000
468.744;  351.500; 2018.000; 2174.000
468.863;  517.300; 2312.000; 2523.000
468.982;  284.900; 1503.000; 1555.000
469.101;  568.900; 2788.000; 2692.000
469.220;  376.900; 2333.000; 2176.000
469.338;  611.600; 2935.000; 3051.000
469.457;  499.500; 2719.000; 2545.000
469.576;  764.100; 3953.000; 3784.000
469.695;  557.700; 2877.000; 3066.000
469.813;  961.400; 4148.000; 4192.000
469.932;  909.600; 4255.000; 4485.000
470.051;  955.300; 4075.000; 4161.000
470.169; 1897.600; 4470.000; 4338.000
470.288; 3015.500; 4700.000; 4809.000
470.406; 1760.700; 5059.000; 5194.000
470.525; 1297.800; 6101.000; 5787.000
470.644; 1404.500; 6847.000; 6794.000
470.762; 1787.100; 8397.000; 7873.000
470.881; 1867.100; 8651.000; 8464.000
470.999; 2207.300; 9685.000; 9151.000
471.118; 2344.300;11174.000;10711.000

