
Integration time [ms]: 200.000
Averaging Nr. [scans]: 10
Smoothing Nr. [pixels]: 0
Data measured with spectrometer [name]: 2101012U2
Wave   ;Sample   ;Dark     ;Reference
[nm]   ;[counts] ;[counts] ;[counts] 

197.733;  125.700;  516.000;  404.000
197.879; -173.700; -610.000; -634.000
198.025;  -97.400; -475.000; -420.000
198.171; -139.600; -602.000; -612.000
198.317;  -66.400; -401.000; -316.000
198.463; -165.900; -655.000; -404.000
198.609;   84.000;  181.000; -137.000
198.755; -186.800; -644.000; -410.000
198.901; -105.200; -505.000; -424.000
199.047; -145.900; -615.000; -488.000
199.193;  -56.300; -230.000; -468.000
199.339;  -90.000; -222.000; -369.000
199.485;  114.400;  330.000;  271.000
199.631;   23.500;  227.000;  310.000
199.777; -109.100; -466.000; -398.000
199.923; -127.400; -610.000; -424.000
200.069;    8.800; -141.000;  -58.000
200.215;  119.600;  128.000;  453.000
200.361;  102.000;  243.000;  477.000
200.507; -135.100; -600.000; -373.000
200.653;  -54.000; -371.000; -194.000
200.798; -106.700; -215.000; -125.000
200.944;   15.700; -146.000;  -41.000
201.090;   70.300;   61.000;  222.000
201.236;   19.000; -116.000; -158.000
201.382;  262.700;  874.000;  903.000
201.528;   14.000;  -58.000;  -48.000
201.674;  -92.500; -386.000; -293.000
201.819; -131.100; -540.000; -439.000
201.965; -196.000; -699.000; -447.000
202.111;  -46.000; -273.000; -226.000
202.257;  -82.500; -250.000; -238.000
202.402;   14.600;   13.000;  -36.000
202.548;  -89.600; -169.000; -116.000
202.694;  180.600;  410.000; -183.000
202.840; -163.000; -603.000; -531.000
202.985; -135.000; -681.000; -639.000
203.131; -248.000; -832.000; -666.000
203.277;  -38.800; -199.000; -262.000
203.423; -117.300; -434.000; -520.000
203.568;  -27.300; -462.000; -237.000
203.714; -113.300; -535.000; -542.000
203.860; -180.300; -682.000; -641.000
204.005;   16.100;  112.000;  167.000
204.151;  182.900;  561.000;  556.000
204.296;  -97.900; -354.000; -221.000
204.442; -159.400; -600.000; -547.000
204.588; -172.200; -592.000; -579.000
204.733;   73.600;  178.000;  168.000
204.879; -314.100;-1018.000; -822.000
205.025;   16.500;  -99.000;  126.000
205.170;  -17.200;  -17.000;   94.000
205.316;  181.200;  438.000;  661.000
205.461; -183.800; -698.000; -554.000
205.607;  161.300;  609.000;  665.000
205.752; -173.800; -626.000; -551.000
205.898; -113.600; -501.000; -391.000
206.043; -146.000; -578.000; -506.000
206.189;  -81.300; -243.000; -285.000
206.334;  176.800;  554.000;  606.000
206.480;  183.900;  409.000;  239.000
206.625; -187.100; -529.000; -552.000
206.771;  -95.400; -451.000; -373.000
206.916;  -71.300; -210.000; -537.000
207.062; -160.900; -545.000; -591.000
207.207; -137.400; -546.000; -443.000
207.353;  118.300;  185.000;  460.000
207.498;   26.000;  196.000;   85.000
207.643;  -98.400; -501.000; -370.000
207.789; -293.900;-1069.000; -910.000
207.934; -214.000; -665.000; -713.000
208.080;  -66.900; -154.000;   66.000
208.225;   -1.800;  -22.000;  -57.000
208.370; -185.400; -727.000; -619.000
208.516; -121.200; -741.000; -487.000
208.661; -106.700; -127.000;  -69.000
208.806;  -33.600; -165.000; -171.000
208.952; -277.600;-1044.000; -731.000
209.097;  190.700;  378.000;  349.000
209.242;  -96.300; -307.000; -382.000
209.387;  107.000;  392.000;  350.000
209.533; -111.400; -321.000; -350.000
209.678;  175.800;  472.000;  543.000
209.823; -128.000; -408.000; -310.000
209.969; -200.500; -860.000; -757.000
210.114; -248.800; -907.000; -719.000
210.259; -251.900; -939.000; -889.000
210.404;  -25.200; -171.000;  103.000
210.549;   16.100;  108.000;    3.000
210.695;  -25.900;   -3.000;  -95.000
210.840;   69.700;   94.000;   67.000
210.985; -146.000; -484.000; -303.000
211.130;  124.900;  268.000;  406.000
211.275;   14.300;  207.000;  199.000
211.420;  -80.000; -300.000; -289.000
211.566; -171.600; -536.000; -489.000
211.711;   63.800;  218.000;  157.000
211.856; -146.700; -545.000; -519.000
212.001;   45.700;  151.000;   44.000
212.146;   39.000;  153.000;   49.000
212.291;  -33.300; -210.000; -186.000
212.436;  -72.100; -280.000;   -6.000
212.581; -135.500; -685.000; -653.000
212.726; -126.900; -487.000; -538.000
212.871; -113.200; -552.000; -217.000
213.016; -331.800;-1172.000;-1029.000
213.161;  149.800;  406.000;  291.000
213.306; -190.000; -435.000; -577.000
213.451; -184.400; -778.000; -689.000
213.596; -122.300; -455.000; -347.000
213.741;  -90.000; -448.000; -538.000
213.886; -162.000; -498.000; -517.000
214.031;  -48.200; -294.000; -124.000
214.176; -112.100; -408.000; -341.000
214.321;  -49.900; -296.000; -157.000
214.466;  -64.200; -163.000;  -43.000
214.611;   38.500;  -61.000;  -10.000
214.756; -288.500; -948.000; -858.000
214.901;  -62.200; -388.000; -226.000
215.046; -257.100; -797.000; -825.000
215.191;   26.200;  128.000;   35.000
215.336;  -15.000; -157.000;  -19.000
215.480; -165.500; -684.000; -505.000
215.625;  -53.000; -175.000;  -19.000
215.770; -143.600; -757.000; -662.000
215.915;  -11.400;   -5.000;  -97.000
216.060;    2.000; -113.000;  -21.000
216.205; -238.100; -731.000; -779.000
216.349; -136.400; -470.000; -533.000
216.494; -282.600; -939.000; -867.000
216.639; -198.500; -823.000; -888.000
216.784; -205.900; -577.000; -525.000
216.929;  122.700;  392.000;  281.000
217.073;  -24.600; -244.000;  -31.000
217.218;   17.800;   78.000;  -47.000
217.363; -197.700; -656.000; -618.000
217.507; -145.600; -623.000; -588.000
217.652; -252.800; -845.000; -874.000
217.797; -173.100; -708.000; -659.000
217.942; -249.400; -856.000; -720.000
218.086;  184.700;  608.000;  539.000
218.231;  -47.000; -174.000;  -26.000
218.376;  -64.200; -337.000; -229.000
218.520;    6.400;  -41.000;   96.000
218.665;  -80.100; -338.000; -204.000
218.810; -106.000; -275.000; -233.000
218.954;   24.100;  201.000;   35.000
219.099; -246.500; -713.000; -963.000
219.243; -137.500; -589.000; -554.000
219.388;  -34.900; -264.000; -136.000
219.532;   -1.700; -116.000; -116.000
219.677; -190.800; -564.000; -521.000
219.822;   42.100;   33.000;   89.000
219.966;   -7.700;   17.000;  -99.000
220.111;  -50.000; -328.000;  -40.000
220.255; -223.700; -797.000; -750.000
220.400;  -46.600; -180.000; -146.000
220.544; -155.000; -516.000; -450.000
220.689;  -92.300; -422.000; -451.000
220.833;  -56.200; -123.000;  -58.000
220.978;  -80.300; -393.000; -563.000
221.122;   48.600;  319.000;  307.000
221.267; -201.000; -906.000; -837.000
221.411; -125.100; -478.000; -394.000
221.555;  -22.300; -104.000;  -23.000
221.700;  -74.100; -329.000; -222.000
221.844;  102.000;  255.000;  272.000
221.989; -109.200; -328.000; -311.000
222.133;  -73.200; -289.000; -307.000
222.277;  -19.000;    5.000;   78.000
222.422;   53.400;  227.000;  113.000
222.566;  -85.000; -381.000; -214.000
222.711;  -99.900; -414.000; -479.000
222.855; -172.500; -643.000; -586.000
222.999; -135.700; -642.000; -717.000
223.144;  -68.000; -195.000; -194.000
223.288;  123.900;  423.000;  251.000
223.432;   -9.800;  184.000;  230.000
223.576;   76.000;  152.000;  -21.000
223.721;   75.600;  364.000;  273.000
223.865; -119.300; -472.000; -475.000
224.009;  522.000; 1673.000; 1631.000
224.153; -176.400; -660.000; -671.000
224.298; -142.100; -531.000; -489.000
224.442;   -8.300;  -74.000;  -33.000
224.586;    4.800; -169.000; -106.000
224.730; -173.200; -858.000; -670.000
224.875; -227.500; -739.000; -688.000
225.019;   40.000;  102.000;  188.000
225.163;  104.500;  208.000;  341.000
225.307;   46.600;   97.000;  -91.000
225.451;  104.400;  360.000;  481.000
225.595;   68.700;  264.000;  176.000
225.739;  -14.200; -170.000;  -94.000
225.884;   35.200;   86.000;    5.000
226.028; -220.700; -760.000; -626.000
226.172;  -82.400; -260.000; -273.000
226.316; -257.700; -941.000; -902.000
226.460; -144.900; -645.000; -493.000
226.604; -123.500; -406.000; -400.000
226.748; -198.300; -836.000; -733.000
226.892;  -79.700; -227.000; -181.000
227.036;  -82.200; -537.000; -447.000
227.180; -112.600; -551.000; -375.000
227.324; -143.100; -561.000; -580.000
227.468; -239.600; -819.000; -717.000
227.612;   44.200;  242.000;  -28.000
227.756; -200.200; -845.000; -698.000
227.900;  147.800;  342.000;  441.000
228.044; -142.600; -509.000; -290.000
228.188;  147.500;  448.000;  568.000
228.332; -196.700; -546.000; -472.000
228.476;  -44.600; -223.000; -149.000
228.620;  -70.800; -210.000; -150.000
228.764;  162.300;  431.000;  349.000
228.908;  -40.000; -155.000;   30.000
229.052; -112.500; -615.000; -528.000
229.195;  -64.000; -172.000;   13.000
229.339;  -56.500; -235.000; -305.000
229.483;  -66.700;    5.000; -162.000
229.627;   20.700; -156.000;  139.000
229.771; -109.100; -218.000; -294.000
229.915;   37.900;  230.000;   79.000
230.059; -187.800; -648.000; -663.000
230.202;  -45.400; -370.000; -317.000
230.346;  -21.300; -107.000;  107.000
230.490; -136.700; -489.000; -521.000
230.634; -207.000; -736.000; -553.000
230.777;  169.100;  478.000;  509.000
230.921;  -95.100; -450.000; -359.000
231.065;  -72.300; -246.000; -286.000
231.209;   74.200;  261.000;  265.000
231.352;   67.600;   54.000;   40.000
231.496;   30.900;  568.000;  188.000
231.640; -170.900; -693.000; -621.000
231.783;  134.500;  546.000;  525.000
231.927;  -57.100; -294.000; -365.000
232.071; -273.400; -962.000; -736.000
232.214; -233.400; -980.000; -764.000
232.358; -195.100; -683.000; -599.000
232.502;   16.000;  -19.000;    7.000
232.645; -278.800;-1090.000; -927.000
232.789;  -31.600; -257.000; -218.000
232.933;  -84.800; -407.000; -224.000
233.076; -225.300;-1038.000; -897.000
233.220; -223.900; -752.000; -777.000
233.363; -171.400; -669.000; -477.000
233.507;   74.000;  371.000;  129.000
233.650; -189.600; -764.000; -834.000
233.794;  106.800;  438.000;  461.000
233.938; -119.100; -530.000; -362.000
234.081;  -33.200;  -93.000;   31.000
234.225; -122.400; -631.000; -539.000
234.368; -239.900; -773.000; -723.000
234.512;  -78.800; -385.000; -299.000
234.655; -201.400; -582.000; -555.000
234.798; -111.200; -493.000; -466.000
234.942; -257.700; -884.000;-1002.000
235.085; -105.100; -651.000; -443.000
235.229; -151.700; -405.000; -410.000
235.372;  -83.800; -247.000; -191.000
235.516; -162.000; -397.000; -321.000
235.659;   65.300;   92.000;  121.000
235.802;  -26.800;  -38.000;  -22.000
235.946;   81.200;  335.000;  215.000
236.089;   70.200;  126.000;  250.000
236.233;  124.200;  275.000;  298.000
236.376;  -91.500; -235.000; -378.000
236.519;  -71.300; -297.000; -319.000
236.663;  -53.700; -215.000; -117.000
236.806; -260.400;-1029.000; -999.000
236.949;  152.000;  543.000;  431.000
237.092;  116.600;  412.000;  391.000
237.236; -176.600; -589.000; -502.000
237.379;  162.700;  352.000;  428.000
237.522; -263.600; -879.000; -768.000
237.666;  -14.700; -271.000;   18.000
237.809; -266.000; -851.000; -823.000
237.952;   75.400;  469.000;  271.000
238.095; -161.500; -447.000; -442.000
238.238;  178.200;  688.000;  700.000
238.382;   21.900;  166.000;  103.000
238.525; -150.000; -598.000; -511.000
238.668; -312.100;-1060.000; -985.000
238.811; -158.100; -638.000; -643.000
238.954; -126.200; -483.000; -334.000
239.097;  209.300;  617.000;  664.000
239.241;   39.100;  394.000;  326.000
239.384;  -60.300; -254.000; -214.000
239.527; -115.500; -424.000; -224.000
239.670; -295.600; -994.000;-1091.000
239.813; -223.100; -696.000; -658.000
239.956;  208.800;  579.000;  473.000
240.099; -237.900; -778.000; -725.000
240.242;  132.600;  428.000;  432.000
240.385;   75.600;  466.000;  450.000
240.528; -144.400; -706.000; -473.000
240.671;   47.200;  189.000;  134.000
240.814;  -79.800; -441.000; -158.000
240.957; -198.700; -767.000; -578.000
241.100; -178.900; -779.000; -755.000
241.243; -286.200;-1234.000; -893.000
241.386; -120.100; -508.000; -379.000
241.529; -180.300; -735.000; -547.000
241.672; -126.200; -566.000; -495.000
241.815; -259.700; -832.000; -808.000
241.958;  -54.700; -125.000; -182.000
242.101; -172.800; -545.000; -390.000
242.244;  -50.900; -270.000; -325.000
242.387;  -92.600; -304.000; -246.000
242.530;  153.200;  470.000;  134.000
242.673;  -78.800; -381.000; -309.000
242.815; -230.000; -925.000; -899.000
242.958; -143.600; -482.000; -381.000
243.101;   44.200;  132.000;  187.000
243.244; -137.500; -564.000; -521.000
243.387;  -83.200; -313.000; -316.000
243.530; -219.200; -657.000; -674.000
243.672;   26.000;   43.000;  -92.000
243.815; -125.400; -355.000; -283.000
243.958;   11.500;   98.000;  -26.000
244.101;    9.700;   59.000;  -16.000
244.243;   13.400;  -47.000;  101.000
244.386; -240.200; -761.000; -630.000
244.529;  -37.100; -132.000; -139.000
244.672; -280.000;-1154.000; -951.000
244.814; -208.500; -621.000; -794.000
244.957; -122.200; -380.000; -304.000
245.100; -144.900; -489.000; -489.000
245.242; -115.200; -387.000; -374.000
245.385;    3.500;  -59.000;  -39.000
245.528; -248.500; -871.000; -705.000
245.670;  194.100;  612.000;  634.000
245.813; -167.700; -599.000; -547.000
245.956;  -44.900; -324.000; -275.000
246.098; -175.000; -508.000; -650.000
246.241;   56.300;  194.000;   48.000
246.383;  -16.100; -119.000;  -73.000
246.526; -131.900; -454.000; -525.000
246.669; -245.400; -889.000; -780.000
246.811;   71.000;  172.000;   -1.000
246.954; -118.400; -512.000; -426.000
247.096;  -35.200;  -84.000;   -6.000
247.239; -153.100; -482.000; -445.000
247.381; -139.300; -647.000; -488.000
247.524;  149.300;  645.000;  679.000
247.666;   33.900;   58.000;   11.000
247.809; -249.600; -887.000; -691.000
247.951;   -9.000;  -75.000;  138.000
248.094;   71.700;  432.000;  308.000
248.236; -318.200;-1262.000;-1238.000
248.378;    6.300; -356.000;  -81.000
248.521;   -1.600; -334.000; -337.000
248.663;  -88.400; -236.000; -267.000
248.806;  -38.800; -300.000; -266.000
248.948; -210.600; -886.000; -763.000
249.090;  -86.900; -428.000; -398.000
249.233; -102.500; -344.000; -381.000
249.375; -121.300; -474.000; -451.000
249.518;  -31.000;  -83.000; -133.000
249.660;  -11.000; -103.000;    3.000
249.802; -375.300;-1303.000;-1189.000
249.945; -122.400; -612.000; -540.000
250.087; -235.500; -834.000; -768.000
250.229;  -71.500; -362.000; -480.000
250.371; -124.100; -494.000; -439.000
250.514;  -62.400; -310.000; -244.000
250.656;  -12.700;   69.000;  102.000
250.798; -207.700; -849.000; -800.000
250.940; -123.700; -322.000; -322.000
251.083;  -31.400; -335.000; -111.000
251.225;   96.400;  338.000;  310.000
251.367;  -67.500; -274.000; -373.000
251.509;  -32.300; -265.000; -210.000
251.651; -177.600; -731.000; -671.000
251.794;  121.800;  538.000;  632.000
251.936; -206.400; -821.000; -747.000
252.078; -179.000; -540.000; -461.000
252.220; -121.400; -645.000; -477.000
252.362;  144.100;  344.000;  462.000
252.504; -140.200; -677.000; -584.000
252.646; -232.100; -875.000; -722.000
252.788;   25.800;   14.000; -128.000
252.931;  -82.000; -257.000; -253.000
253.073;  -62.100; -376.000; -317.000
253.215;    5.300;  141.000;  122.000
253.357;   -7.500;   82.000; -153.000
253.499;  -94.700; -374.000; -234.000
253.641; -187.200; -749.000; -594.000
253.783; -202.400; -609.000; -527.000
253.925; -150.900; -586.000; -591.000
254.067; -246.300; -744.000; -667.000
254.209;  -26.000; -391.000; -259.000
254.351; -265.300; -865.000; -883.000
254.493; -109.100; -441.000; -417.000
254.635; -224.700; -936.000; -818.000
254.777; -188.100; -752.000; -687.000
254.918; -165.500; -512.000; -430.000
255.060; -100.000; -551.000; -395.000
255.202; -118.800; -473.000; -261.000
255.344; -144.900; -658.000; -455.000
255.486; -141.100; -471.000; -406.000
255.628; -207.500; -780.000; -781.000
255.770; -186.900; -676.000; -536.000
255.912; -128.800; -559.000; -468.000
256.053; -196.000; -730.000; -508.000
256.195;  376.300; 1008.000;  903.000
256.337; -203.100; -861.000; -595.000
256.479;  153.000;  532.000;  416.000
256.621; -106.200; -394.000; -212.000
256.762; -199.600; -789.000; -742.000
256.904;  127.700;  485.000;  487.000
257.046;  -57.500; -381.000; -271.000
257.188;  -82.900; -351.000; -264.000
257.329; -128.900; -525.000; -464.000
257.471; -224.800; -939.000; -807.000
257.613; -118.300; -584.000; -498.000
257.755; -307.100;-1073.000; -982.000
257.896;  107.900;  286.000;  392.000
258.038; -126.000; -403.000; -352.000
258.180;  -74.800; -354.000; -279.000
258.321; -169.700; -581.000; -457.000
258.463;   23.700;  -71.000;  133.000
258.605; -180.700; -562.000; -570.000
258.746; -199.800; -886.000; -772.000
258.888; -313.200;-1026.000;-1020.000
259.029;   73.600;  121.000;   -8.000
259.171; -172.900; -614.000; -550.000
259.313;    8.500;  -49.000;  -47.000
259.454; -153.300; -536.000; -414.000
259.596;  -79.700; -483.000; -390.000
259.737; -169.700; -590.000; -474.000
259.879;   89.800;  217.000;  311.000
260.020;  239.100;  901.000;  636.000
260.162;  -52.600; -146.000; -253.000
260.303; -246.700; -768.000; -687.000
260.445; -156.500; -609.000; -613.000
260.586;   58.500;  392.000;  157.000
260.728;  -52.700; -360.000; -248.000
260.869; -110.600; -350.000; -343.000
261.011;  199.600;  706.000;  537.000
261.152; -122.500; -479.000; -319.000
261.293; -153.000; -576.000; -595.000
261.435;  -93.800; -219.000; -184.000
261.576; -106.000; -455.000; -325.000
261.718;  139.900;  420.000;  470.000
261.859; -254.400; -940.000; -949.000
262.000; -290.900; -951.000;-1016.000
262.142;  -31.400;  -52.000;  -60.000
262.283; -262.700; -808.000; -691.000
262.424; -169.200; -666.000; -625.000
262.566; -314.300;-1161.000; -983.000
262.707; -236.500; -840.000; -830.000
262.848; -249.800; -769.000; -726.000
262.990;  -61.200; -362.000; -345.000
263.131;  191.200;  650.000;  681.000
263.272;    1.000;  -61.000;  -41.000
263.413; -177.700; -589.000; -561.000
263.555; -119.300; -669.000; -143.000
263.696; -169.300; -550.000; -641.000
263.837;  -96.100; -449.000; -551.000
263.978;   10.700;   -5.000;  -77.000
264.119;  -64.200; -283.000; -264.000
264.261; -239.200; -847.000; -630.000
264.402;   10.900;   33.000;   40.000
264.543; -163.000; -509.000; -524.000
264.684;  -17.200;   61.000;  -50.000
264.825; -145.300; -816.000; -538.000
264.966;   20.700;  -84.000;  -67.000
265.107; -228.900; -646.000; -670.000
265.248; -219.200; -825.000; -812.000
265.390;  -24.500;  152.000;   -9.000
265.531;  -18.000; -238.000; -107.000
265.672; -178.300; -557.000; -630.000
265.813;  165.100;  563.000;  439.000
265.954; -300.600; -959.000; -940.000
266.095;  -14.200; -372.000; -322.000
266.236; -188.300; -686.000; -548.000
266.377;  -53.300; -243.000; -297.000
266.518; -128.300; -619.000; -547.000
266.659;   91.200;  170.000;  268.000
266.800;   29.500;   83.000;   85.000
266.941; -126.900; -487.000; -478.000
267.082;   16.200;  354.000;   99.000
267.223;  -92.800; -344.000; -273.000
267.364; -267.700; -892.000; -686.000
267.504;   -6.100;    3.000;  135.000
267.645;   -9.600;  160.000;   67.000
267.786;  -48.500; -147.000;  -86.000
267.927; -141.800; -473.000; -379.000
268.068;  -46.400; -186.000;  -61.000
268.209; -109.500; -175.000; -413.000
268.350; -108.000; -388.000; -532.000
268.490; -158.600; -648.000; -521.000
268.631;   83.000;  127.000;  225.000
268.772; -225.500; -874.000; -647.000
268.913;  -77.900; -328.000; -476.000
269.054;  -10.200; -117.000;   12.000
269.194;  -93.400; -418.000; -402.000
269.335; -305.800;-1137.000;-1074.000
269.476;  -16.400;   33.000;  -35.000
269.617;  -96.100; -347.000; -392.000
269.757; -156.800; -713.000; -646.000
269.898; -211.000; -856.000; -613.000
270.039; -120.300; -415.000; -405.000
270.180; -303.400; -952.000; -816.000
270.320;  -28.000; -190.000; -250.000
270.461;  -80.200; -277.000; -249.000
270.602;  -27.800; -186.000; -156.000
270.742; -252.400; -868.000; -943.000
270.883; -101.100; -442.000; -390.000
271.023; -131.300; -358.000; -357.000
271.164; -134.100; -607.000; -528.000
271.305; -227.200; -666.000; -654.000
271.445; -169.500; -722.000; -683.000
271.586; -125.400; -462.000; -283.000
271.726;  -89.200; -397.000; -322.000
271.867; -125.900; -594.000; -534.000
272.008;  315.000; -473.000; -285.000
272.148;  235.400;  462.000;  468.000
272.289;   41.600; -113.000; -181.000
272.429;   35.300;   19.000;  185.000
272.570; -162.700; -633.000; -737.000
272.710; -186.900; -825.000; -775.000
272.851;  -49.500;  113.000; -130.000
272.991; -324.600;-1173.000;-1077.000
273.131;  -94.300; -419.000; -459.000
273.272; -200.600; -683.000; -723.000
273.412;    2.500; -143.000;  -31.000
273.553; -120.300; -488.000; -507.000
273.693;  296.300;  913.000;  858.000
273.834; -173.000; -894.000; -692.000
273.974; -132.600; -664.000; -615.000
274.114; -186.300; -772.000; -560.000
274.255;  200.800;  414.000;  373.000
274.395;   11.100; -180.000; -125.000
274.535;  104.100;  199.000;  350.000
274.676;   44.100;  225.000;   94.000
274.816;   38.700;  110.000;   34.000
274.956; -185.000; -624.000; -690.000
275.097; -136.700;-1014.000; -922.000
275.237; -236.400; -913.000; -803.000
275.377; -172.600; -778.000; -689.000
275.517; -289.500; -878.000; -937.000
275.658; -113.200; -590.000; -555.000
275.798; -114.900; -606.000; -413.000
275.938;   69.900;  215.000;  323.000
276.078; -158.300; -626.000; -395.000
276.218;    2.900;   99.000;  104.000
276.359; -273.100;-1026.000;-1024.000
276.499; -124.600; -605.000; -446.000
276.639;  -70.000; -305.000; -151.000
276.779;  -87.600; -475.000; -357.000
276.919; -202.700; -783.000; -624.000
277.059;  -19.400; -261.000; -212.000
277.199;  -52.000; -357.000; -259.000
277.340;  123.300;  287.000;  175.000
277.480; -240.100; -840.000; -693.000
277.620;   86.700;  192.000;   16.000
277.760; -437.300;-1533.000;-1294.000
277.900;   39.100;  113.000;   33.000
278.040;   50.500;  137.000;  159.000
278.180;   93.900;  270.000;  170.000
278.320;   -2.900;   21.000;   56.000
278.460;  -96.500; -443.000; -469.000
278.600; -188.000; -708.000; -598.000
278.740;  120.700;  448.000;  224.000
278.880; -127.700; -768.000; -791.000
279.020;   30.100; -194.000; -144.000
279.160; -171.300; -672.000; -595.000
279.300; -222.100; -926.000; -873.000
279.440; -205.600; -709.000; -622.000
279.579;  -58.600;-1014.000; -929.000
279.719; -102.500; -410.000; -394.000
279.859;  167.400;   -4.000;   41.000
279.999;   46.100; -208.000;  101.000
280.139;  -44.100; -435.000; -387.000
280.279; -165.000; -708.000; -745.000
280.419;   -4.700; -229.000; -147.000
280.559;  -28.300; -259.000; -180.000
280.698; -118.200; -790.000; -639.000
280.838; -152.600; -778.000; -800.000
280.978; -193.300; -846.000; -790.000
281.118; -249.000; -811.000; -704.000
281.257;   34.500;   24.000;    6.000
281.397; -261.600;-1094.000; -960.000
281.537; -155.900; -599.000; -712.000
281.677;   -8.500; -150.000; -101.000
281.816; -140.300; -700.000; -630.000
281.956;  -56.200; -193.000; -257.000
282.096; -107.200; -539.000; -396.000
282.235; -258.600; -672.000; -638.000
282.375;  -18.700; -243.000;  -98.000
282.515; -212.700; -715.000; -707.000
282.654;   83.000;   29.000;  106.000
282.794;   66.200;  388.000;  244.000
282.934;  -94.700; -530.000; -491.000
283.073; -264.900;-1030.000; -857.000
283.213;  -80.500; -460.000; -467.000
283.353;  -75.800; -408.000; -349.000
283.492;  -29.700; -264.000; -296.000
283.632; -105.200; -254.000; -168.000
283.771; -181.900; -859.000; -730.000
283.911; -108.500; -369.000; -260.000
284.050; -194.100; -794.000; -748.000
284.190; -313.000;-1229.000;-1096.000
284.329; -267.400;-1055.000; -964.000
284.469; -169.900; -516.000; -591.000
284.608;  -94.400; -559.000; -598.000
284.748; -128.200; -614.000; -570.000
284.887;   31.800;  -87.000;  -20.000
285.027; -231.100; -844.000; -892.000
285.166;  -39.600; -192.000; -249.000
285.306;    3.300; -116.000;  -33.000
285.445;  -46.200; -229.000; -343.000
285.584; -183.700; -630.000; -494.000
285.724;  -65.300; -282.000; -322.000
285.863; -242.100; -857.000; -507.000
286.002;  -60.900; -366.000; -276.000
286.142; -240.300; -715.000; -622.000
286.281;  -97.600; -525.000; -493.000
286.420; -162.500; -554.000; -417.000
286.560;  236.300;  653.000;  623.000
286.699; -279.100; -958.000; -912.000
286.838; -152.200; -590.000; -591.000
286.978; -198.400; -533.000; -537.000
287.117; -244.000;-1085.000; -950.000
287.256;  -73.900; -228.000; -211.000
287.395;  -69.600; -197.000; -378.000
287.535;  -75.000; -370.000; -298.000
287.674; -145.300; -509.000; -484.000
287.813;  158.600;  661.000;  533.000
287.952; -232.200;-1010.000; -871.000
288.091; -299.300;-1049.000; -915.000
288.231;   44.900;   13.000;   15.000
288.370; -343.900;-1217.000;-1200.000
288.509; -178.800; -728.000; -645.000
288.648; -206.700; -770.000; -548.000
288.787;  -39.900; -243.000;  -87.000
288.926; -120.100; -454.000; -475.000
289.065;  273.900;  859.000;  672.000
289.204;  -78.000; -377.000; -217.000
289.344; -162.400; -791.000; -690.000
289.483;   59.600;  416.000;  304.000
289.622;  -27.500; -291.000; -149.000
289.761;  -17.900; -309.000; -166.000
289.900; -204.600; -785.000; -626.000
290.039;   35.100;  -12.000;  -95.000
290.178;  -66.200; -274.000; -180.000
290.317; -156.100; -618.000; -479.000
290.456; -102.700; -463.000; -451.000
290.595; -285.200; -961.000; -833.000
290.734; -262.900; -904.000; -891.000
290.873; -131.200; -456.000; -420.000
291.011; -227.700; -833.000; -843.000
291.150; -219.400; -770.000; -682.000
291.289;  -24.800; -343.000; -110.000
291.428; -191.100; -599.000; -480.000
291.567;  -72.600; -370.000; -442.000
291.706;   -9.200;  109.000;  154.000
291.845; -135.300; -597.000; -505.000
291.984; -329.300;-1234.000;-1061.000
292.122;  160.500;  602.000;  582.000
292.261;  107.500;  620.000;  463.000
292.400;   37.400; -144.000;  211.000
292.539; -261.100; -959.000; -813.000
292.678;  -21.200; -325.000; -300.000
292.816; -304.300;-1136.000; -965.000
292.955; -162.100; -844.000; -684.000
293.094;  -26.400; -173.000; -337.000
293.233;  -76.200; -556.000; -400.000
293.371;  -74.300; -225.000;  -84.000
293.510; -190.900; -866.000; -780.000
293.649; -288.600; -959.000; -924.000
293.787; -149.900;-1083.000;-1012.000
293.926;  -21.900; -113.000;  -32.000
294.065;  -58.200; -379.000; -290.000
294.203;   84.900;  298.000;  406.000
294.342;   99.900;   74.000;  156.000
294.481;13284.400;51180.000; -836.000
294.619;   -8.100; -425.000; -582.000
294.758; -294.400;-1230.000;-1137.000
294.896;  144.500; -125.000;    5.000
295.035; -276.700;-1040.000;-1006.000
295.174; -249.600;-1082.000; -954.000
295.312;  -54.600; -323.000; -203.000
295.451;   -4.200; -307.000; -428.000
295.589; -108.800; -389.000; -518.000
295.728;   40.600; -292.000; -165.000
295.866;   31.300;  -36.000;  -51.000
296.005; -108.300; -584.000; -341.000
296.143; -130.600; -558.000; -596.000
296.282; -186.200; -957.000; -881.000
296.420; -182.400; -657.000; -557.000
296.559; -157.400; -892.000; -633.000
296.697;    1.200; -847.000; -665.000
296.835;   73.500;-1141.000;-1002.000
296.974;   98.400;  -23.000;   39.000
297.112;   43.500; -443.000; -504.000
297.251; -162.400; -815.000; -755.000
297.389;  107.700; -576.000; -438.000
297.527;   55.400; -145.000;  -83.000
297.666;  -85.900; -486.000; -438.000
297.804; -103.900; -404.000; -264.000
297.942;   -8.400; -136.000; -161.000
298.081;   19.000; -183.000;   63.000
298.219;  126.900;  -17.000;  -19.000
298.357;   58.100; -144.000;  -71.000
298.495;   38.400; -810.000; -812.000
298.634;  116.600;  245.000;  219.000
298.772;  112.700; -220.000; -338.000
298.910;  -87.100; -309.000; -182.000
299.048;    8.400; -130.000; -153.000
299.187;  -61.200; -350.000; -250.000
299.325;   77.200;   52.000;  122.000
299.463;   60.100; -389.000; -299.000
299.601;  226.700; -327.000; -271.000
299.739; -225.000; -908.000; -883.000
299.877; -157.200; -791.000; -703.000
300.016; -132.400;-1095.000; -935.000
300.154;  319.800;  -19.000; -161.000
300.292;   56.900; -428.000; -348.000
300.430;   78.200; -408.000; -291.000
300.568; -218.100; -940.000; -874.000
300.706;  -74.400; -366.000; -469.000
300.844; -173.800;-1108.000; -979.000
300.982;  269.700;  246.000;  282.000
301.120; -222.900; -965.000; -866.000
301.258; -126.500; -812.000; -705.000
301.396;   68.500;  104.000;  -41.000
301.534;  152.700; -218.000; -293.000
301.672;  -34.300; -664.000; -521.000
301.810;   43.900; -613.000; -545.000
301.948;  245.100;   53.000;  149.000
302.086;  976.300; -250.000;  -32.000
302.224; 1575.700; -610.000; -585.000
302.362;   70.200; -558.000; -622.000
302.500;  -96.500; -923.000; -893.000
302.638;  249.200;  128.000;  245.000
302.776;   55.800; -352.000; -408.000
302.913;  132.600;  447.000;  236.000
303.051;    2.100;  -86.000;  -23.000
303.189;  128.900;   90.000;  118.000
303.327;  -43.900; -341.000; -256.000
303.465; -146.700; -832.000; -588.000
303.603; -197.900; -805.000; -604.000
303.740;  264.000;  417.000;  241.000
303.878;  -12.200; -800.000; -759.000
304.016; -160.700; -915.000; -790.000
304.154; -263.500;-1123.000;-1152.000
304.291;  -66.200; -505.000; -554.000
304.429;   43.200;  102.000;   74.000
304.567; -247.900; -908.000; -893.000
304.705; -120.200; -408.000; -515.000
304.842;  129.700; -616.000; -540.000
304.980;  115.600;  215.000;   35.000
305.118;  100.700; -367.000; -365.000
305.255; -166.600; -945.000; -927.000
305.393;  151.600;  178.000;  239.000
305.531; -242.400;-1173.000; -956.000
305.668; -101.400; -663.000; -582.000
305.806;  152.800; -358.000; -439.000
305.943;  173.000; -629.000; -637.000
306.081;   83.500; -378.000; -267.000
306.219; -184.600; -863.000; -748.000
306.356;   53.700;  158.000;   27.000
306.494;  289.100;  981.000;  761.000
306.631;   27.600;  -11.000;  -55.000
306.769;    6.800; -613.000; -485.000
306.906;  -19.700; -284.000; -258.000
307.044;  -97.100; -473.000; -488.000
307.181; -101.900; -410.000; -332.000
307.319;  112.300;  112.000;   87.000
307.456; -345.900;-1191.000;-1153.000
307.594; -189.500; -980.000; -727.000
307.731;   16.200; -371.000; -164.000
307.868;   23.800;  -15.000;   20.000
308.006; -275.500; -961.000; -847.000
308.143; -101.400; -618.000; -330.000
308.281;  408.100;  -37.000; -254.000
308.418;   51.900; -748.000; -640.000
308.555; -119.700; -400.000; -250.000
308.693; -110.300; -577.000; -573.000
308.830; -196.600; -712.000; -657.000
308.967;   25.300; -215.000;  -95.000
309.105;  -79.900; -507.000; -396.000
309.242;  134.100; -468.000; -367.000
309.379;  779.500; -577.000; -655.000
309.517;  -37.900; -936.000; -948.000
309.654; -203.400; -910.000; -734.000
309.791; -106.800; -662.000; -580.000
309.928; -219.400; -977.000; -914.000
310.065;  379.800;  819.000;  697.000
310.203;  -31.100; -825.000; -850.000
310.340;   12.900; -465.000; -321.000
310.477; -133.600; -412.000; -516.000
310.614; -115.900; -383.000; -473.000
310.751; -145.900; -427.000; -518.000
310.889;  -18.200;    1.000;   11.000
311.026; -271.400;-1161.000; -939.000
311.163;  -65.300; -386.000; -380.000
311.300; -135.500; -512.000; -479.000
311.437; -128.500; -658.000; -619.000
311.574; -312.700;-1226.000; -985.000
311.711;  -84.500; -595.000; -433.000
311.848;  -43.500; -380.000; -388.000
311.985;   89.300;  270.000;   93.000
312.122; -210.200; -932.000; -762.000
312.259; -186.400; -941.000; -994.000
312.396; -119.400; -508.000; -551.000
312.533; -125.300; -812.000; -790.000
312.670; -236.500;-1070.000; -898.000
312.807;  -21.400; -352.000; -367.000
312.944; -142.500; -513.000; -611.000
313.081;  -33.500; -150.000; -415.000
313.218; -200.700;-1111.000; -867.000
313.355;   55.200; -531.000; -449.000
313.492;   13.800; -455.000; -292.000
313.629;  318.500;  815.000;  735.000
313.766; -329.000;-1176.000;-1008.000
313.902;   15.500; -186.000;   21.000
314.039;  -94.300; -372.000; -289.000
314.176;   99.900;  286.000;  192.000
314.313; -162.700; -569.000; -473.000
314.450; -127.200; -788.000; -684.000
314.587; -121.600; -468.000; -480.000
314.723;   33.700;  -78.000;  130.000
314.860;   99.000;  318.000;  332.000
314.997;  108.900;  223.000;  142.000
315.134;  -68.300; -385.000; -368.000
315.270;   -7.800; -480.000; -496.000
315.407; -246.300;-1094.000; -967.000
315.544;  -86.200; -657.000; -538.000
315.681; -108.900; -681.000; -565.000
315.817;   76.700; -133.000; -176.000
315.954;   -5.400; -613.000; -392.000
316.091; -254.700;-1045.000;-1023.000
316.227;  -74.700;  -71.000; -179.000
316.364;   39.400;   23.000;    6.000
316.500;  -64.500; -113.000; -300.000
316.637;  -75.100; -181.000; -302.000
316.774; -160.000; -625.000; -358.000
316.910; -193.000; -598.000; -629.000
317.047; -171.800; -487.000; -351.000
317.183;  -81.600; -435.000; -566.000
317.320;  -13.600; -367.000; -321.000
317.456; -120.800; -733.000; -805.000
317.593; -170.700; -598.000; -641.000
317.729;   44.700;  168.000;  -67.000
317.866; -418.000;-1434.000;-1285.000
318.002; -144.800; -708.000; -948.000
318.139; -183.600; -883.000; -867.000
318.275; -166.900;-1003.000; -738.000
318.412; -118.000; -517.000; -336.000
318.548;  -64.200; -751.000; -720.000
318.685; -196.900; -985.000; -888.000
318.821; -150.100; -762.000; -735.000
318.957;  -20.600;   34.000;  -23.000
319.094;  121.100;  297.000;  154.000
319.230; -144.200; -756.000; -742.000
319.367;  211.900; -471.000; -520.000
319.503;  101.000; -538.000; -436.000
319.639; -148.100; -877.000; -793.000
319.775; -115.800; -750.000; -685.000
319.912;  -62.800; -424.000; -519.000
320.048; -187.100;-1184.000;-1184.000
320.184;  182.100;   59.000;   70.000
320.321; -114.800; -497.000; -467.000
320.457;  180.700;  475.000;  662.000
320.593; -119.700; -375.000; -382.000
320.729; -186.600; -732.000; -734.000
320.866; -110.200; -577.000; -635.000
321.002; -162.400; -759.000; -809.000
321.138;   14.100; -135.000; -211.000
321.274;  178.800; -148.000; -115.000
321.410;  -52.600; -585.000; -353.000
321.546;  -57.500;-1011.000; -911.000
321.683;  145.400;  400.000;  185.000
321.819;   29.400;  -48.000; -117.000
321.955; -199.200; -743.000; -722.000
322.091;  -80.900; -585.000; -540.000
322.227;  -15.100; -382.000; -202.000
322.363;  -11.400; -320.000; -215.000
322.499;  -77.300; -343.000; -331.000
322.635;  320.200;  636.000;  443.000
322.771;   57.100; -139.000;   12.000
322.907;  211.100;  129.000;  327.000
323.043;  -40.000; -115.000; -206.000
323.179;  -70.600; -394.000; -363.000
323.315;   12.800; -401.000; -371.000
323.451;  192.900; -328.000; -236.000
323.587;  122.800;  -60.000;  -77.000
323.723;   21.500; -682.000; -601.000
323.859;  -22.700; -258.000;  -76.000
323.995;  -57.200; -467.000; -409.000
324.131; -239.500; -967.000; -892.000
324.267;  -44.700; -254.000; -276.000
324.402; -276.200; -960.000; -983.000
324.538;  -25.900; -279.000; -104.000
324.674;   35.600;  164.000;   77.000
324.810;  281.500;  226.000;  308.000
324.946;   41.100; -810.000; -658.000
325.082; -116.800; -568.000; -475.000
325.217;    5.500;  -62.000;   16.000
325.353; -163.700; -764.000; -659.000
325.489; -154.400; -540.000; -506.000
325.625; -140.800; -579.000; -525.000
325.760;  142.900;  517.000;  376.000
325.896;  -46.900; -515.000; -702.000
326.032; -127.600; -403.000; -352.000
326.168; -110.000; -462.000; -369.000
326.303; -118.100; -352.000; -461.000
326.439;   28.600; -336.000; -276.000
326.575;   18.200; -190.000;  -29.000
326.710;    0.200; -156.000;  -30.000
326.846;    2.000;  146.000;  103.000
326.982; -166.100; -530.000; -548.000
327.117; -143.400; -481.000; -442.000
327.253; -151.300; -745.000; -742.000
327.388; -331.400;-1137.000;-1153.000
327.524;  -60.900; -811.000; -578.000
327.659;  -11.100;  -58.000;  -22.000
327.795;  -21.600;   69.000;   45.000
327.931; -183.800; -723.000; -499.000
328.066;  -26.100; -417.000; -276.000
328.202;   18.400;   12.000; -129.000
328.337;  270.700;  957.000;  713.000
328.473;  -25.600;  -12.000;  -74.000
328.608;   -4.400; -256.000; -267.000
328.743; -157.600; -799.000; -664.000
328.879;   97.400;  214.000;  114.000
329.014;  -91.000; -102.000; -122.000
329.150; -142.000; -358.000; -483.000
329.285; -124.600; -465.000; -466.000
329.421;  -61.500; -548.000; -246.000
329.556;  -20.000;  -36.000;   85.000
329.691; -148.400; -633.000; -615.000
329.827; -172.200; -626.000; -480.000
329.962;  -16.600;  131.000; -301.000
330.097; -166.000; -673.000; -585.000
330.233;  -53.200; -410.000; -223.000
330.368; -220.700; -839.000; -628.000
330.503;    4.800;    3.000;   98.000
330.638;   27.600;  -93.000; -125.000
330.774;  -68.500; -609.000; -530.000
330.909;  -64.100; -434.000; -244.000
331.044; -160.700; -714.000; -708.000
331.179; -333.200;-1217.000;-1109.000
331.315;   53.800;   77.000;   20.000
331.450;   37.500;  157.000;  285.000
331.585; -180.900; -805.000; -706.000
331.720; -166.500; -510.000; -460.000
331.855;   10.900;  -35.000; -102.000
331.990;  509.200;   62.000;  138.000
332.126;  288.500; -110.000;   71.000
332.261;  -41.200; -379.000; -265.000
332.396;   57.800; -135.000; -242.000
332.531; -194.600;-1074.000;-1031.000
332.666;  106.300; -519.000; -363.000
332.801; -171.100; -726.000; -807.000
332.936;  -13.100; -192.000; -122.000
333.071; -290.600; -870.000; -817.000
333.206;   91.700;  307.000;  379.000
333.341;   78.900;  344.000;  418.000
333.476; -176.700; -627.000; -623.000
333.611;  -55.400; -251.000; -173.000
333.746;  -51.700; -381.000; -464.000
333.881; -228.700; -973.000; -935.000
334.016; -234.400; -936.000; -917.000
334.151; -222.300; -746.000; -702.000
334.286;   92.200;  152.000;  186.000
334.421;    0.800; -125.000; -178.000
334.556; -137.400; -611.000; -567.000
334.690; -161.500; -631.000; -577.000
334.825;  133.700;  381.000;   83.000
334.960; -123.100; -285.000; -413.000
335.095;   76.100;  135.000;  -91.000
335.230; -190.900; -722.000; -738.000
335.365; -249.300;-1084.000; -990.000
335.499; -279.100;-1108.000;-1037.000
335.634;   81.800;    9.000;  534.000
335.769; -172.900; -755.000; -720.000
335.904; -123.000; -603.000; -561.000
336.038; -114.900; -735.000; -657.000
336.173; -241.700;-1206.000;-1194.000
336.308;   13.200; -116.000; -189.000
336.443;   56.800; -544.000; -634.000
336.577; -149.500; -936.000; -787.000
336.712;  140.100;   -4.000;  -12.000
336.847; -107.800; -724.000; -607.000
336.981;  139.300; -272.000; -208.000
337.116;  498.600;  615.000;  501.000
337.250;  258.600; -434.000; -421.000
337.385;  451.800; -297.000; -208.000
337.520;  208.600; -632.000; -603.000
337.654;  -83.700; -215.000; -126.000
337.789; -237.800; -989.000; -933.000
337.923;  -56.700; -104.000; -205.000
338.058; -152.100; -673.000; -738.000
338.192;  -83.200; -611.000; -488.000
338.327;   34.500;  -18.000; -155.000
338.461; -149.600; -299.000; -469.000
338.596; -150.200; -780.000; -638.000
338.730; -195.400; -767.000; -803.000
338.865;  191.600;  -46.000; -140.000
338.999;  -86.300; -846.000; -702.000
339.134;  -48.500; -634.000; -536.000
339.268;  -16.000; -741.000; -603.000
339.403;  659.600; -740.000; -775.000
339.537;  175.200; -894.000; -820.000
339.671; -165.800; -829.000; -813.000
339.806; -162.200; -556.000; -512.000
339.940;   51.500; -261.000; -235.000
340.074; -200.300; -685.000; -510.000
340.209;  -54.900; -351.000; -230.000
340.343; -163.100; -517.000; -573.000
340.477;  380.100;  998.000; 1036.000
340.612;  -96.500;-1033.000; -900.000
340.746;  309.100; -199.000; -243.000
340.880; -138.100; -924.000; -785.000
341.014;   14.300;  -45.000; -154.000
341.149; -203.000; -756.000; -718.000
341.283; -184.500; -839.000; -754.000
341.417; -216.500;-1124.000; -938.000
341.551;  234.700; -768.000; -708.000
341.685;  -62.900; -633.000; -611.000
341.820;  -98.300; -562.000; -493.000
341.954;  -58.500; -218.000; -349.000
342.088; -288.800;-1102.000;-1019.000
342.222;   97.200;  565.000;  618.000
342.356; -105.800; -395.000; -335.000
342.490; -153.100; -880.000; -841.000
342.624;  -64.300; -339.000; -242.000
342.758;   -1.800; -364.000; -312.000
342.892; -100.600; -710.000; -585.000
343.026;  -57.300;  -58.000; -116.000
343.160;  -81.000; -426.000; -376.000
343.294; -129.600; -474.000; -337.000
343.428;  -22.300; -488.000; -448.000
343.562;    0.600; -172.000;  -23.000
343.696;  -43.100; -385.000; -314.000
343.830;  -22.200; -362.000; -356.000
343.964;   38.700; -231.000; -168.000
344.098; 1473.300;  199.000;   70.000
344.232; 1269.300; -266.000; -127.000
344.366;  147.400; -567.000; -453.000
344.500;  119.800; -665.000; -744.000
344.634;   39.800; -324.000; -164.000
344.768;   -8.500; -531.000; -341.000
344.902;   74.600;  278.000;  256.000
345.035; -114.800; -556.000; -496.000
345.169; -240.100; -933.000; -656.000
345.303;  -15.000; -308.000; -482.000
345.437; -170.700; -826.000; -717.000
345.571; -124.400; -675.000; -594.000
345.704; -120.800; -309.000; -532.000
345.838;   30.400; -331.000; -284.000
345.972;  -81.200; -543.000; -495.000
346.106;  320.900; -179.000; -190.000
346.239;  750.400; -312.000; -243.000
346.373;   22.700; -343.000; -302.000
346.507; -283.200; -950.000; -962.000
346.640;  267.400;  -30.000;   13.000
346.774;  -89.500; -650.000; -797.000
346.908;   29.000; -138.000;  -11.000
347.041; -166.800; -646.000; -593.000
347.175;   71.400;  259.000;   27.000
347.309; -146.500; -698.000; -628.000
347.442; -188.200; -883.000; -732.000
347.576;  478.500;  670.000;  668.000
347.709;  360.200; -123.000;  -52.000
347.843; -187.600; -933.000; -825.000
347.976;  121.100;  235.000;  294.000
348.110; -361.400;-1268.000;-1186.000
348.243; -173.300; -679.000; -772.000
348.377;   46.500;  -26.000;   60.000
348.510;  170.400;  403.000;  540.000
348.644;  -35.600;  -37.000; -159.000
348.777;   59.400;  180.000;  191.000
348.911;  -66.200; -142.000; -112.000
349.044;  371.800;  471.000;  448.000
349.178;  206.000;-1069.000;-1006.000
349.311;  275.800;  141.000;  255.000
349.444;  -50.500; -927.000; -813.000
349.578;   -2.500; -347.000; -200.000
349.711; -223.800; -959.000; -862.000
349.845;  -13.900; -661.000; -591.000
349.978; -301.200;-1224.000;-1137.000
350.111; -138.000; -546.000; -612.000
350.244; -173.500; -596.000; -700.000
350.378;    4.700; -392.000; -393.000
350.511; -106.700; -393.000; -426.000
350.644; -199.400; -808.000; -806.000
350.778;   40.200;  168.000;  104.000
350.911;   50.100;  134.000;  140.000
351.044; -154.400; -685.000; -615.000
351.177;    2.400; -321.000; -281.000
351.310;  -34.200;    3.000; -131.000
351.444; -147.500; -888.000; -788.000
351.577;  219.500;  140.000;   90.000
351.710;  244.600;  593.000;  417.000
351.843;  -35.200; -165.000;  -77.000
351.976;   31.900;  149.000;  -79.000
352.109; -156.200; -621.000; -612.000
352.242;   -1.100; -464.000; -419.000
352.376; -126.900; -580.000; -636.000
352.509;  293.000; -437.000; -356.000
352.642;   -8.800; -654.000; -604.000
352.775;  129.300; -141.000;  -98.000
352.908; -210.900; -933.000; -904.000
353.041; -217.900; -814.000; -824.000
353.174;  -66.800; -551.000; -424.000
353.307; -138.200; -753.000; -764.000
353.440;  194.900;  541.000;  453.000
353.573; -194.000; -957.000;-1008.000
353.706;  -94.700; -384.000; -558.000
353.839;    5.900; -264.000; -220.000
353.971; -170.200; -657.000; -512.000
354.104; -147.300; -896.000; -835.000
354.237;  -91.500; -627.000; -662.000
354.370; -115.600; -846.000; -879.000
354.503; -359.500;-1231.000;-1308.000
354.636;  -19.100; -529.000; -348.000
354.769; -275.700; -937.000; -860.000
354.902;    9.900; -230.000; -139.000
355.034;  -38.400; -164.000; -220.000
355.167;   18.600; -262.000; -162.000
355.300; -201.400;-1061.000; -880.000
355.433; 1895.100;  -71.000;  -14.000
355.565; 2751.700; -402.000; -384.000
355.698;  738.900; -356.000; -296.000
355.831;  -15.500; -882.000; -801.000
355.964;  169.400; -285.000; -170.000
356.096; -172.700; -856.000; -843.000
356.229;    7.400; -523.000; -530.000
356.362;  570.800; -373.000; -266.000
356.494; 1125.900; -229.000; -162.000
356.627;  836.500;  269.000;  377.000
356.760; 1254.500;  120.000;   53.000
356.892; 1745.600; -286.000; -601.000
357.025; 1149.300;  403.000;  389.000
357.157; 1029.400; -167.000; -179.000
357.290; 1240.700; -856.000; -713.000
357.423;  383.400; -667.000; -556.000
357.555;  264.300; -217.000; -228.000
357.688;  200.100; -483.000; -364.000
357.820;  732.500; -870.000; -877.000
357.953; 6098.900; -563.000; -589.000
358.085; 1247.600; -632.000; -612.000
358.218; 1801.900;-1131.000; -932.000
358.350;  427.000;  -58.000;  312.000
358.483; -267.100;-1300.000;-1187.000
358.615;  -33.400;-1182.000;-1078.000
358.747; -166.800;-1187.000;-1058.000
358.880;   32.200; -810.000; -744.000
359.012;  -12.400; -376.000; -202.000
359.145;  -23.800; -480.000; -511.000
359.277;   52.400; -962.000; -913.000
359.409; 5131.100;  536.000;  231.000
359.542; 1265.900; -738.000; -688.000
359.674;  151.200;   46.000;   13.000
359.806; -118.500; -565.000; -438.000
359.939;  -75.900; -617.000; -516.000
360.071;   17.300; -583.000; -579.000
360.203;   -1.200; -411.000; -364.000
360.335;  129.700;  164.000;  -16.000
360.468;  370.600; -249.000; -307.000
360.600; 4129.600; -547.000; -454.000
360.732; 5190.800; -546.000; -423.000
360.864;  641.800;-1216.000;-1044.000
360.996;  473.600; -516.000; -554.000
361.129;   60.400; -389.000; -598.000
361.261;   70.200;  110.000; -113.000
361.393;  -18.700; -252.000; -214.000
361.525;  108.000;   94.000;  244.000
361.657; -101.600; -821.000; -703.000
361.789;   90.000; -139.000; -155.000
361.921;  350.800; -642.000; -593.000
362.053;  488.700;  524.000;  541.000
362.185;  131.200;  288.000;   72.000
362.318; -158.000; -709.000; -705.000
362.450;  232.700;  294.000;  444.000
362.582;  133.700; -913.000; -870.000
362.714;  -50.400; -353.000; -332.000
362.846; -140.900; -606.000; -490.000
362.978; -266.300; -941.000; -811.000
363.109;  101.000; -161.000; -260.000
363.241;  720.200; -739.000; -749.000
363.373;  873.800; -649.000; -564.000
363.505; 1278.800; -186.000;  -91.000
363.637;  277.600; -787.000; -601.000
363.769; -234.000;-1067.000;-1080.000
363.901; -105.700; -596.000; -654.000
364.033; -227.000;-1103.000;-1062.000
364.165;   44.300; -283.000; -283.000
364.296;  135.100; -316.000; -177.000
364.428;  155.700;-1344.000;-1220.000
364.560; -103.000; -679.000; -661.000
364.692;  -61.400; -738.000; -835.000
364.824;  415.800; -588.000; -456.000
364.955;  793.600; -402.000; -564.000
365.087; 1699.400;-1097.000; -852.000
365.219;   79.500; -686.000; -816.000
365.351; -127.600; -526.000; -572.000
365.482;  172.200;  300.000;  240.000
365.614;  -56.600; -402.000; -314.000
365.746; -157.700; -729.000; -752.000
365.877; -199.200; -706.000; -672.000
366.009;  553.300;  -35.000;  -62.000
366.141; -157.700;-1249.000;-1134.000
366.272; -149.800; -803.000; -719.000
366.404; -196.800;-1005.000; -874.000
366.535;   47.900; -139.000;  -12.000
366.667; -175.000; -644.000; -649.000
366.799;  154.000;  353.000;  203.000
366.930; -219.800; -862.000; -996.000
367.062;  279.600; -639.000; -613.000
367.193;  271.600; -872.000; -842.000
367.325;  -66.800; -580.000; -684.000
367.456;  116.500; -246.000;   31.000
367.588;  317.400; -371.000; -318.000
367.719;   55.300;  -44.000;  -45.000
367.851;    3.500; -222.000; -241.000
367.982;  -88.200; -875.000; -732.000
368.113;  189.000; -475.000; -358.000
368.245; -227.200; -960.000; -841.000
368.376;  -10.700; -254.000; -302.000
368.508;  -26.700; -188.000; -263.000
368.639; -240.800;-1166.000;-1034.000
368.770;  -51.600; -670.000; -589.000
368.902; -108.400; -836.000; -926.000
369.033; -195.000; -906.000; -855.000
369.164;  -74.100; -720.000; -653.000
369.296; -206.300; -452.000; -601.000
369.427;   27.100; -209.000; -144.000
369.558;  -80.400; -593.000; -377.000
369.689; -132.300; -721.000; -569.000
369.821; -246.700; -951.000; -845.000
369.952;   21.700;   42.000; -108.000
370.083;  -64.000; -229.000; -108.000
370.214; -126.500; -735.000; -650.000
370.345;   44.700;   65.000;   81.000
370.477; -133.900; -810.000; -790.000
370.608;  390.300; -328.000; -264.000
370.739; -134.100;-1233.000;-1292.000
370.870;  -72.800;-1102.000; -923.000
371.001;  199.800; -378.000; -467.000
371.132; -135.700; -754.000; -735.000
371.263;  -13.000;  -42.000; -148.000
371.394; -234.100; -841.000; -748.000
371.525;   97.700;  345.000;  225.000
371.657; -147.900; -808.000; -670.000
371.788;  158.800;  103.000;  199.000
371.919;  317.400; -384.000; -304.000
372.050; 6108.400;  -91.000; -156.000
372.181; 1773.300; -188.000; -294.000
372.311;  633.200;   42.000; -127.000
372.442;   43.300; -457.000; -451.000
372.573;   11.700; -444.000; -340.000
372.704; -243.600;-1008.000; -980.000
372.835;  176.600; -228.000; -289.000
372.966; -112.300; -646.000; -554.000
373.097; -117.900; -575.000; -711.000
373.228;  -71.400; -717.000; -542.000
373.359;  193.600; -824.000; -536.000
373.490; 1566.200; -881.000; -727.000
373.620; 1887.500;-1001.000; -803.000
373.751; 2952.900; -332.000; -396.000
373.882; 1274.800; -663.000; -733.000
374.013;  124.000; -449.000; -262.000
374.143;  -87.500; -581.000; -659.000
374.274; -172.700; -987.000; -908.000
374.405;  329.700; -388.000; -276.000
374.536;  711.500; -526.000; -387.000
374.666; 1798.200; -759.000; -807.000
374.797;  340.700; -817.000; -868.000
374.928; 1415.200; -710.000; -560.000
375.058; 1376.900; -535.000; -500.000
375.189;  176.500;  -59.000;  -93.000
375.320; -230.700; -928.000;-1034.000
375.450;  -50.700; -625.000; -616.000
375.581;  -64.000; -526.000; -436.000
375.712;  -44.400; -574.000; -250.000
375.842;  537.400; -438.000; -415.000
375.973;  398.000; -554.000; -513.000
376.103;  -68.600; -665.000; -648.000
376.234;  -86.400; -531.000; -552.000
376.364;  -56.900; -944.000; -867.000
376.495;  647.200;  925.000;  529.000
376.625;   10.900; -472.000; -485.000
376.756;  131.500; -709.000; -678.000
376.886; -163.100;-1178.000;-1026.000
377.017;  146.100;-1048.000;-1061.000
377.147;  658.300; -786.000; -782.000
377.278;  163.400;  174.000;  228.000
377.408; -214.800; -801.000; -815.000
377.538; -186.600; -707.000; -693.000
377.669; -133.000; -537.000; -613.000
377.799; -118.000; -645.000; -635.000
377.929;  -85.500; -610.000; -428.000
378.060; -228.700; -781.000; -847.000
378.190;  -88.500; -726.000; -531.000
378.320;  -40.900; -401.000; -406.000
378.451;    4.700; -131.000;  -22.000
378.581;   43.800;  -67.000; -110.000
378.711;  373.300; 1035.000;  866.000
378.841;  -19.500; -533.000; -675.000
378.972; -186.600; -871.000; -751.000
379.102;    9.900; -652.000; -579.000
379.232;   -3.500; -126.000;  -73.000
379.362; -195.300;-1001.000; -885.000
379.492;   30.500; -373.000; -424.000
379.623;  243.500;    0.000;  111.000
379.753; -209.300;-1107.000; -974.000
379.883;  387.700;   59.000;  156.000
380.013;  -26.800;-1081.000;-1017.000
380.143; -195.800;-1097.000;-1056.000
380.273; -183.500; -985.000; -861.000
380.403;   45.600; -344.000; -257.000
380.533;  -71.600; -651.000; -664.000
380.663;  186.900;  173.000;  128.000
380.793; -206.900;-1027.000;-1074.000
380.923;   40.600; -103.000;  -34.000
381.053; -167.900; -613.000; -623.000
381.183;  -20.900; -106.000; -248.000
381.313;   66.600; -656.000; -470.000
381.443;   74.400; -692.000; -473.000
381.573;  328.800; -402.000; -409.000
381.703;  441.500;-1249.000;-1095.000
381.833; -252.000;-1454.000;-1336.000
381.963;  239.700; -134.000;  -87.000
382.093; 2355.800; -925.000; -909.000
382.223;  692.000; -713.000; -602.000
382.353;  -57.800; -801.000; -608.000
382.482;  574.300;-1091.000; -964.000
382.612; 1263.600; -872.000; -644.000
382.742;  705.500; -695.000; -622.000
382.872;  398.100; -565.000; -551.000
383.002;  179.400;  347.000; -132.000
383.131;  -28.800; -226.000; -160.000
383.261;  -90.300; -706.000; -768.000
383.391;  556.600; -552.000; -377.000
383.521; 6038.700;  451.000;  263.000
383.650; 1304.500; -947.000; -904.000
383.780;  -13.300; -783.000; -656.000
383.910;  288.400;  880.000;  802.000
384.039;   48.700; -794.000; -656.000
384.169;  324.200;-1205.000;-1017.000
384.299;  -23.200; -650.000; -662.000
384.428; -155.100; -764.000; -680.000
384.558;  -28.400; -308.000; -275.000
384.687;  -76.400; -414.000; -334.000
384.817;   70.000;   75.000;   -2.000
384.947;   80.700; -234.000; -141.000
385.076;  574.700;  982.000;  912.000
385.206;  223.300;  369.000;  480.000
385.335;  -36.400; -549.000; -417.000
385.465; -148.200; -655.000; -663.000
385.594;  312.800;  -53.000;  -44.000
385.724;  663.000; -868.000; -838.000
385.853;  262.300; -296.000; -270.000
385.982; 2362.100; -743.000; -787.000
386.112; 3424.700;-1052.000; -871.000
386.241;  205.200; -307.000; -312.000
386.371;   84.200; -174.000;  -87.000
386.500;   -7.400; -825.000; -789.000
386.629;   47.200; -874.000; -817.000
386.759;  173.300;  -43.000;   68.000
386.888;   33.900; -170.000; -250.000
387.017; -121.300; -648.000; -620.000
387.147; -124.900; -771.000; -798.000
387.276;  -16.200; -410.000; -397.000
387.405;   49.700; -398.000; -342.000
387.535;  -84.400; -452.000; -361.000
387.664;  -41.800; -692.000; -620.000
387.793;  139.500; -198.000; -113.000
387.922;  901.600;  255.000;  200.000
388.052;    8.100; -576.000; -423.000
388.181;   59.800; -342.000; -472.000
388.310;   -6.900; -889.000; -710.000
388.439;  -78.000; -749.000; -742.000
388.568;  338.000;  365.000;  244.000
388.697; 1720.800; -756.000; -653.000
388.826;  312.900; -768.000; -666.000
388.956;  127.000; -285.000; -307.000
389.085;  -48.900; -347.000; -287.000
389.214; -172.800; -842.000; -872.000
389.343;  -76.700; -645.000; -413.000
389.472;  825.900;  126.000;  149.000
389.601;  996.700;   91.000;    0.000
389.730;   63.800; -568.000; -687.000
389.859;  172.900;  226.000;   46.000
389.988;  348.500; -423.000; -408.000
390.117;  271.500; -168.000; -146.000
390.246;   35.300; -331.000; -320.000
390.375;  149.100; -673.000; -626.000
390.504; -103.900; -703.000; -621.000
390.633; -161.800; -672.000; -726.000
390.761;  -91.300; -732.000; -645.000
390.890;   72.700;   -4.000; -130.000
391.019;   -8.400; -421.000; -441.000
391.148; -223.300; -826.000; -855.000
391.277; -101.200; -576.000; -493.000
391.406; -140.800; -821.000; -805.000
391.534;  117.000;  574.000; -301.000
391.663; -106.900; -583.000; -645.000
391.792; -130.500; -673.000; -701.000
391.921;  209.100;   -3.000;   15.000
392.050;  314.600; -287.000; -228.000
392.178; -135.500;-1206.000;-1061.000
392.307;  271.100; -758.000; -712.000
392.436;  111.100; -427.000; -641.000
392.564;  110.800;  166.000;   -6.000
392.693; -189.400; -860.000; -682.000
392.822;  413.900; -529.000; -534.000
392.950;  107.700; -880.000; -714.000
393.079;  584.100; -188.000; -328.000
393.208;   28.200; -488.000; -511.000
393.336;   35.100; -170.000; -145.000
393.465;  -47.700; -317.000; -199.000
393.593;   59.900;   62.000;   79.000
393.722; -258.200;-1121.000; -916.000
393.850;   -5.300; -188.000;  -61.000
393.979; -246.000; -926.000; -805.000
394.107;  -82.800; -517.000; -537.000
394.236;  -48.400; -570.000; -507.000
394.364;  530.200;  383.000;  206.000
394.493;  789.700; -911.000; -767.000
394.621;   49.000; -955.000; -916.000
394.750; 1378.300; -873.000; -923.000
394.878; 5748.600; -247.000; -149.000
395.007; 7355.000; -721.000; -807.000
395.135;  551.500; -790.000; -721.000
395.263; -188.900;-1038.000;-1040.000
395.392;   71.200;  -25.000; -107.000
395.520; -242.900; -818.000; -679.000
395.648; -165.700; -865.000; -915.000
395.777;    9.100; -366.000; -405.000
395.905;  -38.600; -449.000; -564.000
396.033;   93.100;  217.000;  172.000
396.162; 1420.700; -399.000; -453.000
396.290; 1139.600;  -17.000;   -2.000
396.418;  203.000; -555.000; -514.000
396.546; -156.700; -571.000; -466.000
396.674; -134.500; -850.000; -878.000
396.803;   61.700;  -72.000;  -23.000
396.931;  188.900; -179.000; -199.000
397.059;   -2.300;-1026.000; -989.000
397.187; -182.500;-1026.000; -975.000
397.315; -238.300; -884.000; -649.000
397.443; -132.700; -592.000; -443.000
397.572; -171.700; -578.000; -424.000
397.700;  -11.000; -607.000; -614.000
397.828;   13.200;  120.000;  -90.000
397.956;  -21.500; -508.000; -478.000
398.084; -113.300; -767.000; -626.000
398.212;  113.900;  137.000;  124.000
398.340;   70.200;  -56.000;  159.000
398.468;   91.300; -390.000; -169.000
398.596; -268.900; -993.000; -953.000
398.724; -180.400; -762.000; -767.000
398.852; -306.200;-1024.000; -976.000
398.980;  -57.100; -560.000; -560.000
399.108; -103.200; -982.000; -735.000
399.236;   83.600;   13.000;    8.000
399.363;   43.000;  222.000;  196.000
399.491;  -71.600; -404.000; -398.000
399.619; -246.300; -829.000; -800.000
399.747; -185.300; -859.000; -771.000
399.875;  184.600;  220.000;  234.000
400.003;  -63.300; -359.000; -284.000
400.130; -112.200; -421.000; -341.000
400.258;   -5.900;  -83.000;   38.000
400.386;  -89.200; -352.000; -168.000
400.514;  -75.200; -526.000; -587.000
400.641; -205.900; -928.000; -802.000
400.769; -231.100; -979.000; -888.000
400.897; -185.500; -838.000; -793.000
401.025;    4.600; -166.000; -152.000
401.152;   82.900;  220.000;   38.000
401.280; -102.300; -430.000; -429.000
401.408; -228.400; -712.000; -576.000
401.535; -154.500; -735.000; -758.000
401.663; -338.500;-1134.000;-1054.000
401.790; -117.300; -514.000; -525.000
401.918;  149.800;  436.000;  405.000
402.046;   23.100;  134.000;  122.000
402.173;  -17.900;  -18.000;    7.000
402.301; -101.700; -519.000; -397.000
402.428;  121.500;  528.000;  383.000
402.556; -260.000;-1188.000; -913.000
402.683;   -9.600;  -20.000;   -1.000
402.811;    8.900;  -37.000; -206.000
402.938;   26.500;   20.000;   27.000
403.066;  331.400; -574.000; -558.000
403.193;  555.300;  299.000;  239.000
403.321;  421.900; -396.000; -574.000
403.448;  537.600;   83.000;   27.000
403.575;  295.400;  -90.000;  -46.000
403.703; -159.700; -732.000; -557.000
403.830;  -93.600; -531.000; -496.000
403.957; -249.400;-1117.000;-1023.000
404.085;   98.900;  -61.000; -172.000
404.212;  228.400;  -50.000;   63.000
404.339;  537.300; -566.000; -306.000
404.467;11295.000; -612.000; -524.000
404.594; 6804.000; -287.000; -227.000
404.721; 1485.100; -869.000; -764.000
404.848;  209.300; -113.000; -202.000
404.976; -170.600; -856.000; -783.000
405.103;   12.400;  -14.000;  -82.000
405.230;   63.000;  190.000;  226.000
405.357;  106.600;  117.000;   44.000
405.484;  555.900;  -49.000;    5.000
405.612;  157.100; -548.000; -563.000
405.739;  -90.700; -488.000; -243.000
405.866;  249.100;  669.000;  385.000
405.993;  -90.600; -398.000; -102.000
406.120; -220.700; -801.000; -887.000
406.247;  -85.000; -323.000; -342.000
406.374;  867.400;  540.000;  629.000
406.501;  178.600; -632.000; -702.000
406.628; -108.300; -621.000; -589.000
406.755; -164.400; -803.000; -620.000
406.882;  -39.500; -228.000; -277.000
407.009; -169.600; -719.000; -628.000
407.136;  133.000; -480.000; -401.000
407.263;  185.900; -939.000; -829.000
407.390; -109.500; -692.000; -614.000
407.517; -298.000;-1139.000;-1187.000
407.644;  -73.200; -332.000; -256.000
407.771; -107.400; -249.000; -287.000
407.898;   81.000;  168.000;  328.000
408.025; -107.500; -421.000; -313.000
408.151;   60.300;   82.000;  153.000
408.278;  -84.700; -267.000; -216.000
408.405; -207.800; -931.000; -899.000
408.532;  -95.100; -549.000; -542.000
408.659; -186.900; -677.000; -648.000
408.785; -348.500;-1298.000;-1170.000
408.912;  -88.900; -412.000; -296.000
409.039; -217.500; -610.000; -686.000
409.166; -137.700; -591.000; -555.000
409.292; -162.300; -571.000; -534.000
409.419; -178.200; -665.000; -649.000
409.546; -127.000; -431.000; -192.000
409.672; -170.600; -713.000; -545.000
409.799;   -5.900;  -36.000;   34.000
409.926;  -35.700; -180.000; -179.000
410.052; -296.200;-1127.000;-1091.000
410.179;  -45.400; -368.000; -392.000
410.305; -129.600; -375.000; -493.000
410.432;  -45.200; -220.000; -333.000
410.558; -107.500; -305.000; -380.000
410.685; -140.900; -688.000; -431.000
410.812; -185.300; -409.000; -588.000
410.938; -208.600; -964.000; -808.000
411.065; -138.500; -671.000; -645.000
411.191;   19.800; -189.000; -174.000
411.317; -182.200; -823.000; -742.000
411.444;  -47.900; -317.000; -246.000
411.570;  -89.900; -339.000; -294.000
411.697; -204.100; -758.000; -752.000
411.823; -316.600; -989.000; -999.000
411.949;   -0.300;  -56.000;   17.000
412.076; -176.400; -539.000; -519.000
412.202; -163.600; -758.000; -757.000
412.329; -219.900; -798.000; -752.000
412.455; -189.000; -821.000; -657.000
412.581;   -7.900;  -15.000;  172.000
412.707;  -70.200; -540.000; -457.000
412.834;   85.400;  156.000;  219.000
412.960; -119.200; -785.000; -784.000
413.086; -147.900; -743.000; -701.000
413.212;  325.700;  604.000;  578.000
413.339; -135.900; -685.000; -701.000
413.465;   62.000; -364.000; -310.000
413.591; -154.900; -757.000; -474.000
413.717;  -68.400; -358.000; -366.000
413.843; -269.000; -839.000; -861.000
413.969;  -42.400;  -47.000; -292.000
414.096; -187.000; -679.000; -679.000
414.222;   63.500;  -33.000;   85.000
414.348;  -18.700; -652.000; -385.000
414.474;  244.600;   38.000;  -52.000
414.600;    9.700; -126.000; -144.000
414.726;   23.300;  -96.000;  -55.000
414.852;  -89.300; -365.000; -342.000
414.978;  113.700;  104.000;  -18.000
415.104;  135.600;   38.000;   80.000
415.230;   86.500; -329.000; -330.000
415.356;  120.100; -409.000; -514.000
415.482;  452.200;   13.000;  -35.000
415.608;  538.600; -247.000; -323.000
415.734; 1891.400;   67.000;   38.000
415.860;39542.700; -875.000; -767.000
415.986;25977.000; -685.000; -607.000
416.111; 2134.300; -798.000; -652.000
416.237;  521.200; -424.000; -571.000
416.363; 2391.000; -765.000; -733.000
416.489; 7888.600; -324.000; -251.000
416.615;  770.800; -707.000; -742.000
416.741;  -20.400; -677.000; -784.000
416.866; -176.200; -673.000; -736.000
416.992; -164.000; -801.000; -818.000
417.118;   -6.900;  -41.000;  -80.000
417.244;  -96.900; -798.000; -531.000
417.369; -171.800; -801.000; -612.000
417.495;   31.500; -325.000; -254.000
417.621; -117.100;-1015.000; -803.000
417.746;   61.700; -579.000; -572.000
417.872;  115.900; -254.000; -144.000
417.998;  137.700; -515.000; -530.000
418.123; 2182.000;-1073.000; -845.000
418.249;10310.700; -512.000; -601.000
418.374; 1266.100; -916.000; -824.000
418.500;  221.200; -383.000; -482.000
418.626;  224.300;   70.000;  -59.000
418.751;  245.100; -549.000; -448.000
418.877;  414.700; -637.000; -643.000
419.002; 3863.600; -688.000; -560.000
419.128;24313.800; -930.000; -721.000
419.253; 5254.200; -967.000; -837.000
419.379;  796.000; -391.000; -338.000
419.504;  807.300;  325.000;  415.000
419.629; 1001.400; -393.000; -212.000
419.755; 7509.500; -317.000; -254.000
419.880;39958.100;  -98.000;   67.000
420.006;22720.200; -280.000; -221.000
420.131;54348.800; -662.000; -775.000
420.256; 7088.500; -315.000; -316.000
420.382; 1007.600; -665.000; -687.000
420.507;  112.000; -649.000; -778.000
420.632;  230.200; -337.000; -339.000
420.758;  403.700; -251.000; -425.000
420.883; -174.700; -876.000; -672.000
421.008; -135.300; -775.000; -619.000
421.133;  -92.000; -509.000; -467.000
421.259;  -54.300; -325.000; -259.000
421.384; -177.800; -834.000; -693.000
421.509;  -37.300;-1052.000; -862.000
421.634; 1852.500; -936.000; -820.000
421.759;  751.200; -359.000; -327.000
421.885;  -96.100; -717.000; -656.000
422.010;  -82.800; -673.000; -542.000
422.135; -271.400; -695.000; -727.000
422.260;  143.200;  340.000;  280.000
422.385;  -57.800;   12.000;  -98.000
422.510;  103.200;  151.000;  -26.000
422.635;   63.000;  -87.000;  -43.000
422.760;  211.300; -766.000; -791.000
422.885;  133.900;  -57.000;  -80.000
423.010;  -14.500; -112.000; -169.000
423.135; -133.000; -481.000; -561.000
423.260;   25.500; -150.000; -245.000
423.385;  157.300;  476.000;  222.000
423.510;  142.200;   71.000;  -22.000
423.635;  194.900;  133.000;   45.000
423.760;  176.600;  383.000;  328.000
423.885;  169.100;  336.000;  391.000
424.010;   94.100;  -68.000;  -13.000
424.135;   24.700;    5.000;  -33.000
424.259; -110.800; -654.000; -457.000
424.384;  -86.600; -279.000; -272.000
424.509;  -12.100; -260.000; -186.000
424.634; -194.200; -761.000; -623.000
424.759;  -28.600; -688.000; -544.000
424.883;    8.800; -506.000; -527.000
425.008;  409.200; -502.000; -410.000
425.133; 4014.400; -679.000; -653.000
425.258; 1615.700; -517.000; -381.000
425.382; 1861.800; -867.000; -774.000
425.507; 4251.400; -487.000; -543.000
425.632;  692.100; -802.000; -663.000
425.756;  909.400; -256.000; -146.000
425.881;13765.700; -831.000; -857.000
426.006;33027.900; -604.000; -355.000
426.130; 4572.600; -696.000; -508.000
426.255;  663.300; -611.000; -491.000
426.379;  356.200; -189.000; -577.000
426.504;  830.000;  660.000;  544.000
426.629; 8135.500; -519.000; -466.000
426.753; 5010.300;   64.000;  -46.000
426.878;  581.300; -252.000; -288.000
427.002;  350.000; -651.000; -668.000
427.127; 3379.100;  -35.000; -158.000
427.251;22042.700;  372.000;  401.000
427.375; 5522.600; -191.000; -173.000
427.500; 3896.700; -616.000; -610.000
427.624; 1141.500; -234.000; -400.000
427.749;  177.700; -216.000; -225.000
427.873;  -59.600; -499.000; -412.000
427.997;  -34.200; -222.000; -230.000
428.122;  244.000;  795.000;  703.000
428.246;  212.500;  433.000;  434.000
428.371; -223.800; -869.000; -773.000
428.495; -152.300; -624.000; -646.000
428.619;    7.500; -186.000; -117.000
428.743;  132.300;   65.000;  132.000
428.868;   41.400; -732.000; -643.000
428.992; 2384.900; -219.000; -326.000
429.116;  854.900; -329.000; -357.000
429.240;  531.500;  419.000;  426.000
429.365;   -0.800; -454.000; -574.000
429.489;  -45.800; -638.000; -647.000
429.613;  110.900; -236.000; -177.000
429.737;  121.000; -563.000; -432.000
429.861;  579.600; -247.000; -133.000
429.985;11398.900; -425.000; -305.000
430.109;11106.200; -770.000; -908.000
430.234; 1253.700;   76.000;  -50.000
430.358;  152.400; -250.000; -160.000
430.482;  -98.000; -672.000; -564.000
430.606; -126.500; -655.000; -375.000
430.730;   95.000; -437.000; -388.000
430.854;  189.100; -909.000; -835.000
430.978; -103.800; -795.000; -764.000
431.102; -126.200; -499.000; -422.000
431.226; -156.000; -874.000; -815.000
431.350;  101.400;  345.000;  422.000
431.474; -103.800; -661.000; -373.000
431.597; -251.300;-1060.000; -848.000
431.721;  -83.900; -276.000; -267.000
431.845; -236.200; -704.000; -472.000
431.969;  -65.200; -304.000; -349.000
432.093; -157.900; -395.000; -317.000
432.217;   63.800;   32.000;   82.000
432.341; -127.800; -523.000; -518.000
432.464;   89.100;   96.000;   40.000
432.588;  345.200; -401.000; -329.000
432.712;  212.100;  -52.000;  -52.000
432.836;  170.000;  213.000;  263.000
432.959;   46.600; -372.000; -311.000
433.083;  204.100;   11.000;    2.000
433.207;  814.500;  285.000;  930.000
433.330;10355.600; -391.000; -200.000
433.454;11369.300; -654.000; -638.000
433.578; 6829.100;  583.000;  278.000
433.701; 1104.600; -623.000; -675.000
433.825;  238.400; -292.000; -299.000
433.949;  298.600;   28.000;  -72.000
434.072;   83.000; -410.000; -323.000
434.196;   19.100; -309.000; -117.000
434.319; 7977.700;25482.000;25124.000
434.443; 1508.800; -656.000; -603.000
434.566; 5012.600;  281.000;   62.000
434.690;  764.800; -637.000; -383.000
434.813;  138.200; -251.000; -173.000
434.937; -118.100; -569.000; -696.000
435.060;  -69.200; -423.000; -332.000
435.184;  527.900; -492.000; -217.000
435.307;  312.000;  159.000;  102.000
435.431;   11.400;  -40.000;   24.000
435.554; -130.100; -399.000; -240.000
435.677; -140.900; -350.000; -258.000
435.801;  -38.600;  -25.000;   49.000
435.924;   42.400;    1.000;  -67.000
436.048; -220.600;-1019.000; -732.000
436.171;  -84.500; -240.000;  -66.000
436.294;  -24.200; -248.000; -229.000
436.417;  247.500; -963.000; -849.000
436.541; -152.100; -814.000; -840.000
436.664;  -24.800; -242.000; -316.000
436.787;   29.600;   13.000;  113.000
436.910; -171.800; -792.000; -422.000
437.034;   45.900;  142.000;  143.000
437.157;  131.300;  -11.000;    0.000
437.280;  -87.300; -392.000; -292.000
437.403; -156.400; -982.000; -869.000
437.526; 1031.600; -903.000; -865.000
437.649; 3445.000; -505.000; -332.000
437.772;  335.400; -692.000; -540.000
437.896;  272.000;  700.000;  544.000
438.019; -182.100; -758.000; -503.000
438.142; -107.900; -596.000; -506.000
438.265;  -17.200; -639.000; -670.000
438.388;  953.000; -520.000; -410.000
438.511;  152.600; -597.000; -394.000
438.634;  -22.200; -247.000; -125.000
438.757; -212.100; -693.000; -619.000
438.880;   14.600;  -34.000;  -57.000
439.003; -132.000; -417.000; -437.000
439.126;  -81.600; -287.000; -167.000
439.248;  -81.000;  -98.000; -139.000
439.371;   -6.700;    9.000;  -53.000
439.494;  118.500;  510.000;  439.000
439.617;  -29.600;   65.000;  -88.000
439.740; -290.100; -968.000; -816.000
439.863; -217.800; -755.000; -595.000
439.986; -171.100; -476.000; -431.000
440.108;  -41.800; -161.000; -112.000
440.231; -294.500; -950.000; -836.000
440.354;  -19.400;  -64.000; -150.000
440.477;   83.200; -566.000; -542.000
440.599;   47.700; -200.000; -225.000
440.722; -222.300; -709.000; -586.000
440.845;  195.200;  751.000;  928.000
440.968; -177.200; -415.000; -311.000
441.090;  -71.200; -199.000;  -33.000
441.213; -324.500;-1021.000; -825.000
441.336;  -40.500; -159.000;   -5.000
441.458;  -91.500; -549.000; -396.000
441.581; -110.900; -628.000; -629.000
441.703;  -86.400; -152.000;   13.000
441.826; -160.400; -557.000; -400.000
441.948;  -44.200;   56.000;   51.000
442.071;   99.800;  555.000;  424.000
442.193; -191.100; -531.000; -485.000
442.316;   95.300;  152.000;   97.000
442.438;  155.200; -233.000;  -10.000
442.561;  198.800;  272.000;  262.000
442.683;  882.100; -809.000; -522.000
442.806; 1770.200;   -8.000;   74.000
442.928;  -26.700; -859.000; -604.000
443.051;  -56.400; -577.000; -373.000
443.173; -145.400; -341.000; -339.000
443.295; -125.100; -263.000; -371.000
443.418; -125.700; -321.000;  -29.000
443.540;   62.900; -106.000;   -4.000
443.662; -194.100; -563.000; -465.000
443.785;   61.200;  335.000;  199.000
443.907; -164.500; -362.000; -208.000
444.029; -192.800; -767.000; -494.000
444.152; -240.900; -644.000; -554.000
444.274;   -5.100;  -18.000;  -24.000
444.396; -194.700; -461.000; -221.000
444.518; -194.000; -691.000; -454.000
444.640; -144.500; -268.000; -111.000
444.763;   47.100;  388.000;  249.000
444.885; -206.100; -432.000; -392.000
445.007;   29.000;   35.000;   86.000
445.129; -225.800; -610.000; -515.000
445.251; -111.800; -372.000; -439.000
445.373; -217.800; -537.000; -386.000
445.495;   78.300;  242.000;  350.000
445.617;  181.700;  853.000;  753.000
445.739;  -40.400; -215.000;  -97.000
445.861;  -25.600; -245.000; -112.000
445.984;   -7.900; -267.000; -101.000
446.105;  347.700; -418.000; -251.000
446.227; 1034.200; -176.000;  -19.000
446.349;  -14.000; -358.000; -249.000
446.471; -138.800; -615.000; -448.000
446.593;  -90.400; -316.000;   19.000
446.715;   87.400;  -67.000;   41.000
446.837;  208.500;  697.000;  832.000
446.959; -128.300; -457.000; -478.000
447.081; -215.900; -628.000; -518.000
447.203;  184.000;  862.000;  834.000
447.325; -122.200; -270.000;   42.000
447.446;   98.100;  286.000;  530.000
447.568; -282.900; -921.000; -803.000
447.690; -101.600; -236.000; -245.000
447.812; -251.300; -798.000; -519.000
447.933;   39.800;  155.000;  127.000
448.055; -119.400; -306.000; -261.000
448.177;  311.600;   31.000;   79.000
448.299;   88.700; -935.000; -727.000
448.420;  103.500;  -25.000;  159.000
448.542;  -35.900;   -3.000;   33.000
448.664;   40.100;  109.000;  322.000
448.785;  -30.100;  265.000;   83.000
448.907;  -95.300; -614.000; -353.000
449.028;  -74.100; -771.000; -471.000
449.150;  187.600;  492.000;  589.000
449.272; -306.800;-1044.000; -913.000
449.393;  133.700;  612.000;  694.000
449.515; -250.700; -634.000; -581.000
449.636;  -70.600; -264.000; -155.000
449.758;  207.500;  763.000;  622.000
449.879; -151.600; -498.000; -396.000
450.001; -102.100; -149.000;  -49.000
450.122;   -7.300;  -95.000;  162.000
450.244;   49.700;   37.000;  364.000
450.365;  -93.700; -495.000; -301.000
450.486;   -6.200;   80.000;  268.000
450.608;  116.800;  393.000;  326.000
450.729;  195.600;  578.000;  645.000
450.850;   40.800; -574.000; -466.000
450.972; 1678.100; -552.000; -389.000
451.093; 9824.200;  190.000;  588.000
451.214; 3669.100; -516.000; -337.000
451.336;  795.300;  773.000;  579.000
451.457;  167.200;  264.000;  393.000
451.578;   -2.900; -118.000;  -74.000
451.699; -177.800; -546.000; -540.000
451.821;  -65.600; -284.000;  -50.000
451.942;   37.500;  278.000;  285.000
452.063;  137.700;  228.000;  419.000
452.184; 1213.500;  -54.000;  -49.000
452.305; 2150.900;  103.000;  170.000
452.427;  242.000; -549.000; -301.000
452.548;   19.200;   23.000;   79.000
452.669;  -84.100; -257.000;  -89.000
452.790;  -13.500;    3.000;  -18.000
452.911;   47.100;  195.000;  259.000
453.032;  -46.300; -289.000;  -60.000
453.153;  -37.700;  -29.000;   81.000
453.274;  204.400;  737.000;  868.000
453.395;  -58.900;  -51.000;  175.000
453.516;  369.700; 1317.000; 1388.000
453.637;  -85.700; -205.000; -150.000
453.758;  -44.500;   15.000;   69.000
453.879; -203.100; -462.000; -250.000
454.000;  269.900; 1086.000;  948.000
454.121; -191.400; -554.000; -326.000
454.242; -164.900; -599.000; -383.000
454.362;  -46.700;  -99.000;  114.000
454.483;  -42.700; -309.000; -229.000
454.604;  137.000;  512.000;  580.000
454.725; -180.600; -627.000; -555.000
454.846; -180.500; -474.000; -406.000
454.967;   10.300;  230.000;  539.000
455.087;   -8.900;  179.000;  153.000
455.208;  113.400;  554.000;  856.000
455.329;  -68.200;  -22.000;   82.000
455.450;  169.200;  473.000;  633.000
455.570; -112.900; -234.000; -211.000
455.691;  -10.700;  201.000;  407.000
455.812; -183.200; -270.000;  -92.000
455.932;  -46.800;  107.000;  -97.000
456.053; -117.000;   36.000;   24.000
456.173; -158.300; -433.000; -355.000
456.294; -234.300; -476.000; -303.000
456.415;  -68.500;  -73.000;   70.000
456.535;    7.800;  297.000;  273.000
456.656;    2.500;  132.000;  240.000
456.776;  -94.300;    3.000;  298.000
456.897;   70.100;  308.000;  513.000
457.017;  -91.400; -153.000;   -3.000
457.138; -157.000; -402.000; -249.000
457.258;  -29.500;  263.000;  224.000
457.379;   44.200;  509.000;  521.000
457.499;   -3.600;  443.000;  432.000
457.620; -175.000; -407.000; -231.000
457.740; -159.100; -132.000;  -11.000
457.860;  -41.400;   87.000;   44.000
457.981;  -48.100;  132.000;  124.000
458.101;  -82.800;  -89.000;   40.000
458.221;   31.900;  336.000;  402.000
458.342;  -50.600;   -4.000;  -37.000
458.462;   90.000;  617.000;  352.000
458.582;   -5.000; -302.000; -294.000
458.703;   99.100;  303.000;  154.000
458.823;   12.600;   22.000;  163.000
458.943;  120.100;  341.000;  467.000
459.063;   13.000; 1124.000;  192.000
459.183;   -0.300;  328.000;  313.000
459.304;  111.900;  315.000;  517.000
459.424;  -69.600; -246.000;  -89.000
459.544;  738.000;  388.000;  764.000
459.664; 1656.500;  499.000;  506.000
459.784;  613.800; 1004.000; 1175.000
459.904;  165.400;  867.000;  744.000
460.024;  235.100;  867.000;  684.000
460.144;   40.200;  449.000;  554.000
460.264;   69.400;  515.000;  327.000
460.385; -148.700; -145.000; -119.000
460.505;  145.700;  905.000;  858.000
460.625; -121.900;  -17.000;  -68.000
460.745;   52.400;  396.000;  541.000
460.864;  -45.700;  153.000;  469.000
460.984;  104.000;  499.000;  573.000
461.104;  342.200; 1656.000; 1775.000
461.224;  100.200;  657.000;  650.000
461.344;    7.900;  431.000;  360.000
461.464;   13.100;  258.000;  513.000
461.584;   40.100;  283.000;  466.000
461.704;  -30.600;   58.000;  108.000
461.824;  -52.100;  238.000;  259.000
461.943;  -16.900;  191.000;  130.000
462.063; -108.200;    2.000;  324.000
462.183;  135.400;  639.000;  717.000
462.303;  272.800; 1678.000; 1230.000
462.422;  144.700;  781.000;  840.000
462.542;  -17.200;  271.000;  391.000
462.662;  114.500;  353.000;  380.000
462.782;  575.200;  833.000;  572.000
462.901;  974.300;  545.000;  717.000
463.021;  623.800; 1702.000; 1638.000
463.141;   32.800;  337.000;  770.000
463.260;   23.100;  614.000;  474.000
463.380;  112.800;  902.000;  884.000
463.499;  -12.800;  342.000;  332.000
463.619;  -19.800;  581.000;  559.000
463.738;  283.400; 1644.000;  903.000
463.858;   94.200;  657.000;  811.000
463.978;  -54.900;  542.000;  396.000
464.097;  194.200;  921.000; 1114.000
464.217;  312.900; 1196.000; 1143.000
464.336;  312.600; 1068.000; 1130.000
464.455;  -42.400;  328.000;  659.000
464.575;  160.700;  597.000;  602.000
464.694;  343.600; 1204.000; 1179.000
464.814;  331.400; 1190.000; 1138.000
464.933;  200.100; 1095.000; 1027.000
465.052;  274.800; 1412.000; 1054.000
465.172;  177.200;  922.000;  799.000
465.291;  333.400; 1376.000; 1320.000
465.410;   58.300;  462.000;  735.000
465.530;  250.600; 1355.000; 1310.000
465.649;  168.300; 1209.000; 1273.000
465.768;  363.500; 1673.000; 1508.000
465.888;  155.000;  941.000; 1174.000
466.007;  247.500; 1335.000; 1440.000
466.126;   43.400;  721.000;  641.000
466.245;  180.600; 1176.000; 1187.000
466.364;  101.400;  950.000; 1060.000
466.484;  197.500; 1024.000; 1213.000
466.603;  166.300; 1101.000; 1222.000
466.722;  325.100; 1490.000; 1769.000
466.841;  222.500; 1151.000; 1401.000
466.960;  162.800; 1069.000;  972.000
467.079;  355.000; 1971.000; 1786.000
467.198;  184.300; 1238.000; 1181.000
467.317;  271.400; 1768.000; 1162.000
467.436;  208.700; 1709.000; 1261.000
467.555;  314.200; 1796.000; 1746.000
467.674;  231.500; 1227.000; 1329.000
467.793;  170.000; 1376.000; 1374.000
467.912;  265.200; 1658.000; 1539.000
468.031;  318.100; 2038.000; 1930.000
468.150;  379.100; 1842.000; 1837.000
468.269;  490.500; 2313.000; 2090.000
468.388;  449.300; 2168.000; 2339.000
468.507;  566.600; 2884.000; 2903.000
468.626;  641.500; 2555.000; 2541.000
468.744;  324.100; 2018.000; 2174.000
468.863;  501.700; 2312.000; 2523.000
468.982;  232.500; 1503.000; 1555.000
469.101;  547.600; 2788.000; 2692.000
469.220;  361.700; 2333.000; 2176.000
469.338;  618.200; 2935.000; 3051.000
469.457;  412.600; 2719.000; 2545.000
469.576;  810.400; 3953.000; 3784.000
469.695;  550.500; 2877.000; 3066.000
469.813;  920.900; 4148.000; 4192.000
469.932;  888.600; 4255.000; 4485.000
470.051;  951.200; 4075.000; 4161.000
470.169; 1847.100; 4470.000; 4338.000
470.288; 2971.800; 4700.000; 4809.000
470.406; 1720.700; 5059.000; 5194.000
470.525; 1359.100; 6101.000; 5787.000
470.644; 1394.800; 6847.000; 6794.000
470.762; 1730.600; 8397.000; 7873.000
470.881; 1941.700; 8651.000; 8464.000
470.999; 2210.900; 9685.000; 9151.000
471.118; 2291.900;11174.000;10711.000

