
Integration time [ms]: 200.000
Averaging Nr. [scans]: 10
Smoothing Nr. [pixels]: 0
Data measured with spectrometer [name]: 2101012U2
Wave   ;Sample   ;Dark     ;Reference
[nm]   ;[counts] ;[counts] ;[counts] 

197.733;  103.200;  516.000;  404.000
197.879; -154.800; -610.000; -634.000
198.025; -124.500; -475.000; -420.000
198.171; -146.500; -602.000; -612.000
198.317;  -71.600; -401.000; -316.000
198.463; -140.500; -655.000; -404.000
198.609;   40.400;  181.000; -137.000
198.755; -166.200; -644.000; -410.000
198.901; -159.900; -505.000; -424.000
199.047; -130.800; -615.000; -488.000
199.193;  -70.700; -230.000; -468.000
199.339;  -87.900; -222.000; -369.000
199.485;   94.800;  330.000;  271.000
199.631;   11.700;  227.000;  310.000
199.777; -109.700; -466.000; -398.000
199.923; -125.900; -610.000; -424.000
200.069;  -34.000; -141.000;  -58.000
200.215;  104.000;  128.000;  453.000
200.361;   89.900;  243.000;  477.000
200.507; -156.400; -600.000; -373.000
200.653;  -65.900; -371.000; -194.000
200.798;  -81.900; -215.000; -125.000
200.944;  -38.700; -146.000;  -41.000
201.090;   57.200;   61.000;  222.000
201.236;    2.600; -116.000; -158.000
201.382;  269.600;  874.000;  903.000
201.528;    0.200;  -58.000;  -48.000
201.674;  -69.900; -386.000; -293.000
201.819; -131.700; -540.000; -439.000
201.965; -196.300; -699.000; -447.000
202.111;  -27.000; -273.000; -226.000
202.257; -109.500; -250.000; -238.000
202.402;   22.700;   13.000;  -36.000
202.548;  -74.900; -169.000; -116.000
202.694;  172.600;  410.000; -183.000
202.840; -151.100; -603.000; -531.000
202.985; -144.200; -681.000; -639.000
203.131; -233.600; -832.000; -666.000
203.277;  -54.300; -199.000; -262.000
203.423; -127.000; -434.000; -520.000
203.568;  -64.400; -462.000; -237.000
203.714; -130.700; -535.000; -542.000
203.860; -145.500; -682.000; -641.000
204.005;   30.300;  112.000;  167.000
204.151;  148.300;  561.000;  556.000
204.296; -107.400; -354.000; -221.000
204.442; -144.300; -600.000; -547.000
204.588; -174.800; -592.000; -579.000
204.733;   51.800;  178.000;  168.000
204.879; -282.800;-1018.000; -822.000
205.025;   39.900;  -99.000;  126.000
205.170;    2.200;  -17.000;   94.000
205.316;  172.500;  438.000;  661.000
205.461; -178.500; -698.000; -554.000
205.607;  161.200;  609.000;  665.000
205.752; -164.200; -626.000; -551.000
205.898; -140.900; -501.000; -391.000
206.043; -144.900; -578.000; -506.000
206.189; -104.900; -243.000; -285.000
206.334;  183.500;  554.000;  606.000
206.480;  156.000;  409.000;  239.000
206.625; -171.100; -529.000; -552.000
206.771; -104.400; -451.000; -373.000
206.916;  -92.900; -210.000; -537.000
207.062; -121.900; -545.000; -591.000
207.207; -129.000; -546.000; -443.000
207.353;   87.200;  185.000;  460.000
207.498;   25.000;  196.000;   85.000
207.643; -106.600; -501.000; -370.000
207.789; -286.600;-1069.000; -910.000
207.934; -202.800; -665.000; -713.000
208.080;  -71.400; -154.000;   66.000
208.225;  -21.100;  -22.000;  -57.000
208.370; -184.100; -727.000; -619.000
208.516; -168.700; -741.000; -487.000
208.661;  -55.700; -127.000;  -69.000
208.806;  -70.400; -165.000; -171.000
208.952; -267.800;-1044.000; -731.000
209.097;  125.200;  378.000;  349.000
209.242;  -94.400; -307.000; -382.000
209.387;   98.500;  392.000;  350.000
209.533;  -97.900; -321.000; -350.000
209.678;  170.500;  472.000;  543.000
209.823; -129.700; -408.000; -310.000
209.969; -211.300; -860.000; -757.000
210.114; -213.400; -907.000; -719.000
210.259; -233.600; -939.000; -889.000
210.404;   -2.700; -171.000;  103.000
210.549;   29.500;  108.000;    3.000
210.695;  -59.200;   -3.000;  -95.000
210.840;   60.200;   94.000;   67.000
210.985; -147.900; -484.000; -303.000
211.130;  165.400;  268.000;  406.000
211.275;   22.500;  207.000;  199.000
211.420; -130.500; -300.000; -289.000
211.566; -164.600; -536.000; -489.000
211.711;   34.300;  218.000;  157.000
211.856; -129.900; -545.000; -519.000
212.001;   19.500;  151.000;   44.000
212.146;    4.200;  153.000;   49.000
212.291;  -28.500; -210.000; -186.000
212.436;  -61.700; -280.000;   -6.000
212.581; -166.700; -685.000; -653.000
212.726; -179.000; -487.000; -538.000
212.871; -108.900; -552.000; -217.000
213.016; -332.100;-1172.000;-1029.000
213.161;  139.200;  406.000;  291.000
213.306; -163.200; -435.000; -577.000
213.451; -212.700; -778.000; -689.000
213.596;  -74.700; -455.000; -347.000
213.741; -126.700; -448.000; -538.000
213.886; -178.900; -498.000; -517.000
214.031;  -21.700; -294.000; -124.000
214.176; -124.100; -408.000; -341.000
214.321;  -30.000; -296.000; -157.000
214.466;  -44.200; -163.000;  -43.000
214.611;  -13.800;  -61.000;  -10.000
214.756; -255.100; -948.000; -858.000
214.901;  -41.200; -388.000; -226.000
215.046; -259.300; -797.000; -825.000
215.191;   44.500;  128.000;   35.000
215.336;    3.600; -157.000;  -19.000
215.480; -151.800; -684.000; -505.000
215.625;  -62.500; -175.000;  -19.000
215.770; -179.900; -757.000; -662.000
215.915;  -16.400;   -5.000;  -97.000
216.060;   -1.400; -113.000;  -21.000
216.205; -238.700; -731.000; -779.000
216.349; -136.800; -470.000; -533.000
216.494; -282.400; -939.000; -867.000
216.639; -252.600; -823.000; -888.000
216.784; -191.400; -577.000; -525.000
216.929;   98.100;  392.000;  281.000
217.073;  -17.500; -244.000;  -31.000
217.218;   -3.000;   78.000;  -47.000
217.363; -190.500; -656.000; -618.000
217.507; -155.300; -623.000; -588.000
217.652; -248.200; -845.000; -874.000
217.797; -187.100; -708.000; -659.000
217.942; -249.800; -856.000; -720.000
218.086;  165.600;  608.000;  539.000
218.231;  -43.600; -174.000;  -26.000
218.376;  -76.800; -337.000; -229.000
218.520;   15.900;  -41.000;   96.000
218.665;  -78.700; -338.000; -204.000
218.810; -109.500; -275.000; -233.000
218.954;   62.100;  201.000;   35.000
219.099; -237.700; -713.000; -963.000
219.243; -183.300; -589.000; -554.000
219.388;  -56.100; -264.000; -136.000
219.532;  -53.200; -116.000; -116.000
219.677; -157.100; -564.000; -521.000
219.822;   -7.300;   33.000;   89.000
219.966;   -6.700;   17.000;  -99.000
220.111;  -73.900; -328.000;  -40.000
220.255; -212.600; -797.000; -750.000
220.400;  -49.800; -180.000; -146.000
220.544; -161.300; -516.000; -450.000
220.689; -108.800; -422.000; -451.000
220.833;  -48.300; -123.000;  -58.000
220.978;  -80.600; -393.000; -563.000
221.122;   47.400;  319.000;  307.000
221.267; -243.000; -906.000; -837.000
221.411; -136.800; -478.000; -394.000
221.555;  -20.800; -104.000;  -23.000
221.700; -101.600; -329.000; -222.000
221.844;   84.700;  255.000;  272.000
221.989;  -92.200; -328.000; -311.000
222.133;  -71.600; -289.000; -307.000
222.277;  -19.500;    5.000;   78.000
222.422;   52.800;  227.000;  113.000
222.566;  -69.100; -381.000; -214.000
222.711; -122.500; -414.000; -479.000
222.855; -145.700; -643.000; -586.000
222.999; -187.000; -642.000; -717.000
223.144;  -64.800; -195.000; -194.000
223.288;  118.600;  423.000;  251.000
223.432;   37.000;  184.000;  230.000
223.576;   41.100;  152.000;  -21.000
223.721;   97.100;  364.000;  273.000
223.865; -138.600; -472.000; -475.000
224.009;  456.000; 1673.000; 1631.000
224.153; -182.100; -660.000; -671.000
224.298; -146.700; -531.000; -489.000
224.442;  -37.700;  -74.000;  -33.000
224.586;  -18.300; -169.000; -106.000
224.730; -204.200; -858.000; -670.000
224.875; -225.500; -739.000; -688.000
225.019;   13.900;  102.000;  188.000
225.163;  105.900;  208.000;  341.000
225.307;   47.400;   97.000;  -91.000
225.451;   98.500;  360.000;  481.000
225.595;   91.800;  264.000;  176.000
225.739;  -41.000; -170.000;  -94.000
225.884;   19.200;   86.000;    5.000
226.028; -217.000; -760.000; -626.000
226.172;  -91.900; -260.000; -273.000
226.316; -238.200; -941.000; -902.000
226.460; -137.700; -645.000; -493.000
226.604; -103.900; -406.000; -400.000
226.748; -198.700; -836.000; -733.000
226.892;  -88.000; -227.000; -181.000
227.036;  -66.000; -537.000; -447.000
227.180; -125.000; -551.000; -375.000
227.324; -142.800; -561.000; -580.000
227.468; -280.600; -819.000; -717.000
227.612;   34.300;  242.000;  -28.000
227.756; -215.500; -845.000; -698.000
227.900;   86.300;  342.000;  441.000
228.044; -119.700; -509.000; -290.000
228.188;  145.800;  448.000;  568.000
228.332; -198.000; -546.000; -472.000
228.476;  -59.700; -223.000; -149.000
228.620;  -51.500; -210.000; -150.000
228.764;  125.700;  431.000;  349.000
228.908;  -49.900; -155.000;   30.000
229.052; -123.900; -615.000; -528.000
229.195;   -6.300; -172.000;   13.000
229.339;  -86.900; -235.000; -305.000
229.483;  -34.500;    5.000; -162.000
229.627;  -11.500; -156.000;  139.000
229.771;  -84.300; -218.000; -294.000
229.915;   44.900;  230.000;   79.000
230.059; -188.400; -648.000; -663.000
230.202;  -71.500; -370.000; -317.000
230.346;   -2.400; -107.000;  107.000
230.490; -143.600; -489.000; -521.000
230.634; -232.900; -736.000; -553.000
230.777;  155.700;  478.000;  509.000
230.921;  -80.800; -450.000; -359.000
231.065;  -89.300; -246.000; -286.000
231.209;   75.900;  261.000;  265.000
231.352;   24.500;   54.000;   40.000
231.496;   29.800;  568.000;  188.000
231.640; -191.800; -693.000; -621.000
231.783;  170.600;  546.000;  525.000
231.927;  -57.900; -294.000; -365.000
232.071; -269.300; -962.000; -736.000
232.214; -230.400; -980.000; -764.000
232.358; -235.500; -683.000; -599.000
232.502;   18.400;  -19.000;    7.000
232.645; -301.700;-1090.000; -927.000
232.789;  -35.000; -257.000; -218.000
232.933;  -82.500; -407.000; -224.000
233.076; -261.800;-1038.000; -897.000
233.220; -219.000; -752.000; -777.000
233.363; -157.400; -669.000; -477.000
233.507;  116.800;  371.000;  129.000
233.650; -188.800; -764.000; -834.000
233.794;   77.300;  438.000;  461.000
233.938; -133.500; -530.000; -362.000
234.081;  -36.500;  -93.000;   31.000
234.225; -133.200; -631.000; -539.000
234.368; -254.500; -773.000; -723.000
234.512;  -92.100; -385.000; -299.000
234.655; -216.200; -582.000; -555.000
234.798; -119.900; -493.000; -466.000
234.942; -225.400; -884.000;-1002.000
235.085; -158.300; -651.000; -443.000
235.229; -140.600; -405.000; -410.000
235.372; -113.600; -247.000; -191.000
235.516; -141.100; -397.000; -321.000
235.659;   23.300;   92.000;  121.000
235.802;   -4.800;  -38.000;  -22.000
235.946;   64.500;  335.000;  215.000
236.089;  109.600;  126.000;  250.000
236.233;  125.500;  275.000;  298.000
236.376;  -65.700; -235.000; -378.000
236.519;  -70.700; -297.000; -319.000
236.663;  -18.500; -215.000; -117.000
236.806; -285.600;-1029.000; -999.000
236.949;  149.200;  543.000;  431.000
237.092;  117.500;  412.000;  391.000
237.236; -174.800; -589.000; -502.000
237.379;  146.100;  352.000;  428.000
237.522; -259.700; -879.000; -768.000
237.666;  -16.400; -271.000;   18.000
237.809; -269.300; -851.000; -823.000
237.952;   95.200;  469.000;  271.000
238.095; -115.200; -447.000; -442.000
238.238;  194.300;  688.000;  700.000
238.382;    1.600;  166.000;  103.000
238.525; -176.000; -598.000; -511.000
238.668; -298.500;-1060.000; -985.000
238.811; -192.500; -638.000; -643.000
238.954; -121.500; -483.000; -334.000
239.097;  210.200;  617.000;  664.000
239.241;   59.200;  394.000;  326.000
239.384;  -73.300; -254.000; -214.000
239.527; -133.700; -424.000; -224.000
239.670; -311.100; -994.000;-1091.000
239.813; -255.500; -696.000; -658.000
239.956;  144.500;  579.000;  473.000
240.099; -246.800; -778.000; -725.000
240.242;  127.200;  428.000;  432.000
240.385;  106.300;  466.000;  450.000
240.528; -155.100; -706.000; -473.000
240.671;   44.900;  189.000;  134.000
240.814;  -91.600; -441.000; -158.000
240.957; -214.500; -767.000; -578.000
241.100; -183.700; -779.000; -755.000
241.243; -285.500;-1234.000; -893.000
241.386; -150.800; -508.000; -379.000
241.529; -181.300; -735.000; -547.000
241.672; -134.000; -566.000; -495.000
241.815; -240.700; -832.000; -808.000
241.958;  -28.300; -125.000; -182.000
242.101; -154.600; -545.000; -390.000
242.244;  -73.900; -270.000; -325.000
242.387; -103.400; -304.000; -246.000
242.530;  118.600;  470.000;  134.000
242.673;  -70.000; -381.000; -309.000
242.815; -242.300; -925.000; -899.000
242.958; -147.300; -482.000; -381.000
243.101;    0.400;  132.000;  187.000
243.244; -163.400; -564.000; -521.000
243.387; -101.700; -313.000; -316.000
243.530; -173.300; -657.000; -674.000
243.672;   12.100;   43.000;  -92.000
243.815;  -88.600; -355.000; -283.000
243.958;   16.100;   98.000;  -26.000
244.101;   19.100;   59.000;  -16.000
244.243;  -38.600;  -47.000;  101.000
244.386; -258.600; -761.000; -630.000
244.529;  -47.500; -132.000; -139.000
244.672; -326.900;-1154.000; -951.000
244.814; -204.900; -621.000; -794.000
244.957;  -83.400; -380.000; -304.000
245.100; -145.200; -489.000; -489.000
245.242; -129.300; -387.000; -374.000
245.385;  -11.400;  -59.000;  -39.000
245.528; -257.400; -871.000; -705.000
245.670;  220.600;  612.000;  634.000
245.813; -159.400; -599.000; -547.000
245.956;  -45.900; -324.000; -275.000
246.098; -145.000; -508.000; -650.000
246.241;   37.000;  194.000;   48.000
246.383;  -21.400; -119.000;  -73.000
246.526; -152.200; -454.000; -525.000
246.669; -235.600; -889.000; -780.000
246.811;   28.300;  172.000;   -1.000
246.954; -137.000; -512.000; -426.000
247.096;  -29.600;  -84.000;   -6.000
247.239; -137.500; -482.000; -445.000
247.381; -144.800; -647.000; -488.000
247.524;  196.400;  645.000;  679.000
247.666;  -10.400;   58.000;   11.000
247.809; -238.400; -887.000; -691.000
247.951;  -10.900;  -75.000;  138.000
248.094;   77.000;  432.000;  308.000
248.236; -308.500;-1262.000;-1238.000
248.378;   -2.300; -356.000;  -81.000
248.521;  -37.600; -334.000; -337.000
248.663;  -58.900; -236.000; -267.000
248.806;  -35.900; -300.000; -266.000
248.948; -205.500; -886.000; -763.000
249.090;  -78.300; -428.000; -398.000
249.233; -109.300; -344.000; -381.000
249.375; -160.600; -474.000; -451.000
249.518;  -34.400;  -83.000; -133.000
249.660;   -4.200; -103.000;    3.000
249.802; -355.500;-1303.000;-1189.000
249.945; -131.500; -612.000; -540.000
250.087; -209.900; -834.000; -768.000
250.229;  -96.800; -362.000; -480.000
250.371; -142.100; -494.000; -439.000
250.514;  -99.200; -310.000; -244.000
250.656; -123.900;   69.000;  102.000
250.798; -222.300; -849.000; -800.000
250.940; -123.500; -322.000; -322.000
251.083;  -27.300; -335.000; -111.000
251.225;  136.500;  338.000;  310.000
251.367;  -72.300; -274.000; -373.000
251.509;  -72.500; -265.000; -210.000
251.651; -211.600; -731.000; -671.000
251.794;  142.900;  538.000;  632.000
251.936; -232.200; -821.000; -747.000
252.078; -151.600; -540.000; -461.000
252.220; -166.200; -645.000; -477.000
252.362;  122.300;  344.000;  462.000
252.504; -142.700; -677.000; -584.000
252.646; -237.200; -875.000; -722.000
252.788;   17.700;   14.000; -128.000
252.931;  -65.000; -257.000; -253.000
253.073;  -68.900; -376.000; -317.000
253.215;   -4.400;  141.000;  122.000
253.357;  -29.900;   82.000; -153.000
253.499; -126.900; -374.000; -234.000
253.641; -162.900; -749.000; -594.000
253.783; -192.000; -609.000; -527.000
253.925; -174.600; -586.000; -591.000
254.067; -226.400; -744.000; -667.000
254.209;  -39.200; -391.000; -259.000
254.351; -293.900; -865.000; -883.000
254.493;  -87.800; -441.000; -417.000
254.635; -219.100; -936.000; -818.000
254.777; -214.500; -752.000; -687.000
254.918; -155.900; -512.000; -430.000
255.060;  -92.900; -551.000; -395.000
255.202; -130.500; -473.000; -261.000
255.344; -166.900; -658.000; -455.000
255.486; -158.800; -471.000; -406.000
255.628; -210.500; -780.000; -781.000
255.770; -167.300; -676.000; -536.000
255.912; -114.800; -559.000; -468.000
256.053; -210.600; -730.000; -508.000
256.195;  323.100; 1008.000;  903.000
256.337; -200.200; -861.000; -595.000
256.479;  131.100;  532.000;  416.000
256.621;  -81.100; -394.000; -212.000
256.762; -190.700; -789.000; -742.000
256.904;  130.400;  485.000;  487.000
257.046;  -30.700; -381.000; -271.000
257.188;  -75.600; -351.000; -264.000
257.329; -141.600; -525.000; -464.000
257.471; -236.800; -939.000; -807.000
257.613; -115.200; -584.000; -498.000
257.755; -279.600;-1073.000; -982.000
257.896;  112.000;  286.000;  392.000
258.038; -128.000; -403.000; -352.000
258.180;  -65.400; -354.000; -279.000
258.321; -149.300; -581.000; -457.000
258.463;   28.000;  -71.000;  133.000
258.605; -155.400; -562.000; -570.000
258.746; -184.400; -886.000; -772.000
258.888; -298.700;-1026.000;-1020.000
259.029;   68.800;  121.000;   -8.000
259.171; -172.000; -614.000; -550.000
259.313;  -17.400;  -49.000;  -47.000
259.454; -166.300; -536.000; -414.000
259.596; -113.900; -483.000; -390.000
259.737; -143.300; -590.000; -474.000
259.879;   94.100;  217.000;  311.000
260.020;  199.000;  901.000;  636.000
260.162;  -37.400; -146.000; -253.000
260.303; -219.200; -768.000; -687.000
260.445; -156.400; -609.000; -613.000
260.586;   67.200;  392.000;  157.000
260.728;  -59.000; -360.000; -248.000
260.869; -118.300; -350.000; -343.000
261.011;  202.400;  706.000;  537.000
261.152;  -97.100; -479.000; -319.000
261.293; -146.200; -576.000; -595.000
261.435;  -44.400; -219.000; -184.000
261.576;  -84.600; -455.000; -325.000
261.718;  133.500;  420.000;  470.000
261.859; -265.900; -940.000; -949.000
262.000; -275.000; -951.000;-1016.000
262.142;  -24.200;  -52.000;  -60.000
262.283; -243.900; -808.000; -691.000
262.424; -177.900; -666.000; -625.000
262.566; -301.400;-1161.000; -983.000
262.707; -244.300; -840.000; -830.000
262.848; -237.000; -769.000; -726.000
262.990; -102.400; -362.000; -345.000
263.131;  156.800;  650.000;  681.000
263.272;    1.300;  -61.000;  -41.000
263.413; -167.600; -589.000; -561.000
263.555; -122.600; -669.000; -143.000
263.696; -179.700; -550.000; -641.000
263.837;  -97.200; -449.000; -551.000
263.978;   -8.000;   -5.000;  -77.000
264.119;  -66.400; -283.000; -264.000
264.261; -219.200; -847.000; -630.000
264.402;   27.100;   33.000;   40.000
264.543; -175.500; -509.000; -524.000
264.684;    3.900;   61.000;  -50.000
264.825; -161.800; -816.000; -538.000
264.966;   20.700;  -84.000;  -67.000
265.107; -249.900; -646.000; -670.000
265.248; -229.700; -825.000; -812.000
265.390;  -19.300;  152.000;   -9.000
265.531;  -12.900; -238.000; -107.000
265.672; -156.700; -557.000; -630.000
265.813;  148.200;  563.000;  439.000
265.954; -274.800; -959.000; -940.000
266.095;  -15.200; -372.000; -322.000
266.236; -192.200; -686.000; -548.000
266.377;  -65.900; -243.000; -297.000
266.518; -133.900; -619.000; -547.000
266.659;  100.600;  170.000;  268.000
266.800;   27.700;   83.000;   85.000
266.941; -114.200; -487.000; -478.000
267.082;   62.300;  354.000;   99.000
267.223;  -90.300; -344.000; -273.000
267.364; -240.300; -892.000; -686.000
267.504;  -26.100;    3.000;  135.000
267.645;  -14.600;  160.000;   67.000
267.786;  -38.500; -147.000;  -86.000
267.927; -108.200; -473.000; -379.000
268.068;  -38.400; -186.000;  -61.000
268.209; -101.900; -175.000; -413.000
268.350;  -85.100; -388.000; -532.000
268.490; -155.300; -648.000; -521.000
268.631;   66.200;  127.000;  225.000
268.772; -189.300; -874.000; -647.000
268.913;  -67.100; -328.000; -476.000
269.054;   12.400; -117.000;   12.000
269.194;  -58.900; -418.000; -402.000
269.335; -277.500;-1137.000;-1074.000
269.476;  -23.500;   33.000;  -35.000
269.617;  -60.400; -347.000; -392.000
269.757; -176.600; -713.000; -646.000
269.898; -232.100; -856.000; -613.000
270.039; -107.700; -415.000; -405.000
270.180; -296.000; -952.000; -816.000
270.320;  -74.600; -190.000; -250.000
270.461;  -75.800; -277.000; -249.000
270.602;    1.000; -186.000; -156.000
270.742; -251.400; -868.000; -943.000
270.883;  -87.000; -442.000; -390.000
271.023; -103.000; -358.000; -357.000
271.164; -143.600; -607.000; -528.000
271.305; -199.300; -666.000; -654.000
271.445; -176.700; -722.000; -683.000
271.586; -108.400; -462.000; -283.000
271.726; -101.700; -397.000; -322.000
271.867; -116.500; -594.000; -534.000
272.008;  364.000; -473.000; -285.000
272.148;  273.900;  462.000;  468.000
272.289;   56.600; -113.000; -181.000
272.429;   46.900;   19.000;  185.000
272.570; -183.300; -633.000; -737.000
272.710; -172.800; -825.000; -775.000
272.851;    1.700;  113.000; -130.000
272.991; -315.300;-1173.000;-1077.000
273.131; -116.700; -419.000; -459.000
273.272; -172.700; -683.000; -723.000
273.412;   41.700; -143.000;  -31.000
273.553;  -85.600; -488.000; -507.000
273.693;  346.800;  913.000;  858.000
273.834; -184.300; -894.000; -692.000
273.974; -127.400; -664.000; -615.000
274.114; -210.500; -772.000; -560.000
274.255;  176.000;  414.000;  373.000
274.395;   55.800; -180.000; -125.000
274.535;  100.500;  199.000;  350.000
274.676;   73.500;  225.000;   94.000
274.816;   28.600;  110.000;   34.000
274.956; -142.900; -624.000; -690.000
275.097; -130.600;-1014.000; -922.000
275.237; -204.700; -913.000; -803.000
275.377; -150.700; -778.000; -689.000
275.517; -282.200; -878.000; -937.000
275.658; -107.800; -590.000; -555.000
275.798; -148.100; -606.000; -413.000
275.938;   62.200;  215.000;  323.000
276.078; -168.100; -626.000; -395.000
276.218;   48.700;   99.000;  104.000
276.359; -253.100;-1026.000;-1024.000
276.499; -137.800; -605.000; -446.000
276.639;  -63.000; -305.000; -151.000
276.779; -100.700; -475.000; -357.000
276.919; -180.500; -783.000; -624.000
277.059;  -18.000; -261.000; -212.000
277.199;  -83.400; -357.000; -259.000
277.340;  128.100;  287.000;  175.000
277.480; -216.500; -840.000; -693.000
277.620;  117.800;  192.000;   16.000
277.760; -381.600;-1533.000;-1294.000
277.900;   77.000;  113.000;   33.000
278.040;   62.500;  137.000;  159.000
278.180;  109.700;  270.000;  170.000
278.320;   41.800;   21.000;   56.000
278.460; -115.600; -443.000; -469.000
278.600; -181.100; -708.000; -598.000
278.740;  116.100;  448.000;  224.000
278.880;  -82.700; -768.000; -791.000
279.020;   79.200; -194.000; -144.000
279.160; -166.600; -672.000; -595.000
279.300; -224.200; -926.000; -873.000
279.440; -165.400; -709.000; -622.000
279.579;  -52.300;-1014.000; -929.000
279.719;  -81.200; -410.000; -394.000
279.859;  146.800;   -4.000;   41.000
279.999;   58.800; -208.000;  101.000
280.139;   10.200; -435.000; -387.000
280.279; -133.000; -708.000; -745.000
280.419;   -4.400; -229.000; -147.000
280.559;  -21.400; -259.000; -180.000
280.698; -163.000; -790.000; -639.000
280.838; -181.200; -778.000; -800.000
280.978; -173.500; -846.000; -790.000
281.118; -221.800; -811.000; -704.000
281.257;   24.700;   24.000;    6.000
281.397; -224.300;-1094.000; -960.000
281.537; -147.900; -599.000; -712.000
281.677;   -8.500; -150.000; -101.000
281.816; -132.100; -700.000; -630.000
281.956;  -73.600; -193.000; -257.000
282.096; -101.900; -539.000; -396.000
282.235; -224.600; -672.000; -638.000
282.375;   -3.300; -243.000;  -98.000
282.515; -177.700; -715.000; -707.000
282.654;  119.300;   29.000;  106.000
282.794;   92.700;  388.000;  244.000
282.934;  -81.400; -530.000; -491.000
283.073; -233.200;-1030.000; -857.000
283.213; -100.000; -460.000; -467.000
283.353;  -23.700; -408.000; -349.000
283.492;  -53.600; -264.000; -296.000
283.632;  -57.700; -254.000; -168.000
283.771; -175.800; -859.000; -730.000
283.911;  -85.900; -369.000; -260.000
284.050; -219.300; -794.000; -748.000
284.190; -300.100;-1229.000;-1096.000
284.329; -278.300;-1055.000; -964.000
284.469; -119.500; -516.000; -591.000
284.608; -102.900; -559.000; -598.000
284.748; -143.900; -614.000; -570.000
284.887;   20.000;  -87.000;  -20.000
285.027; -240.000; -844.000; -892.000
285.166;  -20.000; -192.000; -249.000
285.306;   55.400; -116.000;  -33.000
285.445;  -32.100; -229.000; -343.000
285.584; -168.900; -630.000; -494.000
285.724;  -71.100; -282.000; -322.000
285.863; -231.300; -857.000; -507.000
286.002; -103.500; -366.000; -276.000
286.142; -217.800; -715.000; -622.000
286.281; -108.900; -525.000; -493.000
286.420; -122.000; -554.000; -417.000
286.560;  247.800;  653.000;  623.000
286.699; -249.200; -958.000; -912.000
286.838; -118.900; -590.000; -591.000
286.978; -147.200; -533.000; -537.000
287.117; -278.800;-1085.000; -950.000
287.256;  -11.600; -228.000; -211.000
287.395;  -58.800; -197.000; -378.000
287.535;  -69.900; -370.000; -298.000
287.674; -112.800; -509.000; -484.000
287.813;  140.500;  661.000;  533.000
287.952; -231.300;-1010.000; -871.000
288.091; -281.000;-1049.000; -915.000
288.231;   51.900;   13.000;   15.000
288.370; -332.500;-1217.000;-1200.000
288.509; -146.500; -728.000; -645.000
288.648; -144.400; -770.000; -548.000
288.787;    7.100; -243.000;  -87.000
288.926; -102.100; -454.000; -475.000
289.065;  289.200;  859.000;  672.000
289.204;  -72.200; -377.000; -217.000
289.344; -180.800; -791.000; -690.000
289.483;   93.400;  416.000;  304.000
289.622;  -10.200; -291.000; -149.000
289.761;    8.800; -309.000; -166.000
289.900; -180.700; -785.000; -626.000
290.039;    6.300;  -12.000;  -95.000
290.178;  -49.800; -274.000; -180.000
290.317; -173.600; -618.000; -479.000
290.456; -101.400; -463.000; -451.000
290.595; -255.800; -961.000; -833.000
290.734; -277.800; -904.000; -891.000
290.873; -119.800; -456.000; -420.000
291.011; -197.800; -833.000; -843.000
291.150; -194.300; -770.000; -682.000
291.289;  -11.600; -343.000; -110.000
291.428; -173.300; -599.000; -480.000
291.567; -103.100; -370.000; -442.000
291.706;   25.800;  109.000;  154.000
291.845; -172.600; -597.000; -505.000
291.984; -316.100;-1234.000;-1061.000
292.122;  211.600;  602.000;  582.000
292.261;  140.600;  620.000;  463.000
292.400;   31.500; -144.000;  211.000
292.539; -225.100; -959.000; -813.000
292.678;  -34.200; -325.000; -300.000
292.816; -286.100;-1136.000; -965.000
292.955; -134.500; -844.000; -684.000
293.094;  -14.400; -173.000; -337.000
293.233; -103.600; -556.000; -400.000
293.371;  -39.600; -225.000;  -84.000
293.510; -198.500; -866.000; -780.000
293.649; -248.900; -959.000; -924.000
293.787; -102.800;-1083.000;-1012.000
293.926;   29.900; -113.000;  -32.000
294.065;  -48.200; -379.000; -290.000
294.203;  140.600;  298.000;  406.000
294.342;  117.400;   74.000;  156.000
294.481;11558.000;51180.000; -836.000
294.619;  -32.200; -425.000; -582.000
294.758; -280.500;-1230.000;-1137.000
294.896;  200.300; -125.000;    5.000
295.035; -234.900;-1040.000;-1006.000
295.174; -212.400;-1082.000; -954.000
295.312;  -44.100; -323.000; -203.000
295.451;   49.800; -307.000; -428.000
295.589;  -65.400; -389.000; -518.000
295.728;  102.400; -292.000; -165.000
295.866;   86.100;  -36.000;  -51.000
296.005;  -70.000; -584.000; -341.000
296.143; -112.100; -558.000; -596.000
296.282; -163.300; -957.000; -881.000
296.420; -135.600; -657.000; -557.000
296.559; -119.300; -892.000; -633.000
296.697;   96.000; -847.000; -665.000
296.835;  208.400;-1141.000;-1002.000
296.974;  126.300;  -23.000;   39.000
297.112;   95.500; -443.000; -504.000
297.251;  -95.100; -815.000; -755.000
297.389;  236.300; -576.000; -438.000
297.527;  145.700; -145.000;  -83.000
297.666;  -48.000; -486.000; -438.000
297.804;  -55.400; -404.000; -264.000
297.942;   25.700; -136.000; -161.000
298.081;   50.400; -183.000;   63.000
298.219;  205.900;  -17.000;  -19.000
298.357;  110.900; -144.000;  -71.000
298.495;   93.100; -810.000; -812.000
298.634;  198.100;  245.000;  219.000
298.772;  141.900; -220.000; -338.000
298.910;  -49.000; -309.000; -182.000
299.048;   21.400; -130.000; -153.000
299.187;  -21.400; -350.000; -250.000
299.325;   52.600;   52.000;  122.000
299.463;  107.500; -389.000; -299.000
299.601;  276.000; -327.000; -271.000
299.739; -175.800; -908.000; -883.000
299.877; -155.000; -791.000; -703.000
300.016;  -93.500;-1095.000; -935.000
300.154;  368.700;  -19.000; -161.000
300.292;  150.400; -428.000; -348.000
300.430;  117.600; -408.000; -291.000
300.568; -185.500; -940.000; -874.000
300.706;  -52.300; -366.000; -469.000
300.844; -126.400;-1108.000; -979.000
300.982;  278.400;  246.000;  282.000
301.120; -182.300; -965.000; -866.000
301.258;  -92.300; -812.000; -705.000
301.396;   90.900;  104.000;  -41.000
301.534;  214.300; -218.000; -293.000
301.672;   46.700; -664.000; -521.000
301.810;  107.600; -613.000; -545.000
301.948;  321.600;   53.000;  149.000
302.086; 1199.100; -250.000;  -32.000
302.224; 1959.800; -610.000; -585.000
302.362;  123.200; -558.000; -622.000
302.500;  -21.200; -923.000; -893.000
302.638;  252.000;  128.000;  245.000
302.776;   22.300; -352.000; -408.000
302.913;  123.300;  447.000;  236.000
303.051;   49.000;  -86.000;  -23.000
303.189;  181.900;   90.000;  118.000
303.327;  -22.700; -341.000; -256.000
303.465; -117.500; -832.000; -588.000
303.603; -146.700; -805.000; -604.000
303.740;  216.500;  417.000;  241.000
303.878;   57.100; -800.000; -759.000
304.016; -179.700; -915.000; -790.000
304.154; -243.300;-1123.000;-1152.000
304.291;  -34.500; -505.000; -554.000
304.429;   68.800;  102.000;   74.000
304.567; -248.200; -908.000; -893.000
304.705;  -75.700; -408.000; -515.000
304.842;  224.100; -616.000; -540.000
304.980;  171.800;  215.000;   35.000
305.118;  118.200; -367.000; -365.000
305.255;  -99.100; -945.000; -927.000
305.393;  168.000;  178.000;  239.000
305.531; -163.000;-1173.000; -956.000
305.668; -101.200; -663.000; -582.000
305.806;  213.000; -358.000; -439.000
305.943;  237.700; -629.000; -637.000
306.081;  127.500; -378.000; -267.000
306.219; -193.600; -863.000; -748.000
306.356;   98.500;  158.000;   27.000
306.494;  269.700;  981.000;  761.000
306.631;   68.100;  -11.000;  -55.000
306.769;   53.400; -613.000; -485.000
306.906;   52.100; -284.000; -258.000
307.044;  -39.800; -473.000; -488.000
307.181;  -75.700; -410.000; -332.000
307.319;   78.800;  112.000;   87.000
307.456; -294.400;-1191.000;-1153.000
307.594; -194.100; -980.000; -727.000
307.731;   11.100; -371.000; -164.000
307.868;   26.500;  -15.000;   20.000
308.006; -240.500; -961.000; -847.000
308.143;  -62.700; -618.000; -330.000
308.281;  484.300;  -37.000; -254.000
308.418;   89.400; -748.000; -640.000
308.555;  -92.900; -400.000; -250.000
308.693;  -84.700; -577.000; -573.000
308.830; -159.500; -712.000; -657.000
308.967;   54.300; -215.000;  -95.000
309.105;   -2.800; -507.000; -396.000
309.242;  211.400; -468.000; -367.000
309.379;  908.700; -577.000; -655.000
309.517;  -11.800; -936.000; -948.000
309.654; -156.200; -910.000; -734.000
309.791;  -83.100; -662.000; -580.000
309.928; -183.300; -977.000; -914.000
310.065;  399.700;  819.000;  697.000
310.203;   14.200; -825.000; -850.000
310.340;   42.300; -465.000; -321.000
310.477; -125.900; -412.000; -516.000
310.614;  -43.800; -383.000; -473.000
310.751;  -74.200; -427.000; -518.000
310.889;   48.900;    1.000;   11.000
311.026; -272.100;-1161.000; -939.000
311.163;  -38.400; -386.000; -380.000
311.300; -119.500; -512.000; -479.000
311.437;  -93.900; -658.000; -619.000
311.574; -271.300;-1226.000; -985.000
311.711;  -41.200; -595.000; -433.000
311.848;  -14.000; -380.000; -388.000
311.985;   73.600;  270.000;   93.000
312.122; -213.800; -932.000; -762.000
312.259; -173.100; -941.000; -994.000
312.396;  -89.700; -508.000; -551.000
312.533; -101.000; -812.000; -790.000
312.670; -212.300;-1070.000; -898.000
312.807;  -43.200; -352.000; -367.000
312.944;  -87.400; -513.000; -611.000
313.081;   -3.300; -150.000; -415.000
313.218; -172.600;-1111.000; -867.000
313.355;   50.200; -531.000; -449.000
313.492;   80.700; -455.000; -292.000
313.629;  316.200;  815.000;  735.000
313.766; -242.800;-1176.000;-1008.000
313.902;   20.200; -186.000;   21.000
314.039;  -32.000; -372.000; -289.000
314.176;  133.400;  286.000;  192.000
314.313; -100.900; -569.000; -473.000
314.450;  -89.800; -788.000; -684.000
314.587;  -74.600; -468.000; -480.000
314.723;   89.900;  -78.000;  130.000
314.860;  142.000;  318.000;  332.000
314.997;  111.900;  223.000;  142.000
315.134;  -20.700; -385.000; -368.000
315.270;  -18.500; -480.000; -496.000
315.407; -230.600;-1094.000; -967.000
315.544;  -64.000; -657.000; -538.000
315.681;  -95.700; -681.000; -565.000
315.817;  112.300; -133.000; -176.000
315.954;   88.100; -613.000; -392.000
316.091; -222.800;-1045.000;-1023.000
316.227;    3.700;  -71.000; -179.000
316.364;   50.800;   23.000;    6.000
316.500;  -48.300; -113.000; -300.000
316.637;  -34.200; -181.000; -302.000
316.774; -123.900; -625.000; -358.000
316.910; -162.300; -598.000; -629.000
317.047;  -90.300; -487.000; -351.000
317.183;  -51.800; -435.000; -566.000
317.320;   12.600; -367.000; -321.000
317.456;  -94.800; -733.000; -805.000
317.593; -154.500; -598.000; -641.000
317.729;   48.200;  168.000;  -67.000
317.866; -362.700;-1434.000;-1285.000
318.002; -130.900; -708.000; -948.000
318.139; -134.100; -883.000; -867.000
318.275; -175.300;-1003.000; -738.000
318.412;  -90.400; -517.000; -336.000
318.548;  -19.900; -751.000; -720.000
318.685; -145.100; -985.000; -888.000
318.821; -153.700; -762.000; -735.000
318.957;   32.800;   34.000;  -23.000
319.094;  167.100;  297.000;  154.000
319.230; -108.500; -756.000; -742.000
319.367;  282.100; -471.000; -520.000
319.503;  133.000; -538.000; -436.000
319.639; -181.500; -877.000; -793.000
319.775; -120.600; -750.000; -685.000
319.912;  -33.000; -424.000; -519.000
320.048; -170.200;-1184.000;-1184.000
320.184;  182.100;   59.000;   70.000
320.321;  -61.000; -497.000; -467.000
320.457;  170.100;  475.000;  662.000
320.593; -110.200; -375.000; -382.000
320.729; -195.200; -732.000; -734.000
320.866; -136.800; -577.000; -635.000
321.002; -131.600; -759.000; -809.000
321.138;   14.800; -135.000; -211.000
321.274;  178.800; -148.000; -115.000
321.410;  -12.000; -585.000; -353.000
321.546;  -24.000;-1011.000; -911.000
321.683;  191.300;  400.000;  185.000
321.819;   78.100;  -48.000; -117.000
321.955; -171.000; -743.000; -722.000
322.091;  -75.400; -585.000; -540.000
322.227;   43.500; -382.000; -202.000
322.363;   31.900; -320.000; -215.000
322.499;  -38.200; -343.000; -331.000
322.635;  374.200;  636.000;  443.000
322.771;   89.400; -139.000;   12.000
322.907;  226.600;  129.000;  327.000
323.043;   36.600; -115.000; -206.000
323.179;  -32.300; -394.000; -363.000
323.315;  121.900; -401.000; -371.000
323.451;  285.900; -328.000; -236.000
323.587;  158.600;  -60.000;  -77.000
323.723;   72.400; -682.000; -601.000
323.859;    3.000; -258.000;  -76.000
323.995;  -38.200; -467.000; -409.000
324.131; -221.900; -967.000; -892.000
324.267;  -34.000; -254.000; -276.000
324.402; -214.100; -960.000; -983.000
324.538;   17.400; -279.000; -104.000
324.674;   77.400;  164.000;   77.000
324.810;  370.900;  226.000;  308.000
324.946;  105.700; -810.000; -658.000
325.082; -114.100; -568.000; -475.000
325.217;   -4.900;  -62.000;   16.000
325.353; -178.100; -764.000; -659.000
325.489; -128.300; -540.000; -506.000
325.625;  -89.700; -579.000; -525.000
325.760;  180.200;  517.000;  376.000
325.896;  -19.600; -515.000; -702.000
326.032;  -59.100; -403.000; -352.000
326.168; -104.700; -462.000; -369.000
326.303;  -76.600; -352.000; -461.000
326.439;  -16.500; -336.000; -276.000
326.575;   45.800; -190.000;  -29.000
326.710;   54.900; -156.000;  -30.000
326.846;   32.000;  146.000;  103.000
326.982; -123.200; -530.000; -548.000
327.117; -114.600; -481.000; -442.000
327.253; -145.800; -745.000; -742.000
327.388; -255.400;-1137.000;-1153.000
327.524;    3.900; -811.000; -578.000
327.659;   -9.300;  -58.000;  -22.000
327.795;    3.600;   69.000;   45.000
327.931; -144.400; -723.000; -499.000
328.066;   25.500; -417.000; -276.000
328.202;   41.300;   12.000; -129.000
328.337;  283.000;  957.000;  713.000
328.473;   19.300;  -12.000;  -74.000
328.608;   -9.000; -256.000; -267.000
328.743; -109.000; -799.000; -664.000
328.879;  111.100;  214.000;  114.000
329.014;  -69.300; -102.000; -122.000
329.150; -121.500; -358.000; -483.000
329.285;  -91.300; -465.000; -466.000
329.421;  -44.800; -548.000; -246.000
329.556;  -13.200;  -36.000;   85.000
329.691; -148.900; -633.000; -615.000
329.827; -139.000; -626.000; -480.000
329.962;  -52.600;  131.000; -301.000
330.097; -138.000; -673.000; -585.000
330.233;  -62.000; -410.000; -223.000
330.368; -216.300; -839.000; -628.000
330.503;   17.300;    3.000;   98.000
330.638;   75.400;  -93.000; -125.000
330.774;  -86.000; -609.000; -530.000
330.909;  -15.800; -434.000; -244.000
331.044; -162.000; -714.000; -708.000
331.179; -302.600;-1217.000;-1109.000
331.315;   78.800;   77.000;   20.000
331.450;   62.700;  157.000;  285.000
331.585; -114.300; -805.000; -706.000
331.720; -115.900; -510.000; -460.000
331.855;   33.800;  -35.000; -102.000
331.990;  412.400;   62.000;  138.000
332.126;  266.300; -110.000;   71.000
332.261;  -31.300; -379.000; -265.000
332.396;   18.500; -135.000; -242.000
332.531; -164.400;-1074.000;-1031.000
332.666;   76.400; -519.000; -363.000
332.801; -169.100; -726.000; -807.000
332.936;   -1.600; -192.000; -122.000
333.071; -272.200; -870.000; -817.000
333.206;   89.600;  307.000;  379.000
333.341;  132.600;  344.000;  418.000
333.476; -143.500; -627.000; -623.000
333.611;  -30.700; -251.000; -173.000
333.746;  -37.100; -381.000; -464.000
333.881; -179.200; -973.000; -935.000
334.016; -221.600; -936.000; -917.000
334.151; -213.100; -746.000; -702.000
334.286;  127.400;  152.000;  186.000
334.421;   31.200; -125.000; -178.000
334.556;  -55.500; -611.000; -567.000
334.690; -122.200; -631.000; -577.000
334.825;  184.300;  381.000;   83.000
334.960;  -53.200; -285.000; -413.000
335.095;   75.800;  135.000;  -91.000
335.230; -161.600; -722.000; -738.000
335.365; -204.700;-1084.000; -990.000
335.499; -227.200;-1108.000;-1037.000
335.634;   98.300;    9.000;  534.000
335.769; -135.700; -755.000; -720.000
335.904;  -42.600; -603.000; -561.000
336.038;  -43.900; -735.000; -657.000
336.173; -174.900;-1206.000;-1194.000
336.308;   65.500; -116.000; -189.000
336.443;   73.100; -544.000; -634.000
336.577; -110.400; -936.000; -787.000
336.712;  218.500;   -4.000;  -12.000
336.847;  -19.600; -724.000; -607.000
336.981;  216.100; -272.000; -208.000
337.116;  648.500;  615.000;  501.000
337.250;  409.400; -434.000; -421.000
337.385;  463.100; -297.000; -208.000
337.520;  138.600; -632.000; -603.000
337.654;   12.100; -215.000; -126.000
337.789; -218.500; -989.000; -933.000
337.923;  -22.800; -104.000; -205.000
338.058; -126.800; -673.000; -738.000
338.192;  -10.200; -611.000; -488.000
338.327;   55.300;  -18.000; -155.000
338.461;  -76.500; -299.000; -469.000
338.596; -122.100; -780.000; -638.000
338.730; -159.500; -767.000; -803.000
338.865;  195.200;  -46.000; -140.000
338.999; -123.900; -846.000; -702.000
339.134;  -25.000; -634.000; -536.000
339.268;   22.000; -741.000; -603.000
339.403;  645.400; -740.000; -775.000
339.537;  164.800; -894.000; -820.000
339.671; -182.400; -829.000; -813.000
339.806;  -88.000; -556.000; -512.000
339.940;   68.300; -261.000; -235.000
340.074; -130.100; -685.000; -510.000
340.209;  -30.000; -351.000; -230.000
340.343; -118.900; -517.000; -573.000
340.477;  401.700;  998.000; 1036.000
340.612;  -85.200;-1033.000; -900.000
340.746;  273.600; -199.000; -243.000
340.880; -125.100; -924.000; -785.000
341.014;   31.100;  -45.000; -154.000
341.149; -190.400; -756.000; -718.000
341.283; -163.700; -839.000; -754.000
341.417; -135.800;-1124.000; -938.000
341.551;  366.500; -768.000; -708.000
341.685;  -12.300; -633.000; -611.000
341.820;  -52.100; -562.000; -493.000
341.954;  -21.700; -218.000; -349.000
342.088; -263.100;-1102.000;-1019.000
342.222;  141.300;  565.000;  618.000
342.356;  -60.500; -395.000; -335.000
342.490; -149.900; -880.000; -841.000
342.624;  -20.400; -339.000; -242.000
342.758;   40.300; -364.000; -312.000
342.892;  -77.500; -710.000; -585.000
343.026;  -23.000;  -58.000; -116.000
343.160;  -67.000; -426.000; -376.000
343.294; -104.100; -474.000; -337.000
343.428;   23.800; -488.000; -448.000
343.562;    1.700; -172.000;  -23.000
343.696;   13.500; -385.000; -314.000
343.830;   25.700; -362.000; -356.000
343.964;  119.700; -231.000; -168.000
344.098; 1920.900;  199.000;   70.000
344.232; 1625.000; -266.000; -127.000
344.366;  157.200; -567.000; -453.000
344.500;  184.100; -665.000; -744.000
344.634;  122.900; -324.000; -164.000
344.768;   -6.500; -531.000; -341.000
344.902;  118.900;  278.000;  256.000
345.035;  -84.400; -556.000; -496.000
345.169; -269.900; -933.000; -656.000
345.303;    8.800; -308.000; -482.000
345.437;  -78.700; -826.000; -717.000
345.571; -142.300; -675.000; -594.000
345.704;  -85.500; -309.000; -532.000
345.838;   48.200; -331.000; -284.000
345.972;  -28.100; -543.000; -495.000
346.106;  323.300; -179.000; -190.000
346.239;  869.900; -312.000; -243.000
346.373;   84.200; -343.000; -302.000
346.507; -255.400; -950.000; -962.000
346.640;  372.200;  -30.000;   13.000
346.774;  -30.200; -650.000; -797.000
346.908;   40.400; -138.000;  -11.000
347.041; -143.900; -646.000; -593.000
347.175;   37.300;  259.000;   27.000
347.309;  -86.200; -698.000; -628.000
347.442; -118.800; -883.000; -732.000
347.576;  647.400;  670.000;  668.000
347.709;  494.300; -123.000;  -52.000
347.843; -138.900; -933.000; -825.000
347.976;  104.700;  235.000;  294.000
348.110; -305.300;-1268.000;-1186.000
348.243; -138.100; -679.000; -772.000
348.377;   53.600;  -26.000;   60.000
348.510;  188.800;  403.000;  540.000
348.644;  -13.000;  -37.000; -159.000
348.777;   61.100;  180.000;  191.000
348.911;  -38.500; -142.000; -112.000
349.044;  383.000;  471.000;  448.000
349.178;  358.000;-1069.000;-1006.000
349.311;  282.500;  141.000;  255.000
349.444;  -31.800; -927.000; -813.000
349.578;   29.900; -347.000; -200.000
349.711; -175.300; -959.000; -862.000
349.845;   57.800; -661.000; -591.000
349.978; -244.200;-1224.000;-1137.000
350.111; -108.500; -546.000; -612.000
350.244;  -86.300; -596.000; -700.000
350.378;   63.900; -392.000; -393.000
350.511;  -80.200; -393.000; -426.000
350.644; -152.700; -808.000; -806.000
350.778;   50.800;  168.000;  104.000
350.911;   56.700;  134.000;  140.000
351.044; -155.300; -685.000; -615.000
351.177;  -12.600; -321.000; -281.000
351.310;   36.200;    3.000; -131.000
351.444; -113.700; -888.000; -788.000
351.577;  315.200;  140.000;   90.000
351.710;  311.500;  593.000;  417.000
351.843;  -32.400; -165.000;  -77.000
351.976;   69.400;  149.000;  -79.000
352.109; -141.200; -621.000; -612.000
352.242;   20.200; -464.000; -419.000
352.376;  -40.100; -580.000; -636.000
352.509;  424.300; -437.000; -356.000
352.642;   58.300; -654.000; -604.000
352.775;  157.600; -141.000;  -98.000
352.908; -199.600; -933.000; -904.000
353.041; -141.600; -814.000; -824.000
353.174;  -57.600; -551.000; -424.000
353.307; -108.300; -753.000; -764.000
353.440;  216.600;  541.000;  453.000
353.573; -152.600; -957.000;-1008.000
353.706;  -26.000; -384.000; -558.000
353.839;   19.100; -264.000; -220.000
353.971; -140.100; -657.000; -512.000
354.104; -141.000; -896.000; -835.000
354.237;  -61.600; -627.000; -662.000
354.370; -110.000; -846.000; -879.000
354.503; -305.700;-1231.000;-1308.000
354.636;    9.100; -529.000; -348.000
354.769; -190.600; -937.000; -860.000
354.902;   56.000; -230.000; -139.000
355.034;   37.400; -164.000; -220.000
355.167;   30.000; -262.000; -162.000
355.300; -125.200;-1061.000; -880.000
355.433; 1767.700;  -71.000;  -14.000
355.565; 2697.000; -402.000; -384.000
355.698;  698.500; -356.000; -296.000
355.831;   20.200; -882.000; -801.000
355.964;  265.300; -285.000; -170.000
356.096; -125.500; -856.000; -843.000
356.229;   96.300; -523.000; -530.000
356.362;  618.900; -373.000; -266.000
356.494; 1073.600; -229.000; -162.000
356.627; 1052.600;  269.000;  377.000
356.760; 1205.900;  120.000;   53.000
356.892; 1687.800; -286.000; -601.000
357.025; 1407.800;  403.000;  389.000
357.157; 1291.400; -167.000; -179.000
357.290; 1069.300; -856.000; -713.000
357.423;  367.600; -667.000; -556.000
357.555;  306.700; -217.000; -228.000
357.688;  295.100; -483.000; -364.000
357.820;  848.100; -870.000; -877.000
357.953; 6820.200; -563.000; -589.000
358.085; 1632.400; -632.000; -612.000
358.218; 2664.700;-1131.000; -932.000
358.350;  502.700;  -58.000;  312.000
358.483; -175.300;-1300.000;-1187.000
358.615;   21.700;-1182.000;-1078.000
358.747;  -50.000;-1187.000;-1058.000
358.880;  124.300; -810.000; -744.000
359.012;   39.500; -376.000; -202.000
359.145;  -33.900; -480.000; -511.000
359.277;   99.300; -962.000; -913.000
359.409; 5843.900;  536.000;  231.000
359.542; 1494.000; -738.000; -688.000
359.674;  175.600;   46.000;   13.000
359.806;  -81.100; -565.000; -438.000
359.939;  -35.400; -617.000; -516.000
360.071;  -42.400; -583.000; -579.000
360.203;    6.300; -411.000; -364.000
360.335;  139.900;  164.000;  -16.000
360.468;  413.500; -249.000; -307.000
360.600; 4578.700; -547.000; -454.000
360.732; 4705.700; -546.000; -423.000
360.864;  622.200;-1216.000;-1044.000
360.996;  693.700; -516.000; -554.000
361.129;  153.500; -389.000; -598.000
361.261;  104.700;  110.000; -113.000
361.393;  -12.800; -252.000; -214.000
361.525;   96.200;   94.000;  244.000
361.657;  -60.400; -821.000; -703.000
361.789;   75.000; -139.000; -155.000
361.921;  581.500; -642.000; -593.000
362.053;  572.900;  524.000;  541.000
362.185;  170.500;  288.000;   72.000
362.318;  -89.600; -709.000; -705.000
362.450;  353.400;  294.000;  444.000
362.582;  401.500; -913.000; -870.000
362.714;   25.300; -353.000; -332.000
362.846;  -79.600; -606.000; -490.000
362.978; -225.300; -941.000; -811.000
363.109;  151.000; -161.000; -260.000
363.241;  990.000; -739.000; -749.000
363.373;  778.500; -649.000; -564.000
363.505; 1123.100; -186.000;  -91.000
363.637;  299.800; -787.000; -601.000
363.769; -206.400;-1067.000;-1080.000
363.901;  -80.400; -596.000; -654.000
364.033; -193.700;-1103.000;-1062.000
364.165;   48.500; -283.000; -283.000
364.296;  180.200; -316.000; -177.000
364.428;   89.700;-1344.000;-1220.000
364.560; -111.200; -679.000; -661.000
364.692;  -58.400; -738.000; -835.000
364.824;  662.400; -588.000; -456.000
364.955;  800.700; -402.000; -564.000
365.087; 1466.400;-1097.000; -852.000
365.219;   74.500; -686.000; -816.000
365.351; -106.800; -526.000; -572.000
365.482;  153.000;  300.000;  240.000
365.614;  -42.400; -402.000; -314.000
365.746; -162.400; -729.000; -752.000
365.877; -139.900; -706.000; -672.000
366.009;  502.900;  -35.000;  -62.000
366.141; -164.500;-1249.000;-1134.000
366.272; -168.600; -803.000; -719.000
366.404; -205.200;-1005.000; -874.000
366.535;   -1.000; -139.000;  -12.000
366.667; -160.600; -644.000; -649.000
366.799;  133.900;  353.000;  203.000
366.930; -189.400; -862.000; -996.000
367.062;  253.100; -639.000; -613.000
367.193;  280.900; -872.000; -842.000
367.325;  -50.600; -580.000; -684.000
367.456;  244.800; -246.000;   31.000
367.588;  297.200; -371.000; -318.000
367.719;   94.200;  -44.000;  -45.000
367.851;   22.300; -222.000; -241.000
367.982;  -51.300; -875.000; -732.000
368.113;  297.700; -475.000; -358.000
368.245; -174.000; -960.000; -841.000
368.376;   53.600; -254.000; -302.000
368.508;  -15.800; -188.000; -263.000
368.639; -222.600;-1166.000;-1034.000
368.770;   58.600; -670.000; -589.000
368.902;  -72.300; -836.000; -926.000
369.033; -179.000; -906.000; -855.000
369.164;  -57.100; -720.000; -653.000
369.296; -153.000; -452.000; -601.000
369.427;   91.500; -209.000; -144.000
369.558;  -40.700; -593.000; -377.000
369.689; -124.500; -721.000; -569.000
369.821; -200.100; -951.000; -845.000
369.952;   -2.500;   42.000; -108.000
370.083;  -51.700; -229.000; -108.000
370.214; -107.800; -735.000; -650.000
370.345;   44.400;   65.000;   81.000
370.477;  -79.900; -810.000; -790.000
370.608;  583.900; -328.000; -264.000
370.739;  -17.300;-1233.000;-1292.000
370.870;  -18.800;-1102.000; -923.000
371.001;  246.700; -378.000; -467.000
371.132;  -87.200; -754.000; -735.000
371.263;   24.900;  -42.000; -148.000
371.394; -224.400; -841.000; -748.000
371.525;  111.400;  345.000;  225.000
371.657; -131.700; -808.000; -670.000
371.788;  216.500;  103.000;  199.000
371.919;  428.500; -384.000; -304.000
372.050; 7344.100;  -91.000; -156.000
372.181; 2118.800; -188.000; -294.000
372.311;  850.500;   42.000; -127.000
372.442;  145.500; -457.000; -451.000
372.573;   37.900; -444.000; -340.000
372.704; -206.900;-1008.000; -980.000
372.835;  243.600; -228.000; -289.000
372.966;  -57.300; -646.000; -554.000
373.097;  -67.900; -575.000; -711.000
373.228;   -6.000; -717.000; -542.000
373.359;  344.200; -824.000; -536.000
373.490; 2034.200; -881.000; -727.000
373.620; 2471.100;-1001.000; -803.000
373.751; 3755.400; -332.000; -396.000
373.882; 1629.400; -663.000; -733.000
374.013;  198.400; -449.000; -262.000
374.143;  -24.500; -581.000; -659.000
374.274; -151.600; -987.000; -908.000
374.405;  447.200; -388.000; -276.000
374.536;  984.300; -526.000; -387.000
374.666; 2400.300; -759.000; -807.000
374.797;  529.000; -817.000; -868.000
374.928; 1905.400; -710.000; -560.000
375.058; 1877.600; -535.000; -500.000
375.189;  209.200;  -59.000;  -93.000
375.320; -167.900; -928.000;-1034.000
375.450;  -34.700; -625.000; -616.000
375.581;  -82.700; -526.000; -436.000
375.712;    1.300; -574.000; -250.000
375.842;  754.100; -438.000; -415.000
375.973;  501.200; -554.000; -513.000
376.103;  -20.500; -665.000; -648.000
376.234;  -82.100; -531.000; -552.000
376.364;  -31.800; -944.000; -867.000
376.495;  803.900;  925.000;  529.000
376.625;   99.100; -472.000; -485.000
376.756;  217.000; -709.000; -678.000
376.886;  -94.000;-1178.000;-1026.000
377.017;  102.300;-1048.000;-1061.000
377.147;  580.300; -786.000; -782.000
377.278;  208.200;  174.000;  228.000
377.408; -202.700; -801.000; -815.000
377.538; -143.500; -707.000; -693.000
377.669;  -86.500; -537.000; -613.000
377.799; -118.500; -645.000; -635.000
377.929;  -34.800; -610.000; -428.000
378.060; -187.600; -781.000; -847.000
378.190;  -42.600; -726.000; -531.000
378.320;  -25.300; -401.000; -406.000
378.451;   56.800; -131.000;  -22.000
378.581;   53.000;  -67.000; -110.000
378.711;  377.700; 1035.000;  866.000
378.841;   47.500; -533.000; -675.000
378.972;  -96.700; -871.000; -751.000
379.102;   36.600; -652.000; -579.000
379.232;   56.100; -126.000;  -73.000
379.362; -161.400;-1001.000; -885.000
379.492;  101.300; -373.000; -424.000
379.623;  250.200;    0.000;  111.000
379.753; -137.800;-1107.000; -974.000
379.883;  472.400;   59.000;  156.000
380.013;   98.800;-1081.000;-1017.000
380.143; -128.200;-1097.000;-1056.000
380.273; -125.900; -985.000; -861.000
380.403;   95.000; -344.000; -257.000
380.533;  -15.000; -651.000; -664.000
380.663;  265.200;  173.000;  128.000
380.793; -145.000;-1027.000;-1074.000
380.923;   52.700; -103.000;  -34.000
381.053; -119.000; -613.000; -623.000
381.183;   14.500; -106.000; -248.000
381.313;  144.700; -656.000; -470.000
381.443;  139.400; -692.000; -473.000
381.573;  504.100; -402.000; -409.000
381.703;  696.100;-1249.000;-1095.000
381.833; -185.400;-1454.000;-1336.000
381.963;  293.300; -134.000;  -87.000
382.093; 2836.700; -925.000; -909.000
382.223;  825.900; -713.000; -602.000
382.353;   24.400; -801.000; -608.000
382.482;  870.300;-1091.000; -964.000
382.612; 1597.700; -872.000; -644.000
382.742;  889.300; -695.000; -622.000
382.872;  656.300; -565.000; -551.000
383.002;  247.400;  347.000; -132.000
383.131;   52.000; -226.000; -160.000
383.261;  -13.800; -706.000; -768.000
383.391;  568.500; -552.000; -377.000
383.521; 5352.900;  451.000;  263.000
383.650; 1132.100; -947.000; -904.000
383.780;   12.100; -783.000; -656.000
383.910;  323.700;  880.000;  802.000
384.039;  143.700; -794.000; -656.000
384.169;  506.100;-1205.000;-1017.000
384.299;   31.600; -650.000; -662.000
384.428; -114.300; -764.000; -680.000
384.558;   14.800; -308.000; -275.000
384.687;   59.500; -414.000; -334.000
384.817;  153.800;   75.000;   -2.000
384.947;  142.500; -234.000; -141.000
385.076;  690.500;  982.000;  912.000
385.206;  289.600;  369.000;  480.000
385.335;   26.000; -549.000; -417.000
385.465;  -86.100; -655.000; -663.000
385.594;  400.500;  -53.000;  -44.000
385.724;  948.700; -868.000; -838.000
385.853;  354.700; -296.000; -270.000
385.982; 2998.600; -743.000; -787.000
386.112; 4346.700;-1052.000; -871.000
386.241;  393.200; -307.000; -312.000
386.371;  137.900; -174.000;  -87.000
386.500;   68.600; -825.000; -789.000
386.629;  126.400; -874.000; -817.000
386.759;  227.700;  -43.000;   68.000
386.888;  154.200; -170.000; -250.000
387.017;  -17.900; -648.000; -620.000
387.147;  -18.700; -771.000; -798.000
387.276;   80.500; -410.000; -397.000
387.405;   91.100; -398.000; -342.000
387.535;   -5.400; -452.000; -361.000
387.664;  -57.700; -692.000; -620.000
387.793;  215.000; -198.000; -113.000
387.922; 1226.200;  255.000;  200.000
388.052;  172.700; -576.000; -423.000
388.181;  206.500; -342.000; -472.000
388.310;  207.700; -889.000; -710.000
388.439;   43.500; -749.000; -742.000
388.568;  496.400;  365.000;  244.000
388.697; 2296.600; -756.000; -653.000
388.826;  438.600; -768.000; -666.000
388.956;  203.000; -285.000; -307.000
389.085;   36.200; -347.000; -287.000
389.214; -141.500; -842.000; -872.000
389.343;  -39.800; -645.000; -413.000
389.472;  784.200;  126.000;  149.000
389.601; 1014.700;   91.000;    0.000
389.730;   86.000; -568.000; -687.000
389.859;  201.800;  226.000;   46.000
389.988;  477.200; -423.000; -408.000
390.117;  334.800; -168.000; -146.000
390.246;   96.800; -331.000; -320.000
390.375;  305.800; -673.000; -626.000
390.504;  -58.800; -703.000; -621.000
390.633; -101.000; -672.000; -726.000
390.761;  -51.400; -732.000; -645.000
390.890;  149.700;   -4.000; -130.000
391.019;   26.300; -421.000; -441.000
391.148; -179.800; -826.000; -855.000
391.277;  -41.400; -576.000; -493.000
391.406;  -50.800; -821.000; -805.000
391.534;  138.100;  574.000; -301.000
391.663;  -40.600; -583.000; -645.000
391.792;  -91.200; -673.000; -701.000
391.921;  355.700;   -3.000;   15.000
392.050;  473.700; -287.000; -228.000
392.178;  -19.100;-1206.000;-1061.000
392.307;  382.000; -758.000; -712.000
392.436;  199.500; -427.000; -641.000
392.564;   89.400;  166.000;   -6.000
392.693; -136.900; -860.000; -682.000
392.822;  548.900; -529.000; -534.000
392.950;  276.900; -880.000; -714.000
393.079;  791.000; -188.000; -328.000
393.208;   86.700; -488.000; -511.000
393.336;   53.800; -170.000; -145.000
393.465;  -14.700; -317.000; -199.000
393.593;   96.800;   62.000;   79.000
393.722; -225.800;-1121.000; -916.000
393.850;   13.900; -188.000;  -61.000
393.979; -256.300; -926.000; -805.000
394.107;  -36.900; -517.000; -537.000
394.236;    8.600; -570.000; -507.000
394.364;  614.700;  383.000;  206.000
394.493; 1018.500; -911.000; -767.000
394.621;   52.000; -955.000; -916.000
394.750; 1337.900; -873.000; -923.000
394.878; 5407.100; -247.000; -149.000
395.007; 6782.800; -721.000; -807.000
395.135;  541.500; -790.000; -721.000
395.263; -132.900;-1038.000;-1040.000
395.392;   87.500;  -25.000; -107.000
395.520; -196.600; -818.000; -679.000
395.648;  -95.000; -865.000; -915.000
395.777;   41.400; -366.000; -405.000
395.905;  -22.100; -449.000; -564.000
396.033;  109.100;  217.000;  172.000
396.162; 1694.500; -399.000; -453.000
396.290; 1392.600;  -17.000;   -2.000
396.418;  344.900; -555.000; -514.000
396.546; -113.500; -571.000; -466.000
396.674; -135.600; -850.000; -878.000
396.803;   78.800;  -72.000;  -23.000
396.931;  301.100; -179.000; -199.000
397.059;  186.400;-1026.000; -989.000
397.187; -147.800;-1026.000; -975.000
397.315; -213.700; -884.000; -649.000
397.443; -134.800; -592.000; -443.000
397.572;  -97.900; -578.000; -424.000
397.700;   33.800; -607.000; -614.000
397.828;   79.300;  120.000;  -90.000
397.956;  -33.600; -508.000; -478.000
398.084; -108.100; -767.000; -626.000
398.212;  170.100;  137.000;  124.000
398.340;   87.400;  -56.000;  159.000
398.468;  148.700; -390.000; -169.000
398.596; -222.200; -993.000; -953.000
398.724; -193.500; -762.000; -767.000
398.852; -266.800;-1024.000; -976.000
398.980;  -80.300; -560.000; -560.000
399.108;  -40.200; -982.000; -735.000
399.236;  145.200;   13.000;    8.000
399.363;  112.300;  222.000;  196.000
399.491;  -84.200; -404.000; -398.000
399.619; -199.600; -829.000; -800.000
399.747; -153.200; -859.000; -771.000
399.875;  239.500;  220.000;  234.000
400.003;  -25.400; -359.000; -284.000
400.130; -128.700; -421.000; -341.000
400.258;   -1.000;  -83.000;   38.000
400.386;  -79.200; -352.000; -168.000
400.514;   -7.500; -526.000; -587.000
400.641;  -70.600; -928.000; -802.000
400.769; -209.500; -979.000; -888.000
400.897;  -91.400; -838.000; -793.000
401.025;   70.000; -166.000; -152.000
401.152;   66.300;  220.000;   38.000
401.280;  -91.000; -430.000; -429.000
401.408; -157.000; -712.000; -576.000
401.535; -137.900; -735.000; -758.000
401.663; -340.000;-1134.000;-1054.000
401.790;  -83.300; -514.000; -525.000
401.918;  163.600;  436.000;  405.000
402.046;   29.600;  134.000;  122.000
402.173;   10.700;  -18.000;    7.000
402.301;  -55.400; -519.000; -397.000
402.428;  162.100;  528.000;  383.000
402.556; -244.700;-1188.000; -913.000
402.683;   -4.600;  -20.000;   -1.000
402.811;   49.200;  -37.000; -206.000
402.938;   60.400;   20.000;   27.000
403.066;  462.300; -574.000; -558.000
403.193;  691.100;  299.000;  239.000
403.321;  579.000; -396.000; -574.000
403.448;  664.100;   83.000;   27.000
403.575;  329.700;  -90.000;  -46.000
403.703; -151.000; -732.000; -557.000
403.830;  -55.600; -531.000; -496.000
403.957; -249.900;-1117.000;-1023.000
404.085;  105.000;  -61.000; -172.000
404.212;  245.100;  -50.000;   63.000
404.339;  571.800; -566.000; -306.000
404.467;10568.300; -612.000; -524.000
404.594; 6878.700; -287.000; -227.000
404.721; 1748.000; -869.000; -764.000
404.848;  217.400; -113.000; -202.000
404.976; -145.100; -856.000; -783.000
405.103;   57.600;  -14.000;  -82.000
405.230;   71.600;  190.000;  226.000
405.357;  140.000;  117.000;   44.000
405.484;  581.100;  -49.000;    5.000
405.612;  146.500; -548.000; -563.000
405.739;  -62.800; -488.000; -243.000
405.866;  224.900;  669.000;  385.000
405.993;  -25.000; -398.000; -102.000
406.120; -218.000; -801.000; -887.000
406.247;  -20.700; -323.000; -342.000
406.374; 1049.000;  540.000;  629.000
406.501;  278.300; -632.000; -702.000
406.628;  -87.500; -621.000; -589.000
406.755; -125.100; -803.000; -620.000
406.882;   -2.400; -228.000; -277.000
407.009; -157.800; -719.000; -628.000
407.136;  203.500; -480.000; -401.000
407.263;  371.600; -939.000; -829.000
407.390; -101.200; -692.000; -614.000
407.517; -225.900;-1139.000;-1187.000
407.644;  -47.700; -332.000; -256.000
407.771;  -48.100; -249.000; -287.000
407.898;   87.600;  168.000;  328.000
408.025;  -74.100; -421.000; -313.000
408.151;   55.900;   82.000;  153.000
408.278;  -57.600; -267.000; -216.000
408.405; -178.100; -931.000; -899.000
408.532;  -59.700; -549.000; -542.000
408.659; -198.000; -677.000; -648.000
408.785; -363.400;-1298.000;-1170.000
408.912;  -25.000; -412.000; -296.000
409.039; -141.700; -610.000; -686.000
409.166; -132.200; -591.000; -555.000
409.292; -148.800; -571.000; -534.000
409.419; -199.400; -665.000; -649.000
409.546; -111.000; -431.000; -192.000
409.672; -151.500; -713.000; -545.000
409.799;    5.800;  -36.000;   34.000
409.926;  -34.600; -180.000; -179.000
410.052; -286.500;-1127.000;-1091.000
410.179;  -60.800; -368.000; -392.000
410.305;  -79.700; -375.000; -493.000
410.432;   21.100; -220.000; -333.000
410.558;  -87.400; -305.000; -380.000
410.685; -151.700; -688.000; -431.000
410.812; -131.500; -409.000; -588.000
410.938; -192.600; -964.000; -808.000
411.065; -139.500; -671.000; -645.000
411.191;    6.600; -189.000; -174.000
411.317; -168.700; -823.000; -742.000
411.444;  -83.000; -317.000; -246.000
411.570;  -54.400; -339.000; -294.000
411.697; -206.100; -758.000; -752.000
411.823; -288.800; -989.000; -999.000
411.949;   23.800;  -56.000;   17.000
412.076; -157.100; -539.000; -519.000
412.202; -162.300; -758.000; -757.000
412.329; -196.500; -798.000; -752.000
412.455; -153.500; -821.000; -657.000
412.581;   17.900;  -15.000;  172.000
412.707;  -61.400; -540.000; -457.000
412.834;   94.900;  156.000;  219.000
412.960; -115.800; -785.000; -784.000
413.086; -141.600; -743.000; -701.000
413.212;  443.200;  604.000;  578.000
413.339; -109.100; -685.000; -701.000
413.465;   70.200; -364.000; -310.000
413.591; -118.500; -757.000; -474.000
413.717;  -45.200; -358.000; -366.000
413.843; -232.100; -839.000; -861.000
413.969;  -78.100;  -47.000; -292.000
414.096; -156.200; -679.000; -679.000
414.222;   59.500;  -33.000;   85.000
414.348;    7.300; -652.000; -385.000
414.474;  302.400;   38.000;  -52.000
414.600;   28.500; -126.000; -144.000
414.726;   35.200;  -96.000;  -55.000
414.852;  -61.900; -365.000; -342.000
414.978;  125.100;  104.000;  -18.000
415.104;  142.600;   38.000;   80.000
415.230;  122.000; -329.000; -330.000
415.356;  166.500; -409.000; -514.000
415.482;  443.900;   13.000;  -35.000
415.608;  560.300; -247.000; -323.000
415.734; 1966.900;   67.000;   38.000
415.860;38858.500; -875.000; -767.000
415.986;25182.500; -685.000; -607.000
416.111; 2081.200; -798.000; -652.000
416.237;  500.800; -424.000; -571.000
416.363; 2184.600; -765.000; -733.000
416.489; 7273.900; -324.000; -251.000
416.615;  720.400; -707.000; -742.000
416.741;  -34.400; -677.000; -784.000
416.866; -125.300; -673.000; -736.000
416.992; -233.000; -801.000; -818.000
417.118;   16.500;  -41.000;  -80.000
417.244;  -79.000; -798.000; -531.000
417.369; -119.100; -801.000; -612.000
417.495;   29.900; -325.000; -254.000
417.621; -116.800;-1015.000; -803.000
417.746;   60.600; -579.000; -572.000
417.872;  136.500; -254.000; -144.000
417.998;  154.300; -515.000; -530.000
418.123; 2194.900;-1073.000; -845.000
418.249; 9623.300; -512.000; -601.000
418.374; 1225.800; -916.000; -824.000
418.500;  243.200; -383.000; -482.000
418.626;  237.700;   70.000;  -59.000
418.751;  261.000; -549.000; -448.000
418.877;  426.800; -637.000; -643.000
419.002; 3655.300; -688.000; -560.000
419.128;22708.800; -930.000; -721.000
419.253; 4931.700; -967.000; -837.000
419.379;  721.500; -391.000; -338.000
419.504;  759.000;  325.000;  415.000
419.629;  971.900; -393.000; -212.000
419.755; 6869.400; -317.000; -254.000
419.880;36145.200;  -98.000;   67.000
420.006;20949.900; -280.000; -221.000
420.131;51375.400; -662.000; -775.000
420.256; 6757.200; -315.000; -316.000
420.382;  942.900; -665.000; -687.000
420.507;  146.900; -649.000; -778.000
420.632;  368.100; -337.000; -339.000
420.758;  618.900; -251.000; -425.000
420.883; -120.000; -876.000; -672.000
421.008; -159.200; -775.000; -619.000
421.133; -109.600; -509.000; -467.000
421.259;  -44.300; -325.000; -259.000
421.384; -154.100; -834.000; -693.000
421.509;   38.800;-1052.000; -862.000
421.634; 2754.500; -936.000; -820.000
421.759; 1132.800; -359.000; -327.000
421.885;  -39.300; -717.000; -656.000
422.010;  -88.500; -673.000; -542.000
422.135; -240.300; -695.000; -727.000
422.260;  136.800;  340.000;  280.000
422.385;  -12.500;   12.000;  -98.000
422.510;   81.700;  151.000;  -26.000
422.635;   92.100;  -87.000;  -43.000
422.760;  222.000; -766.000; -791.000
422.885;  157.100;  -57.000;  -80.000
423.010;  -15.600; -112.000; -169.000
423.135; -127.300; -481.000; -561.000
423.260;   48.700; -150.000; -245.000
423.385;  219.000;  476.000;  222.000
423.510;  143.800;   71.000;  -22.000
423.635;  234.800;  133.000;   45.000
423.760;  211.300;  383.000;  328.000
423.885;  205.000;  336.000;  391.000
424.010;  109.700;  -68.000;  -13.000
424.135;   38.400;    5.000;  -33.000
424.259;  -97.800; -654.000; -457.000
424.384;  -71.500; -279.000; -272.000
424.509;   33.100; -260.000; -186.000
424.634; -128.800; -761.000; -623.000
424.759;   -9.000; -688.000; -544.000
424.883;   46.400; -506.000; -527.000
425.008;  361.500; -502.000; -410.000
425.133; 3793.500; -679.000; -653.000
425.258; 1553.800; -517.000; -381.000
425.382; 2237.800; -867.000; -774.000
425.507; 5041.900; -487.000; -543.000
425.632;  737.900; -802.000; -663.000
425.756;  883.100; -256.000; -146.000
425.881;11881.400; -831.000; -857.000
426.006;28571.800; -604.000; -355.000
426.130; 4186.300; -696.000; -508.000
426.255;  577.500; -611.000; -491.000
426.379;  323.800; -189.000; -577.000
426.504;  802.500;  660.000;  544.000
426.629; 8078.300; -519.000; -466.000
426.753; 4852.500;   64.000;  -46.000
426.878;  595.800; -252.000; -288.000
427.002;  299.800; -651.000; -668.000
427.127; 3212.900;  -35.000; -158.000
427.251;20727.100;  372.000;  401.000
427.375; 5232.900; -191.000; -173.000
427.500; 4616.100; -616.000; -610.000
427.624; 1423.800; -234.000; -400.000
427.749;  294.300; -216.000; -225.000
427.873;   -0.400; -499.000; -412.000
427.997;   12.000; -222.000; -230.000
428.122;  258.200;  795.000;  703.000
428.246;  244.800;  433.000;  434.000
428.371; -185.600; -869.000; -773.000
428.495; -146.500; -624.000; -646.000
428.619;   24.200; -186.000; -117.000
428.743;  166.700;   65.000;  132.000
428.868;  103.300; -732.000; -643.000
428.992; 2895.900; -219.000; -326.000
429.116; 1124.700; -329.000; -357.000
429.240;  627.600;  419.000;  426.000
429.365;   22.900; -454.000; -574.000
429.489;   14.300; -638.000; -647.000
429.613;  122.800; -236.000; -177.000
429.737;  156.300; -563.000; -432.000
429.861;  568.500; -247.000; -133.000
429.985;10829.900; -425.000; -305.000
430.109;10494.200; -770.000; -908.000
430.234; 1243.200;   76.000;  -50.000
430.358;  177.800; -250.000; -160.000
430.482;  -36.800; -672.000; -564.000
430.606;   -7.600; -655.000; -375.000
430.730;  160.800; -437.000; -388.000
430.854;  391.400; -909.000; -835.000
430.978;  -58.400; -795.000; -764.000
431.102;  -55.700; -499.000; -422.000
431.226; -108.100; -874.000; -815.000
431.350;  204.900;  345.000;  422.000
431.474;  -62.100; -661.000; -373.000
431.597; -249.300;-1060.000; -848.000
431.721;  -97.500; -276.000; -267.000
431.845; -214.500; -704.000; -472.000
431.969; -112.700; -304.000; -349.000
432.093; -144.900; -395.000; -317.000
432.217;   48.600;   32.000;   82.000
432.341;  -92.500; -523.000; -518.000
432.464;  103.000;   96.000;   40.000
432.588;  572.300; -401.000; -329.000
432.712;  272.500;  -52.000;  -52.000
432.836;  149.200;  213.000;  263.000
432.959;   13.500; -372.000; -311.000
433.083;  230.200;   11.000;    2.000
433.207;  772.800;  285.000;  930.000
433.330; 9617.500; -391.000; -200.000
433.454;10606.000; -654.000; -638.000
433.578; 6409.500;  583.000;  278.000
433.701; 1080.400; -623.000; -675.000
433.825;  344.600; -292.000; -299.000
433.949;  521.700;   28.000;  -72.000
434.072;  211.800; -410.000; -323.000
434.196;   52.600; -309.000; -117.000
434.319; 8025.900;25482.000;25124.000
434.443; 1581.400; -656.000; -603.000
434.566; 4913.100;  281.000;   62.000
434.690;  721.400; -637.000; -383.000
434.813;  179.500; -251.000; -173.000
434.937;  -73.300; -569.000; -696.000
435.060;   39.100; -423.000; -332.000
435.184;  901.900; -492.000; -217.000
435.307;  431.800;  159.000;  102.000
435.431;   51.200;  -40.000;   24.000
435.554;  -76.700; -399.000; -240.000
435.677;  -72.200; -350.000; -258.000
435.801;  -18.000;  -25.000;   49.000
435.924;   86.200;    1.000;  -67.000
436.048; -142.700;-1019.000; -732.000
436.171;  -77.800; -240.000;  -66.000
436.294;   -1.600; -248.000; -229.000
436.417;  181.300; -963.000; -849.000
436.541; -129.700; -814.000; -840.000
436.664;  -26.600; -242.000; -316.000
436.787;   66.100;   13.000;  113.000
436.910; -184.400; -792.000; -422.000
437.034;  138.100;  142.000;  143.000
437.157;  242.600;  -11.000;    0.000
437.280;   -3.000; -392.000; -292.000
437.403;  -70.700; -982.000; -869.000
437.526; 1704.000; -903.000; -865.000
437.649; 5204.600; -505.000; -332.000
437.772;  720.800; -692.000; -540.000
437.896;  314.400;  700.000;  544.000
438.019; -122.600; -758.000; -503.000
438.142; -103.300; -596.000; -506.000
438.265;   94.500; -639.000; -670.000
438.388; 1373.200; -520.000; -410.000
438.511;  252.300; -597.000; -394.000
438.634;  -21.700; -247.000; -125.000
438.757; -199.000; -693.000; -619.000
438.880;   41.200;  -34.000;  -57.000
439.003;  -84.900; -417.000; -437.000
439.126;  -93.200; -287.000; -167.000
439.248;  -51.800;  -98.000; -139.000
439.371;   -9.800;    9.000;  -53.000
439.494;  147.900;  510.000;  439.000
439.617;  -43.900;   65.000;  -88.000
439.740; -298.600; -968.000; -816.000
439.863; -191.300; -755.000; -595.000
439.986; -157.100; -476.000; -431.000
440.108;   -8.200; -161.000; -112.000
440.231; -269.900; -950.000; -836.000
440.354;   19.800;  -64.000; -150.000
440.477;  225.400; -566.000; -542.000
440.599;  107.000; -200.000; -225.000
440.722; -200.300; -709.000; -586.000
440.845;  196.300;  751.000;  928.000
440.968; -157.400; -415.000; -311.000
441.090;  -50.200; -199.000;  -33.000
441.213; -293.100;-1021.000; -825.000
441.336;  -35.200; -159.000;   -5.000
441.458; -103.900; -549.000; -396.000
441.581;  -82.700; -628.000; -629.000
441.703;  -83.500; -152.000;   13.000
441.826; -158.000; -557.000; -400.000
441.948;  -84.100;   56.000;   51.000
442.071;  141.300;  555.000;  424.000
442.193; -160.600; -531.000; -485.000
442.316;  128.100;  152.000;   97.000
442.438;  113.300; -233.000;  -10.000
442.561;  226.400;  272.000;  262.000
442.683; 1412.900; -809.000; -522.000
442.806; 2602.200;   -8.000;   74.000
442.928;  120.500; -859.000; -604.000
443.051;  -61.900; -577.000; -373.000
443.173; -139.300; -341.000; -339.000
443.295;  -98.900; -263.000; -371.000
443.418;  -57.600; -321.000;  -29.000
443.540;   72.700; -106.000;   -4.000
443.662; -177.300; -563.000; -465.000
443.785;   47.500;  335.000;  199.000
443.907; -142.100; -362.000; -208.000
444.029; -200.600; -767.000; -494.000
444.152; -213.000; -644.000; -554.000
444.274;   15.400;  -18.000;  -24.000
444.396; -129.600; -461.000; -221.000
444.518; -231.100; -691.000; -454.000
444.640; -107.500; -268.000; -111.000
444.763;   63.800;  388.000;  249.000
444.885; -175.100; -432.000; -392.000
445.007;   19.000;   35.000;   86.000
445.129; -177.500; -610.000; -515.000
445.251; -159.600; -372.000; -439.000
445.373; -207.300; -537.000; -386.000
445.495;   88.900;  242.000;  350.000
445.617;  187.600;  853.000;  753.000
445.739;  -71.400; -215.000;  -97.000
445.861;    6.000; -245.000; -112.000
445.984;   26.200; -267.000; -101.000
446.105;  550.000; -418.000; -251.000
446.227; 1376.600; -176.000;  -19.000
446.349;   33.900; -358.000; -249.000
446.471; -114.300; -615.000; -448.000
446.593;  -35.900; -316.000;   19.000
446.715;   45.500;  -67.000;   41.000
446.837;  197.600;  697.000;  832.000
446.959; -140.500; -457.000; -478.000
447.081; -207.100; -628.000; -518.000
447.203;  194.300;  862.000;  834.000
447.325; -112.000; -270.000;   42.000
447.446;   76.200;  286.000;  530.000
447.568; -212.500; -921.000; -803.000
447.690;  -95.100; -236.000; -245.000
447.812; -231.200; -798.000; -519.000
447.933;   16.500;  155.000;  127.000
448.055;  -26.400; -306.000; -261.000
448.177;  392.200;   31.000;   79.000
448.299;  247.500; -935.000; -727.000
448.420;   75.300;  -25.000;  159.000
448.542;  -25.400;   -3.000;   33.000
448.664;   42.200;  109.000;  322.000
448.785;   25.700;  265.000;   83.000
448.907;  -77.200; -614.000; -353.000
449.028;  -34.800; -771.000; -471.000
449.150;  190.900;  492.000;  589.000
449.272; -306.800;-1044.000; -913.000
449.393;  127.800;  612.000;  694.000
449.515; -194.800; -634.000; -581.000
449.636;  -31.000; -264.000; -155.000
449.758;  251.900;  763.000;  622.000
449.879; -126.700; -498.000; -396.000
450.001;  -69.200; -149.000;  -49.000
450.122;   -0.500;  -95.000;  162.000
450.244;   13.100;   37.000;  364.000
450.365; -133.700; -495.000; -301.000
450.486;  -24.900;   80.000;  268.000
450.608;   87.400;  393.000;  326.000
450.729;  209.000;  578.000;  645.000
450.850;   23.200; -574.000; -466.000
450.972; 1400.100; -552.000; -389.000
451.093; 8761.900;  190.000;  588.000
451.214; 3288.700; -516.000; -337.000
451.336;  736.700;  773.000;  579.000
451.457;  165.100;  264.000;  393.000
451.578;  -27.400; -118.000;  -74.000
451.699; -180.500; -546.000; -540.000
451.821;  -57.400; -284.000;  -50.000
451.942;   67.500;  278.000;  285.000
452.063;  176.400;  228.000;  419.000
452.184; 1115.600;  -54.000;  -49.000
452.305; 1996.800;  103.000;  170.000
452.427;  231.800; -549.000; -301.000
452.548;   34.500;   23.000;   79.000
452.669;  -33.100; -257.000;  -89.000
452.790;    0.400;    3.000;  -18.000
452.911;   63.700;  195.000;  259.000
453.032;  -57.900; -289.000;  -60.000
453.153;   -8.300;  -29.000;   81.000
453.274;  199.300;  737.000;  868.000
453.395;  -14.400;  -51.000;  175.000
453.516;  362.900; 1317.000; 1388.000
453.637;  -12.200; -205.000; -150.000
453.758;  -26.100;   15.000;   69.000
453.879; -166.800; -462.000; -250.000
454.000;  231.800; 1086.000;  948.000
454.121; -197.100; -554.000; -326.000
454.242; -204.900; -599.000; -383.000
454.362;  -72.700;  -99.000;  114.000
454.483;   14.100; -309.000; -229.000
454.604;  204.400;  512.000;  580.000
454.725; -201.900; -627.000; -555.000
454.846; -161.100; -474.000; -406.000
454.967;   44.900;  230.000;  539.000
455.087;  -36.700;  179.000;  153.000
455.208;  113.100;  554.000;  856.000
455.329;  -55.200;  -22.000;   82.000
455.450;  146.600;  473.000;  633.000
455.570; -115.700; -234.000; -211.000
455.691;  -30.400;  201.000;  407.000
455.812; -141.200; -270.000;  -92.000
455.932;  -65.000;  107.000;  -97.000
456.053;  -91.200;   36.000;   24.000
456.173; -170.400; -433.000; -355.000
456.294; -195.400; -476.000; -303.000
456.415;  -75.100;  -73.000;   70.000
456.535;   33.600;  297.000;  273.000
456.656;  -12.600;  132.000;  240.000
456.776;  -59.300;    3.000;  298.000
456.897;   88.300;  308.000;  513.000
457.017;  -76.200; -153.000;   -3.000
457.138; -160.800; -402.000; -249.000
457.258;   33.200;  263.000;  224.000
457.379;   47.800;  509.000;  521.000
457.499;   28.500;  443.000;  432.000
457.620; -184.900; -407.000; -231.000
457.740; -130.300; -132.000;  -11.000
457.860;  -50.400;   87.000;   44.000
457.981;  -27.200;  132.000;  124.000
458.101;  -90.900;  -89.000;   40.000
458.221;   41.100;  336.000;  402.000
458.342;  -68.000;   -4.000;  -37.000
458.462;   99.500;  617.000;  352.000
458.582;  -27.700; -302.000; -294.000
458.703;   59.900;  303.000;  154.000
458.823;   25.200;   22.000;  163.000
458.943;  110.300;  341.000;  467.000
459.063;   17.300; 1124.000;  192.000
459.183;    8.100;  328.000;  313.000
459.304;   93.400;  315.000;  517.000
459.424;  -66.700; -246.000;  -89.000
459.544;  734.700;  388.000;  764.000
459.664; 1560.500;  499.000;  506.000
459.784;  586.500; 1004.000; 1175.000
459.904;  178.200;  867.000;  744.000
460.024;  245.600;  867.000;  684.000
460.144;  105.200;  449.000;  554.000
460.264;   43.900;  515.000;  327.000
460.385; -133.400; -145.000; -119.000
460.505;  142.500;  905.000;  858.000
460.625; -112.200;  -17.000;  -68.000
460.745;   42.200;  396.000;  541.000
460.864;  -26.200;  153.000;  469.000
460.984;   90.400;  499.000;  573.000
461.104;  390.700; 1656.000; 1775.000
461.224;  118.400;  657.000;  650.000
461.344;    8.000;  431.000;  360.000
461.464;    2.700;  258.000;  513.000
461.584;   40.100;  283.000;  466.000
461.704;  -27.800;   58.000;  108.000
461.824;  -60.400;  238.000;  259.000
461.943;  -11.300;  191.000;  130.000
462.063;  -89.700;    2.000;  324.000
462.183;  145.800;  639.000;  717.000
462.303;  290.400; 1678.000; 1230.000
462.422;  100.400;  781.000;  840.000
462.542;   -4.200;  271.000;  391.000
462.662;  181.900;  353.000;  380.000
462.782;  546.800;  833.000;  572.000
462.901;  917.700;  545.000;  717.000
463.021;  567.500; 1702.000; 1638.000
463.141;   44.300;  337.000;  770.000
463.260;   53.400;  614.000;  474.000
463.380;  113.200;  902.000;  884.000
463.499;  -21.200;  342.000;  332.000
463.619;  -28.400;  581.000;  559.000
463.738;  303.200; 1644.000;  903.000
463.858;  124.600;  657.000;  811.000
463.978;  -11.700;  542.000;  396.000
464.097;  171.600;  921.000; 1114.000
464.217;  278.800; 1196.000; 1143.000
464.336;  284.600; 1068.000; 1130.000
464.455;   31.000;  328.000;  659.000
464.575;  188.800;  597.000;  602.000
464.694;  436.800; 1204.000; 1179.000
464.814;  306.800; 1190.000; 1138.000
464.933;  219.400; 1095.000; 1027.000
465.052;  279.100; 1412.000; 1054.000
465.172;  218.700;  922.000;  799.000
465.291;  350.500; 1376.000; 1320.000
465.410;   54.100;  462.000;  735.000
465.530;  267.300; 1355.000; 1310.000
465.649;  218.300; 1209.000; 1273.000
465.768;  376.300; 1673.000; 1508.000
465.888;  178.400;  941.000; 1174.000
466.007;  248.700; 1335.000; 1440.000
466.126;   47.200;  721.000;  641.000
466.245;  185.200; 1176.000; 1187.000
466.364;  103.900;  950.000; 1060.000
466.484;  197.400; 1024.000; 1213.000
466.603;  156.800; 1101.000; 1222.000
466.722;  312.800; 1490.000; 1769.000
466.841;  262.900; 1151.000; 1401.000
466.960;  136.900; 1069.000;  972.000
467.079;  404.300; 1971.000; 1786.000
467.198;  204.400; 1238.000; 1181.000
467.317;  286.900; 1768.000; 1162.000
467.436;  226.400; 1709.000; 1261.000
467.555;  323.300; 1796.000; 1746.000
467.674;  219.700; 1227.000; 1329.000
467.793;  172.600; 1376.000; 1374.000
467.912;  249.700; 1658.000; 1539.000
468.031;  351.900; 2038.000; 1930.000
468.150;  381.200; 1842.000; 1837.000
468.269;  479.900; 2313.000; 2090.000
468.388;  483.200; 2168.000; 2339.000
468.507;  605.800; 2884.000; 2903.000
468.626;  622.800; 2555.000; 2541.000
468.744;  348.800; 2018.000; 2174.000
468.863;  479.000; 2312.000; 2523.000
468.982;  261.100; 1503.000; 1555.000
469.101;  557.800; 2788.000; 2692.000
469.220;  380.900; 2333.000; 2176.000
469.338;  586.700; 2935.000; 3051.000
469.457;  495.000; 2719.000; 2545.000
469.576;  790.300; 3953.000; 3784.000
469.695;  591.600; 2877.000; 3066.000
469.813; 1009.300; 4148.000; 4192.000
469.932;  918.100; 4255.000; 4485.000
470.051;  948.900; 4075.000; 4161.000
470.169; 1839.000; 4470.000; 4338.000
470.288; 2836.800; 4700.000; 4809.000
470.406; 1620.100; 5059.000; 5194.000
470.525; 1285.000; 6101.000; 5787.000
470.644; 1380.100; 6847.000; 6794.000
470.762; 1740.400; 8397.000; 7873.000
470.881; 1878.100; 8651.000; 8464.000
470.999; 2165.900; 9685.000; 9151.000
471.118; 2336.100;11174.000;10711.000

