
Integration time [ms]: 100.000
Averaging Nr. [scans]: 40
Smoothing Nr. [pixels]: 0
Data measured with spectrometer [name]: 2101012U2
Wave   ;Sample   ;Dark     ;Reference
[nm]   ;[counts] ;[counts] ;[counts] 

197.733;   65.550;  516.000;  404.000
197.879;  -85.850; -610.000; -634.000
198.025;  -56.975; -475.000; -420.000
198.171;  -72.600; -602.000; -612.000
198.317;  -25.550; -401.000; -316.000
198.463;  -64.800; -655.000; -404.000
198.609;   26.075;  181.000; -137.000
198.755;  -85.650; -644.000; -410.000
198.901;  -71.750; -505.000; -424.000
199.047;  -72.975; -615.000; -488.000
199.193;  -40.125; -230.000; -468.000
199.339;  -39.525; -222.000; -369.000
199.485;   37.500;  330.000;  271.000
199.631;    4.600;  227.000;  310.000
199.777;  -40.975; -466.000; -398.000
199.923;  -67.125; -610.000; -424.000
200.069;    6.400; -141.000;  -58.000
200.215;   47.350;  128.000;  453.000
200.361;   40.700;  243.000;  477.000
200.507;  -69.175; -600.000; -373.000
200.653;  -15.975; -371.000; -194.000
200.798;  -28.100; -215.000; -125.000
200.944;   -0.550; -146.000;  -41.000
201.090;   42.325;   61.000;  222.000
201.236;  -16.150; -116.000; -158.000
201.382;  117.550;  874.000;  903.000
201.528;    0.475;  -58.000;  -48.000
201.674;  -36.275; -386.000; -293.000
201.819;  -58.000; -540.000; -439.000
201.965;  -82.450; -699.000; -447.000
202.111;  -27.075; -273.000; -226.000
202.257;  -45.850; -250.000; -238.000
202.402;    8.800;   13.000;  -36.000
202.548;  -35.975; -169.000; -116.000
202.694;   70.600;  410.000; -183.000
202.840;  -66.975; -603.000; -531.000
202.985;  -67.025; -681.000; -639.000
203.131; -114.825; -832.000; -666.000
203.277;  -23.725; -199.000; -262.000
203.423;  -58.725; -434.000; -520.000
203.568;  -32.450; -462.000; -237.000
203.714;  -61.825; -535.000; -542.000
203.860;  -77.050; -682.000; -641.000
204.005;   15.550;  112.000;  167.000
204.151;   69.350;  561.000;  556.000
204.296;  -49.950; -354.000; -221.000
204.442;  -64.875; -600.000; -547.000
204.588;  -86.500; -592.000; -579.000
204.733;   21.375;  178.000;  168.000
204.879; -133.725;-1018.000; -822.000
205.025;    7.925;  -99.000;  126.000
205.170;   -1.675;  -17.000;   94.000
205.316;   87.975;  438.000;  661.000
205.461;  -86.050; -698.000; -554.000
205.607;   77.375;  609.000;  665.000
205.752;  -87.900; -626.000; -551.000
205.898;  -53.225; -501.000; -391.000
206.043;  -82.425; -578.000; -506.000
206.189;  -36.675; -243.000; -285.000
206.334;   73.625;  554.000;  606.000
206.480;   64.425;  409.000;  239.000
206.625;  -86.500; -529.000; -552.000
206.771;  -53.150; -451.000; -373.000
206.916;  -44.950; -210.000; -537.000
207.062;  -69.800; -545.000; -591.000
207.207;  -63.750; -546.000; -443.000
207.353;   54.950;  185.000;  460.000
207.498;   12.500;  196.000;   85.000
207.643;  -37.300; -501.000; -370.000
207.789; -131.250;-1069.000; -910.000
207.934;  -95.700; -665.000; -713.000
208.080;  -27.950; -154.000;   66.000
208.225;   -5.150;  -22.000;  -57.000
208.370;  -76.100; -727.000; -619.000
208.516;  -86.125; -741.000; -487.000
208.661;  -26.425; -127.000;  -69.000
208.806;  -31.475; -165.000; -171.000
208.952; -122.625;-1044.000; -731.000
209.097;   63.550;  378.000;  349.000
209.242;  -44.450; -307.000; -382.000
209.387;   70.400;  392.000;  350.000
209.533;  -66.000; -321.000; -350.000
209.678;   62.625;  472.000;  543.000
209.823;  -50.725; -408.000; -310.000
209.969;  -99.950; -860.000; -757.000
210.114;  -99.975; -907.000; -719.000
210.259; -107.625; -939.000; -889.000
210.404;  -10.850; -171.000;  103.000
210.549;    4.875;  108.000;    3.000
210.695;  -29.850;   -3.000;  -95.000
210.840;   31.725;   94.000;   67.000
210.985;  -78.450; -484.000; -303.000
211.130;   55.675;  268.000;  406.000
211.275;    4.650;  207.000;  199.000
211.420;  -50.975; -300.000; -289.000
211.566;  -78.800; -536.000; -489.000
211.711;   21.850;  218.000;  157.000
211.856;  -72.475; -545.000; -519.000
212.001;    4.550;  151.000;   44.000
212.146;   21.100;  153.000;   49.000
212.291;  -34.600; -210.000; -186.000
212.436;  -33.225; -280.000;   -6.000
212.581;  -71.950; -685.000; -653.000
212.726;  -73.500; -487.000; -538.000
212.871;  -40.900; -552.000; -217.000
213.016; -149.025;-1172.000;-1029.000
213.161;   69.625;  406.000;  291.000
213.306;  -67.050; -435.000; -577.000
213.451;  -97.325; -778.000; -689.000
213.596;  -40.700; -455.000; -347.000
213.741;  -68.625; -448.000; -538.000
213.886;  -82.425; -498.000; -517.000
214.031;  -17.950; -294.000; -124.000
214.176;  -62.275; -408.000; -341.000
214.321;  -12.450; -296.000; -157.000
214.466;  -30.275; -163.000;  -43.000
214.611;    3.700;  -61.000;  -10.000
214.756; -120.925; -948.000; -858.000
214.901;  -26.775; -388.000; -226.000
215.046; -122.000; -797.000; -825.000
215.191;   12.575;  128.000;   35.000
215.336;  -25.800; -157.000;  -19.000
215.480;  -57.050; -684.000; -505.000
215.625;  -19.675; -175.000;  -19.000
215.770;  -80.325; -757.000; -662.000
215.915;  -17.250;   -5.000;  -97.000
216.060;   -7.200; -113.000;  -21.000
216.205; -110.725; -731.000; -779.000
216.349;  -70.250; -470.000; -533.000
216.494; -132.350; -939.000; -867.000
216.639; -111.575; -823.000; -888.000
216.784;  -80.775; -577.000; -525.000
216.929;   46.150;  392.000;  281.000
217.073;  -19.250; -244.000;  -31.000
217.218;    1.625;   78.000;  -47.000
217.363;  -82.950; -656.000; -618.000
217.507;  -86.150; -623.000; -588.000
217.652; -133.725; -845.000; -874.000
217.797;  -74.450; -708.000; -659.000
217.942; -113.325; -856.000; -720.000
218.086;   76.525;  608.000;  539.000
218.231;  -22.350; -174.000;  -26.000
218.376;  -39.775; -337.000; -229.000
218.520;   -3.725;  -41.000;   96.000
218.665;  -38.325; -338.000; -204.000
218.810;  -45.800; -275.000; -233.000
218.954;   19.100;  201.000;   35.000
219.099; -108.250; -713.000; -963.000
219.243;  -78.450; -589.000; -554.000
219.388;  -24.250; -264.000; -136.000
219.532;  -16.825; -116.000; -116.000
219.677;  -90.450; -564.000; -521.000
219.822;    2.425;   33.000;   89.000
219.966;    2.475;   17.000;  -99.000
220.111;  -25.725; -328.000;  -40.000
220.255; -108.775; -797.000; -750.000
220.400;  -15.025; -180.000; -146.000
220.544;  -75.150; -516.000; -450.000
220.689;  -54.375; -422.000; -451.000
220.833;  -26.100; -123.000;  -58.000
220.978;  -40.925; -393.000; -563.000
221.122;   18.325;  319.000;  307.000
221.267; -109.425; -906.000; -837.000
221.411;  -53.850; -478.000; -394.000
221.555;  -21.875; -104.000;  -23.000
221.700;  -37.000; -329.000; -222.000
221.844;   35.450;  255.000;  272.000
221.989;  -49.375; -328.000; -311.000
222.133;  -28.450; -289.000; -307.000
222.277;  -13.175;    5.000;   78.000
222.422;   17.125;  227.000;  113.000
222.566;  -44.100; -381.000; -214.000
222.711;  -54.700; -414.000; -479.000
222.855;  -91.500; -643.000; -586.000
222.999;  -72.150; -642.000; -717.000
223.144;  -33.250; -195.000; -194.000
223.288;   49.850;  423.000;  251.000
223.432;   27.500;  184.000;  230.000
223.576;   18.325;  152.000;  -21.000
223.721;   24.025;  364.000;  273.000
223.865;  -57.125; -472.000; -475.000
224.009;  195.525; 1673.000; 1631.000
224.153;  -84.500; -660.000; -671.000
224.298;  -74.250; -531.000; -489.000
224.442;   -6.500;  -74.000;  -33.000
224.586;   -4.475; -169.000; -106.000
224.730; -102.975; -858.000; -670.000
224.875; -110.875; -739.000; -688.000
225.019;    6.175;  102.000;  188.000
225.163;   52.950;  208.000;  341.000
225.307;   10.775;   97.000;  -91.000
225.451;   28.075;  360.000;  481.000
225.595;   28.575;  264.000;  176.000
225.739;  -10.600; -170.000;  -94.000
225.884;    3.400;   86.000;    5.000
226.028;  -99.425; -760.000; -626.000
226.172;  -27.925; -260.000; -273.000
226.316; -125.300; -941.000; -902.000
226.460;  -49.725; -645.000; -493.000
226.604;  -64.350; -406.000; -400.000
226.748; -101.950; -836.000; -733.000
226.892;  -41.525; -227.000; -181.000
227.036;  -51.550; -537.000; -447.000
227.180;  -58.900; -551.000; -375.000
227.324;  -70.500; -561.000; -580.000
227.468; -102.025; -819.000; -717.000
227.612;    7.850;  242.000;  -28.000
227.756;  -95.525; -845.000; -698.000
227.900;   45.700;  342.000;  441.000
228.044;  -68.625; -509.000; -290.000
228.188;   57.825;  448.000;  568.000
228.332;  -91.625; -546.000; -472.000
228.476;  -22.325; -223.000; -149.000
228.620;  -39.950; -210.000; -150.000
228.764;   72.500;  431.000;  349.000
228.908;  -31.225; -155.000;   30.000
229.052;  -62.600; -615.000; -528.000
229.195;  -24.300; -172.000;   13.000
229.339;  -30.750; -235.000; -305.000
229.483;  -33.250;    5.000; -162.000
229.627;  -16.325; -156.000;  139.000
229.771;  -56.025; -218.000; -294.000
229.915;   11.825;  230.000;   79.000
230.059; -104.050; -648.000; -663.000
230.202;  -32.475; -370.000; -317.000
230.346;  -22.350; -107.000;  107.000
230.490;  -61.650; -489.000; -521.000
230.634; -115.875; -736.000; -553.000
230.777;   74.375;  478.000;  509.000
230.921;  -52.075; -450.000; -359.000
231.065;  -43.500; -246.000; -286.000
231.209;   25.475;  261.000;  265.000
231.352;    5.375;   54.000;   40.000
231.496;   16.875;  568.000;  188.000
231.640;  -87.125; -693.000; -621.000
231.783;   65.325;  546.000;  525.000
231.927;  -34.500; -294.000; -365.000
232.071; -122.350; -962.000; -736.000
232.214; -109.625; -980.000; -764.000
232.358;  -99.100; -683.000; -599.000
232.502;   15.900;  -19.000;    7.000
232.645; -152.000;-1090.000; -927.000
232.789;  -24.700; -257.000; -218.000
232.933;  -40.075; -407.000; -224.000
233.076; -132.800;-1038.000; -897.000
233.220; -116.225; -752.000; -777.000
233.363;  -72.725; -669.000; -477.000
233.507;   45.375;  371.000;  129.000
233.650; -101.325; -764.000; -834.000
233.794;   37.800;  438.000;  461.000
233.938;  -63.750; -530.000; -362.000
234.081;   -9.575;  -93.000;   31.000
234.225;  -65.250; -631.000; -539.000
234.368; -111.800; -773.000; -723.000
234.512;  -40.025; -385.000; -299.000
234.655;  -84.125; -582.000; -555.000
234.798;  -69.425; -493.000; -466.000
234.942; -128.350; -884.000;-1002.000
235.085;  -65.650; -651.000; -443.000
235.229;  -78.825; -405.000; -410.000
235.372;  -36.125; -247.000; -191.000
235.516;  -71.700; -397.000; -321.000
235.659;   16.775;   92.000;  121.000
235.802;  -37.225;  -38.000;  -22.000
235.946;   17.875;  335.000;  215.000
236.089;   22.525;  126.000;  250.000
236.233;   56.225;  275.000;  298.000
236.376;  -54.775; -235.000; -378.000
236.519;  -45.575; -297.000; -319.000
236.663;  -31.375; -215.000; -117.000
236.806; -134.375;-1029.000; -999.000
236.949;   44.625;  543.000;  431.000
237.092;   59.750;  412.000;  391.000
237.236;  -77.300; -589.000; -502.000
237.379;   69.125;  352.000;  428.000
237.522; -123.600; -879.000; -768.000
237.666;  -19.975; -271.000;   18.000
237.809; -128.225; -851.000; -823.000
237.952;   35.500;  469.000;  271.000
238.095;  -76.875; -447.000; -442.000
238.238;   70.950;  688.000;  700.000
238.382;    1.350;  166.000;  103.000
238.525;  -89.850; -598.000; -511.000
238.668; -148.300;-1060.000; -985.000
238.811;  -93.025; -638.000; -643.000
238.954;  -60.800; -483.000; -334.000
239.097;   89.950;  617.000;  664.000
239.241;   23.300;  394.000;  326.000
239.384;  -43.175; -254.000; -214.000
239.527;  -67.100; -424.000; -224.000
239.670; -144.275; -994.000;-1091.000
239.813; -110.050; -696.000; -658.000
239.956;   88.025;  579.000;  473.000
240.099; -113.600; -778.000; -725.000
240.242;   46.600;  428.000;  432.000
240.385;   60.125;  466.000;  450.000
240.528;  -76.575; -706.000; -473.000
240.671;   19.450;  189.000;  134.000
240.814;  -46.200; -441.000; -158.000
240.957; -103.100; -767.000; -578.000
241.100; -100.275; -779.000; -755.000
241.243; -138.300;-1234.000; -893.000
241.386;  -61.600; -508.000; -379.000
241.529;  -91.250; -735.000; -547.000
241.672;  -63.350; -566.000; -495.000
241.815; -120.250; -832.000; -808.000
241.958;  -24.550; -125.000; -182.000
242.101;  -90.550; -545.000; -390.000
242.244;  -35.575; -270.000; -325.000
242.387;  -42.275; -304.000; -246.000
242.530;   50.550;  470.000;  134.000
242.673;  -46.000; -381.000; -309.000
242.815; -117.250; -925.000; -899.000
242.958;  -65.075; -482.000; -381.000
243.101;   10.400;  132.000;  187.000
243.244;  -83.725; -564.000; -521.000
243.387;  -52.225; -313.000; -316.000
243.530; -110.550; -657.000; -674.000
243.672;   -0.050;   43.000;  -92.000
243.815;  -58.300; -355.000; -283.000
243.958;    4.600;   98.000;  -26.000
244.101;   -3.375;   59.000;  -16.000
244.243;    4.350;  -47.000;  101.000
244.386; -123.800; -761.000; -630.000
244.529;  -27.625; -132.000; -139.000
244.672; -161.525;-1154.000; -951.000
244.814;  -93.475; -621.000; -794.000
244.957;  -72.150; -380.000; -304.000
245.100;  -75.275; -489.000; -489.000
245.242;  -62.900; -387.000; -374.000
245.385;   -1.050;  -59.000;  -39.000
245.528; -134.925; -871.000; -705.000
245.670;   87.175;  612.000;  634.000
245.813;  -96.025; -599.000; -547.000
245.956;  -28.700; -324.000; -275.000
246.098;  -82.225; -508.000; -650.000
246.241;    3.925;  194.000;   48.000
246.383;  -17.875; -119.000;  -73.000
246.526;  -78.525; -454.000; -525.000
246.669; -119.100; -889.000; -780.000
246.811;   10.800;  172.000;   -1.000
246.954;  -71.225; -512.000; -426.000
247.096;  -23.575;  -84.000;   -6.000
247.239;  -81.575; -482.000; -445.000
247.381;  -71.075; -647.000; -488.000
247.524;   80.500;  645.000;  679.000
247.666;   -8.975;   58.000;   11.000
247.809; -107.525; -887.000; -691.000
247.951;  -12.800;  -75.000;  138.000
248.094;   25.025;  432.000;  308.000
248.236; -156.325;-1262.000;-1238.000
248.378;  -11.675; -356.000;  -81.000
248.521;  -35.425; -334.000; -337.000
248.663;  -35.200; -236.000; -267.000
248.806;  -25.550; -300.000; -266.000
248.948; -105.125; -886.000; -763.000
249.090;  -46.050; -428.000; -398.000
249.233;  -46.950; -344.000; -381.000
249.375;  -62.325; -474.000; -451.000
249.518;  -35.525;  -83.000; -133.000
249.660;   -7.675; -103.000;    3.000
249.802; -166.925;-1303.000;-1189.000
249.945;  -82.850; -612.000; -540.000
250.087; -107.300; -834.000; -768.000
250.229;  -45.850; -362.000; -480.000
250.371;  -82.375; -494.000; -439.000
250.514;  -50.175; -310.000; -244.000
250.656;  -18.125;   69.000;  102.000
250.798; -115.625; -849.000; -800.000
250.940;  -64.150; -322.000; -322.000
251.083;  -28.975; -335.000; -111.000
251.225;   52.200;  338.000;  310.000
251.367;  -39.225; -274.000; -373.000
251.509;  -37.025; -265.000; -210.000
251.651; -103.925; -731.000; -671.000
251.794;   51.625;  538.000;  632.000
251.936; -120.100; -821.000; -747.000
252.078;  -77.300; -540.000; -461.000
252.220;  -62.725; -645.000; -477.000
252.362;   67.000;  344.000;  462.000
252.504;  -66.525; -677.000; -584.000
252.646; -120.975; -875.000; -722.000
252.788;    4.800;   14.000; -128.000
252.931;  -37.300; -257.000; -253.000
253.073;  -42.950; -376.000; -317.000
253.215;  -21.875;  141.000;  122.000
253.357;  -21.250;   82.000; -153.000
253.499;  -53.375; -374.000; -234.000
253.641;  -84.000; -749.000; -594.000
253.783;  -99.225; -609.000; -527.000
253.925;  -82.025; -586.000; -591.000
254.067; -108.425; -744.000; -667.000
254.209;  -24.625; -391.000; -259.000
254.351; -138.375; -865.000; -883.000
254.493;  -55.850; -441.000; -417.000
254.635; -140.650; -936.000; -818.000
254.777;  -91.600; -752.000; -687.000
254.918;  -69.200; -512.000; -430.000
255.060;  -58.500; -551.000; -395.000
255.202;  -43.325; -473.000; -261.000
255.344;  -74.325; -658.000; -455.000
255.486;  -74.900; -471.000; -406.000
255.628;  -99.750; -780.000; -781.000
255.770; -101.100; -676.000; -536.000
255.912;  -55.675; -559.000; -468.000
256.053;  -79.925; -730.000; -508.000
256.195;  149.450; 1008.000;  903.000
256.337; -111.725; -861.000; -595.000
256.479;   63.525;  532.000;  416.000
256.621;  -58.525; -394.000; -212.000
256.762;  -96.450; -789.000; -742.000
256.904;   42.175;  485.000;  487.000
257.046;  -43.725; -381.000; -271.000
257.188;  -56.325; -351.000; -264.000
257.329;  -73.875; -525.000; -464.000
257.471; -116.200; -939.000; -807.000
257.613;  -55.700; -584.000; -498.000
257.755; -151.325;-1073.000; -982.000
257.896;   47.400;  286.000;  392.000
258.038;  -81.100; -403.000; -352.000
258.180;  -41.675; -354.000; -279.000
258.321;  -86.925; -581.000; -457.000
258.463;   -4.750;  -71.000;  133.000
258.605;  -96.850; -562.000; -570.000
258.746; -110.600; -886.000; -772.000
258.888; -145.625;-1026.000;-1020.000
259.029;    9.150;  121.000;   -8.000
259.171;  -91.725; -614.000; -550.000
259.313;   -5.425;  -49.000;  -47.000
259.454;  -92.000; -536.000; -414.000
259.596;  -50.175; -483.000; -390.000
259.737;  -79.175; -590.000; -474.000
259.879;   24.600;  217.000;  311.000
260.020;   93.250;  901.000;  636.000
260.162;  -31.075; -146.000; -253.000
260.303; -122.225; -768.000; -687.000
260.445;  -78.375; -609.000; -613.000
260.586;   18.475;  392.000;  157.000
260.728;  -40.100; -360.000; -248.000
260.869; -119.700; -350.000; -343.000
261.011;   84.125;  706.000;  537.000
261.152;  -58.500; -479.000; -319.000
261.293;  -84.075; -576.000; -595.000
261.435;  -43.425; -219.000; -184.000
261.576;  -52.725; -455.000; -325.000
261.718;   48.825;  420.000;  470.000
261.859; -122.450; -940.000; -949.000
262.000; -131.825; -951.000;-1016.000
262.142;  -10.075;  -52.000;  -60.000
262.283; -120.175; -808.000; -691.000
262.424;  -92.225; -666.000; -625.000
262.566; -158.600;-1161.000; -983.000
262.707; -115.575; -840.000; -830.000
262.848; -114.500; -769.000; -726.000
262.990;  -47.175; -362.000; -345.000
263.131;   60.925;  650.000;  681.000
263.272;  -14.975;  -61.000;  -41.000
263.413;  -83.125; -589.000; -561.000
263.555;  -65.700; -669.000; -143.000
263.696;  -95.900; -550.000; -641.000
263.837;  -49.800; -449.000; -551.000
263.978;   -5.475;   -5.000;  -77.000
264.119;  -41.725; -283.000; -264.000
264.261; -119.000; -847.000; -630.000
264.402;   -9.800;   33.000;   40.000
264.543;  -78.900; -509.000; -524.000
264.684;   -3.000;   61.000;  -50.000
264.825;  -82.250; -816.000; -538.000
264.966;   -1.900;  -84.000;  -67.000
265.107; -115.050; -646.000; -670.000
265.248; -106.975; -825.000; -812.000
265.390;  -17.975;  152.000;   -9.000
265.531;  -27.825; -238.000; -107.000
265.672;  -98.225; -557.000; -630.000
265.813;   53.225;  563.000;  439.000
265.954; -148.275; -959.000; -940.000
266.095;  -14.700; -372.000; -322.000
266.236; -106.250; -686.000; -548.000
266.377;  -35.650; -243.000; -297.000
266.518;  -74.150; -619.000; -547.000
266.659;   30.050;  170.000;  268.000
266.800;   -0.325;   83.000;   85.000
266.941;  -75.150; -487.000; -478.000
267.082;   11.175;  354.000;   99.000
267.223;  -50.650; -344.000; -273.000
267.364; -118.000; -892.000; -686.000
267.504;  -15.250;    3.000;  135.000
267.645;  -12.775;  160.000;   67.000
267.786;  -35.125; -147.000;  -86.000
267.927;  -83.400; -473.000; -379.000
268.068;  -30.475; -186.000;  -61.000
268.209;  -60.900; -175.000; -413.000
268.350;  -55.850; -388.000; -532.000
268.490;  -97.625; -648.000; -521.000
268.631;   28.900;  127.000;  225.000
268.772; -113.250; -874.000; -647.000
268.913;  -60.225; -328.000; -476.000
269.054;  -23.900; -117.000;   12.000
269.194;  -45.550; -418.000; -402.000
269.335; -163.275;-1137.000;-1074.000
269.476;  -20.650;   33.000;  -35.000
269.617;  -55.750; -347.000; -392.000
269.757;  -97.575; -713.000; -646.000
269.898; -114.225; -856.000; -613.000
270.039;  -60.075; -415.000; -405.000
270.180; -149.775; -952.000; -816.000
270.320;  -34.800; -190.000; -250.000
270.461;  -35.900; -277.000; -249.000
270.602;  -24.450; -186.000; -156.000
270.742; -127.825; -868.000; -943.000
270.883;  -57.000; -442.000; -390.000
271.023;  -70.800; -358.000; -357.000
271.164;  -77.325; -607.000; -528.000
271.305;  -96.275; -666.000; -654.000
271.445; -100.075; -722.000; -683.000
271.586;  -60.750; -462.000; -283.000
271.726;  -53.575; -397.000; -322.000
271.867;  -65.900; -594.000; -534.000
272.008;  157.875; -473.000; -285.000
272.148;  104.800;  462.000;  468.000
272.289;    8.275; -113.000; -181.000
272.429;   17.200;   19.000;  185.000
272.570;  -87.925; -633.000; -737.000
272.710; -114.750; -825.000; -775.000
272.851;  -16.325;  113.000; -130.000
272.991; -168.475;-1173.000;-1077.000
273.131;  -75.200; -419.000; -459.000
273.272; -103.250; -683.000; -723.000
273.412;    2.250; -143.000;  -31.000
273.553;  -63.125; -488.000; -507.000
273.693;  131.200;  913.000;  858.000
273.834; -102.775; -894.000; -692.000
273.974;  -78.025; -664.000; -615.000
274.114; -109.450; -772.000; -560.000
274.255;   61.175;  414.000;  373.000
274.395;   -0.825; -180.000; -125.000
274.535;   40.100;  199.000;  350.000
274.676;   21.675;  225.000;   94.000
274.816;   -7.075;  110.000;   34.000
274.956;  -86.225; -624.000; -690.000
275.097;  -78.650;-1014.000; -922.000
275.237; -124.725; -913.000; -803.000
275.377;  -92.950; -778.000; -689.000
275.517; -166.475; -878.000; -937.000
275.658;  -60.900; -590.000; -555.000
275.798;  -81.775; -606.000; -413.000
275.938;   25.100;  215.000;  323.000
276.078; -105.200; -626.000; -395.000
276.218;    1.325;   99.000;  104.000
276.359; -142.275;-1026.000;-1024.000
276.499;  -83.900; -605.000; -446.000
276.639;  -40.125; -305.000; -151.000
276.779;  -53.275; -475.000; -357.000
276.919; -113.375; -783.000; -624.000
277.059;  -26.775; -261.000; -212.000
277.199;  -38.050; -357.000; -259.000
277.340;   49.925;  287.000;  175.000
277.480; -119.550; -840.000; -693.000
277.620;   14.875;  192.000;   16.000
277.760; -205.200;-1533.000;-1294.000
277.900;   12.925;  113.000;   33.000
278.040;    1.975;  137.000;  159.000
278.180;   49.750;  270.000;  170.000
278.320;    4.600;   21.000;   56.000
278.460;  -78.250; -443.000; -469.000
278.600;  -85.625; -708.000; -598.000
278.740;   42.900;  448.000;  224.000
278.880;  -75.475; -768.000; -791.000
279.020;  -19.000; -194.000; -144.000
279.160; -103.800; -672.000; -595.000
279.300; -127.775; -926.000; -873.000
279.440;  -95.125; -709.000; -622.000
279.579;  -25.775;-1014.000; -929.000
279.719;  -53.800; -410.000; -394.000
279.859;   63.675;   -4.000;   41.000
279.999;   19.425; -208.000;  101.000
280.139;  -19.925; -435.000; -387.000
280.279;  -86.725; -708.000; -745.000
280.419;  -13.875; -229.000; -147.000
280.559;  -37.025; -259.000; -180.000
280.698;  -94.050; -790.000; -639.000
280.838;  -99.075; -778.000; -800.000
280.978; -108.250; -846.000; -790.000
281.118; -116.650; -811.000; -704.000
281.257;   14.425;   24.000;    6.000
281.397; -128.325;-1094.000; -960.000
281.537;  -91.650; -599.000; -712.000
281.677;  -34.325; -150.000; -101.000
281.816;  -81.825; -700.000; -630.000
281.956;  -30.825; -193.000; -257.000
282.096;  -62.350; -539.000; -396.000
282.235; -114.350; -672.000; -638.000
282.375;  -14.625; -243.000;  -98.000
282.515; -109.975; -715.000; -707.000
282.654;   25.450;   29.000;  106.000
282.794;    8.375;  388.000;  244.000
282.934;  -64.725; -530.000; -491.000
283.073; -135.850;-1030.000; -857.000
283.213;  -67.000; -460.000; -467.000
283.353;  -47.700; -408.000; -349.000
283.492;  -46.825; -264.000; -296.000
283.632;  -58.850; -254.000; -168.000
283.771; -101.850; -859.000; -730.000
283.911;  -52.850; -369.000; -260.000
284.050; -111.800; -794.000; -748.000
284.190; -161.150;-1229.000;-1096.000
284.329; -151.475;-1055.000; -964.000
284.469;  -68.875; -516.000; -591.000
284.608;  -59.775; -559.000; -598.000
284.748;  -89.150; -614.000; -570.000
284.887;   -3.475;  -87.000;  -20.000
285.027; -128.075; -844.000; -892.000
285.166;  -32.450; -192.000; -249.000
285.306;   -3.425; -116.000;  -33.000
285.445;  -46.275; -229.000; -343.000
285.584;  -99.175; -630.000; -494.000
285.724;  -47.425; -282.000; -322.000
285.863; -116.700; -857.000; -507.000
286.002;  -58.525; -366.000; -276.000
286.142; -116.700; -715.000; -622.000
286.281;  -88.150; -525.000; -493.000
286.420;  -83.875; -554.000; -417.000
286.560;   89.200;  653.000;  623.000
286.699; -153.850; -958.000; -912.000
286.838;  -94.975; -590.000; -591.000
286.978; -105.275; -533.000; -537.000
287.117; -133.475;-1085.000; -950.000
287.256;  -39.850; -228.000; -211.000
287.395;  -60.100; -197.000; -378.000
287.535;  -46.625; -370.000; -298.000
287.674;  -87.850; -509.000; -484.000
287.813;   47.525;  661.000;  533.000
287.952; -127.975;-1010.000; -871.000
288.091; -155.700;-1049.000; -915.000
288.231;   -1.625;   13.000;   15.000
288.370; -170.900;-1217.000;-1200.000
288.509;  -91.225; -728.000; -645.000
288.648;  -96.675; -770.000; -548.000
288.787;  -42.775; -243.000;  -87.000
288.926;  -70.925; -454.000; -475.000
289.065;  107.325;  859.000;  672.000
289.204;  -55.175; -377.000; -217.000
289.344;  -92.825; -791.000; -690.000
289.483;   12.700;  416.000;  304.000
289.622;  -37.275; -291.000; -149.000
289.761;  -29.900; -309.000; -166.000
289.900; -103.925; -785.000; -626.000
290.039;  -22.425;  -12.000;  -95.000
290.178;  -39.250; -274.000; -180.000
290.317;  -92.575; -618.000; -479.000
290.456;  -65.450; -463.000; -451.000
290.595; -149.350; -961.000; -833.000
290.734; -148.825; -904.000; -891.000
290.873;  -78.375; -456.000; -420.000
291.011; -104.625; -833.000; -843.000
291.150;  -96.150; -770.000; -682.000
291.289;  -26.975; -343.000; -110.000
291.428;  -95.425; -599.000; -480.000
291.567;  -63.900; -370.000; -442.000
291.706;  -14.300;  109.000;  154.000
291.845;  -93.450; -597.000; -505.000
291.984; -170.500;-1234.000;-1061.000
292.122;   69.575;  602.000;  582.000
292.261;   30.650;  620.000;  463.000
292.400;    4.025; -144.000;  211.000
292.539; -128.525; -959.000; -813.000
292.678;  -35.125; -325.000; -300.000
292.816; -177.175;-1136.000; -965.000
292.955;  -85.550; -844.000; -684.000
293.094;  -34.950; -173.000; -337.000
293.233;  -60.375; -556.000; -400.000
293.371;  -42.650; -225.000;  -84.000
293.510; -115.350; -866.000; -780.000
293.649; -143.950; -959.000; -924.000
293.787;  -75.175;-1083.000;-1012.000
293.926;   -4.675; -113.000;  -32.000
294.065;  -52.700; -379.000; -290.000
294.203;   34.525;  298.000;  406.000
294.342;   16.975;   74.000;  156.000
294.481; 6863.850;51180.000; -836.000
294.619;  -22.575; -425.000; -582.000
294.758; -157.575;-1230.000;-1137.000
294.896;   51.150; -125.000;    5.000
295.035; -142.800;-1040.000;-1006.000
295.174; -127.450;-1082.000; -954.000
295.312;  -46.650; -323.000; -203.000
295.451;  -15.300; -307.000; -428.000
295.589;  -69.900; -389.000; -518.000
295.728;   13.400; -292.000; -165.000
295.866;  -20.650;  -36.000;  -51.000
296.005;  -57.000; -584.000; -341.000
296.143;  -86.375; -558.000; -596.000
296.282; -106.875; -957.000; -881.000
296.420;  -95.450; -657.000; -557.000
296.559;  -76.825; -892.000; -633.000
296.697;   -7.675; -847.000; -665.000
296.835;   19.600;-1141.000;-1002.000
296.974;   23.425;  -23.000;   39.000
297.112;   -9.025; -443.000; -504.000
297.251;  -94.600; -815.000; -755.000
297.389;   57.225; -576.000; -438.000
297.527;   19.750; -145.000;  -83.000
297.666;  -67.125; -486.000; -438.000
297.804;  -59.250; -404.000; -264.000
297.942;  -18.225; -136.000; -161.000
298.081;  -15.375; -183.000;   63.000
298.219;   44.900;  -17.000;  -19.000
298.357;   31.900; -144.000;  -71.000
298.495;    4.125; -810.000; -812.000
298.634;   67.750;  245.000;  219.000
298.772;   30.975; -220.000; -338.000
298.910;  -56.100; -309.000; -182.000
299.048;  -14.525; -130.000; -153.000
299.187;  -45.425; -350.000; -250.000
299.325;    5.950;   52.000;  122.000
299.463;   29.850; -389.000; -299.000
299.601;   78.025; -327.000; -271.000
299.739; -114.050; -908.000; -883.000
299.877;  -90.375; -791.000; -703.000
300.016;  -58.150;-1095.000; -935.000
300.154;  136.475;  -19.000; -161.000
300.292;   22.300; -428.000; -348.000
300.430;   13.175; -408.000; -291.000
300.568; -116.325; -940.000; -874.000
300.706;  -50.750; -366.000; -469.000
300.844;  -99.275;-1108.000; -979.000
300.982;   99.000;  246.000;  282.000
301.120; -121.000; -965.000; -866.000
301.258;  -86.125; -812.000; -705.000
301.396;   21.575;  104.000;  -41.000
301.534;   58.975; -218.000; -293.000
301.672;  -30.050; -664.000; -521.000
301.810;    6.900; -613.000; -545.000
301.948;   79.125;   53.000;  149.000
302.086;  530.950; -250.000;  -32.000
302.224;  785.000; -610.000; -585.000
302.362;    8.525; -558.000; -622.000
302.500;  -45.625; -923.000; -893.000
302.638;   72.475;  128.000;  245.000
302.776;  -23.200; -352.000; -408.000
302.913;   46.950;  447.000;  236.000
303.051;  -33.075;  -86.000;  -23.000
303.189;   40.800;   90.000;  118.000
303.327;  -53.475; -341.000; -256.000
303.465;  -88.400; -832.000; -588.000
303.603; -104.900; -805.000; -604.000
303.740;   85.625;  417.000;  241.000
303.878;  -20.350; -800.000; -759.000
304.016;  -91.200; -915.000; -790.000
304.154; -144.950;-1123.000;-1152.000
304.291;  -41.975; -505.000; -554.000
304.429;   -6.825;  102.000;   74.000
304.567; -127.600; -908.000; -893.000
304.705;  -58.175; -408.000; -515.000
304.842;   69.900; -616.000; -540.000
304.980;   45.900;  215.000;   35.000
305.118;   19.325; -367.000; -365.000
305.255;  -95.350; -945.000; -927.000
305.393;   55.975;  178.000;  239.000
305.531; -109.425;-1173.000; -956.000
305.668;  -71.750; -663.000; -582.000
305.806;   78.425; -358.000; -439.000
305.943;   91.000; -629.000; -637.000
306.081;   37.600; -378.000; -267.000
306.219; -109.675; -863.000; -748.000
306.356;  -15.425;  158.000;   27.000
306.494;  108.950;  981.000;  761.000
306.631;   -4.400;  -11.000;  -55.000
306.769;  -13.125; -613.000; -485.000
306.906;  -29.400; -284.000; -258.000
307.044;  -80.725; -473.000; -488.000
307.181;  -74.275; -410.000; -332.000
307.319;   18.050;  112.000;   87.000
307.456; -176.975;-1191.000;-1153.000
307.594; -113.775; -980.000; -727.000
307.731;  -23.200; -371.000; -164.000
307.868;  -12.500;  -15.000;   20.000
308.006; -133.450; -961.000; -847.000
308.143;  -76.275; -618.000; -330.000
308.281;  129.450;  -37.000; -254.000
308.418;  -27.650; -748.000; -640.000
308.555;  -83.150; -400.000; -250.000
308.693;  -83.675; -577.000; -573.000
308.830; -122.350; -712.000; -657.000
308.967;  -14.100; -215.000;  -95.000
309.105;  -61.000; -507.000; -396.000
309.242;   22.025; -468.000; -367.000
309.379;  246.625; -577.000; -655.000
309.517;  -86.475; -936.000; -948.000
309.654; -115.275; -910.000; -734.000
309.791;  -84.525; -662.000; -580.000
309.928; -124.000; -977.000; -914.000
310.065;  166.750;  819.000;  697.000
310.203;  -39.700; -825.000; -850.000
310.340;  -13.975; -465.000; -321.000
310.477;  -79.350; -412.000; -516.000
310.614;  -78.375; -383.000; -473.000
310.751;  -82.800; -427.000; -518.000
310.889;  -30.400;    1.000;   11.000
311.026; -158.675;-1161.000; -939.000
311.163;  -52.650; -386.000; -380.000
311.300;  -81.150; -512.000; -479.000
311.437;  -85.875; -658.000; -619.000
311.574; -167.625;-1226.000; -985.000
311.711;  -75.050; -595.000; -433.000
311.848;  -49.650; -380.000; -388.000
311.985;    7.625;  270.000;   93.000
312.122; -147.275; -932.000; -762.000
312.259; -130.550; -941.000; -994.000
312.396;  -97.925; -508.000; -551.000
312.533;  -75.500; -812.000; -790.000
312.670; -140.250;-1070.000; -898.000
312.807;  -44.725; -352.000; -367.000
312.944;  -87.175; -513.000; -611.000
313.081;  -41.650; -150.000; -415.000
313.218; -104.375;-1111.000; -867.000
313.355;  -23.850; -531.000; -449.000
313.492;  -15.200; -455.000; -292.000
313.629;  114.600;  815.000;  735.000
313.766; -168.025;-1176.000;-1008.000
313.902;   -4.225; -186.000;   21.000
314.039;  -65.400; -372.000; -289.000
314.176;   25.025;  286.000;  192.000
314.313;  -89.300; -569.000; -473.000
314.450;  -93.225; -788.000; -684.000
314.587;  -57.525; -468.000; -480.000
314.723;   -1.025;  -78.000;  130.000
314.860;   17.175;  318.000;  332.000
314.997;   25.325;  223.000;  142.000
315.134;  -56.425; -385.000; -368.000
315.270;  -48.425; -480.000; -496.000
315.407; -139.950;-1094.000; -967.000
315.544;  -58.650; -657.000; -538.000
315.681;  -82.250; -681.000; -565.000
315.817;   23.475; -133.000; -176.000
315.954;   10.825; -613.000; -392.000
316.091; -130.275;-1045.000;-1023.000
316.227;  -41.800;  -71.000; -179.000
316.364;   -1.850;   23.000;    6.000
316.500;  -57.150; -113.000; -300.000
316.637;  -41.100; -181.000; -302.000
316.774;  -95.625; -625.000; -358.000
316.910;  -85.900; -598.000; -629.000
317.047;  -82.500; -487.000; -351.000
317.183;  -65.025; -435.000; -566.000
317.320;   -4.625; -367.000; -321.000
317.456;  -70.350; -733.000; -805.000
317.593;  -86.950; -598.000; -641.000
317.729;    0.650;  168.000;  -67.000
317.866; -207.950;-1434.000;-1285.000
318.002;  -98.825; -708.000; -948.000
318.139; -114.850; -883.000; -867.000
318.275; -116.025;-1003.000; -738.000
318.412;  -65.875; -517.000; -336.000
318.548;  -45.450; -751.000; -720.000
318.685;  -97.875; -985.000; -888.000
318.821;  -90.950; -762.000; -735.000
318.957;  -25.175;   34.000;  -23.000
319.094;   42.800;  297.000;  154.000
319.230;  -83.325; -756.000; -742.000
319.367;  101.750; -471.000; -520.000
319.503;   44.875; -538.000; -436.000
319.639;  -94.725; -877.000; -793.000
319.775;  -82.275; -750.000; -685.000
319.912;  -52.825; -424.000; -519.000
320.048; -100.350;-1184.000;-1184.000
320.184;   66.975;   59.000;   70.000
320.321;  -78.825; -497.000; -467.000
320.457;   52.925;  475.000;  662.000
320.593;  -80.475; -375.000; -382.000
320.729; -106.550; -732.000; -734.000
320.866;  -84.600; -577.000; -635.000
321.002;  -79.100; -759.000; -809.000
321.138;  -31.700; -135.000; -211.000
321.274;   73.450; -148.000; -115.000
321.410;  -42.450; -585.000; -353.000
321.546;  -51.825;-1011.000; -911.000
321.683;   35.800;  400.000;  185.000
321.819;    4.800;  -48.000; -117.000
321.955; -117.175; -743.000; -722.000
322.091;  -56.800; -585.000; -540.000
322.227;  -31.825; -382.000; -202.000
322.363;  -27.900; -320.000; -215.000
322.499;  -47.825; -343.000; -331.000
322.635;  137.475;  636.000;  443.000
322.771;    5.575; -139.000;   12.000
322.907;   63.475;  129.000;  327.000
323.043;  -39.875; -115.000; -206.000
323.179;  -41.775; -394.000; -363.000
323.315;  -16.900; -401.000; -371.000
323.451;   64.100; -328.000; -236.000
323.587;   50.100;  -60.000;  -77.000
323.723;   -8.300; -682.000; -601.000
323.859;  -33.875; -258.000;  -76.000
323.995;  -45.950; -467.000; -409.000
324.131; -132.350; -967.000; -892.000
324.267;  -46.825; -254.000; -276.000
324.402; -131.750; -960.000; -983.000
324.538;  -30.150; -279.000; -104.000
324.674;   -7.800;  164.000;   77.000
324.810;   90.925;  226.000;  308.000
324.946;  -10.200; -810.000; -658.000
325.082;  -63.925; -568.000; -475.000
325.217;  -18.975;  -62.000;   16.000
325.353; -109.150; -764.000; -659.000
325.489; -108.275; -540.000; -506.000
325.625;  -84.825; -579.000; -525.000
325.760;   44.975;  517.000;  376.000
325.896;  -22.825; -515.000; -702.000
326.032;  -57.850; -403.000; -352.000
326.168;  -68.525; -462.000; -369.000
326.303;  -66.375; -352.000; -461.000
326.439;  -15.700; -336.000; -276.000
326.575;   -2.275; -190.000;  -29.000
326.710;  -12.725; -156.000;  -30.000
326.846;  -20.125;  146.000;  103.000
326.982;  -90.925; -530.000; -548.000
327.117;  -88.300; -481.000; -442.000
327.253;  -85.975; -745.000; -742.000
327.388; -157.350;-1137.000;-1153.000
327.524;  -60.125; -811.000; -578.000
327.659;  -38.525;  -58.000;  -22.000
327.795;  -16.750;   69.000;   45.000
327.931;  -89.850; -723.000; -499.000
328.066;  -41.900; -417.000; -276.000
328.202;  -44.750;   12.000; -129.000
328.337;   91.425;  957.000;  713.000
328.473;   23.100;  -12.000;  -74.000
328.608;  -25.025; -256.000; -267.000
328.743;  -94.375; -799.000; -664.000
328.879;   10.725;  214.000;  114.000
329.014;  -37.725; -102.000; -122.000
329.150;  -90.775; -358.000; -483.000
329.285;  -91.150; -465.000; -466.000
329.421;  -54.375; -548.000; -246.000
329.556;  -29.650;  -36.000;   85.000
329.691;  -94.275; -633.000; -615.000
329.827;  -79.325; -626.000; -480.000
329.962;  -39.525;  131.000; -301.000
330.097;  -96.875; -673.000; -585.000
330.233;  -43.625; -410.000; -223.000
330.368; -150.525; -839.000; -628.000
330.503;  -24.000;    3.000;   98.000
330.638;  -18.200;  -93.000; -125.000
330.774;  -61.475; -609.000; -530.000
330.909;  -70.225; -434.000; -244.000
331.044; -108.350; -714.000; -708.000
331.179; -178.050;-1217.000;-1109.000
331.315;    5.450;   77.000;   20.000
331.450;    6.500;  157.000;  285.000
331.585;  -98.450; -805.000; -706.000
331.720;  -97.600; -510.000; -460.000
331.855;  -11.550;  -35.000; -102.000
331.990;  248.700;   62.000;  138.000
332.126;  135.575; -110.000;   71.000
332.261;  -29.025; -379.000; -265.000
332.396;    1.025; -135.000; -242.000
332.531;  -98.625;-1074.000;-1031.000
332.666;   45.000; -519.000; -363.000
332.801; -106.650; -726.000; -807.000
332.936;  -32.250; -192.000; -122.000
333.071; -164.900; -870.000; -817.000
333.206;   18.425;  307.000;  379.000
333.341;    9.400;  344.000;  418.000
333.476;  -80.950; -627.000; -623.000
333.611;  -55.875; -251.000; -173.000
333.746;  -58.375; -381.000; -464.000
333.881; -135.875; -973.000; -935.000
334.016; -137.225; -936.000; -917.000
334.151; -136.225; -746.000; -702.000
334.286;   10.000;  152.000;  186.000
334.421;  -38.750; -125.000; -178.000
334.556;  -79.275; -611.000; -567.000
334.690;  -97.900; -631.000; -577.000
334.825;   56.425;  381.000;   83.000
334.960;  -68.350; -285.000; -413.000
335.095;    1.950;  135.000;  -91.000
335.230; -111.725; -722.000; -738.000
335.365; -137.000;-1084.000; -990.000
335.499; -140.900;-1108.000;-1037.000
335.634;    9.500;    9.000;  534.000
335.769; -122.875; -755.000; -720.000
335.904;  -65.300; -603.000; -561.000
336.038;  -63.350; -735.000; -657.000
336.173; -137.600;-1206.000;-1194.000
336.308;    6.900; -116.000; -189.000
336.443;   14.425; -544.000; -634.000
336.577;  -86.350; -936.000; -787.000
336.712;   51.800;   -4.000;  -12.000
336.847;  -59.075; -724.000; -607.000
336.981;   51.925; -272.000; -208.000
337.116;  236.000;  615.000;  501.000
337.250;  126.000; -434.000; -421.000
337.385;  261.225; -297.000; -208.000
337.520;   93.525; -632.000; -603.000
337.654;  -45.500; -215.000; -126.000
337.789; -131.750; -989.000; -933.000
337.923;  -41.025; -104.000; -205.000
338.058;  -96.775; -673.000; -738.000
338.192;  -45.150; -611.000; -488.000
338.327;  -10.525;  -18.000; -155.000
338.461;  -80.200; -299.000; -469.000
338.596;  -94.700; -780.000; -638.000
338.730;  -98.975; -767.000; -803.000
338.865;   95.975;  -46.000; -140.000
338.999;  -55.300; -846.000; -702.000
339.134;  -26.200; -634.000; -536.000
339.268;   12.950; -741.000; -603.000
339.403;  363.750; -740.000; -775.000
339.537;  127.050; -894.000; -820.000
339.671; -116.475; -829.000; -813.000
339.806;  -65.550; -556.000; -512.000
339.940;   -0.950; -261.000; -235.000
340.074; -116.650; -685.000; -510.000
340.209;  -51.650; -351.000; -230.000
340.343;  -94.900; -517.000; -573.000
340.477;  145.950;  998.000; 1036.000
340.612;  -68.750;-1033.000; -900.000
340.746;  120.600; -199.000; -243.000
340.880;  -86.500; -924.000; -785.000
341.014;  -34.250;  -45.000; -154.000
341.149; -125.800; -756.000; -718.000
341.283; -113.375; -839.000; -754.000
341.417; -117.525;-1124.000; -938.000
341.551;   74.425; -768.000; -708.000
341.685;  -58.350; -633.000; -611.000
341.820;  -52.300; -562.000; -493.000
341.954;  -70.300; -218.000; -349.000
342.088; -153.750;-1102.000;-1019.000
342.222;   49.475;  565.000;  618.000
342.356;  -68.925; -395.000; -335.000
342.490; -114.400; -880.000; -841.000
342.624;  -56.400; -339.000; -242.000
342.758;  -16.850; -364.000; -312.000
342.892;  -75.075; -710.000; -585.000
343.026;  -47.575;  -58.000; -116.000
343.160;  -84.625; -426.000; -376.000
343.294;  -86.800; -474.000; -337.000
343.428;  -54.175; -488.000; -448.000
343.562;  -18.450; -172.000;  -23.000
343.696;  -35.925; -385.000; -314.000
343.830;  -57.750; -362.000; -356.000
343.964;    8.075; -231.000; -168.000
344.098;  769.350;  199.000;   70.000
344.232;  627.650; -266.000; -127.000
344.366;   72.825; -567.000; -453.000
344.500;   45.950; -665.000; -744.000
344.634;   -0.275; -324.000; -164.000
344.768;  -23.750; -531.000; -341.000
344.902;    1.575;  278.000;  256.000
345.035;  -83.325; -556.000; -496.000
345.169; -137.225; -933.000; -656.000
345.303;  -40.000; -308.000; -482.000
345.437; -104.500; -826.000; -717.000
345.571;  -69.700; -675.000; -594.000
345.704;  -83.025; -309.000; -532.000
345.838;  -15.300; -331.000; -284.000
345.972;  -50.575; -543.000; -495.000
346.106;  159.500; -179.000; -190.000
346.239;  392.125; -312.000; -243.000
346.373;    6.075; -343.000; -302.000
346.507; -150.375; -950.000; -962.000
346.640;  118.050;  -30.000;   13.000
346.774;  -67.125; -650.000; -797.000
346.908;  -23.500; -138.000;  -11.000
347.041; -107.325; -646.000; -593.000
347.175;    4.575;  259.000;   27.000
347.309; -102.800; -698.000; -628.000
347.442; -109.225; -883.000; -732.000
347.576;  222.725;  670.000;  668.000
347.709;  146.150; -123.000;  -52.000
347.843; -103.775; -933.000; -825.000
347.976;   21.725;  235.000;  294.000
348.110; -192.325;-1268.000;-1186.000
348.243; -110.050; -679.000; -772.000
348.377;   -1.025;  -26.000;   60.000
348.510;   37.150;  403.000;  540.000
348.644;  -30.575;  -37.000; -159.000
348.777;   -2.175;  180.000;  191.000
348.911;  -55.825; -142.000; -112.000
349.044;  138.650;  471.000;  448.000
349.178;  100.775;-1069.000;-1006.000
349.311;  106.375;  141.000;  255.000
349.444;  -10.875; -927.000; -813.000
349.578;  -32.900; -347.000; -200.000
349.711; -114.850; -959.000; -862.000
349.845;  -13.700; -661.000; -591.000
349.978; -152.825;-1224.000;-1137.000
350.111; -104.325; -546.000; -612.000
350.244;  -91.450; -596.000; -700.000
350.378;   -1.175; -392.000; -393.000
350.511;  -82.200; -393.000; -426.000
350.644; -115.325; -808.000; -806.000
350.778;   -6.850;  168.000;  104.000
350.911;   -0.075;  134.000;  140.000
351.044; -100.175; -685.000; -615.000
351.177;  -34.100; -321.000; -281.000
351.310;  -28.000;    3.000; -131.000
351.444;  -90.850; -888.000; -788.000
351.577;  103.875;  140.000;   90.000
351.710;   94.025;  593.000;  417.000
351.843;  -47.625; -165.000;  -77.000
351.976;   -9.950;  149.000;  -79.000
352.109; -102.850; -621.000; -612.000
352.242;  -51.125; -464.000; -419.000
352.376;  -69.375; -580.000; -636.000
352.509;  123.500; -437.000; -356.000
352.642;  -31.125; -654.000; -604.000
352.775;   49.400; -141.000;  -98.000
352.908; -105.125; -933.000; -904.000
353.041; -104.400; -814.000; -824.000
353.174;  -64.050; -551.000; -424.000
353.307;  -89.925; -753.000; -764.000
353.440;   62.075;  541.000;  453.000
353.573; -117.700; -957.000;-1008.000
353.706;  -76.075; -384.000; -558.000
353.839;  -24.050; -264.000; -220.000
353.971;  -96.100; -657.000; -512.000
354.104;  -87.025; -896.000; -835.000
354.237;  -41.025; -627.000; -662.000
354.370;  -92.800; -846.000; -879.000
354.503; -182.675;-1231.000;-1308.000
354.636;  -48.000; -529.000; -348.000
354.769; -139.325; -937.000; -860.000
354.902;  -18.400; -230.000; -139.000
355.034;  -35.975; -164.000; -220.000
355.167;  -27.025; -262.000; -162.000
355.300;  -88.875;-1061.000; -880.000
355.433;  981.175;  -71.000;  -14.000
355.565; 1556.350; -402.000; -384.000
355.698;  382.000; -356.000; -296.000
355.831;  -26.875; -882.000; -801.000
355.964;   56.400; -285.000; -170.000
356.096;  -96.100; -856.000; -843.000
356.229;  -12.425; -523.000; -530.000
356.362;  323.575; -373.000; -266.000
356.494;  619.775; -229.000; -162.000
356.627;  422.300;  269.000;  377.000
356.760;  668.200;  120.000;   53.000
356.892; 1002.100; -286.000; -601.000
357.025;  563.125;  403.000;  389.000
357.157;  502.375; -167.000; -179.000
357.290;  731.175; -856.000; -713.000
357.423;  211.000; -667.000; -556.000
357.555;   84.500; -217.000; -228.000
357.688;  108.875; -483.000; -364.000
357.820;  392.350; -870.000; -877.000
357.953; 3326.625; -563.000; -589.000
358.085;  694.375; -632.000; -612.000
358.218;  839.625;-1131.000; -932.000
358.350;  154.875;  -58.000;  312.000
358.483; -138.225;-1300.000;-1187.000
358.615;  -49.250;-1182.000;-1078.000
358.747;  -71.900;-1187.000;-1058.000
358.880;   -5.775; -810.000; -744.000
359.012;  -17.850; -376.000; -202.000
359.145;  -54.375; -480.000; -511.000
359.277;   26.975; -962.000; -913.000
359.409; 2713.450;  536.000;  231.000
359.542;  692.275; -738.000; -688.000
359.674;   68.000;   46.000;   13.000
359.806;  -64.675; -565.000; -438.000
359.939;  -56.950; -617.000; -516.000
360.071;  -27.825; -583.000; -579.000
360.203;  -37.500; -411.000; -364.000
360.335;   35.175;  164.000;  -16.000
360.468;  181.350; -249.000; -307.000
360.600; 2209.000; -547.000; -454.000
360.732; 2990.975; -546.000; -423.000
360.864;  405.525;-1216.000;-1044.000
360.996;  212.175; -516.000; -554.000
361.129;   13.225; -389.000; -598.000
361.261;   15.275;  110.000; -113.000
361.393;  -32.350; -252.000; -214.000
361.525;   18.500;   94.000;  244.000
361.657;  -56.875; -821.000; -703.000
361.789;   -7.675; -139.000; -155.000
361.921;  147.000; -642.000; -593.000
362.053;  219.650;  524.000;  541.000
362.185;   37.300;  288.000;   72.000
362.318;  -96.575; -709.000; -705.000
362.450;   81.100;  294.000;  444.000
362.582;   43.450; -913.000; -870.000
362.714;  -44.075; -353.000; -332.000
362.846;  -96.900; -606.000; -490.000
362.978; -163.225; -941.000; -811.000
363.109;   30.500; -161.000; -260.000
363.241;  337.375; -739.000; -749.000
363.373;  446.900; -649.000; -564.000
363.505;  678.150; -186.000;  -91.000
363.637;  157.825; -787.000; -601.000
363.769; -142.025;-1067.000;-1080.000
363.901;  -72.750; -596.000; -654.000
364.033; -137.100;-1103.000;-1062.000
364.165;   -7.475; -283.000; -283.000
364.296;   76.125; -316.000; -177.000
364.428;   61.950;-1344.000;-1220.000
364.560;  -86.700; -679.000; -661.000
364.692;  -79.200; -738.000; -835.000
364.824;  167.450; -588.000; -456.000
364.955;  427.700; -402.000; -564.000
365.087; 1007.425;-1097.000; -852.000
365.219;   30.800; -686.000; -816.000
365.351;  -82.950; -526.000; -572.000
365.482;   41.225;  300.000;  240.000
365.614;  -70.100; -402.000; -314.000
365.746; -101.025; -729.000; -752.000
365.877;  -96.575; -706.000; -672.000
366.009;  260.300;  -35.000;  -62.000
366.141;  -91.675;-1249.000;-1134.000
366.272; -114.400; -803.000; -719.000
366.404; -122.450;-1005.000; -874.000
366.535;  -28.875; -139.000;  -12.000
366.667; -118.475; -644.000; -649.000
366.799;   27.825;  353.000;  203.000
366.930; -132.525; -862.000; -996.000
367.062;  105.675; -639.000; -613.000
367.193;  162.475; -872.000; -842.000
367.325;  -70.275; -580.000; -684.000
367.456;   14.275; -246.000;   31.000
367.588;  157.550; -371.000; -318.000
367.719;   16.750;  -44.000;  -45.000
367.851;  -23.225; -222.000; -241.000
367.982;  -87.625; -875.000; -732.000
368.113;   65.475; -475.000; -358.000
368.245; -125.900; -960.000; -841.000
368.376;  -33.125; -254.000; -302.000
368.508;  -57.200; -188.000; -263.000
368.639; -143.100;-1166.000;-1034.000
368.770;  -40.650; -670.000; -589.000
368.902;  -83.825; -836.000; -926.000
369.033; -121.700; -906.000; -855.000
369.164;  -48.500; -720.000; -653.000
369.296; -109.600; -452.000; -601.000
369.427;  -17.825; -209.000; -144.000
369.558;  -55.725; -593.000; -377.000
369.689;  -94.100; -721.000; -569.000
369.821; -137.600; -951.000; -845.000
369.952;  -19.425;   42.000; -108.000
370.083;  -60.750; -229.000; -108.000
370.214;  -95.825; -735.000; -650.000
370.345;  -16.250;   65.000;   81.000
370.477;  -96.250; -810.000; -790.000
370.608;  173.175; -328.000; -264.000
370.739;  -77.725;-1233.000;-1292.000
370.870;  -71.325;-1102.000; -923.000
371.001;   55.400; -378.000; -467.000
371.132; -106.825; -754.000; -735.000
371.263;  -29.725;  -42.000; -148.000
371.394; -151.125; -841.000; -748.000
371.525;   19.125;  345.000;  225.000
371.657;  -98.625; -808.000; -670.000
371.788;   59.950;  103.000;  199.000
371.919;  119.750; -384.000; -304.000
372.050; 3111.775;  -91.000; -156.000
372.181;  933.475; -188.000; -294.000
372.311;  299.550;   42.000; -127.000
372.442;    9.275; -457.000; -451.000
372.573;  -38.325; -444.000; -340.000
372.704; -133.375;-1008.000; -980.000
372.835;   61.225; -228.000; -289.000
372.966;  -81.150; -646.000; -554.000
373.097;  -86.550; -575.000; -711.000
373.228;  -54.275; -717.000; -542.000
373.359;   94.525; -824.000; -536.000
373.490;  745.950; -881.000; -727.000
373.620;  962.950;-1001.000; -803.000
373.751; 1464.725; -332.000; -396.000
373.882;  635.950; -663.000; -733.000
374.013;   35.750; -449.000; -262.000
374.143;  -64.275; -581.000; -659.000
374.274; -120.925; -987.000; -908.000
374.405;  122.575; -388.000; -276.000
374.536;  356.100; -526.000; -387.000
374.666;  893.550; -759.000; -807.000
374.797;  164.375; -817.000; -868.000
374.928;  679.325; -710.000; -560.000
375.058;  726.575; -535.000; -500.000
375.189;   47.625;  -59.000;  -93.000
375.320; -106.150; -928.000;-1034.000
375.450;  -57.425; -625.000; -616.000
375.581;  -72.525; -526.000; -436.000
375.712;  -36.275; -574.000; -250.000
375.842;  239.975; -438.000; -415.000
375.973;  159.200; -554.000; -513.000
376.103;  -67.550; -665.000; -648.000
376.234;  -97.450; -531.000; -552.000
376.364;  -64.400; -944.000; -867.000
376.495;  278.150;  925.000;  529.000
376.625;  -36.650; -472.000; -485.000
376.756;   31.675; -709.000; -678.000
376.886; -106.350;-1178.000;-1026.000
377.017;   46.825;-1048.000;-1061.000
377.147;  356.775; -786.000; -782.000
377.278;   55.450;  174.000;  228.000
377.408; -137.975; -801.000; -815.000
377.538; -114.000; -707.000; -693.000
377.669;  -92.050; -537.000; -613.000
377.799;  -91.700; -645.000; -635.000
377.929;  -75.075; -610.000; -428.000
378.060; -146.325; -781.000; -847.000
378.190;  -53.975; -726.000; -531.000
378.320;  -50.825; -401.000; -406.000
378.451;  -32.850; -131.000;  -22.000
378.581;  -26.400;  -67.000; -110.000
378.711;  134.450; 1035.000;  866.000
378.841;  -32.500; -533.000; -675.000
378.972;  -97.575; -871.000; -751.000
379.102;  -29.500; -652.000; -579.000
379.232;  -47.850; -126.000;  -73.000
379.362; -113.975;-1001.000; -885.000
379.492;  -39.850; -373.000; -424.000
379.623;   89.750;    0.000;  111.000
379.753; -115.600;-1107.000; -974.000
379.883;  152.550;   59.000;  156.000
380.013;  -22.750;-1081.000;-1017.000
380.143; -123.975;-1097.000;-1056.000
380.273; -115.300; -985.000; -861.000
380.403;  -19.150; -344.000; -257.000
380.533;  -49.750; -651.000; -664.000
380.663;   41.600;  173.000;  128.000
380.793; -124.925;-1027.000;-1074.000
380.923;  -38.450; -103.000;  -34.000
381.053; -108.575; -613.000; -623.000
381.183;  -30.625; -106.000; -248.000
381.313;   -5.975; -656.000; -470.000
381.443;   11.100; -692.000; -473.000
381.573;  125.675; -402.000; -409.000
381.703;  167.775;-1249.000;-1095.000
381.833; -156.225;-1454.000;-1336.000
381.963;   84.625; -134.000;  -87.000
382.093; 1186.800; -925.000; -909.000
382.223;  370.225; -713.000; -602.000
382.353;  -48.500; -801.000; -608.000
382.482;  272.875;-1091.000; -964.000
382.612;  618.475; -872.000; -644.000
382.742;  359.775; -695.000; -622.000
382.872;  192.050; -565.000; -551.000
383.002;   58.350;  347.000; -132.000
383.131;  -27.850; -226.000; -160.000
383.261;  -46.675; -706.000; -768.000
383.391;  260.475; -552.000; -377.000
383.521; 3421.375;  451.000;  263.000
383.650;  834.825; -947.000; -904.000
383.780;   -9.125; -783.000; -656.000
383.910;   84.675;  880.000;  802.000
384.039;   -9.775; -794.000; -656.000
384.169;  127.175;-1205.000;-1017.000
384.299;  -59.300; -650.000; -662.000
384.428; -115.700; -764.000; -680.000
384.558;  -54.125; -308.000; -275.000
384.687;  -73.025; -414.000; -334.000
384.817;   -1.125;   75.000;   -2.000
384.947;  -15.725; -234.000; -141.000
385.076;  263.925;  982.000;  912.000
385.206;   65.925;  369.000;  480.000
385.335;  -57.100; -549.000; -417.000
385.465;  -87.600; -655.000; -663.000
385.594;   89.300;  -53.000;  -44.000
385.724;  318.975; -868.000; -838.000
385.853;   83.400; -296.000; -270.000
385.982; 1130.975; -743.000; -787.000
386.112; 1822.100;-1052.000; -871.000
386.241;  103.175; -307.000; -312.000
386.371;   10.950; -174.000;  -87.000
386.500;  -26.750; -825.000; -789.000
386.629;    5.625; -874.000; -817.000
386.759;   47.000;  -43.000;   68.000
386.888;  -22.825; -170.000; -250.000
387.017;  -94.050; -648.000; -620.000
387.147; -100.200; -771.000; -798.000
387.276;  -29.675; -410.000; -397.000
387.405;  -10.675; -398.000; -342.000
387.535;  -63.325; -452.000; -361.000
387.664;  -70.750; -692.000; -620.000
387.793;   21.200; -198.000; -113.000
387.922;  401.325;  255.000;  200.000
388.052;  -20.300; -576.000; -423.000
388.181;   -9.050; -342.000; -472.000
388.310;  -53.275; -889.000; -710.000
388.439;  -71.600; -749.000; -742.000
388.568;  138.275;  365.000;  244.000
388.697;  852.475; -756.000; -653.000
388.826;  160.875; -768.000; -666.000
388.956;   33.350; -285.000; -307.000
389.085;  -42.825; -347.000; -287.000
389.214; -115.900; -842.000; -872.000
389.343;  -82.500; -645.000; -413.000
389.472;  387.625;  126.000;  149.000
389.601;  508.250;   91.000;    0.000
389.730;  -15.200; -568.000; -687.000
389.859;   41.175;  226.000;   46.000
389.988;  156.075; -423.000; -408.000
390.117;  106.750; -168.000; -146.000
390.246;  -24.400; -331.000; -320.000
390.375;   43.625; -673.000; -626.000
390.504;  -66.800; -703.000; -621.000
390.633; -111.975; -672.000; -726.000
390.761;  -80.425; -732.000; -645.000
390.890;   -0.700;   -4.000; -130.000
391.019;  -53.725; -421.000; -441.000
391.148; -143.600; -826.000; -855.000
391.277;  -85.325; -576.000; -493.000
391.406; -108.775; -821.000; -805.000
391.534;   -0.575;  574.000; -301.000
391.663;  -71.975; -583.000; -645.000
391.792;  -94.650; -673.000; -701.000
391.921;   47.150;   -3.000;   15.000
392.050;  122.450; -287.000; -228.000
392.178;  -74.700;-1206.000;-1061.000
392.307;   91.425; -758.000; -712.000
392.436;   28.850; -427.000; -641.000
392.564;    1.325;  166.000;   -6.000
392.693; -106.650; -860.000; -682.000
392.822;  151.550; -529.000; -534.000
392.950;   27.950; -880.000; -714.000
393.079;  251.100; -188.000; -328.000
393.208;    3.300; -488.000; -511.000
393.336;  -16.975; -170.000; -145.000
393.465;  -67.325; -317.000; -199.000
393.593;  -13.775;   62.000;   79.000
393.722; -160.100;-1121.000; -916.000
393.850;  -52.725; -188.000;  -61.000
393.979; -154.725; -926.000; -805.000
394.107;  -85.950; -517.000; -537.000
394.236;  -37.500; -570.000; -507.000
394.364;  171.450;  383.000;  206.000
394.493;  270.950; -911.000; -767.000
394.621;  -19.900; -955.000; -916.000
394.750;  731.225; -873.000; -923.000
394.878; 2989.800; -247.000; -149.000
395.007; 4193.600; -721.000; -807.000
395.135;  315.900; -790.000; -721.000
395.263;  -83.000;-1038.000;-1040.000
395.392;   -8.800;  -25.000; -107.000
395.520; -154.125; -818.000; -679.000
395.648; -106.125; -865.000; -915.000
395.777;  -52.675; -366.000; -405.000
395.905;  -58.925; -449.000; -564.000
396.033;    2.650;  217.000;  172.000
396.162;  459.450; -399.000; -453.000
396.290;  409.175;  -17.000;   -2.000
396.418;   63.650; -555.000; -514.000
396.546;  -91.525; -571.000; -466.000
396.674; -111.375; -850.000; -878.000
396.803;  -17.600;  -72.000;  -23.000
396.931;   44.525; -179.000; -199.000
397.059;   -9.675;-1026.000; -989.000
397.187; -134.450;-1026.000; -975.000
397.315; -159.000; -884.000; -649.000
397.443; -105.375; -592.000; -443.000
397.572; -107.675; -578.000; -424.000
397.700;  -40.225; -607.000; -614.000
397.828;   -0.250;  120.000;  -90.000
397.956;  -42.250; -508.000; -478.000
398.084;  -79.400; -767.000; -626.000
398.212;   18.375;  137.000;  124.000
398.340;    2.425;  -56.000;  159.000
398.468;    5.200; -390.000; -169.000
398.596; -150.725; -993.000; -953.000
398.724; -138.775; -762.000; -767.000
398.852; -178.725;-1024.000; -976.000
398.980;  -75.850; -560.000; -560.000
399.108;  -73.250; -982.000; -735.000
399.236;    4.675;   13.000;    8.000
399.363;   -6.575;  222.000;  196.000
399.491;  -72.275; -404.000; -398.000
399.619; -154.200; -829.000; -800.000
399.747; -106.425; -859.000; -771.000
399.875;   59.350;  220.000;  234.000
400.003;  -73.525; -359.000; -284.000
400.130; -103.425; -421.000; -341.000
400.258;  -33.325;  -83.000;   38.000
400.386;  -75.725; -352.000; -168.000
400.514;  -63.300; -526.000; -587.000
400.641; -119.925; -928.000; -802.000
400.769; -143.700; -979.000; -888.000
400.897; -124.775; -838.000; -793.000
401.025;  -34.350; -166.000; -152.000
401.152;  -18.075;  220.000;   38.000
401.280;  -89.225; -430.000; -429.000
401.408; -120.650; -712.000; -576.000
401.535; -117.725; -735.000; -758.000
401.663; -185.575;-1134.000;-1054.000
401.790;  -89.000; -514.000; -525.000
401.918;   11.525;  436.000;  405.000
402.046;  -25.025;  134.000;  122.000
402.173;  -36.725;  -18.000;    7.000
402.301;  -84.050; -519.000; -397.000
402.428;   11.425;  528.000;  383.000
402.556; -144.725;-1188.000; -913.000
402.683;  -54.675;  -20.000;   -1.000
402.811;  -39.550;  -37.000; -206.000
402.938;  -14.050;   20.000;   27.000
403.066;  133.900; -574.000; -558.000
403.193;  268.000;  299.000;  239.000
403.321;  187.450; -396.000; -574.000
403.448;  269.250;   83.000;   27.000
403.575;  109.850;  -90.000;  -46.000
403.703; -121.175; -732.000; -557.000
403.830;  -68.400; -531.000; -496.000
403.957; -165.375;-1117.000;-1023.000
404.085;    2.825;  -61.000; -172.000
404.212;   81.200;  -50.000;   63.000
404.339;  271.475; -566.000; -306.000
404.467; 5987.100; -612.000; -524.000
404.594; 3833.425; -287.000; -227.000
404.721;  827.550; -869.000; -764.000
404.848;   71.575; -113.000; -202.000
404.976; -117.225; -856.000; -783.000
405.103;  -20.400;  -14.000;  -82.000
405.230;  -13.800;  190.000;  226.000
405.357;   13.125;  117.000;   44.000
405.484;  264.225;  -49.000;    5.000
405.612;   39.400; -548.000; -563.000
405.739;  -78.525; -488.000; -243.000
405.866;   72.500;  669.000;  385.000
405.993;  -65.800; -398.000; -102.000
406.120; -144.875; -801.000; -887.000
406.247;  -74.250; -323.000; -342.000
406.374;  331.425;  540.000;  629.000
406.501;   47.225; -632.000; -702.000
406.628;  -89.275; -621.000; -589.000
406.755; -118.225; -803.000; -620.000
406.882;  -49.875; -228.000; -277.000
407.009; -124.350; -719.000; -628.000
407.136;   23.125; -480.000; -401.000
407.263;   70.025; -939.000; -829.000
407.390;  -96.500; -692.000; -614.000
407.517; -192.575;-1139.000;-1187.000
407.644;  -70.000; -332.000; -256.000
407.771;  -86.300; -249.000; -287.000
407.898;   -5.375;  168.000;  328.000
408.025;  -87.025; -421.000; -313.000
408.151;  -20.325;   82.000;  153.000
408.278;  -82.925; -267.000; -216.000
408.405; -119.075; -931.000; -899.000
408.532;  -78.400; -549.000; -542.000
408.659; -126.750; -677.000; -648.000
408.785; -207.200;-1298.000;-1170.000
408.912;  -80.125; -412.000; -296.000
409.039; -125.550; -610.000; -686.000
409.166; -108.150; -591.000; -555.000
409.292; -114.300; -571.000; -534.000
409.419; -139.400; -665.000; -649.000
409.546;  -85.250; -431.000; -192.000
409.672; -115.725; -713.000; -545.000
409.799;  -39.375;  -36.000;   34.000
409.926;  -42.575; -180.000; -179.000
410.052; -181.300;-1127.000;-1091.000
410.179;  -70.925; -368.000; -392.000
410.305;  -97.550; -375.000; -493.000
410.432;  -43.850; -220.000; -333.000
410.558; -101.800; -305.000; -380.000
410.685;  -98.575; -688.000; -431.000
410.812; -116.475; -409.000; -588.000
410.938; -148.600; -964.000; -808.000
411.065; -115.250; -671.000; -645.000
411.191;  -39.325; -189.000; -174.000
411.317; -128.375; -823.000; -742.000
411.444;  -67.100; -317.000; -246.000
411.570;  -87.175; -339.000; -294.000
411.697; -125.350; -758.000; -752.000
411.823; -179.000; -989.000; -999.000
411.949;  -26.475;  -56.000;   17.000
412.076; -116.975; -539.000; -519.000
412.202; -126.925; -758.000; -757.000
412.329; -135.300; -798.000; -752.000
412.455; -118.900; -821.000; -657.000
412.581;  -43.175;  -15.000;  172.000
412.707;  -89.100; -540.000; -457.000
412.834;   -0.325;  156.000;  219.000
412.960; -104.575; -785.000; -784.000
413.086; -119.075; -743.000; -701.000
413.212;  114.425;  604.000;  578.000
413.339;  -94.925; -685.000; -701.000
413.465;  -32.200; -364.000; -310.000
413.591; -106.575; -757.000; -474.000
413.717;  -76.125; -358.000; -366.000
413.843; -143.775; -839.000; -861.000
413.969;  -74.125;  -47.000; -292.000
414.096; -109.625; -679.000; -679.000
414.222;  -11.275;  -33.000;   85.000
414.348;  -68.900; -652.000; -385.000
414.474;   57.700;   38.000;  -52.000
414.600;  -25.500; -126.000; -144.000
414.726;  -21.725;  -96.000;  -55.000
414.852;  -72.525; -365.000; -342.000
414.978;   17.550;  104.000;  -18.000
415.104;   28.875;   38.000;   80.000
415.230;    1.450; -329.000; -330.000
415.356;    9.850; -409.000; -514.000
415.482;  186.575;   13.000;  -35.000
415.608;  254.925; -247.000; -323.000
415.734;  957.325;   67.000;   38.000
415.860;20154.325; -875.000; -767.000
415.986;15114.425; -685.000; -607.000
416.111; 1292.600; -798.000; -652.000
416.237;  254.600; -424.000; -571.000
416.363; 1146.150; -765.000; -733.000
416.489; 4398.525; -324.000; -251.000
416.615;  472.025; -707.000; -742.000
416.741;  -19.125; -677.000; -784.000
416.866; -101.950; -673.000; -736.000
416.992; -121.975; -801.000; -818.000
417.118;  -37.925;  -41.000;  -80.000
417.244;  -81.050; -798.000; -531.000
417.369;  -93.075; -801.000; -612.000
417.495;  -16.400; -325.000; -254.000
417.621;  -97.875;-1015.000; -803.000
417.746;    0.075; -579.000; -572.000
417.872;   42.000; -254.000; -144.000
417.998;   26.600; -515.000; -530.000
418.123; 1050.050;-1073.000; -845.000
418.249; 5641.325; -512.000; -601.000
418.374;  800.275; -916.000; -824.000
418.500;  103.000; -383.000; -482.000
418.626;  100.650;   70.000;  -59.000
418.751;   93.975; -549.000; -448.000
418.877;  185.975; -637.000; -643.000
419.002; 1823.650; -688.000; -560.000
419.128;13080.275; -930.000; -721.000
419.253; 3313.250; -967.000; -837.000
419.379;  421.425; -391.000; -338.000
419.504;  394.450;  325.000;  415.000
419.629;  508.625; -393.000; -212.000
419.755; 3712.275; -317.000; -254.000
419.880;22401.450;  -98.000;   67.000
420.006;11954.675; -280.000; -221.000
420.131;30579.350; -662.000; -775.000
420.256; 4502.700; -315.000; -316.000
420.382;  588.925; -665.000; -687.000
420.507;   71.025; -649.000; -778.000
420.632;   91.600; -337.000; -339.000
420.758;  178.050; -251.000; -425.000
420.883;  -96.475; -876.000; -672.000
421.008; -107.700; -775.000; -619.000
421.133; -101.275; -509.000; -467.000
421.259;  -44.925; -325.000; -259.000
421.384; -139.125; -834.000; -693.000
421.509;  -82.725;-1052.000; -862.000
421.634;  854.525; -936.000; -820.000
421.759;  383.075; -359.000; -327.000
421.885;  -68.250; -717.000; -656.000
422.010;  -85.200; -673.000; -542.000
422.135; -170.125; -695.000; -727.000
422.260;   18.150;  340.000;  280.000
422.385;  -52.475;   12.000;  -98.000
422.510;   -8.175;  151.000;  -26.000
422.635;   -6.850;  -87.000;  -43.000
422.760;   76.375; -766.000; -791.000
422.885;   42.825;  -57.000;  -80.000
423.010;  -36.225; -112.000; -169.000
423.135; -110.100; -481.000; -561.000
423.260;  -28.200; -150.000; -245.000
423.385;   37.400;  476.000;  222.000
423.510;   21.000;   71.000;  -22.000
423.635;   44.800;  133.000;   45.000
423.760;   46.625;  383.000;  328.000
423.885;   35.625;  336.000;  391.000
424.010;   -8.525;  -68.000;  -13.000
424.135;  -41.425;    5.000;  -33.000
424.259;  -94.025; -654.000; -457.000
424.384;  -74.300; -279.000; -272.000
424.509;  -30.525; -260.000; -186.000
424.634; -111.625; -761.000; -623.000
424.759;  -27.000; -688.000; -544.000
424.883;  -24.850; -506.000; -527.000
425.008;  143.625; -502.000; -410.000
425.133; 2021.275; -679.000; -653.000
425.258;  972.825; -517.000; -381.000
425.382;  876.550; -867.000; -774.000
425.507; 2305.075; -487.000; -543.000
425.632;  405.900; -802.000; -663.000
425.756;  478.900; -256.000; -146.000
425.881; 6903.625; -831.000; -857.000
426.006;19286.250; -604.000; -355.000
426.130; 3003.775; -696.000; -508.000
426.255;  396.825; -611.000; -491.000
426.379;  150.900; -189.000; -577.000
426.504;  364.400;  660.000;  544.000
426.629; 4069.275; -519.000; -466.000
426.753; 2882.350;   64.000;  -46.000
426.878;  324.850; -252.000; -288.000
427.002;  155.675; -651.000; -668.000
427.127; 1575.725;  -35.000; -158.000
427.251;11869.825;  372.000;  401.000
427.375; 3417.050; -191.000; -173.000
427.500; 2042.725; -616.000; -610.000
427.624;  706.975; -234.000; -400.000
427.749;   69.675; -216.000; -225.000
427.873;  -50.025; -499.000; -412.000
427.997;  -38.600; -222.000; -230.000
428.122;   67.825;  795.000;  703.000
428.246;   55.025;  433.000;  434.000
428.371; -139.425; -869.000; -773.000
428.495;  -97.725; -624.000; -646.000
428.619;  -44.700; -186.000; -117.000
428.743;    2.475;   65.000;  132.000
428.868;  -26.925; -732.000; -643.000
428.992; 1191.975; -219.000; -326.000
429.116;  477.800; -329.000; -357.000
429.240;  224.400;  419.000;  426.000
429.365;  -50.350; -454.000; -574.000
429.489;  -63.175; -638.000; -647.000
429.613;   10.900; -236.000; -177.000
429.737;   21.225; -563.000; -432.000
429.861;  241.525; -247.000; -133.000
429.985; 5676.650; -425.000; -305.000
430.109; 6450.325; -770.000; -908.000
430.234;  746.275;   76.000;  -50.000
430.358;   49.900; -250.000; -160.000
430.482;  -69.750; -672.000; -564.000
430.606;  -82.350; -655.000; -375.000
430.730;  -12.400; -437.000; -388.000
430.854;   41.250; -909.000; -835.000
430.978; -100.575; -795.000; -764.000
431.102; -105.225; -499.000; -422.000
431.226; -132.825; -874.000; -815.000
431.350;   21.775;  345.000;  422.000
431.474;  -95.325; -661.000; -373.000
431.597; -158.250;-1060.000; -848.000
431.721;  -86.650; -276.000; -267.000
431.845; -137.525; -704.000; -472.000
431.969;  -91.850; -304.000; -349.000
432.093; -106.675; -395.000; -317.000
432.217;  -13.400;   32.000;   82.000
432.341;  -99.150; -523.000; -518.000
432.464;  -15.750;   96.000;   40.000
432.588;  111.750; -401.000; -329.000
432.712;   64.525;  -52.000;  -52.000
432.836;   35.400;  213.000;  263.000
432.959;  -21.025; -372.000; -311.000
433.083;   59.850;   11.000;    2.000
433.207;  361.450;  285.000;  930.000
433.330; 5227.475; -391.000; -200.000
433.454; 6652.225; -654.000; -638.000
433.578; 3746.850;  583.000;  278.000
433.701;  720.600; -623.000; -675.000
433.825;   91.875; -292.000; -299.000
433.949;  101.550;   28.000;  -72.000
434.072;   14.450; -410.000; -323.000
434.196;  -25.775; -309.000; -117.000
434.319; 3651.675;25482.000;25124.000
434.443;  680.950; -656.000; -603.000
434.566; 2783.200;  281.000;   62.000
434.690;  477.075; -637.000; -383.000
434.813;   42.875; -251.000; -173.000
434.937;  -89.700; -569.000; -696.000
435.060;  -70.300; -423.000; -332.000
435.184;  189.950; -492.000; -217.000
435.307;   87.200;  159.000;  102.000
435.431;  -19.100;  -40.000;   24.000
435.554;  -84.550; -399.000; -240.000
435.677; -100.350; -350.000; -258.000
435.801;  -44.825;  -25.000;   49.000
435.924;  -29.525;    1.000;  -67.000
436.048; -147.050;-1019.000; -732.000
436.171;  -80.600; -240.000;  -66.000
436.294;  -29.500; -248.000; -229.000
436.417;   94.650; -963.000; -849.000
436.541;  -73.800; -814.000; -840.000
436.664;  -57.725; -242.000; -316.000
436.787;  -43.300;   13.000;  113.000
436.910; -128.475; -792.000; -422.000
437.034;   -7.975;  142.000;  143.000
437.157;    8.725;  -11.000;    0.000
437.280;  -77.975; -392.000; -292.000
437.403; -118.775; -982.000; -869.000
437.526;  399.975; -903.000; -865.000
437.649; 1667.625; -505.000; -332.000
437.772;  201.775; -692.000; -540.000
437.896;   92.800;  700.000;  544.000
438.019; -116.600; -758.000; -503.000
438.142; -100.675; -596.000; -506.000
438.265;  -63.650; -639.000; -670.000
438.388;  380.025; -520.000; -410.000
438.511;   42.675; -597.000; -394.000
438.634;  -68.500; -247.000; -125.000
438.757; -148.600; -693.000; -619.000
438.880;  -29.150;  -34.000;  -57.000
439.003;  -99.725; -417.000; -437.000
439.126;  -68.675; -287.000; -167.000
439.248;  -77.550;  -98.000; -139.000
439.371;  -55.050;    9.000;  -53.000
439.494;   29.950;  510.000;  439.000
439.617;  -60.700;   65.000;  -88.000
439.740; -187.950; -968.000; -816.000
439.863; -148.250; -755.000; -595.000
439.986; -130.850; -476.000; -431.000
440.108;  -67.525; -161.000; -112.000
440.231; -176.150; -950.000; -836.000
440.354;  -45.725;  -64.000; -150.000
440.477;  -30.000; -566.000; -542.000
440.599;  -35.600; -200.000; -225.000
440.722; -125.025; -709.000; -586.000
440.845;   54.475;  751.000;  928.000
440.968; -120.500; -415.000; -311.000
441.090;  -73.200; -199.000;  -33.000
441.213; -171.400;-1021.000; -825.000
441.336;  -62.825; -159.000;   -5.000
441.458;  -89.625; -549.000; -396.000
441.581;  -92.150; -628.000; -629.000
441.703;  -90.825; -152.000;   13.000
441.826; -108.800; -557.000; -400.000
441.948;  -66.600;   56.000;   51.000
442.071;   20.950;  555.000;  424.000
442.193; -110.725; -531.000; -485.000
442.316;    4.975;  152.000;   97.000
442.438;   27.850; -233.000;  -10.000
442.561;   56.525;  272.000;  262.000
442.683;  356.050; -809.000; -522.000
442.806;  879.850;   -8.000;   74.000
442.928;  -31.500; -859.000; -604.000
443.051;  -92.650; -577.000; -373.000
443.173; -112.725; -341.000; -339.000
443.295;  -76.775; -263.000; -371.000
443.418;  -87.700; -321.000;  -29.000
443.540;  -22.750; -106.000;   -4.000
443.662; -127.550; -563.000; -465.000
443.785;  -34.850;  335.000;  199.000
443.907; -117.125; -362.000; -208.000
444.029; -136.200; -767.000; -494.000
444.152; -154.025; -644.000; -554.000
444.274;  -50.875;  -18.000;  -24.000
444.396; -114.000; -461.000; -221.000
444.518; -129.300; -691.000; -454.000
444.640; -116.400; -268.000; -111.000
444.763;  -27.950;  388.000;  249.000
444.885; -120.125; -432.000; -392.000
445.007;  -50.100;   35.000;   86.000
445.129; -124.200; -610.000; -515.000
445.251; -119.075; -372.000; -439.000
445.373; -145.425; -537.000; -386.000
445.495;   -7.575;  242.000;  350.000
445.617;   38.725;  853.000;  753.000
445.739;  -75.575; -215.000;  -97.000
445.861;  -40.425; -245.000; -112.000
445.984;  -53.400; -267.000; -101.000
446.105;  126.600; -418.000; -251.000
446.227;  454.800; -176.000;  -19.000
446.349;  -34.525; -358.000; -249.000
446.471; -121.475; -615.000; -448.000
446.593;  -87.075; -316.000;   19.000
446.715;   -2.425;  -67.000;   41.000
446.837;   34.075;  697.000;  832.000
446.959; -103.775; -457.000; -478.000
447.081; -128.350; -628.000; -518.000
447.203;   36.300;  862.000;  834.000
447.325;  -99.775; -270.000;   42.000
447.446;  -12.575;  286.000;  530.000
447.568; -157.625; -921.000; -803.000
447.690;  -98.775; -236.000; -245.000
447.812; -157.450; -798.000; -519.000
447.933;  -50.975;  155.000;  127.000
448.055;  -77.425; -306.000; -261.000
448.177;   93.000;   31.000;   79.000
448.299;   27.800; -935.000; -727.000
448.420;   14.575;  -25.000;  159.000
448.542;  -52.900;   -3.000;   33.000
448.664;  -31.250;  109.000;  322.000
448.785;  -48.125;  265.000;   83.000
448.907;  -88.250; -614.000; -353.000
449.028;  -64.325; -771.000; -471.000
449.150;   48.800;  492.000;  589.000
449.272; -194.425;-1044.000; -913.000
449.393;   17.075;  612.000;  694.000
449.515; -147.300; -634.000; -581.000
449.636;  -68.225; -264.000; -155.000
449.758;   56.475;  763.000;  622.000
449.879;  -91.750; -498.000; -396.000
450.001;  -93.450; -149.000;  -49.000
450.122;  -43.900;  -95.000;  162.000
450.244;  -26.775;   37.000;  364.000
450.365;  -96.375; -495.000; -301.000
450.486;  -47.125;   80.000;  268.000
450.608;   17.875;  393.000;  326.000
450.729;   66.150;  578.000;  645.000
450.850;   25.325; -574.000; -466.000
450.972;  779.025; -552.000; -389.000
451.093; 5217.975;  190.000;  588.000
451.214; 2333.850; -516.000; -337.000
451.336;  418.875;  773.000;  579.000
451.457;   54.350;  264.000;  393.000
451.578;  -37.325; -118.000;  -74.000
451.699; -133.625; -546.000; -540.000
451.821;  -77.950; -284.000;  -50.000
451.942;  -24.175;  278.000;  285.000
452.063;   22.575;  228.000;  419.000
452.184;  583.700;  -54.000;  -49.000
452.305; 1141.325;  103.000;  170.000
452.427;  131.550; -549.000; -301.000
452.548;  -33.775;   23.000;   79.000
452.669;  -70.475; -257.000;  -89.000
452.790;  -54.200;    3.000;  -18.000
452.911;  -23.325;  195.000;  259.000
453.032;  -72.300; -289.000;  -60.000
453.153;  -52.825;  -29.000;   81.000
453.274;   46.525;  737.000;  868.000
453.395;  -66.425;  -51.000;  175.000
453.516;  106.125; 1317.000; 1388.000
453.637;  -88.050; -205.000; -150.000
453.758;  -71.750;   15.000;   69.000
453.879; -135.625; -462.000; -250.000
454.000;   74.425; 1086.000;  948.000
454.121; -118.275; -554.000; -326.000
454.242; -135.300; -599.000; -383.000
454.362;  -60.900;  -99.000;  114.000
454.483;  -59.025; -309.000; -229.000
454.604;   35.100;  512.000;  580.000
454.725; -142.825; -627.000; -555.000
454.846; -132.950; -474.000; -406.000
454.967;  -33.375;  230.000;  539.000
455.087;  -64.925;  179.000;  153.000
455.208;   20.850;  554.000;  856.000
455.329;  -58.850;  -22.000;   82.000
455.450;   33.125;  473.000;  633.000
455.570;  -93.900; -234.000; -211.000
455.691;  -39.500;  201.000;  407.000
455.812; -135.775; -270.000;  -92.000
455.932;  -66.175;  107.000;  -97.000
456.053;  -98.275;   36.000;   24.000
456.173; -113.275; -433.000; -355.000
456.294; -135.925; -476.000; -303.000
456.415;  -73.550;  -73.000;   70.000
456.535;  -34.550;  297.000;  273.000
456.656;  -47.650;  132.000;  240.000
456.776;  -70.075;    3.000;  298.000
456.897;  -16.100;  308.000;  513.000
457.017;  -96.175; -153.000;   -3.000
457.138; -115.225; -402.000; -249.000
457.258;  -51.700;  263.000;  224.000
457.379;  -14.300;  509.000;  521.000
457.499;  -25.475;  443.000;  432.000
457.620; -140.550; -407.000; -231.000
457.740; -115.550; -132.000;  -11.000
457.860;  -68.125;   87.000;   44.000
457.981;  -68.225;  132.000;  124.000
458.101;  -72.275;  -89.000;   40.000
458.221;  -22.750;  336.000;  402.000
458.342;  -62.625;   -4.000;  -37.000
458.462;   11.450;  617.000;  352.000
458.582;  -39.200; -302.000; -294.000
458.703;   17.175;  303.000;  154.000
458.823;  -31.025;   22.000;  163.000
458.943;   18.650;  341.000;  467.000
459.063;  -43.850; 1124.000;  192.000
459.183;  -37.025;  328.000;  313.000
459.304;   -0.900;  315.000;  517.000
459.424;  -67.875; -246.000;  -89.000
459.544;  333.675;  388.000;  764.000
459.664;  871.725;  499.000;  506.000
459.784;  323.625; 1004.000; 1175.000
459.904;   50.800;  867.000;  744.000
460.024;   57.700;  867.000;  684.000
460.144;   -8.100;  449.000;  554.000
460.264;   -7.975;  515.000;  327.000
460.385; -104.100; -145.000; -119.000
460.505;   35.325;  905.000;  858.000
460.625; -102.675;  -17.000;  -68.000
460.745;  -24.800;  396.000;  541.000
460.864;  -56.775;  153.000;  469.000
460.984;   13.925;  499.000;  573.000
461.104;  118.225; 1656.000; 1775.000
461.224;   14.125;  657.000;  650.000
461.344;  -28.600;  431.000;  360.000
461.464;  -34.700;  258.000;  513.000
461.584;  -36.450;  283.000;  466.000
461.704;  -60.400;   58.000;  108.000
461.824;  -71.750;  238.000;  259.000
461.943;  -59.925;  191.000;  130.000
462.063;  -82.225;    2.000;  324.000
462.183;   19.975;  639.000;  717.000
462.303;   94.875; 1678.000; 1230.000
462.422;   25.825;  781.000;  840.000
462.542;  -57.475;  271.000;  391.000
462.662;   17.000;  353.000;  380.000
462.782;  234.875;  833.000;  572.000
462.901;  487.700;  545.000;  717.000
463.021;  289.900; 1702.000; 1638.000
463.141;  -13.350;  337.000;  770.000
463.260;  -25.000;  614.000;  474.000
463.380;   14.125;  902.000;  884.000
463.499;  -31.500;  342.000;  332.000
463.619;  -41.525;  581.000;  559.000
463.738;   95.975; 1644.000;  903.000
463.858;    7.975;  657.000;  811.000
463.978;  -52.025;  542.000;  396.000
464.097;   47.200;  921.000; 1114.000
464.217;  108.875; 1196.000; 1143.000
464.336;  111.375; 1068.000; 1130.000
464.455;  -50.750;  328.000;  659.000
464.575;   27.900;  597.000;  602.000
464.694;  159.225; 1204.000; 1179.000
464.814;  119.300; 1190.000; 1138.000
464.933;   66.650; 1095.000; 1027.000
465.052;   94.975; 1412.000; 1054.000
465.172;   68.550;  922.000;  799.000
465.291;  121.000; 1376.000; 1320.000
465.410;    4.500;  462.000;  735.000
465.530;   78.300; 1355.000; 1310.000
465.649;   60.350; 1209.000; 1273.000
465.768;  127.500; 1673.000; 1508.000
465.888;   20.200;  941.000; 1174.000
466.007;   87.300; 1335.000; 1440.000
466.126;    1.300;  721.000;  641.000
466.245;   31.700; 1176.000; 1187.000
466.364;    9.400;  950.000; 1060.000
466.484;   41.400; 1024.000; 1213.000
466.603;   19.150; 1101.000; 1222.000
466.722;  110.700; 1490.000; 1769.000
466.841;   63.000; 1151.000; 1401.000
466.960;   44.525; 1069.000;  972.000
467.079;  113.250; 1971.000; 1786.000
467.198;   50.350; 1238.000; 1181.000
467.317;   76.150; 1768.000; 1162.000
467.436;   63.175; 1709.000; 1261.000
467.555;   96.200; 1796.000; 1746.000
467.674;   46.975; 1227.000; 1329.000
467.793;   38.450; 1376.000; 1374.000
467.912;   84.025; 1658.000; 1539.000
468.031;  124.925; 2038.000; 1930.000
468.150;  135.275; 1842.000; 1837.000
468.269;  178.150; 2313.000; 2090.000
468.388;  190.375; 2168.000; 2339.000
468.507;  242.900; 2884.000; 2903.000
468.626;  269.675; 2555.000; 2541.000
468.744;  139.050; 2018.000; 2174.000
468.863;  197.475; 2312.000; 2523.000
468.982;   84.750; 1503.000; 1555.000
469.101;  208.675; 2788.000; 2692.000
469.220;  154.250; 2333.000; 2176.000
469.338;  238.675; 2935.000; 3051.000
469.457;  189.050; 2719.000; 2545.000
469.576;  356.050; 3953.000; 3784.000
469.695;  212.300; 2877.000; 3066.000
469.813;  421.425; 4148.000; 4192.000
469.932;  387.975; 4255.000; 4485.000
470.051;  407.400; 4075.000; 4161.000
470.169;  858.550; 4470.000; 4338.000
470.288; 1499.350; 4700.000; 4809.000
470.406;  897.575; 5059.000; 5194.000
470.525;  622.100; 6101.000; 5787.000
470.644;  639.350; 6847.000; 6794.000
470.762;  835.750; 8397.000; 7873.000
470.881;  903.225; 8651.000; 8464.000
470.999; 1046.425; 9685.000; 9151.000
471.118; 1110.525;11174.000;10711.000

