
Integration time [ms]: 100.000
Averaging Nr. [scans]: 40
Smoothing Nr. [pixels]: 0
Data measured with spectrometer [name]: 2101012U2
Wave   ;Sample   ;Dark     ;Reference
[nm]   ;[counts] ;[counts] ;[counts] 

197.733;   60.425;  516.000;  404.000
197.879;  -71.550; -610.000; -634.000
198.025;  -43.700; -475.000; -420.000
198.171;  -65.900; -602.000; -612.000
198.317;  -36.900; -401.000; -316.000
198.463;  -58.625; -655.000; -404.000
198.609;   23.750;  181.000; -137.000
198.755;  -89.625; -644.000; -410.000
198.901;  -62.200; -505.000; -424.000
199.047;  -56.900; -615.000; -488.000
199.193;  -50.725; -230.000; -468.000
199.339;  -57.250; -222.000; -369.000
199.485;   35.775;  330.000;  271.000
199.631;   28.225;  227.000;  310.000
199.777;  -58.400; -466.000; -398.000
199.923;  -59.625; -610.000; -424.000
200.069;   -7.600; -141.000;  -58.000
200.215;   67.300;  128.000;  453.000
200.361;   56.250;  243.000;  477.000
200.507;  -61.150; -600.000; -373.000
200.653;  -27.225; -371.000; -194.000
200.798;  -34.250; -215.000; -125.000
200.944;   -5.750; -146.000;  -41.000
201.090;   41.400;   61.000;  222.000
201.236;    2.025; -116.000; -158.000
201.382;  139.150;  874.000;  903.000
201.528;   -4.300;  -58.000;  -48.000
201.674;  -36.250; -386.000; -293.000
201.819;  -59.100; -540.000; -439.000
201.965;  -78.100; -699.000; -447.000
202.111;  -16.325; -273.000; -226.000
202.257;  -33.825; -250.000; -238.000
202.402;   12.450;   13.000;  -36.000
202.548;  -33.625; -169.000; -116.000
202.694;   88.525;  410.000; -183.000
202.840;  -77.875; -603.000; -531.000
202.985;  -74.700; -681.000; -639.000
203.131; -102.075; -832.000; -666.000
203.277;  -16.925; -199.000; -262.000
203.423;  -42.325; -434.000; -520.000
203.568;  -62.775; -462.000; -237.000
203.714;  -60.775; -535.000; -542.000
203.860;  -94.975; -682.000; -641.000
204.005;   13.775;  112.000;  167.000
204.151;   79.650;  561.000;  556.000
204.296;  -48.550; -354.000; -221.000
204.442;  -70.875; -600.000; -547.000
204.588;  -65.475; -592.000; -579.000
204.733;   25.900;  178.000;  168.000
204.879; -126.450;-1018.000; -822.000
205.025;   12.500;  -99.000;  126.000
205.170;  -12.375;  -17.000;   94.000
205.316;   76.775;  438.000;  661.000
205.461;  -78.750; -698.000; -554.000
205.607;   92.900;  609.000;  665.000
205.752;  -82.225; -626.000; -551.000
205.898;  -45.500; -501.000; -391.000
206.043;  -64.300; -578.000; -506.000
206.189;  -29.775; -243.000; -285.000
206.334;   75.475;  554.000;  606.000
206.480;   89.400;  409.000;  239.000
206.625;  -77.500; -529.000; -552.000
206.771;  -53.800; -451.000; -373.000
206.916;  -23.075; -210.000; -537.000
207.062;  -91.950; -545.000; -591.000
207.207;  -50.775; -546.000; -443.000
207.353;   65.025;  185.000;  460.000
207.498;   18.950;  196.000;   85.000
207.643;  -65.850; -501.000; -370.000
207.789; -125.600;-1069.000; -910.000
207.934; -101.500; -665.000; -713.000
208.080;  -18.600; -154.000;   66.000
208.225;   -6.875;  -22.000;  -57.000
208.370;  -85.350; -727.000; -619.000
208.516;  -73.225; -741.000; -487.000
208.661;  -23.775; -127.000;  -69.000
208.806;  -24.725; -165.000; -171.000
208.952; -125.825;-1044.000; -731.000
209.097;   67.850;  378.000;  349.000
209.242;  -40.725; -307.000; -382.000
209.387;   68.000;  392.000;  350.000
209.533;  -41.000; -321.000; -350.000
209.678;   72.750;  472.000;  543.000
209.823;  -48.850; -408.000; -310.000
209.969; -102.575; -860.000; -757.000
210.114; -110.400; -907.000; -719.000
210.259; -110.000; -939.000; -889.000
210.404;    7.400; -171.000;  103.000
210.549;    6.700;  108.000;    3.000
210.695;  -15.325;   -3.000;  -95.000
210.840;   20.775;   94.000;   67.000
210.985;  -54.500; -484.000; -303.000
211.130;   65.250;  268.000;  406.000
211.275;   21.275;  207.000;  199.000
211.420;  -54.625; -300.000; -289.000
211.566;  -70.075; -536.000; -489.000
211.711;   20.775;  218.000;  157.000
211.856;  -62.425; -545.000; -519.000
212.001;    8.775;  151.000;   44.000
212.146;   25.175;  153.000;   49.000
212.291;  -22.625; -210.000; -186.000
212.436;  -24.575; -280.000;   -6.000
212.581;  -86.025; -685.000; -653.000
212.726;  -69.125; -487.000; -538.000
212.871;  -57.875; -552.000; -217.000
213.016; -152.525;-1172.000;-1029.000
213.161;   73.375;  406.000;  291.000
213.306;  -66.625; -435.000; -577.000
213.451;  -94.700; -778.000; -689.000
213.596;  -45.850; -455.000; -347.000
213.741;  -38.600; -448.000; -538.000
213.886;  -88.600; -498.000; -517.000
214.031;  -25.625; -294.000; -124.000
214.176;  -44.425; -408.000; -341.000
214.321;  -18.025; -296.000; -157.000
214.466;  -23.125; -163.000;  -43.000
214.611;   -4.175;  -61.000;  -10.000
214.756; -121.950; -948.000; -858.000
214.901;  -24.750; -388.000; -226.000
215.046; -109.625; -797.000; -825.000
215.191;   19.550;  128.000;   35.000
215.336;  -10.475; -157.000;  -19.000
215.480;  -64.000; -684.000; -505.000
215.625;  -15.275; -175.000;  -19.000
215.770;  -82.100; -757.000; -662.000
215.915;   -7.275;   -5.000;  -97.000
216.060;  -19.850; -113.000;  -21.000
216.205;  -99.625; -731.000; -779.000
216.349;  -57.850; -470.000; -533.000
216.494; -132.725; -939.000; -867.000
216.639;  -98.975; -823.000; -888.000
216.784;  -86.200; -577.000; -525.000
216.929;   33.175;  392.000;  281.000
217.073;  -12.825; -244.000;  -31.000
217.218;    4.325;   78.000;  -47.000
217.363;  -88.800; -656.000; -618.000
217.507;  -80.175; -623.000; -588.000
217.652; -122.775; -845.000; -874.000
217.797; -100.450; -708.000; -659.000
217.942; -106.100; -856.000; -720.000
218.086;   64.725;  608.000;  539.000
218.231;  -14.825; -174.000;  -26.000
218.376;  -39.200; -337.000; -229.000
218.520;    6.100;  -41.000;   96.000
218.665;  -28.025; -338.000; -204.000
218.810;  -37.200; -275.000; -233.000
218.954;   17.575;  201.000;   35.000
219.099; -115.200; -713.000; -963.000
219.243;  -74.175; -589.000; -554.000
219.388;  -25.700; -264.000; -136.000
219.532;  -16.475; -116.000; -116.000
219.677;  -70.500; -564.000; -521.000
219.822;    2.800;   33.000;   89.000
219.966;   17.875;   17.000;  -99.000
220.111;  -26.000; -328.000;  -40.000
220.255;  -88.975; -797.000; -750.000
220.400;  -13.575; -180.000; -146.000
220.544;  -65.650; -516.000; -450.000
220.689;  -69.750; -422.000; -451.000
220.833;  -19.025; -123.000;  -58.000
220.978;  -42.350; -393.000; -563.000
221.122;   30.400;  319.000;  307.000
221.267; -134.000; -906.000; -837.000
221.411;  -58.700; -478.000; -394.000
221.555;   -4.900; -104.000;  -23.000
221.700;  -42.250; -329.000; -222.000
221.844;   20.350;  255.000;  272.000
221.989;  -28.325; -328.000; -311.000
222.133;  -39.825; -289.000; -307.000
222.277;   -1.050;    5.000;   78.000
222.422;   14.975;  227.000;  113.000
222.566;  -36.150; -381.000; -214.000
222.711;  -58.075; -414.000; -479.000
222.855;  -79.600; -643.000; -586.000
222.999;  -88.200; -642.000; -717.000
223.144;  -29.825; -195.000; -194.000
223.288;   47.850;  423.000;  251.000
223.432;   19.200;  184.000;  230.000
223.576;   21.200;  152.000;  -21.000
223.721;   45.175;  364.000;  273.000
223.865;  -63.525; -472.000; -475.000
224.009;  249.375; 1673.000; 1631.000
224.153;  -91.600; -660.000; -671.000
224.298;  -54.225; -531.000; -489.000
224.442;    3.375;  -74.000;  -33.000
224.586;  -12.525; -169.000; -106.000
224.730; -102.700; -858.000; -670.000
224.875; -104.175; -739.000; -688.000
225.019;    7.350;  102.000;  188.000
225.163;   60.500;  208.000;  341.000
225.307;   16.275;   97.000;  -91.000
225.451;   49.675;  360.000;  481.000
225.595;   24.850;  264.000;  176.000
225.739;  -13.100; -170.000;  -94.000
225.884;    4.425;   86.000;    5.000
226.028; -101.550; -760.000; -626.000
226.172;  -45.800; -260.000; -273.000
226.316; -114.325; -941.000; -902.000
226.460;  -73.900; -645.000; -493.000
226.604;  -43.675; -406.000; -400.000
226.748;  -97.225; -836.000; -733.000
226.892;  -20.350; -227.000; -181.000
227.036;  -49.125; -537.000; -447.000
227.180;  -51.700; -551.000; -375.000
227.324;  -69.675; -561.000; -580.000
227.468; -114.725; -819.000; -717.000
227.612;    4.750;  242.000;  -28.000
227.756;  -98.700; -845.000; -698.000
227.900;   57.625;  342.000;  441.000
228.044;  -59.125; -509.000; -290.000
228.188;   68.775;  448.000;  568.000
228.332;  -82.375; -546.000; -472.000
228.476;  -21.650; -223.000; -149.000
228.620;  -34.450; -210.000; -150.000
228.764;   48.900;  431.000;  349.000
228.908;  -11.800; -155.000;   30.000
229.052;  -62.550; -615.000; -528.000
229.195;   -9.725; -172.000;   13.000
229.339;  -29.800; -235.000; -305.000
229.483;  -14.875;    5.000; -162.000
229.627;  -14.100; -156.000;  139.000
229.771;  -49.300; -218.000; -294.000
229.915;    7.650;  230.000;   79.000
230.059;  -98.025; -648.000; -663.000
230.202;  -32.550; -370.000; -317.000
230.346;   -8.600; -107.000;  107.000
230.490;  -62.925; -489.000; -521.000
230.634; -115.375; -736.000; -553.000
230.777;   68.850;  478.000;  509.000
230.921;  -45.250; -450.000; -359.000
231.065;  -43.050; -246.000; -286.000
231.209;   36.300;  261.000;  265.000
231.352;   15.975;   54.000;   40.000
231.496;   11.175;  568.000;  188.000
231.640;  -82.025; -693.000; -621.000
231.783;   75.500;  546.000;  525.000
231.927;  -53.425; -294.000; -365.000
232.071; -120.425; -962.000; -736.000
232.214; -114.650; -980.000; -764.000
232.358;  -93.000; -683.000; -599.000
232.502;    7.900;  -19.000;    7.000
232.645; -131.750;-1090.000; -927.000
232.789;  -38.375; -257.000; -218.000
232.933;  -48.475; -407.000; -224.000
233.076; -129.075;-1038.000; -897.000
233.220; -114.050; -752.000; -777.000
233.363;  -85.350; -669.000; -477.000
233.507;   65.175;  371.000;  129.000
233.650; -103.150; -764.000; -834.000
233.794;   37.150;  438.000;  461.000
233.938;  -50.400; -530.000; -362.000
234.081;  -15.650;  -93.000;   31.000
234.225;  -69.025; -631.000; -539.000
234.368; -110.525; -773.000; -723.000
234.512;  -42.475; -385.000; -299.000
234.655;  -90.550; -582.000; -555.000
234.798;  -66.475; -493.000; -466.000
234.942; -129.800; -884.000;-1002.000
235.085;  -78.600; -651.000; -443.000
235.229;  -77.975; -405.000; -410.000
235.372;  -46.500; -247.000; -191.000
235.516;  -57.800; -397.000; -321.000
235.659;   28.825;   92.000;  121.000
235.802;   -7.475;  -38.000;  -22.000
235.946;   31.525;  335.000;  215.000
236.089;   28.100;  126.000;  250.000
236.233;   39.975;  275.000;  298.000
236.376;  -37.500; -235.000; -378.000
236.519;  -47.775; -297.000; -319.000
236.663;  -21.825; -215.000; -117.000
236.806; -142.800;-1029.000; -999.000
236.949;   79.775;  543.000;  431.000
237.092;   56.275;  412.000;  391.000
237.236;  -88.775; -589.000; -502.000
237.379;   56.575;  352.000;  428.000
237.522; -125.550; -879.000; -768.000
237.666;  -19.175; -271.000;   18.000
237.809; -131.000; -851.000; -823.000
237.952;   36.600;  469.000;  271.000
238.095;  -70.400; -447.000; -442.000
238.238;   98.550;  688.000;  700.000
238.382;    7.925;  166.000;  103.000
238.525;  -75.350; -598.000; -511.000
238.668; -139.525;-1060.000; -985.000
238.811;  -89.100; -638.000; -643.000
238.954;  -54.000; -483.000; -334.000
239.097;   93.175;  617.000;  664.000
239.241;   30.350;  394.000;  326.000
239.384;  -42.900; -254.000; -214.000
239.527;  -64.400; -424.000; -224.000
239.670; -153.975; -994.000;-1091.000
239.813;  -99.575; -696.000; -658.000
239.956;   78.100;  579.000;  473.000
240.099; -118.975; -778.000; -725.000
240.242;   65.250;  428.000;  432.000
240.385;   37.300;  466.000;  450.000
240.528;  -71.350; -706.000; -473.000
240.671;   17.350;  189.000;  134.000
240.814;  -43.500; -441.000; -158.000
240.957; -113.800; -767.000; -578.000
241.100;  -98.150; -779.000; -755.000
241.243; -152.800;-1234.000; -893.000
241.386;  -65.050; -508.000; -379.000
241.529;  -79.750; -735.000; -547.000
241.672;  -66.250; -566.000; -495.000
241.815; -120.700; -832.000; -808.000
241.958;  -35.075; -125.000; -182.000
242.101;  -83.125; -545.000; -390.000
242.244;  -38.150; -270.000; -325.000
242.387;  -35.775; -304.000; -246.000
242.530;   41.150;  470.000;  134.000
242.673;  -40.700; -381.000; -309.000
242.815; -126.225; -925.000; -899.000
242.958;  -58.900; -482.000; -381.000
243.101;   -2.800;  132.000;  187.000
243.244;  -75.125; -564.000; -521.000
243.387;  -46.575; -313.000; -316.000
243.530; -101.025; -657.000; -674.000
243.672;  -13.325;   43.000;  -92.000
243.815;  -50.175; -355.000; -283.000
243.958;    2.550;   98.000;  -26.000
244.101;    3.625;   59.000;  -16.000
244.243;  -10.100;  -47.000;  101.000
244.386; -110.325; -761.000; -630.000
244.529;  -18.750; -132.000; -139.000
244.672; -151.575;-1154.000; -951.000
244.814; -104.700; -621.000; -794.000
244.957;  -57.925; -380.000; -304.000
245.100;  -94.175; -489.000; -489.000
245.242;  -62.200; -387.000; -374.000
245.385;  -11.050;  -59.000;  -39.000
245.528; -123.225; -871.000; -705.000
245.670;   86.525;  612.000;  634.000
245.813;  -93.625; -599.000; -547.000
245.956;  -40.400; -324.000; -275.000
246.098;  -76.375; -508.000; -650.000
246.241;    1.150;  194.000;   48.000
246.383;  -13.275; -119.000;  -73.000
246.526;  -77.825; -454.000; -525.000
246.669; -123.100; -889.000; -780.000
246.811;   16.900;  172.000;   -1.000
246.954;  -65.925; -512.000; -426.000
247.096;  -36.275;  -84.000;   -6.000
247.239;  -71.275; -482.000; -445.000
247.381;  -70.975; -647.000; -488.000
247.524;   91.000;  645.000;  679.000
247.666;   -3.925;   58.000;   11.000
247.809; -107.900; -887.000; -691.000
247.951;   -1.875;  -75.000;  138.000
248.094;   28.600;  432.000;  308.000
248.236; -163.500;-1262.000;-1238.000
248.378;    7.025; -356.000;  -81.000
248.521;  -24.775; -334.000; -337.000
248.663;  -48.225; -236.000; -267.000
248.806;  -25.125; -300.000; -266.000
248.948;  -91.950; -886.000; -763.000
249.090;  -56.175; -428.000; -398.000
249.233;  -49.225; -344.000; -381.000
249.375;  -63.725; -474.000; -451.000
249.518;  -18.550;  -83.000; -133.000
249.660;  -18.250; -103.000;    3.000
249.802; -167.675;-1303.000;-1189.000
249.945;  -70.675; -612.000; -540.000
250.087; -105.125; -834.000; -768.000
250.229;  -58.425; -362.000; -480.000
250.371;  -58.550; -494.000; -439.000
250.514;  -52.950; -310.000; -244.000
250.656;   -6.650;   69.000;  102.000
250.798; -114.450; -849.000; -800.000
250.940;  -65.050; -322.000; -322.000
251.083;  -29.125; -335.000; -111.000
251.225;   59.350;  338.000;  310.000
251.367;  -42.350; -274.000; -373.000
251.509;  -29.175; -265.000; -210.000
251.651; -111.825; -731.000; -671.000
251.794;   46.700;  538.000;  632.000
251.936; -102.250; -821.000; -747.000
252.078;  -80.250; -540.000; -461.000
252.220;  -90.650; -645.000; -477.000
252.362;   87.875;  344.000;  462.000
252.504;  -77.025; -677.000; -584.000
252.646; -118.200; -875.000; -722.000
252.788;   -5.675;   14.000; -128.000
252.931;  -42.525; -257.000; -253.000
253.073;  -58.775; -376.000; -317.000
253.215;   -4.450;  141.000;  122.000
253.357;  -13.350;   82.000; -153.000
253.499;  -46.300; -374.000; -234.000
253.641;  -91.775; -749.000; -594.000
253.783;  -92.150; -609.000; -527.000
253.925;  -93.100; -586.000; -591.000
254.067; -102.625; -744.000; -667.000
254.209;  -17.225; -391.000; -259.000
254.351; -125.225; -865.000; -883.000
254.493;  -65.900; -441.000; -417.000
254.635; -132.475; -936.000; -818.000
254.777;  -83.475; -752.000; -687.000
254.918;  -80.525; -512.000; -430.000
255.060;  -66.225; -551.000; -395.000
255.202;  -58.900; -473.000; -261.000
255.344;  -78.150; -658.000; -455.000
255.486;  -66.100; -471.000; -406.000
255.628; -106.175; -780.000; -781.000
255.770;  -93.275; -676.000; -536.000
255.912;  -66.100; -559.000; -468.000
256.053;  -83.175; -730.000; -508.000
256.195;  153.975; 1008.000;  903.000
256.337; -109.500; -861.000; -595.000
256.479;   65.025;  532.000;  416.000
256.621;  -55.250; -394.000; -212.000
256.762;  -99.275; -789.000; -742.000
256.904;   56.725;  485.000;  487.000
257.046;  -43.350; -381.000; -271.000
257.188;  -41.025; -351.000; -264.000
257.329;  -70.725; -525.000; -464.000
257.471; -120.250; -939.000; -807.000
257.613;  -69.425; -584.000; -498.000
257.755; -145.175;-1073.000; -982.000
257.896;   27.900;  286.000;  392.000
258.038;  -70.800; -403.000; -352.000
258.180;  -47.050; -354.000; -279.000
258.321;  -87.650; -581.000; -457.000
258.463;  -13.975;  -71.000;  133.000
258.605;  -71.800; -562.000; -570.000
258.746; -108.825; -886.000; -772.000
258.888; -133.400;-1026.000;-1020.000
259.029;   12.250;  121.000;   -8.000
259.171;  -93.775; -614.000; -550.000
259.313;   -0.850;  -49.000;  -47.000
259.454;  -79.975; -536.000; -414.000
259.596;  -52.950; -483.000; -390.000
259.737;  -67.200; -590.000; -474.000
259.879;   23.075;  217.000;  311.000
260.020;   81.525;  901.000;  636.000
260.162;  -28.750; -146.000; -253.000
260.303; -113.325; -768.000; -687.000
260.445;  -87.400; -609.000; -613.000
260.586;   30.525;  392.000;  157.000
260.728;  -52.600; -360.000; -248.000
260.869;  -69.425; -350.000; -343.000
261.011;   79.900;  706.000;  537.000
261.152;  -57.450; -479.000; -319.000
261.293;  -83.725; -576.000; -595.000
261.435;  -28.925; -219.000; -184.000
261.576;  -60.475; -455.000; -325.000
261.718;   48.125;  420.000;  470.000
261.859; -134.075; -940.000; -949.000
262.000; -120.150; -951.000;-1016.000
262.142;  -22.350;  -52.000;  -60.000
262.283; -113.175; -808.000; -691.000
262.424;  -90.100; -666.000; -625.000
262.566; -160.050;-1161.000; -983.000
262.707; -118.225; -840.000; -830.000
262.848; -122.875; -769.000; -726.000
262.990;  -65.150; -362.000; -345.000
263.131;   82.500;  650.000;  681.000
263.272;   -3.750;  -61.000;  -41.000
263.413;  -89.725; -589.000; -561.000
263.555;  -79.075; -669.000; -143.000
263.696;  -94.100; -550.000; -641.000
263.837;  -69.475; -449.000; -551.000
263.978;   -4.800;   -5.000;  -77.000
264.119;  -42.925; -283.000; -264.000
264.261; -124.075; -847.000; -630.000
264.402;  -13.500;   33.000;   40.000
264.543;  -94.050; -509.000; -524.000
264.684;  -14.325;   61.000;  -50.000
264.825;  -71.025; -816.000; -538.000
264.966;   -9.200;  -84.000;  -67.000
265.107; -105.300; -646.000; -670.000
265.248; -116.825; -825.000; -812.000
265.390;   -5.925;  152.000;   -9.000
265.531;  -23.300; -238.000; -107.000
265.672;  -75.475; -557.000; -630.000
265.813;   61.450;  563.000;  439.000
265.954; -153.100; -959.000; -940.000
266.095;  -18.850; -372.000; -322.000
266.236; -104.200; -686.000; -548.000
266.377;  -42.325; -243.000; -297.000
266.518;  -70.600; -619.000; -547.000
266.659;   22.225;  170.000;  268.000
266.800;   26.775;   83.000;   85.000
266.941;  -90.250; -487.000; -478.000
267.082;   37.400;  354.000;   99.000
267.223;  -56.725; -344.000; -273.000
267.364; -118.875; -892.000; -686.000
267.504;  -29.250;    3.000;  135.000
267.645;  -10.000;  160.000;   67.000
267.786;  -35.100; -147.000;  -86.000
267.927;  -80.200; -473.000; -379.000
268.068;  -28.850; -186.000;  -61.000
268.209;  -51.150; -175.000; -413.000
268.350;  -67.750; -388.000; -532.000
268.490;  -81.050; -648.000; -521.000
268.631;   31.250;  127.000;  225.000
268.772; -109.525; -874.000; -647.000
268.913;  -57.225; -328.000; -476.000
269.054;   -2.775; -117.000;   12.000
269.194;  -58.925; -418.000; -402.000
269.335; -160.375;-1137.000;-1074.000
269.476;  -25.325;   33.000;  -35.000
269.617;  -42.325; -347.000; -392.000
269.757;  -91.875; -713.000; -646.000
269.898; -108.975; -856.000; -613.000
270.039;  -76.600; -415.000; -405.000
270.180; -130.800; -952.000; -816.000
270.320;  -26.450; -190.000; -250.000
270.461;  -46.300; -277.000; -249.000
270.602;  -13.450; -186.000; -156.000
270.742; -125.750; -868.000; -943.000
270.883;  -60.075; -442.000; -390.000
271.023;  -58.775; -358.000; -357.000
271.164;  -79.550; -607.000; -528.000
271.305;  -94.075; -666.000; -654.000
271.445; -100.750; -722.000; -683.000
271.586;  -71.275; -462.000; -283.000
271.726;  -40.950; -397.000; -322.000
271.867;  -64.100; -594.000; -534.000
272.008;  169.575; -473.000; -285.000
272.148;  114.000;  462.000;  468.000
272.289;    4.800; -113.000; -181.000
272.429;   18.125;   19.000;  185.000
272.570;  -99.900; -633.000; -737.000
272.710;  -96.625; -825.000; -775.000
272.851;  -18.550;  113.000; -130.000
272.991; -179.975;-1173.000;-1077.000
273.131;  -81.275; -419.000; -459.000
273.272;  -94.800; -683.000; -723.000
273.412;    2.925; -143.000;  -31.000
273.553;  -61.025; -488.000; -507.000
273.693;  137.100;  913.000;  858.000
273.834;  -90.675; -894.000; -692.000
273.974;  -75.225; -664.000; -615.000
274.114;  -94.350; -772.000; -560.000
274.255;   77.950;  414.000;  373.000
274.395;    9.875; -180.000; -125.000
274.535;   37.425;  199.000;  350.000
274.676;   17.650;  225.000;   94.000
274.816;   -6.325;  110.000;   34.000
274.956;  -82.975; -624.000; -690.000
275.097;  -71.450;-1014.000; -922.000
275.237; -102.825; -913.000; -803.000
275.377; -108.650; -778.000; -689.000
275.517; -142.675; -878.000; -937.000
275.658;  -69.450; -590.000; -555.000
275.798;  -68.300; -606.000; -413.000
275.938;    9.275;  215.000;  323.000
276.078;  -91.850; -626.000; -395.000
276.218;   11.200;   99.000;  104.000
276.359; -132.325;-1026.000;-1024.000
276.499;  -77.250; -605.000; -446.000
276.639;  -39.925; -305.000; -151.000
276.779;  -51.650; -475.000; -357.000
276.919; -110.775; -783.000; -624.000
277.059;  -32.850; -261.000; -212.000
277.199;  -46.475; -357.000; -259.000
277.340;   34.625;  287.000;  175.000
277.480; -111.625; -840.000; -693.000
277.620;   19.325;  192.000;   16.000
277.760; -192.925;-1533.000;-1294.000
277.900;   10.750;  113.000;   33.000
278.040;   -0.925;  137.000;  159.000
278.180;   26.550;  270.000;  170.000
278.320;    3.175;   21.000;   56.000
278.460;  -72.575; -443.000; -469.000
278.600;  -87.900; -708.000; -598.000
278.740;   39.525;  448.000;  224.000
278.880;  -62.725; -768.000; -791.000
279.020;  -14.100; -194.000; -144.000
279.160;  -95.675; -672.000; -595.000
279.300; -123.450; -926.000; -873.000
279.440;  -94.875; -709.000; -622.000
279.579;  -14.850;-1014.000; -929.000
279.719;  -51.000; -410.000; -394.000
279.859;   70.475;   -4.000;   41.000
279.999;   30.750; -208.000;  101.000
280.139;  -17.375; -435.000; -387.000
280.279;  -71.750; -708.000; -745.000
280.419;   -8.800; -229.000; -147.000
280.559;  -37.100; -259.000; -180.000
280.698;  -97.100; -790.000; -639.000
280.838; -102.725; -778.000; -800.000
280.978; -108.275; -846.000; -790.000
281.118; -113.775; -811.000; -704.000
281.257;   -7.575;   24.000;    6.000
281.397; -114.000;-1094.000; -960.000
281.537;  -84.500; -599.000; -712.000
281.677;  -32.275; -150.000; -101.000
281.816;  -82.800; -700.000; -630.000
281.956;  -30.225; -193.000; -257.000
282.096;  -76.350; -539.000; -396.000
282.235; -116.725; -672.000; -638.000
282.375;  -28.775; -243.000;  -98.000
282.515;  -96.250; -715.000; -707.000
282.654;   13.825;   29.000;  106.000
282.794;   24.675;  388.000;  244.000
282.934;  -58.450; -530.000; -491.000
283.073; -133.725;-1030.000; -857.000
283.213;  -56.425; -460.000; -467.000
283.353;  -47.500; -408.000; -349.000
283.492;  -39.650; -264.000; -296.000
283.632;  -45.350; -254.000; -168.000
283.771;  -93.600; -859.000; -730.000
283.911;  -57.750; -369.000; -260.000
284.050; -121.175; -794.000; -748.000
284.190; -160.750;-1229.000;-1096.000
284.329; -145.400;-1055.000; -964.000
284.469;  -86.450; -516.000; -591.000
284.608;  -46.075; -559.000; -598.000
284.748;  -92.675; -614.000; -570.000
284.887;  -18.150;  -87.000;  -20.000
285.027; -117.050; -844.000; -892.000
285.166;  -33.125; -192.000; -249.000
285.306;    2.300; -116.000;  -33.000
285.445;  -39.050; -229.000; -343.000
285.584;  -91.325; -630.000; -494.000
285.724;  -45.850; -282.000; -322.000
285.863; -120.725; -857.000; -507.000
286.002;  -59.650; -366.000; -276.000
286.142; -122.675; -715.000; -622.000
286.281;  -76.150; -525.000; -493.000
286.420;  -67.425; -554.000; -417.000
286.560;   93.175;  653.000;  623.000
286.699; -129.200; -958.000; -912.000
286.838;  -80.650; -590.000; -591.000
286.978;  -74.675; -533.000; -537.000
287.117; -151.725;-1085.000; -950.000
287.256;  -36.875; -228.000; -211.000
287.395;  -61.900; -197.000; -378.000
287.535;  -49.300; -370.000; -298.000
287.674;  -87.175; -509.000; -484.000
287.813;   48.600;  661.000;  533.000
287.952; -133.050;-1010.000; -871.000
288.091; -151.850;-1049.000; -915.000
288.231;    6.550;   13.000;   15.000
288.370; -182.175;-1217.000;-1200.000
288.509;  -95.050; -728.000; -645.000
288.648;  -96.275; -770.000; -548.000
288.787;  -35.050; -243.000;  -87.000
288.926;  -70.200; -454.000; -475.000
289.065;  119.225;  859.000;  672.000
289.204;  -55.000; -377.000; -217.000
289.344;  -91.875; -791.000; -690.000
289.483;   23.700;  416.000;  304.000
289.622;  -24.350; -291.000; -149.000
289.761;  -19.125; -309.000; -166.000
289.900; -112.975; -785.000; -626.000
290.039;  -22.225;  -12.000;  -95.000
290.178;  -43.625; -274.000; -180.000
290.317;  -78.750; -618.000; -479.000
290.456;  -73.575; -463.000; -451.000
290.595; -141.400; -961.000; -833.000
290.734; -147.050; -904.000; -891.000
290.873;  -75.875; -456.000; -420.000
291.011; -108.100; -833.000; -843.000
291.150; -105.500; -770.000; -682.000
291.289;  -29.550; -343.000; -110.000
291.428;  -91.800; -599.000; -480.000
291.567;  -53.300; -370.000; -442.000
291.706;  -14.000;  109.000;  154.000
291.845; -107.825; -597.000; -505.000
291.984; -173.825;-1234.000;-1061.000
292.122;   69.350;  602.000;  582.000
292.261;   48.975;  620.000;  463.000
292.400;    3.375; -144.000;  211.000
292.539; -125.450; -959.000; -813.000
292.678;  -44.450; -325.000; -300.000
292.816; -158.675;-1136.000; -965.000
292.955; -103.825; -844.000; -684.000
293.094;  -28.850; -173.000; -337.000
293.233;  -63.000; -556.000; -400.000
293.371;  -37.200; -225.000;  -84.000
293.510; -106.300; -866.000; -780.000
293.649; -128.700; -959.000; -924.000
293.787;  -66.350;-1083.000;-1012.000
293.926;   -2.125; -113.000;  -32.000
294.065;  -49.250; -379.000; -290.000
294.203;   46.425;  298.000;  406.000
294.342;   17.975;   74.000;  156.000
294.481; 5777.175;51180.000; -836.000
294.619;  -44.000; -425.000; -582.000
294.758; -138.825;-1230.000;-1137.000
294.896;   55.275; -125.000;    5.000
295.035; -129.300;-1040.000;-1006.000
295.174; -115.500;-1082.000; -954.000
295.312;  -39.325; -323.000; -203.000
295.451;  -23.300; -307.000; -428.000
295.589;  -53.725; -389.000; -518.000
295.728;   13.925; -292.000; -165.000
295.866;    3.275;  -36.000;  -51.000
296.005;  -61.425; -584.000; -341.000
296.143;  -76.075; -558.000; -596.000
296.282; -109.775; -957.000; -881.000
296.420;  -84.150; -657.000; -557.000
296.559;  -88.550; -892.000; -633.000
296.697;    8.975; -847.000; -665.000
296.835;   54.000;-1141.000;-1002.000
296.974;   38.100;  -23.000;   39.000
297.112;   14.350; -443.000; -504.000
297.251;  -78.300; -815.000; -755.000
297.389;   74.800; -576.000; -438.000
297.527;   37.300; -145.000;  -83.000
297.666;  -54.325; -486.000; -438.000
297.804;  -59.475; -404.000; -264.000
297.942;  -15.900; -136.000; -161.000
298.081;   -7.875; -183.000;   63.000
298.219;   49.825;  -17.000;  -19.000
298.357;   57.025; -144.000;  -71.000
298.495;   28.500; -810.000; -812.000
298.634;   78.100;  245.000;  219.000
298.772;   43.150; -220.000; -338.000
298.910;  -32.800; -309.000; -182.000
299.048;  -14.200; -130.000; -153.000
299.187;  -34.825; -350.000; -250.000
299.325;    5.950;   52.000;  122.000
299.463;   57.850; -389.000; -299.000
299.601;  115.025; -327.000; -271.000
299.739;  -97.975; -908.000; -883.000
299.877;  -97.950; -791.000; -703.000
300.016;  -49.125;-1095.000; -935.000
300.154;  155.125;  -19.000; -161.000
300.292;   50.125; -428.000; -348.000
300.430;   31.700; -408.000; -291.000
300.568; -116.925; -940.000; -874.000
300.706;  -65.125; -366.000; -469.000
300.844;  -85.550;-1108.000; -979.000
300.982;  104.650;  246.000;  282.000
301.120; -103.875; -965.000; -866.000
301.258;  -70.500; -812.000; -705.000
301.396;   40.400;  104.000;  -41.000
301.534;   60.675; -218.000; -293.000
301.672;  -24.600; -664.000; -521.000
301.810;   22.525; -613.000; -545.000
301.948;  113.875;   53.000;  149.000
302.086;  618.350; -250.000;  -32.000
302.224;  915.050; -610.000; -585.000
302.362;   30.700; -558.000; -622.000
302.500;  -31.425; -923.000; -893.000
302.638;   93.400;  128.000;  245.000
302.776;   -4.750; -352.000; -408.000
302.913;   42.950;  447.000;  236.000
303.051;    5.325;  -86.000;  -23.000
303.189;   47.750;   90.000;  118.000
303.327;  -41.350; -341.000; -256.000
303.465;  -91.175; -832.000; -588.000
303.603;  -98.975; -805.000; -604.000
303.740;   91.300;  417.000;  241.000
303.878;   17.675; -800.000; -759.000
304.016; -100.425; -915.000; -790.000
304.154; -125.025;-1123.000;-1152.000
304.291;  -46.300; -505.000; -554.000
304.429;    7.875;  102.000;   74.000
304.567; -132.450; -908.000; -893.000
304.705;  -48.025; -408.000; -515.000
304.842;  102.575; -616.000; -540.000
304.980;   35.325;  215.000;   35.000
305.118;   33.650; -367.000; -365.000
305.255;  -80.400; -945.000; -927.000
305.393;   51.175;  178.000;  239.000
305.531; -105.950;-1173.000; -956.000
305.668;  -68.700; -663.000; -582.000
305.806;   83.275; -358.000; -439.000
305.943;  103.325; -629.000; -637.000
306.081;   45.800; -378.000; -267.000
306.219; -110.100; -863.000; -748.000
306.356;   -8.875;  158.000;   27.000
306.494;   98.650;  981.000;  761.000
306.631;  -16.750;  -11.000;  -55.000
306.769;    5.300; -613.000; -485.000
306.906;  -16.825; -284.000; -258.000
307.044;  -59.650; -473.000; -488.000
307.181;  -61.400; -410.000; -332.000
307.319;    2.525;  112.000;   87.000
307.456; -172.975;-1191.000;-1153.000
307.594;  -89.725; -980.000; -727.000
307.731;  -16.650; -371.000; -164.000
307.868;  -15.950;  -15.000;   20.000
308.006; -133.550; -961.000; -847.000
308.143;  -73.725; -618.000; -330.000
308.281;  135.200;  -37.000; -254.000
308.418;  -30.250; -748.000; -640.000
308.555;  -88.875; -400.000; -250.000
308.693;  -73.900; -577.000; -573.000
308.830; -110.875; -712.000; -657.000
308.967;  -12.325; -215.000;  -95.000
309.105;  -56.375; -507.000; -396.000
309.242;    7.025; -468.000; -367.000
309.379;  253.775; -577.000; -655.000
309.517;  -77.450; -936.000; -948.000
309.654; -112.825; -910.000; -734.000
309.791;  -74.225; -662.000; -580.000
309.928; -120.250; -977.000; -914.000
310.065;  175.300;  819.000;  697.000
310.203;  -10.375; -825.000; -850.000
310.340;  -26.400; -465.000; -321.000
310.477;  -78.200; -412.000; -516.000
310.614;  -70.775; -383.000; -473.000
310.751;  -82.200; -427.000; -518.000
310.889;  -24.575;    1.000;   11.000
311.026; -151.150;-1161.000; -939.000
311.163;  -54.075; -386.000; -380.000
311.300;  -79.475; -512.000; -479.000
311.437;  -78.650; -658.000; -619.000
311.574; -158.325;-1226.000; -985.000
311.711;  -74.600; -595.000; -433.000
311.848;  -45.900; -380.000; -388.000
311.985;    0.050;  270.000;   93.000
312.122; -126.600; -932.000; -762.000
312.259; -127.100; -941.000; -994.000
312.396;  -82.825; -508.000; -551.000
312.533;  -97.025; -812.000; -790.000
312.670; -135.575;-1070.000; -898.000
312.807;  -40.500; -352.000; -367.000
312.944;  -85.325; -513.000; -611.000
313.081;  -29.825; -150.000; -415.000
313.218; -120.275;-1111.000; -867.000
313.355;   11.200; -531.000; -449.000
313.492;   -3.025; -455.000; -292.000
313.629;  123.850;  815.000;  735.000
313.766; -158.725;-1176.000;-1008.000
313.902;  -22.025; -186.000;   21.000
314.039;  -53.900; -372.000; -289.000
314.176;   21.425;  286.000;  192.000
314.313;  -90.775; -569.000; -473.000
314.450;  -80.100; -788.000; -684.000
314.587;  -61.475; -468.000; -480.000
314.723;   -9.125;  -78.000;  130.000
314.860;   32.775;  318.000;  332.000
314.997;   23.425;  223.000;  142.000
315.134;  -40.475; -385.000; -368.000
315.270;  -36.950; -480.000; -496.000
315.407; -126.850;-1094.000; -967.000
315.544;  -45.475; -657.000; -538.000
315.681;  -78.900; -681.000; -565.000
315.817;   24.925; -133.000; -176.000
315.954;    0.825; -613.000; -392.000
316.091; -138.550;-1045.000;-1023.000
316.227;  -12.550;  -71.000; -179.000
316.364;  -19.825;   23.000;    6.000
316.500;  -40.025; -113.000; -300.000
316.637;  -48.575; -181.000; -302.000
316.774;  -97.400; -625.000; -358.000
316.910;  -91.800; -598.000; -629.000
317.047;  -70.225; -487.000; -351.000
317.183;  -60.500; -435.000; -566.000
317.320;  -11.425; -367.000; -321.000
317.456;  -83.650; -733.000; -805.000
317.593; -101.775; -598.000; -641.000
317.729;    5.550;  168.000;  -67.000
317.866; -198.600;-1434.000;-1285.000
318.002;  -93.800; -708.000; -948.000
318.139; -101.375; -883.000; -867.000
318.275; -104.075;-1003.000; -738.000
318.412;  -64.400; -517.000; -336.000
318.548;  -50.250; -751.000; -720.000
318.685; -111.125; -985.000; -888.000
318.821;  -94.975; -762.000; -735.000
318.957;  -14.575;   34.000;  -23.000
319.094;   30.850;  297.000;  154.000
319.230;  -66.650; -756.000; -742.000
319.367;  111.750; -471.000; -520.000
319.503;   46.500; -538.000; -436.000
319.639;  -99.275; -877.000; -793.000
319.775;  -59.150; -750.000; -685.000
319.912;  -55.375; -424.000; -519.000
320.048;  -94.325;-1184.000;-1184.000
320.184;   66.150;   59.000;   70.000
320.321;  -66.900; -497.000; -467.000
320.457;   58.925;  475.000;  662.000
320.593;  -65.400; -375.000; -382.000
320.729;  -99.575; -732.000; -734.000
320.866;  -79.125; -577.000; -635.000
321.002;  -94.875; -759.000; -809.000
321.138;   -7.000; -135.000; -211.000
321.274;   68.525; -148.000; -115.000
321.410;  -12.075; -585.000; -353.000
321.546;  -41.675;-1011.000; -911.000
321.683;   55.875;  400.000;  185.000
321.819;   -9.325;  -48.000; -117.000
321.955; -109.900; -743.000; -722.000
322.091;  -38.825; -585.000; -540.000
322.227;  -13.100; -382.000; -202.000
322.363;   -9.425; -320.000; -215.000
322.499;  -61.375; -343.000; -331.000
322.635;  160.225;  636.000;  443.000
322.771;   22.875; -139.000;   12.000
322.907;   66.925;  129.000;  327.000
323.043;  -31.475; -115.000; -206.000
323.179;  -49.700; -394.000; -363.000
323.315;   17.850; -401.000; -371.000
323.451;   86.850; -328.000; -236.000
323.587;   62.875;  -60.000;  -77.000
323.723;    8.125; -682.000; -601.000
323.859;   -0.525; -258.000;  -76.000
323.995;  -47.175; -467.000; -409.000
324.131; -138.700; -967.000; -892.000
324.267;  -42.100; -254.000; -276.000
324.402; -130.375; -960.000; -983.000
324.538;  -15.475; -279.000; -104.000
324.674;   27.875;  164.000;   77.000
324.810;   97.450;  226.000;  308.000
324.946;   -2.300; -810.000; -658.000
325.082;  -74.100; -568.000; -475.000
325.217;  -16.750;  -62.000;   16.000
325.353;  -94.275; -764.000; -659.000
325.489;  -88.925; -540.000; -506.000
325.625;  -72.625; -579.000; -525.000
325.760;   54.675;  517.000;  376.000
325.896;  -17.150; -515.000; -702.000
326.032;  -64.575; -403.000; -352.000
326.168;  -76.325; -462.000; -369.000
326.303;  -64.100; -352.000; -461.000
326.439;  -32.625; -336.000; -276.000
326.575;  -12.300; -190.000;  -29.000
326.710;  -17.375; -156.000;  -30.000
326.846;  -13.300;  146.000;  103.000
326.982;  -95.600; -530.000; -548.000
327.117;  -69.900; -481.000; -442.000
327.253;  -94.875; -745.000; -742.000
327.388; -152.375;-1137.000;-1153.000
327.524;  -49.025; -811.000; -578.000
327.659;  -31.300;  -58.000;  -22.000
327.795;  -16.225;   69.000;   45.000
327.931;  -83.800; -723.000; -499.000
328.066;  -28.175; -417.000; -276.000
328.202;  -44.275;   12.000; -129.000
328.337;   95.525;  957.000;  713.000
328.473;   34.500;  -12.000;  -74.000
328.608;  -24.125; -256.000; -267.000
328.743;  -86.025; -799.000; -664.000
328.879;   19.725;  214.000;  114.000
329.014;  -50.325; -102.000; -122.000
329.150;  -87.050; -358.000; -483.000
329.285;  -83.675; -465.000; -466.000
329.421;  -53.800; -548.000; -246.000
329.556;  -17.850;  -36.000;   85.000
329.691; -107.875; -633.000; -615.000
329.827;  -82.550; -626.000; -480.000
329.962;  -50.300;  131.000; -301.000
330.097;  -95.050; -673.000; -585.000
330.233;  -63.825; -410.000; -223.000
330.368; -121.450; -839.000; -628.000
330.503;  -19.875;    3.000;   98.000
330.638;    5.300;  -93.000; -125.000
330.774;  -59.400; -609.000; -530.000
330.909;  -43.850; -434.000; -244.000
331.044; -100.175; -714.000; -708.000
331.179; -179.475;-1217.000;-1109.000
331.315;    3.375;   77.000;   20.000
331.450;   22.750;  157.000;  285.000
331.585;  -91.900; -805.000; -706.000
331.720;  -90.525; -510.000; -460.000
331.855;  -20.225;  -35.000; -102.000
331.990;  239.975;   62.000;  138.000
332.126;  129.775; -110.000;   71.000
332.261;  -27.425; -379.000; -265.000
332.396;    8.225; -135.000; -242.000
332.531;  -97.525;-1074.000;-1031.000
332.666;   41.600; -519.000; -363.000
332.801; -104.775; -726.000; -807.000
332.936;  -20.550; -192.000; -122.000
333.071; -131.250; -870.000; -817.000
333.206;   17.775;  307.000;  379.000
333.341;   34.325;  344.000;  418.000
333.476;  -89.675; -627.000; -623.000
333.611;  -45.300; -251.000; -173.000
333.746;  -55.250; -381.000; -464.000
333.881; -116.150; -973.000; -935.000
334.016; -126.375; -936.000; -917.000
334.151; -120.050; -746.000; -702.000
334.286;    7.825;  152.000;  186.000
334.421;  -15.150; -125.000; -178.000
334.556;  -92.725; -611.000; -567.000
334.690;  -92.375; -631.000; -577.000
334.825;   67.625;  381.000;   83.000
334.960;  -58.800; -285.000; -413.000
335.095;   13.150;  135.000;  -91.000
335.230; -107.825; -722.000; -738.000
335.365; -135.600;-1084.000; -990.000
335.499; -137.075;-1108.000;-1037.000
335.634;   14.225;    9.000;  534.000
335.769; -109.475; -755.000; -720.000
335.904;  -63.075; -603.000; -561.000
336.038;  -47.175; -735.000; -657.000
336.173; -130.400;-1206.000;-1194.000
336.308;    2.100; -116.000; -189.000
336.443;    8.825; -544.000; -634.000
336.577;  -72.400; -936.000; -787.000
336.712;   52.425;   -4.000;  -12.000
336.847;  -42.450; -724.000; -607.000
336.981;   65.025; -272.000; -208.000
337.116;  283.175;  615.000;  501.000
337.250;  151.775; -434.000; -421.000
337.385;  249.950; -297.000; -208.000
337.520;   74.375; -632.000; -603.000
337.654;  -29.275; -215.000; -126.000
337.789; -140.525; -989.000; -933.000
337.923;  -28.900; -104.000; -205.000
338.058; -103.475; -673.000; -738.000
338.192;  -47.575; -611.000; -488.000
338.327;  -26.950;  -18.000; -155.000
338.461;  -75.500; -299.000; -469.000
338.596;  -96.600; -780.000; -638.000
338.730; -100.000; -767.000; -803.000
338.865;   94.950;  -46.000; -140.000
338.999;  -59.875; -846.000; -702.000
339.134;  -30.975; -634.000; -536.000
339.268;    7.450; -741.000; -603.000
339.403;  352.950; -740.000; -775.000
339.537;  110.625; -894.000; -820.000
339.671; -116.675; -829.000; -813.000
339.806;  -63.400; -556.000; -512.000
339.940;   16.625; -261.000; -235.000
340.074;  -98.725; -685.000; -510.000
340.209;  -43.325; -351.000; -230.000
340.343; -102.500; -517.000; -573.000
340.477;  146.600;  998.000; 1036.000
340.612;  -54.675;-1033.000; -900.000
340.746;  139.975; -199.000; -243.000
340.880;  -81.400; -924.000; -785.000
341.014;  -29.400;  -45.000; -154.000
341.149; -123.775; -756.000; -718.000
341.283; -119.150; -839.000; -754.000
341.417;  -99.650;-1124.000; -938.000
341.551;  102.275; -768.000; -708.000
341.685;  -40.275; -633.000; -611.000
341.820;  -62.050; -562.000; -493.000
341.954;  -49.150; -218.000; -349.000
342.088; -166.375;-1102.000;-1019.000
342.222;   58.575;  565.000;  618.000
342.356;  -61.375; -395.000; -335.000
342.490; -102.725; -880.000; -841.000
342.624;  -38.725; -339.000; -242.000
342.758;   -2.825; -364.000; -312.000
342.892;  -77.950; -710.000; -585.000
343.026;  -50.975;  -58.000; -116.000
343.160;  -74.675; -426.000; -376.000
343.294;  -72.400; -474.000; -337.000
343.428;  -19.325; -488.000; -448.000
343.562;  -18.875; -172.000;  -23.000
343.696;  -30.475; -385.000; -314.000
343.830;  -18.475; -362.000; -356.000
343.964;    2.675; -231.000; -168.000
344.098;  897.325;  199.000;   70.000
344.232;  738.450; -266.000; -127.000
344.366;   80.125; -567.000; -453.000
344.500;   51.100; -665.000; -744.000
344.634;   17.000; -324.000; -164.000
344.768;  -23.400; -531.000; -341.000
344.902;   19.400;  278.000;  256.000
345.035;  -73.600; -556.000; -496.000
345.169; -129.650; -933.000; -656.000
345.303;  -61.225; -308.000; -482.000
345.437;  -88.575; -826.000; -717.000
345.571;  -75.800; -675.000; -594.000
345.704;  -64.575; -309.000; -532.000
345.838;  -31.775; -331.000; -284.000
345.972;  -42.525; -543.000; -495.000
346.106;  162.200; -179.000; -190.000
346.239;  419.975; -312.000; -243.000
346.373;  -13.050; -343.000; -302.000
346.507; -140.225; -950.000; -962.000
346.640;  130.825;  -30.000;   13.000
346.774;  -42.525; -650.000; -797.000
346.908;  -35.000; -138.000;  -11.000
347.041;  -94.375; -646.000; -593.000
347.175;   -2.225;  259.000;   27.000
347.309;  -89.125; -698.000; -628.000
347.442; -105.825; -883.000; -732.000
347.576;  268.425;  670.000;  668.000
347.709;  187.125; -123.000;  -52.000
347.843;  -93.525; -933.000; -825.000
347.976;   37.900;  235.000;  294.000
348.110; -165.925;-1268.000;-1186.000
348.243; -111.375; -679.000; -772.000
348.377;  -11.250;  -26.000;   60.000
348.510;   40.500;  403.000;  540.000
348.644;  -42.475;  -37.000; -159.000
348.777;  -11.700;  180.000;  191.000
348.911;  -52.050; -142.000; -112.000
349.044;  165.475;  471.000;  448.000
349.178;  146.775;-1069.000;-1006.000
349.311;   99.175;  141.000;  255.000
349.444;   -9.550; -927.000; -813.000
349.578;  -22.050; -347.000; -200.000
349.711; -113.800; -959.000; -862.000
349.845;   -5.375; -661.000; -591.000
349.978; -142.975;-1224.000;-1137.000
350.111;  -91.950; -546.000; -612.000
350.244;  -83.550; -596.000; -700.000
350.378;   -8.750; -392.000; -393.000
350.511;  -72.125; -393.000; -426.000
350.644; -110.000; -808.000; -806.000
350.778;   12.275;  168.000;  104.000
350.911;   -6.475;  134.000;  140.000
351.044;  -99.975; -685.000; -615.000
351.177;  -41.800; -321.000; -281.000
351.310;  -19.075;    3.000; -131.000
351.444;  -69.325; -888.000; -788.000
351.577;  106.825;  140.000;   90.000
351.710;   95.350;  593.000;  417.000
351.843;  -29.825; -165.000;  -77.000
351.976;   -6.050;  149.000;  -79.000
352.109;  -97.700; -621.000; -612.000
352.242;  -34.825; -464.000; -419.000
352.376;  -68.500; -580.000; -636.000
352.509;  170.275; -437.000; -356.000
352.642;  -15.550; -654.000; -604.000
352.775;   46.425; -141.000;  -98.000
352.908; -115.300; -933.000; -904.000
353.041; -102.100; -814.000; -824.000
353.174;  -61.500; -551.000; -424.000
353.307; -101.825; -753.000; -764.000
353.440;   68.900;  541.000;  453.000
353.573; -112.950; -957.000;-1008.000
353.706;  -41.100; -384.000; -558.000
353.839;  -33.800; -264.000; -220.000
353.971;  -94.300; -657.000; -512.000
354.104; -103.525; -896.000; -835.000
354.237;  -45.225; -627.000; -662.000
354.370;  -82.950; -846.000; -879.000
354.503; -180.500;-1231.000;-1308.000
354.636;  -48.975; -529.000; -348.000
354.769; -124.925; -937.000; -860.000
354.902;   -8.125; -230.000; -139.000
355.034;  -30.175; -164.000; -220.000
355.167;  -33.000; -262.000; -162.000
355.300;  -85.475;-1061.000; -880.000
355.433;  973.725;  -71.000;  -14.000
355.565; 1484.650; -402.000; -384.000
355.698;  370.275; -356.000; -296.000
355.831;    8.100; -882.000; -801.000
355.964;   81.650; -285.000; -170.000
356.096;  -72.950; -856.000; -843.000
356.229;   -0.325; -523.000; -530.000
356.362;  306.975; -373.000; -266.000
356.494;  605.950; -229.000; -162.000
356.627;  480.100;  269.000;  377.000
356.760;  655.200;  120.000;   53.000
356.892;  952.475; -286.000; -601.000
357.025;  643.775;  403.000;  389.000
357.157;  565.450; -167.000; -179.000
357.290;  680.100; -856.000; -713.000
357.423;  185.000; -667.000; -556.000
357.555;   93.200; -217.000; -228.000
357.688;  124.950; -483.000; -364.000
357.820;  444.225; -870.000; -877.000
357.953; 3643.525; -563.000; -589.000
358.085;  775.575; -632.000; -612.000
358.218; 1071.225;-1131.000; -932.000
358.350;  194.350;  -58.000;  312.000
358.483; -126.675;-1300.000;-1187.000
358.615;  -41.700;-1182.000;-1078.000
358.747;  -73.550;-1187.000;-1058.000
358.880;   10.500; -810.000; -744.000
359.012;   -4.350; -376.000; -202.000
359.145;  -34.275; -480.000; -511.000
359.277;   47.500; -962.000; -913.000
359.409; 3014.900;  536.000;  231.000
359.542;  785.150; -738.000; -688.000
359.674;   57.625;   46.000;   13.000
359.806;  -60.500; -565.000; -438.000
359.939;  -61.725; -617.000; -516.000
360.071;   -8.625; -583.000; -579.000
360.203;  -25.275; -411.000; -364.000
360.335;   39.000;  164.000;  -16.000
360.468;  176.400; -249.000; -307.000
360.600; 2435.375; -547.000; -454.000
360.732; 2837.725; -546.000; -423.000
360.864;  370.450;-1216.000;-1044.000
360.996;  259.425; -516.000; -554.000
361.129;   42.925; -389.000; -598.000
361.261;   23.175;  110.000; -113.000
361.393;  -40.575; -252.000; -214.000
361.525;   12.875;   94.000;  244.000
361.657;  -48.625; -821.000; -703.000
361.789;    7.275; -139.000; -155.000
361.921;  205.575; -642.000; -593.000
362.053;  250.525;  524.000;  541.000
362.185;   48.725;  288.000;   72.000
362.318;  -85.000; -709.000; -705.000
362.450;   98.600;  294.000;  444.000
362.582;   81.725; -913.000; -870.000
362.714;  -36.975; -353.000; -332.000
362.846;  -86.625; -606.000; -490.000
362.978; -157.825; -941.000; -811.000
363.109;   43.025; -161.000; -260.000
363.241;  416.400; -739.000; -749.000
363.373;  430.675; -649.000; -564.000
363.505;  657.125; -186.000;  -91.000
363.637;  126.675; -787.000; -601.000
363.769; -125.825;-1067.000;-1080.000
363.901;  -70.700; -596.000; -654.000
364.033; -129.525;-1103.000;-1062.000
364.165;  -13.175; -283.000; -283.000
364.296;   70.775; -316.000; -177.000
364.428;   71.050;-1344.000;-1220.000
364.560;  -75.675; -679.000; -661.000
364.692;  -60.450; -738.000; -835.000
364.824;  244.975; -588.000; -456.000
364.955;  432.000; -402.000; -564.000
365.087;  910.325;-1097.000; -852.000
365.219;   15.025; -686.000; -816.000
365.351;  -72.450; -526.000; -572.000
365.482;   49.100;  300.000;  240.000
365.614;  -39.000; -402.000; -314.000
365.746; -107.475; -729.000; -752.000
365.877;  -89.375; -706.000; -672.000
366.009;  244.200;  -35.000;  -62.000
366.141;  -93.050;-1249.000;-1134.000
366.272; -119.750; -803.000; -719.000
366.404; -107.825;-1005.000; -874.000
366.535;   -8.725; -139.000;  -12.000
366.667; -104.475; -644.000; -649.000
366.799;   25.125;  353.000;  203.000
366.930; -117.325; -862.000; -996.000
367.062;  124.700; -639.000; -613.000
367.193;  141.100; -872.000; -842.000
367.325;  -71.925; -580.000; -684.000
367.456;   51.775; -246.000;   31.000
367.588;  154.475; -371.000; -318.000
367.719;   20.850;  -44.000;  -45.000
367.851;  -31.975; -222.000; -241.000
367.982;  -60.350; -875.000; -732.000
368.113;  109.950; -475.000; -358.000
368.245; -115.625; -960.000; -841.000
368.376;  -20.375; -254.000; -302.000
368.508;  -42.300; -188.000; -263.000
368.639; -136.325;-1166.000;-1034.000
368.770;  -14.500; -670.000; -589.000
368.902;  -67.900; -836.000; -926.000
369.033; -106.100; -906.000; -855.000
369.164;  -60.025; -720.000; -653.000
369.296; -103.400; -452.000; -601.000
369.427;  -11.325; -209.000; -144.000
369.558;  -51.150; -593.000; -377.000
369.689;  -98.900; -721.000; -569.000
369.821; -138.525; -951.000; -845.000
369.952;  -18.875;   42.000; -108.000
370.083;  -39.700; -229.000; -108.000
370.214;  -78.000; -735.000; -650.000
370.345;   -4.000;   65.000;   81.000
370.477;  -94.275; -810.000; -790.000
370.608;  224.250; -328.000; -264.000
370.739;  -58.250;-1233.000;-1292.000
370.870;  -44.000;-1102.000; -923.000
371.001;   62.250; -378.000; -467.000
371.132;  -85.775; -754.000; -735.000
371.263;  -23.775;  -42.000; -148.000
371.394; -138.375; -841.000; -748.000
371.525;   33.900;  345.000;  225.000
371.657;  -94.150; -808.000; -670.000
371.788;   63.650;  103.000;  199.000
371.919;  164.350; -384.000; -304.000
372.050; 3536.575;  -91.000; -156.000
372.181; 1056.775; -188.000; -294.000
372.311;  358.975;   42.000; -127.000
372.442;   40.950; -457.000; -451.000
372.573;  -21.000; -444.000; -340.000
372.704; -136.775;-1008.000; -980.000
372.835;   67.775; -228.000; -289.000
372.966;  -60.025; -646.000; -554.000
373.097;  -67.875; -575.000; -711.000
373.228;  -30.700; -717.000; -542.000
373.359;  109.125; -824.000; -536.000
373.490;  877.675; -881.000; -727.000
373.620; 1119.800;-1001.000; -803.000
373.751; 1742.600; -332.000; -396.000
373.882;  771.450; -663.000; -733.000
374.013;   58.200; -449.000; -262.000
374.143;  -43.725; -581.000; -659.000
374.274; -104.150; -987.000; -908.000
374.405;  159.725; -388.000; -276.000
374.536;  432.800; -526.000; -387.000
374.666; 1065.525; -759.000; -807.000
374.797;  204.375; -817.000; -868.000
374.928;  817.625; -710.000; -560.000
375.058;  864.400; -535.000; -500.000
375.189;   68.375;  -59.000;  -93.000
375.320; -103.050; -928.000;-1034.000
375.450;  -49.425; -625.000; -616.000
375.581;  -46.375; -526.000; -436.000
375.712;  -34.275; -574.000; -250.000
375.842;  289.200; -438.000; -415.000
375.973;  202.000; -554.000; -513.000
376.103;  -55.300; -665.000; -648.000
376.234;  -90.400; -531.000; -552.000
376.364;  -44.075; -944.000; -867.000
376.495;  323.100;  925.000;  529.000
376.625;  -11.200; -472.000; -485.000
376.756;   51.325; -709.000; -678.000
376.886;  -76.225;-1178.000;-1026.000
377.017;   40.875;-1048.000;-1061.000
377.147;  363.925; -786.000; -782.000
377.278;   58.675;  174.000;  228.000
377.408; -121.350; -801.000; -815.000
377.538; -101.875; -707.000; -693.000
377.669;  -86.925; -537.000; -613.000
377.799;  -92.975; -645.000; -635.000
377.929;  -52.750; -610.000; -428.000
378.060; -138.200; -781.000; -847.000
378.190;  -51.100; -726.000; -531.000
378.320;  -57.275; -401.000; -406.000
378.451;   -3.875; -131.000;  -22.000
378.581;    6.125;  -67.000; -110.000
378.711;  143.950; 1035.000;  866.000
378.841;  -30.125; -533.000; -675.000
378.972;  -83.850; -871.000; -751.000
379.102;  -10.100; -652.000; -579.000
379.232;   -9.700; -126.000;  -73.000
379.362; -101.700;-1001.000; -885.000
379.492;   -3.225; -373.000; -424.000
379.623;   80.900;    0.000;  111.000
379.753; -101.000;-1107.000; -974.000
379.883;  186.225;   59.000;  156.000
380.013;   -1.375;-1081.000;-1017.000
380.143; -104.950;-1097.000;-1056.000
380.273; -113.950; -985.000; -861.000
380.403;  -21.200; -344.000; -257.000
380.533;  -48.925; -651.000; -664.000
380.663;   63.875;  173.000;  128.000
380.793;  -93.650;-1027.000;-1074.000
380.923;  -39.375; -103.000;  -34.000
381.053; -106.600; -613.000; -623.000
381.183;  -44.275; -106.000; -248.000
381.313;   34.150; -656.000; -470.000
381.443;   23.775; -692.000; -473.000
381.573;  178.500; -402.000; -409.000
381.703;  247.500;-1249.000;-1095.000
381.833; -146.950;-1454.000;-1336.000
381.963;   96.550; -134.000;  -87.000
382.093; 1359.900; -925.000; -909.000
382.223;  412.900; -713.000; -602.000
382.353;  -23.750; -801.000; -608.000
382.482;  348.500;-1091.000; -964.000
382.612;  749.825; -872.000; -644.000
382.742;  416.050; -695.000; -622.000
382.872;  236.850; -565.000; -551.000
383.002;   52.000;  347.000; -132.000
383.131;  -20.800; -226.000; -160.000
383.261;  -59.825; -706.000; -768.000
383.391;  291.000; -552.000; -377.000
383.521; 3226.325;  451.000;  263.000
383.650;  760.775; -947.000; -904.000
383.780;  -27.550; -783.000; -656.000
383.910;  103.000;  880.000;  802.000
384.039;   12.225; -794.000; -656.000
384.169;  180.800;-1205.000;-1017.000
384.299;  -44.775; -650.000; -662.000
384.428; -101.750; -764.000; -680.000
384.558;  -48.400; -308.000; -275.000
384.687;  -45.850; -414.000; -334.000
384.817;   -1.550;   75.000;   -2.000
384.947;   13.525; -234.000; -141.000
385.076;  275.050;  982.000;  912.000
385.206;   99.375;  369.000;  480.000
385.335;  -37.350; -549.000; -417.000
385.465;  -80.750; -655.000; -663.000
385.594;  115.600;  -53.000;  -44.000
385.724;  392.025; -868.000; -838.000
385.853;  100.725; -296.000; -270.000
385.982; 1336.225; -743.000; -787.000
386.112; 2101.775;-1052.000; -871.000
386.241;  130.375; -307.000; -312.000
386.371;   14.975; -174.000;  -87.000
386.500;  -23.225; -825.000; -789.000
386.629;   13.600; -874.000; -817.000
386.759;   50.800;  -43.000;   68.000
386.888;  -18.200; -170.000; -250.000
387.017;  -78.725; -648.000; -620.000
387.147;  -89.775; -771.000; -798.000
387.276;   -5.750; -410.000; -397.000
387.405;    1.600; -398.000; -342.000
387.535;  -65.400; -452.000; -361.000
387.664;  -68.250; -692.000; -620.000
387.793;   38.750; -198.000; -113.000
387.922;  496.500;  255.000;  200.000
388.052;   17.100; -576.000; -423.000
388.181;   -5.675; -342.000; -472.000
388.310;  -18.325; -889.000; -710.000
388.439;  -57.525; -749.000; -742.000
388.568;  175.350;  365.000;  244.000
388.697; 1018.775; -756.000; -653.000
388.826;  205.900; -768.000; -666.000
388.956;   53.800; -285.000; -307.000
389.085;  -28.225; -347.000; -287.000
389.214; -116.100; -842.000; -872.000
389.343;  -59.475; -645.000; -413.000
389.472;  393.375;  126.000;  149.000
389.601;  509.200;   91.000;    0.000
389.730;  -11.225; -568.000; -687.000
389.859;   52.600;  226.000;   46.000
389.988;  176.125; -423.000; -408.000
390.117;  130.275; -168.000; -146.000
390.246;  -12.975; -331.000; -320.000
390.375;   84.150; -673.000; -626.000
390.504;  -66.850; -703.000; -621.000
390.633;  -99.325; -672.000; -726.000
390.761;  -81.400; -732.000; -645.000
390.890;   13.125;   -4.000; -130.000
391.019;  -40.325; -421.000; -441.000
391.148; -133.700; -826.000; -855.000
391.277;  -75.675; -576.000; -493.000
391.406;  -80.450; -821.000; -805.000
391.534;    9.200;  574.000; -301.000
391.663;  -77.200; -583.000; -645.000
391.792;  -96.600; -673.000; -701.000
391.921;   77.425;   -3.000;   15.000
392.050;  159.500; -287.000; -228.000
392.178;  -58.650;-1206.000;-1061.000
392.307;  120.900; -758.000; -712.000
392.436;   62.075; -427.000; -641.000
392.564;   32.650;  166.000;   -6.000
392.693; -105.400; -860.000; -682.000
392.822;  192.575; -529.000; -534.000
392.950;   82.525; -880.000; -714.000
393.079;  305.325; -188.000; -328.000
393.208;    7.000; -488.000; -511.000
393.336;  -17.775; -170.000; -145.000
393.465;  -49.325; -317.000; -199.000
393.593;  -14.900;   62.000;   79.000
393.722; -158.750;-1121.000; -916.000
393.850;  -35.900; -188.000;  -61.000
393.979; -160.625; -926.000; -805.000
394.107;  -75.700; -517.000; -537.000
394.236;  -21.550; -570.000; -507.000
394.364;  174.050;  383.000;  206.000
394.493;  274.800; -911.000; -767.000
394.621;  -30.150; -955.000; -916.000
394.750;  719.700; -873.000; -923.000
394.878; 2969.650; -247.000; -149.000
395.007; 3982.825; -721.000; -807.000
395.135;  290.425; -790.000; -721.000
395.263;  -95.400;-1038.000;-1040.000
395.392;    1.550;  -25.000; -107.000
395.520; -144.325; -818.000; -679.000
395.648; -107.850; -865.000; -915.000
395.777;  -28.600; -366.000; -405.000
395.905;  -61.425; -449.000; -564.000
396.033;   -3.050;  217.000;  172.000
396.162;  471.250; -399.000; -453.000
396.290;  407.475;  -17.000;   -2.000
396.418;   88.400; -555.000; -514.000
396.546;  -64.900; -571.000; -466.000
396.674;  -95.975; -850.000; -878.000
396.803;   15.150;  -72.000;  -23.000
396.931;   76.200; -179.000; -199.000
397.059;   31.375;-1026.000; -989.000
397.187; -120.625;-1026.000; -975.000
397.315; -129.525; -884.000; -649.000
397.443;  -99.850; -592.000; -443.000
397.572;  -92.625; -578.000; -424.000
397.700;  -20.600; -607.000; -614.000
397.828;    3.750;  120.000;  -90.000
397.956;  -58.175; -508.000; -478.000
398.084;  -68.525; -767.000; -626.000
398.212;   29.725;  137.000;  124.000
398.340;    3.225;  -56.000;  159.000
398.468;   22.750; -390.000; -169.000
398.596; -144.175; -993.000; -953.000
398.724; -129.950; -762.000; -767.000
398.852; -164.525;-1024.000; -976.000
398.980;  -71.150; -560.000; -560.000
399.108;  -65.925; -982.000; -735.000
399.236;   32.750;   13.000;    8.000
399.363;    1.375;  222.000;  196.000
399.491;  -72.500; -404.000; -398.000
399.619; -126.175; -829.000; -800.000
399.747; -106.550; -859.000; -771.000
399.875;   67.925;  220.000;  234.000
400.003;  -55.875; -359.000; -284.000
400.130;  -95.100; -421.000; -341.000
400.258;  -38.825;  -83.000;   38.000
400.386;  -68.175; -352.000; -168.000
400.514;  -57.575; -526.000; -587.000
400.641;  -94.675; -928.000; -802.000
400.769; -152.900; -979.000; -888.000
400.897; -118.000; -838.000; -793.000
401.025;  -13.675; -166.000; -152.000
401.152;  -15.425;  220.000;   38.000
401.280;  -72.625; -430.000; -429.000
401.408; -126.425; -712.000; -576.000
401.535; -102.475; -735.000; -758.000
401.663; -203.700;-1134.000;-1054.000
401.790;  -91.575; -514.000; -525.000
401.918;   40.450;  436.000;  405.000
402.046;  -31.175;  134.000;  122.000
402.173;  -28.000;  -18.000;    7.000
402.301;  -87.625; -519.000; -397.000
402.428;   31.400;  528.000;  383.000
402.556; -157.875;-1188.000; -913.000
402.683;  -36.750;  -20.000;   -1.000
402.811;  -25.400;  -37.000; -206.000
402.938;   -2.275;   20.000;   27.000
403.066;  191.200; -574.000; -558.000
403.193;  307.975;  299.000;  239.000
403.321;  241.725; -396.000; -574.000
403.448;  321.775;   83.000;   27.000
403.575;  133.875;  -90.000;  -46.000
403.703; -110.800; -732.000; -557.000
403.830;  -62.650; -531.000; -496.000
403.957; -139.350;-1117.000;-1023.000
404.085;   13.375;  -61.000; -172.000
404.212;  103.425;  -50.000;   63.000
404.339;  262.400; -566.000; -306.000
404.467; 5816.800; -612.000; -524.000
404.594; 3778.200; -287.000; -227.000
404.721;  866.050; -869.000; -764.000
404.848;   68.125; -113.000; -202.000
404.976; -120.050; -856.000; -783.000
405.103;  -15.475;  -14.000;  -82.000
405.230;  -12.950;  190.000;  226.000
405.357;   14.425;  117.000;   44.000
405.484;  278.700;  -49.000;    5.000
405.612;   37.000; -548.000; -563.000
405.739;  -69.275; -488.000; -243.000
405.866;   67.850;  669.000;  385.000
405.993;  -44.950; -398.000; -102.000
406.120; -145.100; -801.000; -887.000
406.247;  -64.650; -323.000; -342.000
406.374;  417.450;  540.000;  629.000
406.501;   82.200; -632.000; -702.000
406.628;  -90.075; -621.000; -589.000
406.755; -107.200; -803.000; -620.000
406.882;  -49.025; -228.000; -277.000
407.009;  -99.050; -719.000; -628.000
407.136;   32.900; -480.000; -401.000
407.263;  104.600; -939.000; -829.000
407.390;  -67.275; -692.000; -614.000
407.517; -181.475;-1139.000;-1187.000
407.644;  -70.425; -332.000; -256.000
407.771; -140.225; -249.000; -287.000
407.898;    2.975;  168.000;  328.000
408.025;  -65.450; -421.000; -313.000
408.151;  -23.575;   82.000;  153.000
408.278;  -85.350; -267.000; -216.000
408.405; -113.150; -931.000; -899.000
408.532;  -86.575; -549.000; -542.000
408.659; -123.700; -677.000; -648.000
408.785; -194.925;-1298.000;-1170.000
408.912;  -61.075; -412.000; -296.000
409.039; -103.625; -610.000; -686.000
409.166; -105.750; -591.000; -555.000
409.292; -106.125; -571.000; -534.000
409.419; -128.075; -665.000; -649.000
409.546;  -84.775; -431.000; -192.000
409.672; -121.825; -713.000; -545.000
409.799;  -28.600;  -36.000;   34.000
409.926;  -44.900; -180.000; -179.000
410.052; -186.050;-1127.000;-1091.000
410.179;  -58.775; -368.000; -392.000
410.305;  -87.450; -375.000; -493.000
410.432;  -52.575; -220.000; -333.000
410.558;  -94.525; -305.000; -380.000
410.685; -105.600; -688.000; -431.000
410.812; -106.200; -409.000; -588.000
410.938; -154.450; -964.000; -808.000
411.065; -105.300; -671.000; -645.000
411.191;  -14.600; -189.000; -174.000
411.317; -109.125; -823.000; -742.000
411.444;  -67.500; -317.000; -246.000
411.570;  -78.750; -339.000; -294.000
411.697; -123.350; -758.000; -752.000
411.823; -177.500; -989.000; -999.000
411.949;  -49.175;  -56.000;   17.000
412.076; -106.075; -539.000; -519.000
412.202; -136.800; -758.000; -757.000
412.329; -139.500; -798.000; -752.000
412.455; -118.050; -821.000; -657.000
412.581;  -24.800;  -15.000;  172.000
412.707;  -81.725; -540.000; -457.000
412.834;    6.400;  156.000;  219.000
412.960;  -96.875; -785.000; -784.000
413.086; -106.675; -743.000; -701.000
413.212;  140.175;  604.000;  578.000
413.339;  -91.725; -685.000; -701.000
413.465;  -19.800; -364.000; -310.000
413.591;  -78.350; -757.000; -474.000
413.717;  -56.975; -358.000; -366.000
413.843; -142.375; -839.000; -861.000
413.969;  -66.550;  -47.000; -292.000
414.096; -104.250; -679.000; -679.000
414.222;   -7.550;  -33.000;   85.000
414.348;  -25.525; -652.000; -385.000
414.474;   81.275;   38.000;  -52.000
414.600;  -21.975; -126.000; -144.000
414.726;   -8.975;  -96.000;  -55.000
414.852;  -60.650; -365.000; -342.000
414.978;   17.550;  104.000;  -18.000
415.104;   46.550;   38.000;   80.000
415.230;    5.875; -329.000; -330.000
415.356;   35.775; -409.000; -514.000
415.482;  195.275;   13.000;  -35.000
415.608;  267.775; -247.000; -323.000
415.734;  949.825;   67.000;   38.000
415.860;20049.275; -875.000; -767.000
415.986;14440.775; -685.000; -607.000
416.111; 1228.475; -798.000; -652.000
416.237;  266.875; -424.000; -571.000
416.363; 1133.900; -765.000; -733.000
416.489; 4217.500; -324.000; -251.000
416.615;  438.150; -707.000; -742.000
416.741;  -33.650; -677.000; -784.000
416.866;  -86.450; -673.000; -736.000
416.992; -116.425; -801.000; -818.000
417.118;  -30.200;  -41.000;  -80.000
417.244;  -75.425; -798.000; -531.000
417.369;  -96.550; -801.000; -612.000
417.495;   -9.750; -325.000; -254.000
417.621;  -96.550;-1015.000; -803.000
417.746;   -3.775; -579.000; -572.000
417.872;   47.250; -254.000; -144.000
417.998;   60.425; -515.000; -530.000
418.123; 1059.800;-1073.000; -845.000
418.249; 5443.125; -512.000; -601.000
418.374;  735.425; -916.000; -824.000
418.500;  109.300; -383.000; -482.000
418.626;   94.975;   70.000;  -59.000
418.751;  131.600; -549.000; -448.000
418.877;  179.825; -637.000; -643.000
419.002; 1812.100; -688.000; -560.000
419.128;12655.500; -930.000; -721.000
419.253; 3067.425; -967.000; -837.000
419.379;  399.150; -391.000; -338.000
419.504;  385.500;  325.000;  415.000
419.629;  523.275; -393.000; -212.000
419.755; 3629.325; -317.000; -254.000
419.880;21429.375;  -98.000;   67.000
420.006;11558.675; -280.000; -221.000
420.131;29565.900; -662.000; -775.000
420.256; 4202.100; -315.000; -316.000
420.382;  533.250; -665.000; -687.000
420.507;   58.075; -649.000; -778.000
420.632;  135.925; -337.000; -339.000
420.758;  220.175; -251.000; -425.000
420.883;  -89.850; -876.000; -672.000
421.008; -107.325; -775.000; -619.000
421.133;  -97.525; -509.000; -467.000
421.259;  -46.850; -325.000; -259.000
421.384; -121.525; -834.000; -693.000
421.509;  -54.275;-1052.000; -862.000
421.634; 1084.500; -936.000; -820.000
421.759;  471.175; -359.000; -327.000
421.885;  -75.475; -717.000; -656.000
422.010;  -78.650; -673.000; -542.000
422.135; -138.675; -695.000; -727.000
422.260;   17.750;  340.000;  280.000
422.385;  -50.725;   12.000;  -98.000
422.510;   -1.275;  151.000;  -26.000
422.635;   18.900;  -87.000;  -43.000
422.760;   99.200; -766.000; -791.000
422.885;   50.600;  -57.000;  -80.000
423.010;  -48.525; -112.000; -169.000
423.135;  -96.150; -481.000; -561.000
423.260;  -14.575; -150.000; -245.000
423.385;   55.950;  476.000;  222.000
423.510;   12.175;   71.000;  -22.000
423.635;   87.700;  133.000;   45.000
423.760;   54.500;  383.000;  328.000
423.885;   49.475;  336.000;  391.000
424.010;   -0.150;  -68.000;  -13.000
424.135;  -25.225;    5.000;  -33.000
424.259;  -94.150; -654.000; -457.000
424.384;  -68.625; -279.000; -272.000
424.509;  -28.850; -260.000; -186.000
424.634;  -90.925; -761.000; -623.000
424.759;  -38.300; -688.000; -544.000
424.883;  -16.175; -506.000; -527.000
425.008;  151.725; -502.000; -410.000
425.133; 2015.200; -679.000; -653.000
425.258;  946.300; -517.000; -381.000
425.382; 1033.325; -867.000; -774.000
425.507; 2570.175; -487.000; -543.000
425.632;  434.050; -802.000; -663.000
425.756;  429.375; -256.000; -146.000
425.881; 6688.325; -831.000; -857.000
426.006;17996.975; -604.000; -355.000
426.130; 2779.650; -696.000; -508.000
426.255;  336.375; -611.000; -491.000
426.379;  159.100; -189.000; -577.000
426.504;  370.300;  660.000;  544.000
426.629; 4034.175; -519.000; -466.000
426.753; 2773.350;   64.000;  -46.000
426.878;  303.950; -252.000; -288.000
427.002;  144.025; -651.000; -668.000
427.127; 1605.650;  -35.000; -158.000
427.251;11518.375;  372.000;  401.000
427.375; 3271.100; -191.000; -173.000
427.500; 2272.425; -616.000; -610.000
427.624;  753.000; -234.000; -400.000
427.749;   77.800; -216.000; -225.000
427.873;  -44.475; -499.000; -412.000
427.997;  -63.075; -222.000; -230.000
428.122;   64.775;  795.000;  703.000
428.246;   66.875;  433.000;  434.000
428.371; -131.325; -869.000; -773.000
428.495; -108.800; -624.000; -646.000
428.619;  -31.775; -186.000; -117.000
428.743;   12.675;   65.000;  132.000
428.868;    9.500; -732.000; -643.000
428.992; 1367.150; -219.000; -326.000
429.116;  521.700; -329.000; -357.000
429.240;  256.300;  419.000;  426.000
429.365;  -25.525; -454.000; -574.000
429.489;  -63.200; -638.000; -647.000
429.613;   21.825; -236.000; -177.000
429.737;   30.050; -563.000; -432.000
429.861;  257.225; -247.000; -133.000
429.985; 5596.675; -425.000; -305.000
430.109; 6164.650; -770.000; -908.000
430.234;  683.625;   76.000;  -50.000
430.358;   60.750; -250.000; -160.000
430.482;  -71.900; -672.000; -564.000
430.606;  -62.025; -655.000; -375.000
430.730;   -6.125; -437.000; -388.000
430.854;  107.300; -909.000; -835.000
430.978;  -81.500; -795.000; -764.000
431.102;  -92.825; -499.000; -422.000
431.226; -129.675; -874.000; -815.000
431.350;   17.425;  345.000;  422.000
431.474;  -90.000; -661.000; -373.000
431.597; -162.075;-1060.000; -848.000
431.721;  -81.175; -276.000; -267.000
431.845; -138.250; -704.000; -472.000
431.969;  -90.200; -304.000; -349.000
432.093;  -95.800; -395.000; -317.000
432.217;  -20.100;   32.000;   82.000
432.341;  -94.100; -523.000; -518.000
432.464;   -4.025;   96.000;   40.000
432.588;  191.000; -401.000; -329.000
432.712;   86.850;  -52.000;  -52.000
432.836;   46.475;  213.000;  263.000
432.959;  -15.850; -372.000; -311.000
433.083;   74.650;   11.000;    2.000
433.207;  374.300;  285.000;  930.000
433.330; 5143.725; -391.000; -200.000
433.454; 6265.275; -654.000; -638.000
433.578; 3626.975;  583.000;  278.000
433.701;  659.975; -623.000; -675.000
433.825;  119.025; -292.000; -299.000
433.949;  150.025;   28.000;  -72.000
434.072;   46.400; -410.000; -323.000
434.196;  -19.875; -309.000; -117.000
434.319; 3752.925;25482.000;25124.000
434.443;  710.900; -656.000; -603.000
434.566; 2689.275;  281.000;   62.000
434.690;  446.925; -637.000; -383.000
434.813;   42.500; -251.000; -173.000
434.937;  -83.600; -569.000; -696.000
435.060;  -54.525; -423.000; -332.000
435.184;  257.675; -492.000; -217.000
435.307;  141.675;  159.000;  102.000
435.431;  -30.100;  -40.000;   24.000
435.554;  -79.725; -399.000; -240.000
435.677;  -94.300; -350.000; -258.000
435.801;  -32.275;  -25.000;   49.000
435.924;  -19.275;    1.000;  -67.000
436.048; -133.400;-1019.000; -732.000
436.171;  -80.675; -240.000;  -66.000
436.294;  -40.500; -248.000; -229.000
436.417;   78.150; -963.000; -849.000
436.541; -101.225; -814.000; -840.000
436.664;  -56.800; -242.000; -316.000
436.787;  -25.850;   13.000;  113.000
436.910; -124.850; -792.000; -422.000
437.034;    9.075;  142.000;  143.000
437.157;   49.400;  -11.000;    0.000
437.280;  -52.725; -392.000; -292.000
437.403; -109.800; -982.000; -869.000
437.526;  570.375; -903.000; -865.000
437.649; 2111.225; -505.000; -332.000
437.772;  299.525; -692.000; -540.000
437.896;  112.775;  700.000;  544.000
438.019; -106.150; -758.000; -503.000
438.142;  -98.325; -596.000; -506.000
438.265;  -33.625; -639.000; -670.000
438.388;  509.775; -520.000; -410.000
438.511;   66.750; -597.000; -394.000
438.634;  -58.650; -247.000; -125.000
438.757; -136.075; -693.000; -619.000
438.880;  -34.900;  -34.000;  -57.000
439.003;  -73.200; -417.000; -437.000
439.126;  -71.850; -287.000; -167.000
439.248;  -61.075;  -98.000; -139.000
439.371;  -56.200;    9.000;  -53.000
439.494;   16.425;  510.000;  439.000
439.617;  -58.425;   65.000;  -88.000
439.740; -189.750; -968.000; -816.000
439.863; -148.850; -755.000; -595.000
439.986; -132.500; -476.000; -431.000
440.108;  -67.075; -161.000; -112.000
440.231; -173.150; -950.000; -836.000
440.354;  -53.400;  -64.000; -150.000
440.477;   33.650; -566.000; -542.000
440.599;  -14.900; -200.000; -225.000
440.722; -121.400; -709.000; -586.000
440.845;   61.300;  751.000;  928.000
440.968; -106.075; -415.000; -311.000
441.090;  -71.925; -199.000;  -33.000
441.213; -173.900;-1021.000; -825.000
441.336;  -64.075; -159.000;   -5.000
441.458;  -79.775; -549.000; -396.000
441.581;  -94.250; -628.000; -629.000
441.703;  -69.125; -152.000;   13.000
441.826; -115.825; -557.000; -400.000
441.948;  -52.800;   56.000;   51.000
442.071;   24.600;  555.000;  424.000
442.193; -115.800; -531.000; -485.000
442.316;    8.250;  152.000;   97.000
442.438;   45.625; -233.000;  -10.000
442.561;   72.325;  272.000;  262.000
442.683;  503.300; -809.000; -522.000
442.806; 1101.875;   -8.000;   74.000
442.928;    0.025; -859.000; -604.000
443.051;  -73.650; -577.000; -373.000
443.173;  -82.500; -341.000; -339.000
443.295; -107.250; -263.000; -371.000
443.418;  -65.475; -321.000;  -29.000
443.540;  -15.050; -106.000;   -4.000
443.662; -125.350; -563.000; -465.000
443.785;  -15.725;  335.000;  199.000
443.907; -100.475; -362.000; -208.000
444.029; -137.350; -767.000; -494.000
444.152; -146.825; -644.000; -554.000
444.274;  -40.650;  -18.000;  -24.000
444.396; -117.775; -461.000; -221.000
444.518; -143.350; -691.000; -454.000
444.640; -108.525; -268.000; -111.000
444.763;   -6.275;  388.000;  249.000
444.885; -126.300; -432.000; -392.000
445.007;  -34.550;   35.000;   86.000
445.129; -114.200; -610.000; -515.000
445.251; -122.675; -372.000; -439.000
445.373; -142.125; -537.000; -386.000
445.495;    8.500;  242.000;  350.000
445.617;   48.225;  853.000;  753.000
445.739;  -64.400; -215.000;  -97.000
445.861;  -32.800; -245.000; -112.000
445.984;  -42.225; -267.000; -101.000
446.105;  184.700; -418.000; -251.000
446.227;  579.600; -176.000;  -19.000
446.349;  -13.275; -358.000; -249.000
446.471; -103.300; -615.000; -448.000
446.593;  -78.800; -316.000;   19.000
446.715;  -17.850;  -67.000;   41.000
446.837;   51.725;  697.000;  832.000
446.959; -101.775; -457.000; -478.000
447.081; -135.300; -628.000; -518.000
447.203;   55.475;  862.000;  834.000
447.325;  -93.400; -270.000;   42.000
447.446;  -15.800;  286.000;  530.000
447.568; -154.075; -921.000; -803.000
447.690;  -65.575; -236.000; -245.000
447.812; -155.500; -798.000; -519.000
447.933;  -30.525;  155.000;  127.000
448.055;  -60.800; -306.000; -261.000
448.177;  140.850;   31.000;   79.000
448.299;   63.725; -935.000; -727.000
448.420;   -7.375;  -25.000;  159.000
448.542;  -54.625;   -3.000;   33.000
448.664;  -34.450;  109.000;  322.000
448.785;  -39.475;  265.000;   83.000
448.907;  -93.200; -614.000; -353.000
449.028;  -51.425; -771.000; -471.000
449.150;   54.050;  492.000;  589.000
449.272; -180.925;-1044.000; -913.000
449.393;   14.675;  612.000;  694.000
449.515; -149.650; -634.000; -581.000
449.636;  -74.025; -264.000; -155.000
449.758;   72.225;  763.000;  622.000
449.879;  -94.400; -498.000; -396.000
450.001;  -90.200; -149.000;  -49.000
450.122;  -42.100;  -95.000;  162.000
450.244;  -37.775;   37.000;  364.000
450.365; -101.175; -495.000; -301.000
450.486;  -24.025;   80.000;  268.000
450.608;   20.300;  393.000;  326.000
450.729;   73.150;  578.000;  645.000
450.850;    1.100; -574.000; -466.000
450.972;  769.075; -552.000; -389.000
451.093; 4976.225;  190.000;  588.000
451.214; 2131.800; -516.000; -337.000
451.336;  382.825;  773.000;  579.000
451.457;   51.425;  264.000;  393.000
451.578;  -49.275; -118.000;  -74.000
451.699; -124.950; -546.000; -540.000
451.821;  -70.625; -284.000;  -50.000
451.942;   -9.650;  278.000;  285.000
452.063;   20.850;  228.000;  419.000
452.184;  575.225;  -54.000;  -49.000
452.305; 1090.100;  103.000;  170.000
452.427;  124.875; -549.000; -301.000
452.548;  -13.900;   23.000;   79.000
452.669;  -55.050; -257.000;  -89.000
452.790;  -55.875;    3.000;  -18.000
452.911;  -17.700;  195.000;  259.000
453.032;  -74.275; -289.000;  -60.000
453.153;  -45.800;  -29.000;   81.000
453.274;   62.175;  737.000;  868.000
453.395;  -48.000;  -51.000;  175.000
453.516;   81.425; 1317.000; 1388.000
453.637;  -72.950; -205.000; -150.000
453.758;  -68.925;   15.000;   69.000
453.879; -117.075; -462.000; -250.000
454.000;   77.150; 1086.000;  948.000
454.121; -118.825; -554.000; -326.000
454.242; -124.725; -599.000; -383.000
454.362;  -75.850;  -99.000;  114.000
454.483;  -51.900; -309.000; -229.000
454.604;   46.750;  512.000;  580.000
454.725; -121.500; -627.000; -555.000
454.846; -128.675; -474.000; -406.000
454.967;  -30.850;  230.000;  539.000
455.087;  -49.750;  179.000;  153.000
455.208;    4.775;  554.000;  856.000
455.329;  -56.575;  -22.000;   82.000
455.450;   35.700;  473.000;  633.000
455.570;  -95.225; -234.000; -211.000
455.691;  -51.625;  201.000;  407.000
455.812; -108.850; -270.000;  -92.000
455.932;  -59.875;  107.000;  -97.000
456.053;  -89.000;   36.000;   24.000
456.173; -128.875; -433.000; -355.000
456.294; -140.000; -476.000; -303.000
456.415;  -68.375;  -73.000;   70.000
456.535;  -41.275;  297.000;  273.000
456.656;  -48.800;  132.000;  240.000
456.776;  -78.675;    3.000;  298.000
456.897;   -2.200;  308.000;  513.000
457.017;  -81.475; -153.000;   -3.000
457.138; -112.775; -402.000; -249.000
457.258;  -27.000;  263.000;  224.000
457.379;  -18.750;  509.000;  521.000
457.499;  -44.400;  443.000;  432.000
457.620; -121.950; -407.000; -231.000
457.740;  -95.375; -132.000;  -11.000
457.860;  -75.000;   87.000;   44.000
457.981;  -43.750;  132.000;  124.000
458.101;  -75.750;  -89.000;   40.000
458.221;  -14.875;  336.000;  402.000
458.342;  -69.400;   -4.000;  -37.000
458.462;   14.475;  617.000;  352.000
458.582;  -36.500; -302.000; -294.000
458.703;   -6.650;  303.000;  154.000
458.823;  -24.475;   22.000;  163.000
458.943;   20.200;  341.000;  467.000
459.063;  -27.075; 1124.000;  192.000
459.183;  -21.125;  328.000;  313.000
459.304;    0.100;  315.000;  517.000
459.424;  -57.075; -246.000;  -89.000
459.544;  328.925;  388.000;  764.000
459.664;  840.200;  499.000;  506.000
459.784;  295.950; 1004.000; 1175.000
459.904;   46.225;  867.000;  744.000
460.024;   58.975;  867.000;  684.000
460.144;    0.800;  449.000;  554.000
460.264;  -18.900;  515.000;  327.000
460.385; -102.250; -145.000; -119.000
460.505;   25.850;  905.000;  858.000
460.625;  -91.525;  -17.000;  -68.000
460.745;  -32.125;  396.000;  541.000
460.864;  -48.500;  153.000;  469.000
460.984;    0.700;  499.000;  573.000
461.104;  130.200; 1656.000; 1775.000
461.224;   20.825;  657.000;  650.000
461.344;  -23.425;  431.000;  360.000
461.464;  -45.350;  258.000;  513.000
461.584;  -23.975;  283.000;  466.000
461.704;  -58.975;   58.000;  108.000
461.824;  -52.975;  238.000;  259.000
461.943;  -49.900;  191.000;  130.000
462.063;  -79.725;    2.000;  324.000
462.183;   24.050;  639.000;  717.000
462.303;   99.675; 1678.000; 1230.000
462.422;   33.025;  781.000;  840.000
462.542;  -36.075;  271.000;  391.000
462.662;   33.925;  353.000;  380.000
462.782;  250.575;  833.000;  572.000
462.901;  469.875;  545.000;  717.000
463.021;  278.950; 1702.000; 1638.000
463.141;   -7.450;  337.000;  770.000
463.260;  -12.700;  614.000;  474.000
463.380;   17.875;  902.000;  884.000
463.499;  -41.175;  342.000;  332.000
463.619;  -40.625;  581.000;  559.000
463.738;  117.400; 1644.000;  903.000
463.858;    1.125;  657.000;  811.000
463.978;  -42.650;  542.000;  396.000
464.097;   41.500;  921.000; 1114.000
464.217;  118.975; 1196.000; 1143.000
464.336;  107.750; 1068.000; 1130.000
464.455;  -41.600;  328.000;  659.000
464.575;   18.575;  597.000;  602.000
464.694;  183.025; 1204.000; 1179.000
464.814;  119.875; 1190.000; 1138.000
464.933;   78.200; 1095.000; 1027.000
465.052;   96.800; 1412.000; 1054.000
465.172;   72.950;  922.000;  799.000
465.291;  128.800; 1376.000; 1320.000
465.410;    3.675;  462.000;  735.000
465.530;   73.550; 1355.000; 1310.000
465.649;   69.450; 1209.000; 1273.000
465.768;  132.825; 1673.000; 1508.000
465.888;   56.700;  941.000; 1174.000
466.007;   97.725; 1335.000; 1440.000
466.126;   -3.550;  721.000;  641.000
466.245;   38.675; 1176.000; 1187.000
466.364;   11.650;  950.000; 1060.000
466.484;   44.300; 1024.000; 1213.000
466.603;   31.850; 1101.000; 1222.000
466.722;  120.850; 1490.000; 1769.000
466.841;   73.575; 1151.000; 1401.000
466.960;   38.450; 1069.000;  972.000
467.079;  121.075; 1971.000; 1786.000
467.198;   35.350; 1238.000; 1181.000
467.317;   79.450; 1768.000; 1162.000
467.436;   75.125; 1709.000; 1261.000
467.555;  129.000; 1796.000; 1746.000
467.674;   36.625; 1227.000; 1329.000
467.793;   35.000; 1376.000; 1374.000
467.912;   73.350; 1658.000; 1539.000
468.031;  128.650; 2038.000; 1930.000
468.150;  124.550; 1842.000; 1837.000
468.269;  176.225; 2313.000; 2090.000
468.388;  188.050; 2168.000; 2339.000
468.507;  250.725; 2884.000; 2903.000
468.626;  229.425; 2555.000; 2541.000
468.744;  151.500; 2018.000; 2174.000
468.863;  179.875; 2312.000; 2523.000
468.982;   88.850; 1503.000; 1555.000
469.101;  219.800; 2788.000; 2692.000
469.220;  151.650; 2333.000; 2176.000
469.338;  241.050; 2935.000; 3051.000
469.457;  191.450; 2719.000; 2545.000
469.576;  351.750; 3953.000; 3784.000
469.695;  252.650; 2877.000; 3066.000
469.813;  420.475; 4148.000; 4192.000
469.932;  398.975; 4255.000; 4485.000
470.051;  413.400; 4075.000; 4161.000
470.169;  855.425; 4470.000; 4338.000
470.288; 1488.975; 4700.000; 4809.000
470.406;  865.500; 5059.000; 5194.000
470.525;  605.150; 6101.000; 5787.000
470.644;  658.350; 6847.000; 6794.000
470.762;  803.200; 8397.000; 7873.000
470.881;  915.050; 8651.000; 8464.000
470.999; 1027.450; 9685.000; 9151.000
471.118; 1109.050;11174.000;10711.000

