
Integration time [ms]: 200.000
Averaging Nr. [scans]: 10
Smoothing Nr. [pixels]: 0
Data measured with spectrometer [name]: 2101012U2
Wave   ;Sample   ;Dark     ;Reference
[nm]   ;[counts] ;[counts] ;[counts] 

197.733;  139.400;  516.000;  404.000
197.879; -174.800; -610.000; -634.000
198.025; -125.100; -475.000; -420.000
198.171; -185.900; -602.000; -612.000
198.317;  -94.600; -401.000; -316.000
198.463; -144.600; -655.000; -404.000
198.609;   64.200;  181.000; -137.000
198.755; -176.500; -644.000; -410.000
198.901; -158.100; -505.000; -424.000
199.047; -153.900; -615.000; -488.000
199.193;  -69.400; -230.000; -468.000
199.339; -112.800; -222.000; -369.000
199.485;  104.700;  330.000;  271.000
199.631;    1.100;  227.000;  310.000
199.777; -146.000; -466.000; -398.000
199.923; -158.600; -610.000; -424.000
200.069;  -28.300; -141.000;  -58.000
200.215;  109.900;  128.000;  453.000
200.361;   77.000;  243.000;  477.000
200.507; -162.100; -600.000; -373.000
200.653;  -48.700; -371.000; -194.000
200.798;  -85.800; -215.000; -125.000
200.944;   -3.300; -146.000;  -41.000
201.090;   55.100;   61.000;  222.000
201.236;    6.000; -116.000; -158.000
201.382;  240.800;  874.000;  903.000
201.528;    6.800;  -58.000;  -48.000
201.674; -120.400; -386.000; -293.000
201.819; -110.700; -540.000; -439.000
201.965; -200.000; -699.000; -447.000
202.111;  -41.900; -273.000; -226.000
202.257; -120.800; -250.000; -238.000
202.402;   29.300;   13.000;  -36.000
202.548;  -41.800; -169.000; -116.000
202.694;  174.200;  410.000; -183.000
202.840; -186.200; -603.000; -531.000
202.985; -150.600; -681.000; -639.000
203.131; -246.200; -832.000; -666.000
203.277;  -52.000; -199.000; -262.000
203.423; -138.400; -434.000; -520.000
203.568;  -55.400; -462.000; -237.000
203.714; -158.700; -535.000; -542.000
203.860; -144.400; -682.000; -641.000
204.005;   38.900;  112.000;  167.000
204.151;  189.200;  561.000;  556.000
204.296; -101.700; -354.000; -221.000
204.442; -139.400; -600.000; -547.000
204.588; -171.000; -592.000; -579.000
204.733;   51.700;  178.000;  168.000
204.879; -307.100;-1018.000; -822.000
205.025;   25.300;  -99.000;  126.000
205.170;  -40.500;  -17.000;   94.000
205.316;  219.300;  438.000;  661.000
205.461; -191.000; -698.000; -554.000
205.607;  196.300;  609.000;  665.000
205.752; -192.400; -626.000; -551.000
205.898;  -89.600; -501.000; -391.000
206.043; -174.600; -578.000; -506.000
206.189;  -82.400; -243.000; -285.000
206.334;  185.700;  554.000;  606.000
206.480;  177.200;  409.000;  239.000
206.625; -198.700; -529.000; -552.000
206.771;  -97.400; -451.000; -373.000
206.916;  -62.600; -210.000; -537.000
207.062; -155.600; -545.000; -591.000
207.207; -173.600; -546.000; -443.000
207.353;  123.900;  185.000;  460.000
207.498;   28.400;  196.000;   85.000
207.643;  -91.900; -501.000; -370.000
207.789; -295.900;-1069.000; -910.000
207.934; -180.400; -665.000; -713.000
208.080;  -69.000; -154.000;   66.000
208.225;  -13.100;  -22.000;  -57.000
208.370; -203.100; -727.000; -619.000
208.516; -157.000; -741.000; -487.000
208.661;  -95.400; -127.000;  -69.000
208.806;  -32.600; -165.000; -171.000
208.952; -272.400;-1044.000; -731.000
209.097;  171.400;  378.000;  349.000
209.242; -114.400; -307.000; -382.000
209.387;  114.600;  392.000;  350.000
209.533; -100.400; -321.000; -350.000
209.678;  178.600;  472.000;  543.000
209.823;  -91.800; -408.000; -310.000
209.969; -209.100; -860.000; -757.000
210.114; -235.500; -907.000; -719.000
210.259; -246.700; -939.000; -889.000
210.404;  -50.300; -171.000;  103.000
210.549;   40.500;  108.000;    3.000
210.695;  -31.100;   -3.000;  -95.000
210.840;   74.700;   94.000;   67.000
210.985; -113.300; -484.000; -303.000
211.130;  162.800;  268.000;  406.000
211.275;   32.000;  207.000;  199.000
211.420; -134.200; -300.000; -289.000
211.566; -167.600; -536.000; -489.000
211.711;   60.600;  218.000;  157.000
211.856; -160.200; -545.000; -519.000
212.001;   22.700;  151.000;   44.000
212.146;   22.100;  153.000;   49.000
212.291;  -37.200; -210.000; -186.000
212.436;  -55.100; -280.000;   -6.000
212.581; -160.800; -685.000; -653.000
212.726; -135.500; -487.000; -538.000
212.871; -109.000; -552.000; -217.000
213.016; -322.500;-1172.000;-1029.000
213.161;  138.700;  406.000;  291.000
213.306; -161.400; -435.000; -577.000
213.451; -194.500; -778.000; -689.000
213.596; -101.500; -455.000; -347.000
213.741; -107.600; -448.000; -538.000
213.886; -217.700; -498.000; -517.000
214.031;  -53.800; -294.000; -124.000
214.176; -121.100; -408.000; -341.000
214.321;   -3.100; -296.000; -157.000
214.466;  -55.800; -163.000;  -43.000
214.611;   16.100;  -61.000;  -10.000
214.756; -239.700; -948.000; -858.000
214.901;  -29.200; -388.000; -226.000
215.046; -248.700; -797.000; -825.000
215.191;   43.500;  128.000;   35.000
215.336;  -44.600; -157.000;  -19.000
215.480; -136.800; -684.000; -505.000
215.625;  -53.500; -175.000;  -19.000
215.770; -163.700; -757.000; -662.000
215.915;  -21.200;   -5.000;  -97.000
216.060;   19.300; -113.000;  -21.000
216.205; -228.600; -731.000; -779.000
216.349; -143.000; -470.000; -533.000
216.494; -289.500; -939.000; -867.000
216.639; -234.000; -823.000; -888.000
216.784; -185.100; -577.000; -525.000
216.929;  112.200;  392.000;  281.000
217.073;  -37.100; -244.000;  -31.000
217.218;   50.700;   78.000;  -47.000
217.363; -220.400; -656.000; -618.000
217.507; -157.400; -623.000; -588.000
217.652; -292.500; -845.000; -874.000
217.797; -188.200; -708.000; -659.000
217.942; -251.700; -856.000; -720.000
218.086;  161.000;  608.000;  539.000
218.231;  -79.700; -174.000;  -26.000
218.376;  -80.600; -337.000; -229.000
218.520;  -34.500;  -41.000;   96.000
218.665;  -54.100; -338.000; -204.000
218.810; -111.500; -275.000; -233.000
218.954;   51.300;  201.000;   35.000
219.099; -252.300; -713.000; -963.000
219.243; -133.800; -589.000; -554.000
219.388;  -76.000; -264.000; -136.000
219.532;  -23.400; -116.000; -116.000
219.677; -198.900; -564.000; -521.000
219.822;   26.600;   33.000;   89.000
219.966;   -2.800;   17.000;  -99.000
220.111;  -68.900; -328.000;  -40.000
220.255; -215.400; -797.000; -750.000
220.400;   -3.600; -180.000; -146.000
220.544; -149.900; -516.000; -450.000
220.689; -108.100; -422.000; -451.000
220.833;  -63.700; -123.000;  -58.000
220.978; -113.200; -393.000; -563.000
221.122;   48.600;  319.000;  307.000
221.267; -222.300; -906.000; -837.000
221.411; -147.600; -478.000; -394.000
221.555;  -26.300; -104.000;  -23.000
221.700; -120.200; -329.000; -222.000
221.844;   86.000;  255.000;  272.000
221.989; -124.600; -328.000; -311.000
222.133;  -48.800; -289.000; -307.000
222.277;  -11.700;    5.000;   78.000
222.422;   54.700;  227.000;  113.000
222.566;  -94.800; -381.000; -214.000
222.711; -112.900; -414.000; -479.000
222.855; -167.000; -643.000; -586.000
222.999; -173.400; -642.000; -717.000
223.144;  -41.900; -195.000; -194.000
223.288;  154.600;  423.000;  251.000
223.432;   12.500;  184.000;  230.000
223.576;   66.400;  152.000;  -21.000
223.721;   56.900;  364.000;  273.000
223.865;  -84.100; -472.000; -475.000
224.009;  593.600; 1673.000; 1631.000
224.153; -161.300; -660.000; -671.000
224.298; -186.400; -531.000; -489.000
224.442;    1.600;  -74.000;  -33.000
224.586;  -63.100; -169.000; -106.000
224.730; -226.300; -858.000; -670.000
224.875; -235.400; -739.000; -688.000
225.019;   49.800;  102.000;  188.000
225.163;  101.800;  208.000;  341.000
225.307;   63.000;   97.000;  -91.000
225.451;  114.600;  360.000;  481.000
225.595;   85.300;  264.000;  176.000
225.739;  -62.100; -170.000;  -94.000
225.884;   33.600;   86.000;    5.000
226.028; -204.800; -760.000; -626.000
226.172;  -75.200; -260.000; -273.000
226.316; -271.300; -941.000; -902.000
226.460; -151.000; -645.000; -493.000
226.604; -128.800; -406.000; -400.000
226.748; -210.700; -836.000; -733.000
226.892;  -87.800; -227.000; -181.000
227.036;  -88.200; -537.000; -447.000
227.180; -122.100; -551.000; -375.000
227.324; -153.200; -561.000; -580.000
227.468; -258.600; -819.000; -717.000
227.612;   46.400;  242.000;  -28.000
227.756; -200.300; -845.000; -698.000
227.900;  117.700;  342.000;  441.000
228.044; -149.700; -509.000; -290.000
228.188;  156.700;  448.000;  568.000
228.332; -186.400; -546.000; -472.000
228.476;  -70.800; -223.000; -149.000
228.620;  -90.700; -210.000; -150.000
228.764;  131.500;  431.000;  349.000
228.908;  -48.600; -155.000;   30.000
229.052; -116.200; -615.000; -528.000
229.195;  -55.200; -172.000;   13.000
229.339;  -10.500; -235.000; -305.000
229.483;  -77.400;    5.000; -162.000
229.627;    8.000; -156.000;  139.000
229.771; -134.500; -218.000; -294.000
229.915;   45.800;  230.000;   79.000
230.059; -210.300; -648.000; -663.000
230.202;  -35.200; -370.000; -317.000
230.346;  -61.500; -107.000;  107.000
230.490; -115.600; -489.000; -521.000
230.634; -272.700; -736.000; -553.000
230.777;  169.700;  478.000;  509.000
230.921; -121.200; -450.000; -359.000
231.065;  -94.900; -246.000; -286.000
231.209;   33.800;  261.000;  265.000
231.352;   58.400;   54.000;   40.000
231.496;   16.000;  568.000;  188.000
231.640; -180.900; -693.000; -621.000
231.783;   92.700;  546.000;  525.000
231.927;  -93.500; -294.000; -365.000
232.071; -264.500; -962.000; -736.000
232.214; -194.500; -980.000; -764.000
232.358; -193.600; -683.000; -599.000
232.502;   44.900;  -19.000;    7.000
232.645; -281.900;-1090.000; -927.000
232.789;  -47.800; -257.000; -218.000
232.933;  -87.300; -407.000; -224.000
233.076; -260.800;-1038.000; -897.000
233.220; -220.400; -752.000; -777.000
233.363; -174.300; -669.000; -477.000
233.507;  104.000;  371.000;  129.000
233.650; -182.100; -764.000; -834.000
233.794;   64.400;  438.000;  461.000
233.938; -127.400; -530.000; -362.000
234.081;  -55.700;  -93.000;   31.000
234.225; -128.400; -631.000; -539.000
234.368; -233.200; -773.000; -723.000
234.512;  -73.400; -385.000; -299.000
234.655; -203.600; -582.000; -555.000
234.798; -130.100; -493.000; -466.000
234.942; -296.400; -884.000;-1002.000
235.085; -163.100; -651.000; -443.000
235.229; -147.900; -405.000; -410.000
235.372;  -96.400; -247.000; -191.000
235.516; -156.000; -397.000; -321.000
235.659;   85.200;   92.000;  121.000
235.802;  -37.100;  -38.000;  -22.000
235.946;   75.400;  335.000;  215.000
236.089;   24.300;  126.000;  250.000
236.233;  136.500;  275.000;  298.000
236.376;  -88.500; -235.000; -378.000
236.519;  -67.600; -297.000; -319.000
236.663;  -60.500; -215.000; -117.000
236.806; -266.500;-1029.000; -999.000
236.949;  107.800;  543.000;  431.000
237.092;  154.000;  412.000;  391.000
237.236; -224.100; -589.000; -502.000
237.379;  149.000;  352.000;  428.000
237.522; -272.300; -879.000; -768.000
237.666;   20.100; -271.000;   18.000
237.809; -268.300; -851.000; -823.000
237.952;  105.700;  469.000;  271.000
238.095; -156.100; -447.000; -442.000
238.238;  197.900;  688.000;  700.000
238.382;  -18.300;  166.000;  103.000
238.525; -125.600; -598.000; -511.000
238.668; -305.000;-1060.000; -985.000
238.811; -131.700; -638.000; -643.000
238.954; -119.200; -483.000; -334.000
239.097;  221.600;  617.000;  664.000
239.241;   61.800;  394.000;  326.000
239.384;  -56.800; -254.000; -214.000
239.527; -116.800; -424.000; -224.000
239.670; -305.500; -994.000;-1091.000
239.813; -235.900; -696.000; -658.000
239.956;  171.200;  579.000;  473.000
240.099; -295.300; -778.000; -725.000
240.242;  161.100;  428.000;  432.000
240.385;   57.900;  466.000;  450.000
240.528; -156.400; -706.000; -473.000
240.671;   47.200;  189.000;  134.000
240.814;  -81.800; -441.000; -158.000
240.957; -226.400; -767.000; -578.000
241.100; -180.200; -779.000; -755.000
241.243; -306.300;-1234.000; -893.000
241.386; -109.000; -508.000; -379.000
241.529; -206.300; -735.000; -547.000
241.672; -116.100; -566.000; -495.000
241.815; -256.800; -832.000; -808.000
241.958;  -47.600; -125.000; -182.000
242.101; -179.100; -545.000; -390.000
242.244;  -80.000; -270.000; -325.000
242.387; -101.400; -304.000; -246.000
242.530;  146.000;  470.000;  134.000
242.673; -100.700; -381.000; -309.000
242.815; -256.100; -925.000; -899.000
242.958; -129.000; -482.000; -381.000
243.101;   37.800;  132.000;  187.000
243.244; -187.300; -564.000; -521.000
243.387;  -90.200; -313.000; -316.000
243.530; -227.800; -657.000; -674.000
243.672;   36.100;   43.000;  -92.000
243.815; -116.000; -355.000; -283.000
243.958;   14.700;   98.000;  -26.000
244.101;  -17.500;   59.000;  -16.000
244.243;    0.800;  -47.000;  101.000
244.386; -231.400; -761.000; -630.000
244.529;  -20.600; -132.000; -139.000
244.672; -338.200;-1154.000; -951.000
244.814; -210.400; -621.000; -794.000
244.957; -109.900; -380.000; -304.000
245.100; -149.100; -489.000; -489.000
245.242; -119.300; -387.000; -374.000
245.385;   37.600;  -59.000;  -39.000
245.528; -260.500; -871.000; -705.000
245.670;  220.100;  612.000;  634.000
245.813; -179.600; -599.000; -547.000
245.956;  -43.300; -324.000; -275.000
246.098; -158.700; -508.000; -650.000
246.241;   32.900;  194.000;   48.000
246.383;  -61.100; -119.000;  -73.000
246.526; -150.600; -454.000; -525.000
246.669; -277.500; -889.000; -780.000
246.811;   51.000;  172.000;   -1.000
246.954; -114.900; -512.000; -426.000
247.096;   -9.900;  -84.000;   -6.000
247.239; -140.700; -482.000; -445.000
247.381; -139.000; -647.000; -488.000
247.524;  171.600;  645.000;  679.000
247.666;    9.500;   58.000;   11.000
247.809; -247.100; -887.000; -691.000
247.951;  -10.400;  -75.000;  138.000
248.094;   66.200;  432.000;  308.000
248.236; -318.900;-1262.000;-1238.000
248.378;  -95.400; -356.000;  -81.000
248.521;  -71.300; -334.000; -337.000
248.663;  -91.100; -236.000; -267.000
248.806;  -69.800; -300.000; -266.000
248.948; -254.900; -886.000; -763.000
249.090; -134.200; -428.000; -398.000
249.233; -126.700; -344.000; -381.000
249.375; -104.900; -474.000; -451.000
249.518;  -62.700;  -83.000; -133.000
249.660;    8.900; -103.000;    3.000
249.802; -390.500;-1303.000;-1189.000
249.945; -150.900; -612.000; -540.000
250.087; -263.000; -834.000; -768.000
250.229; -117.200; -362.000; -480.000
250.371; -146.200; -494.000; -439.000
250.514; -103.700; -310.000; -244.000
250.656; -109.600;   69.000;  102.000
250.798; -256.000; -849.000; -800.000
250.940; -138.800; -322.000; -322.000
251.083;  -28.400; -335.000; -111.000
251.225;  115.400;  338.000;  310.000
251.367;  -74.800; -274.000; -373.000
251.509;  -40.300; -265.000; -210.000
251.651; -177.900; -731.000; -671.000
251.794;  122.100;  538.000;  632.000
251.936; -209.800; -821.000; -747.000
252.078; -162.500; -540.000; -461.000
252.220; -139.700; -645.000; -477.000
252.362;   64.200;  344.000;  462.000
252.504; -150.600; -677.000; -584.000
252.646; -246.000; -875.000; -722.000
252.788;   -7.800;   14.000; -128.000
252.931;  -97.300; -257.000; -253.000
253.073;  -84.000; -376.000; -317.000
253.215;  -17.400;  141.000;  122.000
253.357;    3.500;   82.000; -153.000
253.499; -103.400; -374.000; -234.000
253.641; -171.500; -749.000; -594.000
253.783; -237.300; -609.000; -527.000
253.925; -129.000; -586.000; -591.000
254.067; -236.800; -744.000; -667.000
254.209;  -64.400; -391.000; -259.000
254.351; -287.100; -865.000; -883.000
254.493; -144.400; -441.000; -417.000
254.635; -284.400; -936.000; -818.000
254.777; -192.300; -752.000; -687.000
254.918; -204.000; -512.000; -430.000
255.060; -134.100; -551.000; -395.000
255.202; -119.700; -473.000; -261.000
255.344; -156.200; -658.000; -455.000
255.486; -158.100; -471.000; -406.000
255.628; -209.700; -780.000; -781.000
255.770; -221.400; -676.000; -536.000
255.912; -115.800; -559.000; -468.000
256.053; -197.200; -730.000; -508.000
256.195;  342.000; 1008.000;  903.000
256.337; -237.500; -861.000; -595.000
256.479;  131.800;  532.000;  416.000
256.621;  -73.100; -394.000; -212.000
256.762; -178.700; -789.000; -742.000
256.904;   98.700;  485.000;  487.000
257.046;  -76.800; -381.000; -271.000
257.188; -121.000; -351.000; -264.000
257.329; -141.300; -525.000; -464.000
257.471; -258.200; -939.000; -807.000
257.613; -135.600; -584.000; -498.000
257.755; -311.100;-1073.000; -982.000
257.896;   88.800;  286.000;  392.000
258.038; -134.700; -403.000; -352.000
258.180;  -68.300; -354.000; -279.000
258.321; -149.500; -581.000; -457.000
258.463;    1.000;  -71.000;  133.000
258.605; -221.700; -562.000; -570.000
258.746; -194.400; -886.000; -772.000
258.888; -307.500;-1026.000;-1020.000
259.029;   65.700;  121.000;   -8.000
259.171; -198.000; -614.000; -550.000
259.313;   22.600;  -49.000;  -47.000
259.454; -171.000; -536.000; -414.000
259.596; -124.800; -483.000; -390.000
259.737; -186.200; -590.000; -474.000
259.879;   98.800;  217.000;  311.000
260.020;  148.800;  901.000;  636.000
260.162;  -38.300; -146.000; -253.000
260.303; -253.200; -768.000; -687.000
260.445; -159.400; -609.000; -613.000
260.586;   49.700;  392.000;  157.000
260.728;  -94.400; -360.000; -248.000
260.869; -180.100; -350.000; -343.000
261.011;  232.400;  706.000;  537.000
261.152; -149.000; -479.000; -319.000
261.293; -156.600; -576.000; -595.000
261.435;  -91.000; -219.000; -184.000
261.576;  -75.900; -455.000; -325.000
261.718;   93.300;  420.000;  470.000
261.859; -245.100; -940.000; -949.000
262.000; -287.800; -951.000;-1016.000
262.142;    4.800;  -52.000;  -60.000
262.283; -239.300; -808.000; -691.000
262.424; -171.300; -666.000; -625.000
262.566; -329.000;-1161.000; -983.000
262.707; -210.600; -840.000; -830.000
262.848; -260.700; -769.000; -726.000
262.990;  -94.800; -362.000; -345.000
263.131;  171.700;  650.000;  681.000
263.272;    6.900;  -61.000;  -41.000
263.413; -189.100; -589.000; -561.000
263.555; -121.400; -669.000; -143.000
263.696; -206.100; -550.000; -641.000
263.837;  -92.200; -449.000; -551.000
263.978;  -11.600;   -5.000;  -77.000
264.119;  -68.100; -283.000; -264.000
264.261; -272.300; -847.000; -630.000
264.402;    8.300;   33.000;   40.000
264.543; -137.100; -509.000; -524.000
264.684;   -5.100;   61.000;  -50.000
264.825; -154.400; -816.000; -538.000
264.966;   23.700;  -84.000;  -67.000
265.107; -231.000; -646.000; -670.000
265.248; -243.900; -825.000; -812.000
265.390;  -44.100;  152.000;   -9.000
265.531;  -36.300; -238.000; -107.000
265.672; -175.300; -557.000; -630.000
265.813;  137.500;  563.000;  439.000
265.954; -315.900; -959.000; -940.000
266.095;   -4.200; -372.000; -322.000
266.236; -223.200; -686.000; -548.000
266.377;  -87.200; -243.000; -297.000
266.518; -166.000; -619.000; -547.000
266.659;   64.700;  170.000;  268.000
266.800;   14.300;   83.000;   85.000
266.941; -134.100; -487.000; -478.000
267.082;   24.700;  354.000;   99.000
267.223;  -88.800; -344.000; -273.000
267.364; -249.200; -892.000; -686.000
267.504;    1.900;    3.000;  135.000
267.645;  -18.300;  160.000;   67.000
267.786;  -40.000; -147.000;  -86.000
267.927; -158.800; -473.000; -379.000
268.068;  -58.800; -186.000;  -61.000
268.209; -111.800; -175.000; -413.000
268.350;  -95.500; -388.000; -532.000
268.490; -195.500; -648.000; -521.000
268.631;  106.700;  127.000;  225.000
268.772; -248.900; -874.000; -647.000
268.913;  -85.200; -328.000; -476.000
269.054;  -38.100; -117.000;   12.000
269.194;  -76.900; -418.000; -402.000
269.335; -320.400;-1137.000;-1074.000
269.476;    9.900;   33.000;  -35.000
269.617; -116.900; -347.000; -392.000
269.757; -190.300; -713.000; -646.000
269.898; -218.400; -856.000; -613.000
270.039; -124.900; -415.000; -405.000
270.180; -288.900; -952.000; -816.000
270.320;  -52.700; -190.000; -250.000
270.461;  -78.600; -277.000; -249.000
270.602;    5.400; -186.000; -156.000
270.742; -281.200; -868.000; -943.000
270.883; -104.600; -442.000; -390.000
271.023; -113.400; -358.000; -357.000
271.164; -161.500; -607.000; -528.000
271.305; -222.100; -666.000; -654.000
271.445; -164.900; -722.000; -683.000
271.586; -168.600; -462.000; -283.000
271.726;  -87.100; -397.000; -322.000
271.867; -194.100; -594.000; -534.000
272.008;  -47.900; -473.000; -285.000
272.148;   79.500;  462.000;  468.000
272.289;  -33.600; -113.000; -181.000
272.429;  -31.900;   19.000;  185.000
272.570; -217.800; -633.000; -737.000
272.710; -255.100; -825.000; -775.000
272.851;  -26.500;  113.000; -130.000
272.991; -350.600;-1173.000;-1077.000
273.131; -125.000; -419.000; -459.000
273.272; -232.900; -683.000; -723.000
273.412;   -5.900; -143.000;  -31.000
273.553; -183.000; -488.000; -507.000
273.693;  243.300;  913.000;  858.000
273.834; -261.600; -894.000; -692.000
273.974; -174.600; -664.000; -615.000
274.114; -239.300; -772.000; -560.000
274.255;   88.100;  414.000;  373.000
274.395; -103.200; -180.000; -125.000
274.535;   47.900;  199.000;  350.000
274.676;   37.200;  225.000;   94.000
274.816;   20.400;  110.000;   34.000
274.956; -215.900; -624.000; -690.000
275.097; -255.100;-1014.000; -922.000
275.237; -277.300; -913.000; -803.000
275.377; -212.300; -778.000; -689.000
275.517; -327.300; -878.000; -937.000
275.658; -179.100; -590.000; -555.000
275.798; -180.000; -606.000; -413.000
275.938;   47.000;  215.000;  323.000
276.078; -195.300; -626.000; -395.000
276.218;    3.100;   99.000;  104.000
276.359; -311.100;-1026.000;-1024.000
276.499; -143.700; -605.000; -446.000
276.639;  -92.500; -305.000; -151.000
276.779;  -92.000; -475.000; -357.000
276.919; -244.400; -783.000; -624.000
277.059;  -24.000; -261.000; -212.000
277.199;  -91.900; -357.000; -259.000
277.340;   84.900;  287.000;  175.000
277.480; -225.700; -840.000; -693.000
277.620;  112.000;  192.000;   16.000
277.760; -414.600;-1533.000;-1294.000
277.900;   36.800;  113.000;   33.000
278.040;   -4.700;  137.000;  159.000
278.180;   70.700;  270.000;  170.000
278.320;   15.000;   21.000;   56.000
278.460; -116.000; -443.000; -469.000
278.600; -189.700; -708.000; -598.000
278.740;  122.800;  448.000;  224.000
278.880; -290.000; -768.000; -791.000
279.020;  -16.500; -194.000; -144.000
279.160; -220.300; -672.000; -595.000
279.300; -233.500; -926.000; -873.000
279.440; -237.000; -709.000; -622.000
279.579; -276.600;-1014.000; -929.000
279.719; -187.500; -410.000; -394.000
279.859;   71.500;   -4.000;   41.000
279.999;  -70.200; -208.000;  101.000
280.139;  -88.300; -435.000; -387.000
280.279; -239.800; -708.000; -745.000
280.419;  -21.100; -229.000; -147.000
280.559;  -64.800; -259.000; -180.000
280.698; -195.700; -790.000; -639.000
280.838; -238.200; -778.000; -800.000
280.978; -201.900; -846.000; -790.000
281.118; -267.000; -811.000; -704.000
281.257;   20.500;   24.000;    6.000
281.397; -335.300;-1094.000; -960.000
281.537; -207.300; -599.000; -712.000
281.677;  -80.700; -150.000; -101.000
281.816; -149.200; -700.000; -630.000
281.956;  -71.100; -193.000; -257.000
282.096; -134.800; -539.000; -396.000
282.235; -235.600; -672.000; -638.000
282.375;  -27.500; -243.000;  -98.000
282.515; -254.200; -715.000; -707.000
282.654;   25.900;   29.000;  106.000
282.794;   49.100;  388.000;  244.000
282.934; -136.100; -530.000; -491.000
283.073; -302.100;-1030.000; -857.000
283.213; -127.000; -460.000; -467.000
283.353; -150.400; -408.000; -349.000
283.492;  -53.500; -264.000; -296.000
283.632; -130.800; -254.000; -168.000
283.771; -176.500; -859.000; -730.000
283.911; -141.000; -369.000; -260.000
284.050; -239.700; -794.000; -748.000
284.190; -357.400;-1229.000;-1096.000
284.329; -282.300;-1055.000; -964.000
284.469; -176.700; -516.000; -591.000
284.608; -119.700; -559.000; -598.000
284.748; -166.500; -614.000; -570.000
284.887;   10.100;  -87.000;  -20.000
285.027; -258.500; -844.000; -892.000
285.166;  -47.300; -192.000; -249.000
285.306;  -23.100; -116.000;  -33.000
285.445; -102.800; -229.000; -343.000
285.584; -198.700; -630.000; -494.000
285.724;  -91.700; -282.000; -322.000
285.863; -268.900; -857.000; -507.000
286.002;  -58.300; -366.000; -276.000
286.142; -248.900; -715.000; -622.000
286.281; -165.100; -525.000; -493.000
286.420; -167.200; -554.000; -417.000
286.560;  228.600;  653.000;  623.000
286.699; -298.900; -958.000; -912.000
286.838; -179.500; -590.000; -591.000
286.978; -217.200; -533.000; -537.000
287.117; -267.700;-1085.000; -950.000
287.256;  -99.200; -228.000; -211.000
287.395; -110.500; -197.000; -378.000
287.535; -105.300; -370.000; -298.000
287.674; -164.100; -509.000; -484.000
287.813;  114.900;  661.000;  533.000
287.952; -276.600;-1010.000; -871.000
288.091; -340.900;-1049.000; -915.000
288.231;   18.000;   13.000;   15.000
288.370; -371.300;-1217.000;-1200.000
288.509; -189.900; -728.000; -645.000
288.648; -191.300; -770.000; -548.000
288.787;  -58.200; -243.000;  -87.000
288.926; -174.800; -454.000; -475.000
289.065;  235.200;  859.000;  672.000
289.204; -130.700; -377.000; -217.000
289.344; -182.800; -791.000; -690.000
289.483;   -4.000;  416.000;  304.000
289.622;  -75.300; -291.000; -149.000
289.761;  -34.100; -309.000; -166.000
289.900; -212.300; -785.000; -626.000
290.039;  -65.700;  -12.000;  -95.000
290.178;  -85.000; -274.000; -180.000
290.317; -179.000; -618.000; -479.000
290.456; -135.500; -463.000; -451.000
290.595; -325.500; -961.000; -833.000
290.734; -275.100; -904.000; -891.000
290.873; -147.500; -456.000; -420.000
291.011; -239.700; -833.000; -843.000
291.150; -225.500; -770.000; -682.000
291.289;  -31.900; -343.000; -110.000
291.428; -214.600; -599.000; -480.000
291.567;  -87.600; -370.000; -442.000
291.706;  -42.800;  109.000;  154.000
291.845; -200.700; -597.000; -505.000
291.984; -371.400;-1234.000;-1061.000
292.122;  170.900;  602.000;  582.000
292.261;   95.800;  620.000;  463.000
292.400;   37.200; -144.000;  211.000
292.539; -297.100; -959.000; -813.000
292.678;  -68.000; -325.000; -300.000
292.816; -341.200;-1136.000; -965.000
292.955; -230.900; -844.000; -684.000
293.094;  -79.100; -173.000; -337.000
293.233;  -85.700; -556.000; -400.000
293.371;  -81.600; -225.000;  -84.000
293.510; -212.200; -866.000; -780.000
293.649; -305.800; -959.000; -924.000
293.787; -316.100;-1083.000;-1012.000
293.926;  -47.700; -113.000;  -32.000
294.065;  -73.800; -379.000; -290.000
294.203;   97.500;  298.000;  406.000
294.342;   19.800;   74.000;  156.000
294.481;12333.200;51180.000; -836.000
294.619;  -27.500; -425.000; -582.000
294.758; -370.800;-1230.000;-1137.000
294.896;  -11.500; -125.000;    5.000
295.035; -335.700;-1040.000;-1006.000
295.174; -268.900;-1082.000; -954.000
295.312; -116.800; -323.000; -203.000
295.451; -114.400; -307.000; -428.000
295.589; -184.900; -389.000; -518.000
295.728;   19.400; -292.000; -165.000
295.866;  -35.100;  -36.000;  -51.000
296.005; -163.600; -584.000; -341.000
296.143; -219.800; -558.000; -596.000
296.282; -274.500; -957.000; -881.000
296.420; -205.000; -657.000; -557.000
296.559; -198.900; -892.000; -633.000
296.697; -284.400; -847.000; -665.000
296.835; -321.100;-1141.000;-1002.000
296.974;  -30.000;  -23.000;   39.000
297.112; -128.800; -443.000; -504.000
297.251; -262.500; -815.000; -755.000
297.389; -128.900; -576.000; -438.000
297.527;  -67.900; -145.000;  -83.000
297.666; -161.800; -486.000; -438.000
297.804; -132.700; -404.000; -264.000
297.942;  -18.700; -136.000; -161.000
298.081;  -38.900; -183.000;   63.000
298.219;    8.100;  -17.000;  -19.000
298.357;  -85.200; -144.000;  -71.000
298.495; -250.300; -810.000; -812.000
298.634;   -6.300;  245.000;  219.000
298.772;  -60.200; -220.000; -338.000
298.910; -111.200; -309.000; -182.000
299.048;  -22.900; -130.000; -153.000
299.187; -101.100; -350.000; -250.000
299.325;   15.200;   52.000;  122.000
299.463; -141.500; -389.000; -299.000
299.601;  -72.700; -327.000; -271.000
299.739; -306.600; -908.000; -883.000
299.877; -210.700; -791.000; -703.000
300.016; -365.400;-1095.000; -935.000
300.154;  -17.600;  -19.000; -161.000
300.292; -146.900; -428.000; -348.000
300.430; -106.300; -408.000; -291.000
300.568; -274.600; -940.000; -874.000
300.706; -117.900; -366.000; -469.000
300.844; -352.500;-1108.000; -979.000
300.982;  126.200;  246.000;  282.000
301.120; -327.400; -965.000; -866.000
301.258; -187.000; -812.000; -705.000
301.396;   -6.000;  104.000;  -41.000
301.534;  -48.600; -218.000; -293.000
301.672; -194.100; -664.000; -521.000
301.810; -166.800; -613.000; -545.000
301.948;   19.400;   53.000;  149.000
302.086;  -39.000; -250.000;  -32.000
302.224; -198.800; -610.000; -585.000
302.362; -172.600; -558.000; -622.000
302.500; -266.100; -923.000; -893.000
302.638;   35.000;  128.000;  245.000
302.776; -105.300; -352.000; -408.000
302.913;   89.000;  447.000;  236.000
303.051;  -91.600;  -86.000;  -23.000
303.189;   33.200;   90.000;  118.000
303.327; -129.300; -341.000; -256.000
303.465; -197.300; -832.000; -588.000
303.603; -229.700; -805.000; -604.000
303.740;  121.200;  417.000;  241.000
303.878; -252.700; -800.000; -759.000
304.016; -239.400; -915.000; -790.000
304.154; -361.400;-1123.000;-1152.000
304.291; -141.100; -505.000; -554.000
304.429;  -10.900;  102.000;   74.000
304.567; -275.600; -908.000; -893.000
304.705; -146.200; -408.000; -515.000
304.842; -184.400; -616.000; -540.000
304.980;   33.500;  215.000;   35.000
305.118;  -79.100; -367.000; -365.000
305.255; -297.700; -945.000; -927.000
305.393;   92.400;  178.000;  239.000
305.531; -314.800;-1173.000; -956.000
305.668; -185.000; -663.000; -582.000
305.806; -165.800; -358.000; -439.000
305.943; -155.700; -629.000; -637.000
306.081;  -87.900; -378.000; -267.000
306.219; -231.300; -863.000; -748.000
306.356;    2.000;  158.000;   27.000
306.494;  203.300;  981.000;  761.000
306.631;  -40.400;  -11.000;  -55.000
306.769; -127.300; -613.000; -485.000
306.906; -142.700; -284.000; -258.000
307.044; -125.300; -473.000; -488.000
307.181; -173.500; -410.000; -332.000
307.319;  103.200;  112.000;   87.000
307.456; -396.400;-1191.000;-1153.000
307.594; -244.800; -980.000; -727.000
307.731; -100.400; -371.000; -164.000
307.868;    8.500;  -15.000;   20.000
308.006; -328.800; -961.000; -847.000
308.143; -179.700; -618.000; -330.000
308.281;  -80.600;  -37.000; -254.000
308.418; -186.500; -748.000; -640.000
308.555; -216.600; -400.000; -250.000
308.693; -155.100; -577.000; -573.000
308.830; -253.900; -712.000; -657.000
308.967;   -9.100; -215.000;  -95.000
309.105; -162.600; -507.000; -396.000
309.242; -128.100; -468.000; -367.000
309.379; -235.200; -577.000; -655.000
309.517; -268.200; -936.000; -948.000
309.654; -254.600; -910.000; -734.000
309.791; -165.100; -662.000; -580.000
309.928; -331.100; -977.000; -914.000
310.065;  207.700;  819.000;  697.000
310.203; -285.900; -825.000; -850.000
310.340; -140.100; -465.000; -321.000
310.477; -232.800; -412.000; -516.000
310.614; -158.100; -383.000; -473.000
310.751; -197.700; -427.000; -518.000
310.889;  -27.900;    1.000;   11.000
311.026; -352.500;-1161.000; -939.000
311.163;  -96.300; -386.000; -380.000
311.300; -208.800; -512.000; -479.000
311.437; -177.300; -658.000; -619.000
311.574; -376.200;-1226.000; -985.000
311.711; -148.100; -595.000; -433.000
311.848; -121.900; -380.000; -388.000
311.985;   13.500;  270.000;   93.000
312.122; -327.800; -932.000; -762.000
312.259; -271.000; -941.000; -994.000
312.396; -209.400; -508.000; -551.000
312.533; -212.800; -812.000; -790.000
312.670; -349.600;-1070.000; -898.000
312.807;  -78.100; -352.000; -367.000
312.944; -209.200; -513.000; -611.000
313.081; -106.700; -150.000; -415.000
313.218; -303.100;-1111.000; -867.000
313.355; -117.000; -531.000; -449.000
313.492; -145.000; -455.000; -292.000
313.629;  191.600;  815.000;  735.000
313.766; -361.100;-1176.000;-1008.000
313.902;    4.100; -186.000;   21.000
314.039; -124.500; -372.000; -289.000
314.176;   57.800;  286.000;  192.000
314.313; -173.200; -569.000; -473.000
314.450; -185.600; -788.000; -684.000
314.587; -159.600; -468.000; -480.000
314.723;    6.900;  -78.000;  130.000
314.860;   10.100;  318.000;  332.000
314.997;   45.500;  223.000;  142.000
315.134; -161.000; -385.000; -368.000
315.270; -146.900; -480.000; -496.000
315.407; -357.600;-1094.000; -967.000
315.544; -159.400; -657.000; -538.000
315.681; -236.500; -681.000; -565.000
315.817;  -65.900; -133.000; -176.000
315.954; -199.500; -613.000; -392.000
316.091; -314.100;-1045.000;-1023.000
316.227;  -97.300;  -71.000; -179.000
316.364;   24.600;   23.000;    6.000
316.500;  -96.400; -113.000; -300.000
316.637; -128.700; -181.000; -302.000
316.774; -208.400; -625.000; -358.000
316.910; -199.900; -598.000; -629.000
317.047; -184.800; -487.000; -351.000
317.183; -168.700; -435.000; -566.000
317.320; -160.800; -367.000; -321.000
317.456; -242.500; -733.000; -805.000
317.593; -236.500; -598.000; -641.000
317.729;   33.300;  168.000;  -67.000
317.866; -475.800;-1434.000;-1285.000
318.002; -172.100; -708.000; -948.000
318.139; -279.400; -883.000; -867.000
318.275; -230.400;-1003.000; -738.000
318.412; -186.000; -517.000; -336.000
318.548; -183.400; -751.000; -720.000
318.685; -284.300; -985.000; -888.000
318.821; -244.700; -762.000; -735.000
318.957;  -75.400;   34.000;  -23.000
319.094;  102.600;  297.000;  154.000
319.230; -260.700; -756.000; -742.000
319.367; -140.300; -471.000; -520.000
319.503; -183.600; -538.000; -436.000
319.639; -263.600; -877.000; -793.000
319.775; -223.300; -750.000; -685.000
319.912; -114.300; -424.000; -519.000
320.048; -382.800;-1184.000;-1184.000
320.184;   18.700;   59.000;   70.000
320.321; -157.000; -497.000; -467.000
320.457;  134.700;  475.000;  662.000
320.593; -141.900; -375.000; -382.000
320.729; -218.700; -732.000; -734.000
320.866; -218.000; -577.000; -635.000
321.002; -232.400; -759.000; -809.000
321.138; -109.000; -135.000; -211.000
321.274;  -17.400; -148.000; -115.000
321.410; -195.600; -585.000; -353.000
321.546; -287.400;-1011.000; -911.000
321.683;   59.200;  400.000;  185.000
321.819;  -16.500;  -48.000; -117.000
321.955; -271.300; -743.000; -722.000
322.091; -124.300; -585.000; -540.000
322.227; -117.100; -382.000; -202.000
322.363; -122.300; -320.000; -215.000
322.499; -144.100; -343.000; -331.000
322.635;  166.100;  636.000;  443.000
322.771;  -81.100; -139.000;   12.000
322.907;   72.100;  129.000;  327.000
323.043; -109.900; -115.000; -206.000
323.179; -114.600; -394.000; -363.000
323.315; -147.800; -401.000; -371.000
323.451;  -71.300; -328.000; -236.000
323.587;  -88.300;  -60.000;  -77.000
323.723; -180.300; -682.000; -601.000
323.859;  -75.800; -258.000;  -76.000
323.995; -124.900; -467.000; -409.000
324.131; -319.800; -967.000; -892.000
324.267;  -45.400; -254.000; -276.000
324.402; -330.700; -960.000; -983.000
324.538;  -46.600; -279.000; -104.000
324.674;  -27.900;  164.000;   77.000
324.810;   35.900;  226.000;  308.000
324.946; -192.600; -810.000; -658.000
325.082; -153.700; -568.000; -475.000
325.217;  -61.500;  -62.000;   16.000
325.353; -220.800; -764.000; -659.000
325.489; -189.300; -540.000; -506.000
325.625; -139.200; -579.000; -525.000
325.760;   75.500;  517.000;  376.000
325.896; -159.200; -515.000; -702.000
326.032; -113.500; -403.000; -352.000
326.168; -114.700; -462.000; -369.000
326.303; -135.600; -352.000; -461.000
326.439;  -54.600; -336.000; -276.000
326.575;  -37.800; -190.000;  -29.000
326.710;  -41.100; -156.000;  -30.000
326.846;   -4.000;  146.000;  103.000
326.982; -157.600; -530.000; -548.000
327.117; -189.800; -481.000; -442.000
327.253; -244.600; -745.000; -742.000
327.388; -342.100;-1137.000;-1153.000
327.524; -214.400; -811.000; -578.000
327.659;  -45.200;  -58.000;  -22.000
327.795;   16.600;   69.000;   45.000
327.931; -262.900; -723.000; -499.000
328.066;  -84.000; -417.000; -276.000
328.202;  -95.100;   12.000; -129.000
328.337;  212.800;  957.000;  713.000
328.473;  -54.700;  -12.000;  -74.000
328.608;  -45.300; -256.000; -267.000
328.743; -291.400; -799.000; -664.000
328.879;   54.300;  214.000;  114.000
329.014; -148.800; -102.000; -122.000
329.150; -170.800; -358.000; -483.000
329.285; -193.300; -465.000; -466.000
329.421;  -82.100; -548.000; -246.000
329.556;  -41.600;  -36.000;   85.000
329.691; -184.500; -633.000; -615.000
329.827; -210.300; -626.000; -480.000
329.962;  -91.000;  131.000; -301.000
330.097; -243.200; -673.000; -585.000
330.233; -119.200; -410.000; -223.000
330.368; -278.200; -839.000; -628.000
330.503;   -7.200;    3.000;   98.000
330.638;  -46.500;  -93.000; -125.000
330.774; -165.500; -609.000; -530.000
330.909;  -90.600; -434.000; -244.000
331.044; -178.600; -714.000; -708.000
331.179; -370.600;-1217.000;-1109.000
331.315;   27.700;   77.000;   20.000
331.450;   31.800;  157.000;  285.000
331.585; -225.000; -805.000; -706.000
331.720; -213.900; -510.000; -460.000
331.855;  -46.200;  -35.000; -102.000
331.990;  -65.400;   62.000;  138.000
332.126;  -33.000; -110.000;   71.000
332.261; -160.100; -379.000; -265.000
332.396;  -84.700; -135.000; -242.000
332.531; -334.700;-1074.000;-1031.000
332.666; -154.000; -519.000; -363.000
332.801; -239.100; -726.000; -807.000
332.936;  -19.400; -192.000; -122.000
333.071; -288.200; -870.000; -817.000
333.206;   70.300;  307.000;  379.000
333.341;   55.900;  344.000;  418.000
333.476; -160.400; -627.000; -623.000
333.611; -105.800; -251.000; -173.000
333.746; -117.700; -381.000; -464.000
333.881; -300.100; -973.000; -935.000
334.016; -286.100; -936.000; -917.000
334.151; -277.200; -746.000; -702.000
334.286;   32.900;  152.000;  186.000
334.421;  -61.100; -125.000; -178.000
334.556; -188.400; -611.000; -567.000
334.690; -230.300; -631.000; -577.000
334.825;  155.800;  381.000;   83.000
334.960; -159.500; -285.000; -413.000
335.095;  -13.100;  135.000;  -91.000
335.230; -230.200; -722.000; -738.000
335.365; -297.300;-1084.000; -990.000
335.499; -361.400;-1108.000;-1037.000
335.634;   19.300;    9.000;  534.000
335.769; -250.300; -755.000; -720.000
335.904; -203.100; -603.000; -561.000
336.038; -266.700; -735.000; -657.000
336.173; -332.400;-1206.000;-1194.000
336.308; -103.400; -116.000; -189.000
336.443; -125.800; -544.000; -634.000
336.577; -313.000; -936.000; -787.000
336.712;    1.200;   -4.000;  -12.000
336.847; -254.600; -724.000; -607.000
336.981;  -82.100; -272.000; -208.000
337.116;  109.600;  615.000;  501.000
337.250; -157.400; -434.000; -421.000
337.385; -122.900; -297.000; -208.000
337.520; -168.400; -632.000; -603.000
337.654; -145.300; -215.000; -126.000
337.789; -263.900; -989.000; -933.000
337.923; -122.400; -104.000; -205.000
338.058; -232.400; -673.000; -738.000
338.192; -202.900; -611.000; -488.000
338.327;  -45.400;  -18.000; -155.000
338.461; -203.800; -299.000; -469.000
338.596; -225.100; -780.000; -638.000
338.730; -262.900; -767.000; -803.000
338.865;  -33.700;  -46.000; -140.000
338.999; -277.500; -846.000; -702.000
339.134; -194.700; -634.000; -536.000
339.268; -251.200; -741.000; -603.000
339.403; -214.900; -740.000; -775.000
339.537; -265.700; -894.000; -820.000
339.671; -248.800; -829.000; -813.000
339.806; -247.100; -556.000; -512.000
339.940;  -68.500; -261.000; -235.000
340.074; -227.300; -685.000; -510.000
340.209;  -78.400; -351.000; -230.000
340.343; -196.300; -517.000; -573.000
340.477;  316.000;  998.000; 1036.000
340.612; -307.400;-1033.000; -900.000
340.746; -119.800; -199.000; -243.000
340.880; -279.700; -924.000; -785.000
341.014;  -43.300;  -45.000; -154.000
341.149; -254.700; -756.000; -718.000
341.283; -251.800; -839.000; -754.000
341.417; -333.300;-1124.000; -938.000
341.551; -231.600; -768.000; -708.000
341.685; -223.000; -633.000; -611.000
341.820; -170.900; -562.000; -493.000
341.954; -160.100; -218.000; -349.000
342.088; -319.600;-1102.000;-1019.000
342.222;   57.000;  565.000;  618.000
342.356; -139.000; -395.000; -335.000
342.490; -277.300; -880.000; -841.000
342.624; -128.400; -339.000; -242.000
342.758; -122.700; -364.000; -312.000
342.892; -189.400; -710.000; -585.000
343.026; -108.800;  -58.000; -116.000
343.160;  -89.500; -426.000; -376.000
343.294; -177.300; -474.000; -337.000
343.428; -151.500; -488.000; -448.000
343.562;  -72.900; -172.000;  -23.000
343.696; -118.900; -385.000; -314.000
343.830; -119.600; -362.000; -356.000
343.964;  -67.100; -231.000; -168.000
344.098;  -39.400;  199.000;   70.000
344.232;  -55.700; -266.000; -127.000
344.366; -230.700; -567.000; -453.000
344.500; -206.500; -665.000; -744.000
344.634; -144.300; -324.000; -164.000
344.768; -159.000; -531.000; -341.000
344.902;   29.600;  278.000;  256.000
345.035; -142.800; -556.000; -496.000
345.169; -271.400; -933.000; -656.000
345.303; -122.500; -308.000; -482.000
345.437; -263.000; -826.000; -717.000
345.571; -227.000; -675.000; -594.000
345.704; -174.800; -309.000; -532.000
345.838; -107.100; -331.000; -284.000
345.972; -192.900; -543.000; -495.000
346.106;    5.800; -179.000; -190.000
346.239; -143.800; -312.000; -243.000
346.373; -108.300; -343.000; -302.000
346.507; -358.700; -950.000; -962.000
346.640;  -44.200;  -30.000;   13.000
346.774; -256.400; -650.000; -797.000
346.908;  -55.600; -138.000;  -11.000
347.041; -208.600; -646.000; -593.000
347.175;   31.500;  259.000;   27.000
347.309; -232.500; -698.000; -628.000
347.442; -264.700; -883.000; -732.000
347.576;  161.100;  670.000;  668.000
347.709;  -14.300; -123.000;  -52.000
347.843; -308.600; -933.000; -825.000
347.976;   82.900;  235.000;  294.000
348.110; -407.700;-1268.000;-1186.000
348.243; -198.300; -679.000; -772.000
348.377;  -53.300;  -26.000;   60.000
348.510;   91.200;  403.000;  540.000
348.644; -118.600;  -37.000; -159.000
348.777;   18.500;  180.000;  191.000
348.911; -103.000; -142.000; -112.000
349.044;  100.000;  471.000;  448.000
349.178; -376.000;-1069.000;-1006.000
349.311;   51.200;  141.000;  255.000
349.444; -305.200; -927.000; -813.000
349.578;  -76.000; -347.000; -200.000
349.711; -303.200; -959.000; -862.000
349.845; -214.500; -661.000; -591.000
349.978; -413.100;-1224.000;-1137.000
350.111; -209.500; -546.000; -612.000
350.244; -239.400; -596.000; -700.000
350.378; -131.100; -392.000; -393.000
350.511; -151.900; -393.000; -426.000
350.644; -235.600; -808.000; -806.000
350.778;  -50.200;  168.000;  104.000
350.911;   -4.200;  134.000;  140.000
351.044; -231.100; -685.000; -615.000
351.177;  -90.300; -321.000; -281.000
351.310;  -69.100;    3.000; -131.000
351.444; -260.900; -888.000; -788.000
351.577;   -6.600;  140.000;   90.000
351.710;  188.200;  593.000;  417.000
351.843;  -88.900; -165.000;  -77.000
351.976;   -4.000;  149.000;  -79.000
352.109; -236.600; -621.000; -612.000
352.242; -130.800; -464.000; -419.000
352.376; -248.500; -580.000; -636.000
352.509; -109.200; -437.000; -356.000
352.642; -346.900; -654.000; -604.000
352.775;  -43.300; -141.000;  -98.000
352.908; -318.000; -933.000; -904.000
353.041; -262.500; -814.000; -824.000
353.174; -187.800; -551.000; -424.000
353.307; -219.400; -753.000; -764.000
353.440;  119.100;  541.000;  453.000
353.573; -281.800; -957.000;-1008.000
353.706; -180.800; -384.000; -558.000
353.839;  -94.500; -264.000; -220.000
353.971; -232.200; -657.000; -512.000
354.104; -251.700; -896.000; -835.000
354.237; -239.200; -627.000; -662.000
354.370; -230.800; -846.000; -879.000
354.503; -414.800;-1231.000;-1308.000
354.636; -132.300; -529.000; -348.000
354.769; -344.500; -937.000; -860.000
354.902;  -93.600; -230.000; -139.000
355.034; -103.700; -164.000; -220.000
355.167;  -70.100; -262.000; -162.000
355.300; -331.600;-1061.000; -880.000
355.433;  -15.800;  -71.000;  -14.000
355.565; -187.000; -402.000; -384.000
355.698; -116.000; -356.000; -296.000
355.831; -295.100; -882.000; -801.000
355.964;  -73.800; -285.000; -170.000
356.096; -274.800; -856.000; -843.000
356.229; -215.400; -523.000; -530.000
356.362; -114.500; -373.000; -266.000
356.494;  -82.400; -229.000; -162.000
356.627;   13.300;  269.000;  377.000
356.760;   10.400;  120.000;   53.000
356.892; -227.300; -286.000; -601.000
357.025;   96.100;  403.000;  389.000
357.157;  -83.400; -167.000; -179.000
357.290; -266.600; -856.000; -713.000
357.423; -218.000; -667.000; -556.000
357.555;  -55.300; -217.000; -228.000
357.688; -191.200; -483.000; -364.000
357.820; -271.000; -870.000; -877.000
357.953; -193.500; -563.000; -589.000
358.085; -205.600; -632.000; -612.000
358.218; -339.100;-1131.000; -932.000
358.350;   -1.300;  -58.000;  312.000
358.483; -386.400;-1300.000;-1187.000
358.615; -324.400;-1182.000;-1078.000
358.747; -385.800;-1187.000;-1058.000
358.880; -221.200; -810.000; -744.000
359.012; -154.700; -376.000; -202.000
359.145; -163.100; -480.000; -511.000
359.277; -323.600; -962.000; -913.000
359.409;   95.800;  536.000;  231.000
359.542; -275.400; -738.000; -688.000
359.674;    1.500;   46.000;   13.000
359.806; -181.400; -565.000; -438.000
359.939; -150.400; -617.000; -516.000
360.071; -207.300; -583.000; -579.000
360.203;  -97.500; -411.000; -364.000
360.335;  -24.000;  164.000;  -16.000
360.468;  -86.500; -249.000; -307.000
360.600; -185.700; -547.000; -454.000
360.732; -195.800; -546.000; -423.000
360.864; -383.900;-1216.000;-1044.000
360.996; -146.200; -516.000; -554.000
361.129; -204.400; -389.000; -598.000
361.261;   -9.200;  110.000; -113.000
361.393; -130.100; -252.000; -214.000
361.525;   12.100;   94.000;  244.000
361.657; -255.800; -821.000; -703.000
361.789;  -50.600; -139.000; -155.000
361.921; -219.400; -642.000; -593.000
362.053;  124.700;  524.000;  541.000
362.185;  -15.300;  288.000;   72.000
362.318; -241.900; -709.000; -705.000
362.450;   13.800;  294.000;  444.000
362.582; -265.900; -913.000; -870.000
362.714; -129.900; -353.000; -332.000
362.846; -165.000; -606.000; -490.000
362.978; -315.500; -941.000; -811.000
363.109; -126.100; -161.000; -260.000
363.241; -261.900; -739.000; -749.000
363.373; -209.800; -649.000; -564.000
363.505;  -49.300; -186.000;  -91.000
363.637; -205.000; -787.000; -601.000
363.769; -360.500;-1067.000;-1080.000
363.901; -189.900; -596.000; -654.000
364.033; -347.700;-1103.000;-1062.000
364.165;  -77.100; -283.000; -283.000
364.296; -142.800; -316.000; -177.000
364.428; -392.900;-1344.000;-1220.000
364.560; -232.300; -679.000; -661.000
364.692; -185.900; -738.000; -835.000
364.824; -232.400; -588.000; -456.000
364.955; -122.700; -402.000; -564.000
365.087; -362.200;-1097.000; -852.000
365.219; -229.100; -686.000; -816.000
365.351; -205.000; -526.000; -572.000
365.482;   55.400;  300.000;  240.000
365.614; -140.100; -402.000; -314.000
365.746; -217.400; -729.000; -752.000
365.877; -250.500; -706.000; -672.000
366.009;  -30.200;  -35.000;  -62.000
366.141; -387.200;-1249.000;-1134.000
366.272; -229.100; -803.000; -719.000
366.404; -289.100;-1005.000; -874.000
366.535;  -21.700; -139.000;  -12.000
366.667; -263.800; -644.000; -649.000
366.799;   63.800;  353.000;  203.000
366.930; -331.600; -862.000; -996.000
367.062; -180.200; -639.000; -613.000
367.193; -306.600; -872.000; -842.000
367.325; -177.600; -580.000; -684.000
367.456; -127.900; -246.000;   31.000
367.588; -125.900; -371.000; -318.000
367.719; -123.200;  -44.000;  -45.000
367.851;  -71.600; -222.000; -241.000
367.982; -313.200; -875.000; -732.000
368.113; -150.700; -475.000; -358.000
368.245; -332.800; -960.000; -841.000
368.376;  -86.200; -254.000; -302.000
368.508; -133.100; -188.000; -263.000
368.639; -333.400;-1166.000;-1034.000
368.770; -250.400; -670.000; -589.000
368.902; -289.700; -836.000; -926.000
369.033; -322.900; -906.000; -855.000
369.164; -206.000; -720.000; -653.000
369.296; -268.200; -452.000; -601.000
369.427;  -54.100; -209.000; -144.000
369.558; -202.200; -593.000; -377.000
369.689; -192.700; -721.000; -569.000
369.821; -343.000; -951.000; -845.000
369.952;  -32.600;   42.000; -108.000
370.083; -129.500; -229.000; -108.000
370.214; -189.600; -735.000; -650.000
370.345;  -61.400;   65.000;   81.000
370.477; -268.100; -810.000; -790.000
370.608;  -98.900; -328.000; -264.000
370.739; -338.100;-1233.000;-1292.000
370.870; -307.000;-1102.000; -923.000
371.001; -145.700; -378.000; -467.000
371.132; -243.300; -754.000; -735.000
371.263;  -39.200;  -42.000; -148.000
371.394; -267.500; -841.000; -748.000
371.525;   66.000;  345.000;  225.000
371.657; -281.300; -808.000; -670.000
371.788;   53.400;  103.000;  199.000
371.919; -137.800; -384.000; -304.000
372.050;  -27.200;  -91.000; -156.000
372.181;  -89.400; -188.000; -294.000
372.311;  -23.000;   42.000; -127.000
372.442; -180.900; -457.000; -451.000
372.573; -114.900; -444.000; -340.000
372.704; -336.600;-1008.000; -980.000
372.835;  -84.600; -228.000; -289.000
372.966; -256.900; -646.000; -554.000
373.097; -232.200; -575.000; -711.000
373.228; -248.700; -717.000; -542.000
373.359; -230.400; -824.000; -536.000
373.490; -266.000; -881.000; -727.000
373.620; -275.300;-1001.000; -803.000
373.751; -180.800; -332.000; -396.000
373.882; -207.400; -663.000; -733.000
374.013; -150.900; -449.000; -262.000
374.143; -206.800; -581.000; -659.000
374.274; -309.700; -987.000; -908.000
374.405;  -99.700; -388.000; -276.000
374.536; -192.400; -526.000; -387.000
374.666; -252.700; -759.000; -807.000
374.797; -279.300; -817.000; -868.000
374.928; -216.900; -710.000; -560.000
375.058; -228.300; -535.000; -500.000
375.189;  -74.000;  -59.000;  -93.000
375.320; -327.200; -928.000;-1034.000
375.450; -221.300; -625.000; -616.000
375.581; -218.100; -526.000; -436.000
375.712;  -91.500; -574.000; -250.000
375.842; -214.900; -438.000; -415.000
375.973; -193.000; -554.000; -513.000
376.103; -269.000; -665.000; -648.000
376.234; -218.700; -531.000; -552.000
376.364; -333.900; -944.000; -867.000
376.495;  247.200;  925.000;  529.000
376.625; -208.100; -472.000; -485.000
376.756; -219.200; -709.000; -678.000
376.886; -393.700;-1178.000;-1026.000
377.017; -312.400;-1048.000;-1061.000
377.147; -300.800; -786.000; -782.000
377.278;   10.400;  174.000;  228.000
377.408; -271.100; -801.000; -815.000
377.538; -216.000; -707.000; -693.000
377.669; -195.500; -537.000; -613.000
377.799; -229.500; -645.000; -635.000
377.929; -227.700; -610.000; -428.000
378.060; -282.900; -781.000; -847.000
378.190; -237.000; -726.000; -531.000
378.320; -130.000; -401.000; -406.000
378.451;  -70.000; -131.000;  -22.000
378.581;  -25.500;  -67.000; -110.000
378.711;  153.500; 1035.000;  866.000
378.841; -177.300; -533.000; -675.000
378.972; -329.200; -871.000; -751.000
379.102; -199.800; -652.000; -579.000
379.232; -150.800; -126.000;  -73.000
379.362; -304.200;-1001.000; -885.000
379.492; -221.100; -373.000; -424.000
379.623;   40.500;    0.000;  111.000
379.753; -347.800;-1107.000; -974.000
379.883;   23.500;   59.000;  156.000
380.013; -356.900;-1081.000;-1017.000
380.143; -336.900;-1097.000;-1056.000
380.273; -306.600; -985.000; -861.000
380.403;  -81.800; -344.000; -257.000
380.533; -278.600; -651.000; -664.000
380.663;   46.000;  173.000;  128.000
380.793; -378.800;-1027.000;-1074.000
380.923;  -60.800; -103.000;  -34.000
381.053; -245.000; -613.000; -623.000
381.183;  -61.500; -106.000; -248.000
381.313; -226.800; -656.000; -470.000
381.443; -173.500; -692.000; -473.000
381.573; -176.400; -402.000; -409.000
381.703; -359.100;-1249.000;-1095.000
381.833; -445.000;-1454.000;-1336.000
381.963;   12.100; -134.000;  -87.000
382.093; -343.200; -925.000; -909.000
382.223; -201.400; -713.000; -602.000
382.353; -280.800; -801.000; -608.000
382.482; -327.700;-1091.000; -964.000
382.612; -263.500; -872.000; -644.000
382.742; -231.000; -695.000; -622.000
382.872; -181.100; -565.000; -551.000
383.002;   12.300;  347.000; -132.000
383.131; -139.800; -226.000; -160.000
383.261; -204.300; -706.000; -768.000
383.391; -202.600; -552.000; -377.000
383.521;   85.600;  451.000;  263.000
383.650; -307.100; -947.000; -904.000
383.780; -203.600; -783.000; -656.000
383.910;  152.100;  880.000;  802.000
384.039; -268.100; -794.000; -656.000
384.169; -396.700;-1205.000;-1017.000
384.299; -214.500; -650.000; -662.000
384.428; -272.400; -764.000; -680.000
384.558; -103.500; -308.000; -275.000
384.687; -199.200; -414.000; -334.000
384.817;  -20.900;   75.000;   -2.000
384.947; -113.000; -234.000; -141.000
385.076;  276.000;  982.000;  912.000
385.206;   67.200;  369.000;  480.000
385.335; -153.700; -549.000; -417.000
385.465; -274.600; -655.000; -663.000
385.594;  -37.000;  -53.000;  -44.000
385.724; -313.500; -868.000; -838.000
385.853; -115.400; -296.000; -270.000
385.982; -288.700; -743.000; -787.000
386.112; -263.800;-1052.000; -871.000
386.241; -158.800; -307.000; -312.000
386.371;  -75.000; -174.000;  -87.000
386.500; -312.900; -825.000; -789.000
386.629; -238.000; -874.000; -817.000
386.759;  -40.200;  -43.000;   68.000
386.888;  -75.800; -170.000; -250.000
387.017; -205.000; -648.000; -620.000
387.147; -240.000; -771.000; -798.000
387.276; -200.400; -410.000; -397.000
387.405; -110.800; -398.000; -342.000
387.535; -161.800; -452.000; -361.000
387.664; -213.900; -692.000; -620.000
387.793;  -82.400; -198.000; -113.000
387.922;   29.000;  255.000;  200.000
388.052; -210.000; -576.000; -423.000
388.181; -152.500; -342.000; -472.000
388.310; -297.700; -889.000; -710.000
388.439; -260.200; -749.000; -742.000
388.568;   16.900;  365.000;  244.000
388.697; -194.200; -756.000; -653.000
388.826; -218.000; -768.000; -666.000
388.956;  -93.100; -285.000; -307.000
389.085; -177.300; -347.000; -287.000
389.214; -251.900; -842.000; -872.000
389.343; -219.200; -645.000; -413.000
389.472;   66.200;  126.000;  149.000
389.601;  -49.100;   91.000;    0.000
389.730; -180.900; -568.000; -687.000
389.859;    1.100;  226.000;   46.000
389.988; -139.800; -423.000; -408.000
390.117; -153.700; -168.000; -146.000
390.246; -144.600; -331.000; -320.000
390.375; -247.700; -673.000; -626.000
390.504; -215.300; -703.000; -621.000
390.633; -279.300; -672.000; -726.000
390.761; -234.200; -732.000; -645.000
390.890;  -66.600;   -4.000; -130.000
391.019; -142.300; -421.000; -441.000
391.148; -312.200; -826.000; -855.000
391.277; -184.400; -576.000; -493.000
391.406; -294.100; -821.000; -805.000
391.534;   53.300;  574.000; -301.000
391.663; -210.500; -583.000; -645.000
391.792; -215.800; -673.000; -701.000
391.921;  -74.400;   -3.000;   15.000
392.050;  -88.500; -287.000; -228.000
392.178; -388.600;-1206.000;-1061.000
392.307; -260.100; -758.000; -712.000
392.436; -265.500; -427.000; -641.000
392.564;  -10.300;  166.000;   -6.000
392.693; -285.600; -860.000; -682.000
392.822; -193.300; -529.000; -534.000
392.950; -257.700; -880.000; -714.000
393.079; -132.100; -188.000; -328.000
393.208; -188.400; -488.000; -511.000
393.336;  -68.000; -170.000; -145.000
393.465; -118.000; -317.000; -199.000
393.593;   -5.900;   62.000;   79.000
393.722; -332.400;-1121.000; -916.000
393.850;  -42.800; -188.000;  -61.000
393.979; -329.500; -926.000; -805.000
394.107; -207.000; -517.000; -537.000
394.236; -200.100; -570.000; -507.000
394.364;   56.300;  383.000;  206.000
394.493; -305.000; -911.000; -767.000
394.621; -238.700; -955.000; -916.000
394.750; -293.800; -873.000; -923.000
394.878;  -99.000; -247.000; -149.000
395.007; -277.900; -721.000; -807.000
395.135; -239.500; -790.000; -721.000
395.263; -353.700;-1038.000;-1040.000
395.392;   -8.100;  -25.000; -107.000
395.520; -303.800; -818.000; -679.000
395.648; -294.000; -865.000; -915.000
395.777; -200.300; -366.000; -405.000
395.905; -166.300; -449.000; -564.000
396.033;   -6.600;  217.000;  172.000
396.162; -133.100; -399.000; -453.000
396.290;  -50.200;  -17.000;   -2.000
396.418; -161.900; -555.000; -514.000
396.546; -274.900; -571.000; -466.000
396.674; -283.800; -850.000; -878.000
396.803;  -80.700;  -72.000;  -23.000
396.931;  -65.000; -179.000; -199.000
397.059; -350.000;-1026.000; -989.000
397.187; -288.800;-1026.000; -975.000
397.315; -281.700; -884.000; -649.000
397.443; -206.600; -592.000; -443.000
397.572; -246.600; -578.000; -424.000
397.700; -197.000; -607.000; -614.000
397.828;  -43.900;  120.000;  -90.000
397.956; -159.500; -508.000; -478.000
398.084; -271.800; -767.000; -626.000
398.212;   11.600;  137.000;  124.000
398.340;  -46.000;  -56.000;  159.000
398.468;  -90.700; -390.000; -169.000
398.596; -304.900; -993.000; -953.000
398.724; -262.300; -762.000; -767.000
398.852; -321.300;-1024.000; -976.000
398.980; -186.200; -560.000; -560.000
399.108; -252.200; -982.000; -735.000
399.236;   -3.900;   13.000;    8.000
399.363;  -16.500;  222.000;  196.000
399.491; -129.000; -404.000; -398.000
399.619; -318.900; -829.000; -800.000
399.747; -271.900; -859.000; -771.000
399.875;   14.300;  220.000;  234.000
400.003; -141.100; -359.000; -284.000
400.130; -196.200; -421.000; -341.000
400.258;  -44.800;  -83.000;   38.000
400.386; -121.700; -352.000; -168.000
400.514; -168.300; -526.000; -587.000
400.641; -330.600; -928.000; -802.000
400.769; -292.300; -979.000; -888.000
400.897; -286.500; -838.000; -793.000
401.025;  -71.500; -166.000; -152.000
401.152;  -47.400;  220.000;   38.000
401.280; -141.700; -430.000; -429.000
401.408; -247.800; -712.000; -576.000
401.535; -210.700; -735.000; -758.000
401.663; -402.500;-1134.000;-1054.000
401.790; -154.100; -514.000; -525.000
401.918;   98.400;  436.000;  405.000
402.046;    8.800;  134.000;  122.000
402.173;  -86.000;  -18.000;    7.000
402.301; -140.200; -519.000; -397.000
402.428;   57.300;  528.000;  383.000
402.556; -320.200;-1188.000; -913.000
402.683;  -89.200;  -20.000;   -1.000
402.811;  -24.400;  -37.000; -206.000
402.938;  -42.600;   20.000;   27.000
403.066; -201.900; -574.000; -558.000
403.193;  -65.500;  299.000;  239.000
403.321; -160.500; -396.000; -574.000
403.448;  -31.900;   83.000;   27.000
403.575;  -51.200;  -90.000;  -46.000
403.703; -257.100; -732.000; -557.000
403.830; -161.300; -531.000; -496.000
403.957; -353.000;-1117.000;-1023.000
404.085;  -92.800;  -61.000; -172.000
404.212;  -57.000;  -50.000;   63.000
404.339; -156.700; -566.000; -306.000
404.467; -184.300; -612.000; -524.000
404.594; -111.500; -287.000; -227.000
404.721; -226.000; -869.000; -764.000
404.848;  -77.300; -113.000; -202.000
404.976; -320.400; -856.000; -783.000
405.103;  -18.200;  -14.000;  -82.000
405.230;  -18.800;  190.000;  226.000
405.357;  -24.000;  117.000;   44.000
405.484;  -87.700;  -49.000;    5.000
405.612; -153.100; -548.000; -563.000
405.739; -168.500; -488.000; -243.000
405.866;  185.100;  669.000;  385.000
405.993; -146.600; -398.000; -102.000
406.120; -283.100; -801.000; -887.000
406.247; -173.500; -323.000; -342.000
406.374;  175.100;  540.000;  629.000
406.501; -233.700; -632.000; -702.000
406.628; -169.600; -621.000; -589.000
406.755; -262.100; -803.000; -620.000
406.882; -119.500; -228.000; -277.000
407.009; -283.600; -719.000; -628.000
407.136; -136.700; -480.000; -401.000
407.263; -336.200; -939.000; -829.000
407.390; -222.500; -692.000; -614.000
407.517; -388.200;-1139.000;-1187.000
407.644; -126.400; -332.000; -256.000
407.771; -182.600; -249.000; -287.000
407.898;   18.000;  168.000;  328.000
408.025; -160.000; -421.000; -313.000
408.151;    9.200;   82.000;  153.000
408.278; -137.000; -267.000; -216.000
408.405; -273.700; -931.000; -899.000
408.532; -209.400; -549.000; -542.000
408.659; -197.400; -677.000; -648.000
408.785; -425.800;-1298.000;-1170.000
408.912; -124.000; -412.000; -296.000
409.039; -227.900; -610.000; -686.000
409.166; -176.500; -591.000; -555.000
409.292; -215.500; -571.000; -534.000
409.419; -176.500; -665.000; -649.000
409.546; -178.300; -431.000; -192.000
409.672; -189.600; -713.000; -545.000
409.799;  -72.500;  -36.000;   34.000
409.926;  -93.800; -180.000; -179.000
410.052; -386.400;-1127.000;-1091.000
410.179; -174.700; -368.000; -392.000
410.305; -187.000; -375.000; -493.000
410.432;  -79.200; -220.000; -333.000
410.558; -199.000; -305.000; -380.000
410.685; -219.600; -688.000; -431.000
410.812; -216.900; -409.000; -588.000
410.938; -290.000; -964.000; -808.000
411.065; -237.100; -671.000; -645.000
411.191;  -55.900; -189.000; -174.000
411.317; -305.700; -823.000; -742.000
411.444; -132.200; -317.000; -246.000
411.570; -146.600; -339.000; -294.000
411.697; -196.400; -758.000; -752.000
411.823; -371.800; -989.000; -999.000
411.949;  -89.700;  -56.000;   17.000
412.076; -239.200; -539.000; -519.000
412.202; -254.000; -758.000; -757.000
412.329; -252.300; -798.000; -752.000
412.455; -235.900; -821.000; -657.000
412.581;  -43.900;  -15.000;  172.000
412.707; -169.300; -540.000; -457.000
412.834;  -17.300;  156.000;  219.000
412.960; -265.200; -785.000; -784.000
413.086; -288.100; -743.000; -701.000
413.212;  114.000;  604.000;  578.000
413.339; -299.400; -685.000; -701.000
413.465; -131.800; -364.000; -310.000
413.591; -327.000; -757.000; -474.000
413.717; -136.000; -358.000; -366.000
413.843; -308.200; -839.000; -861.000
413.969; -137.400;  -47.000; -292.000
414.096; -279.400; -679.000; -679.000
414.222;  -25.900;  -33.000;   85.000
414.348; -233.600; -652.000; -385.000
414.474;  -44.500;   38.000;  -52.000
414.600; -104.700; -126.000; -144.000
414.726;  -71.700;  -96.000;  -55.000
414.852; -197.500; -365.000; -342.000
414.978;    7.200;  104.000;  -18.000
415.104;  -73.900;   38.000;   80.000
415.230; -103.900; -329.000; -330.000
415.356; -227.400; -409.000; -514.000
415.482;  -60.600;   13.000;  -35.000
415.608; -173.900; -247.000; -323.000
415.734;   -7.700;   67.000;   38.000
415.860; -278.100; -875.000; -767.000
415.986; -230.300; -685.000; -607.000
416.111; -285.900; -798.000; -652.000
416.237; -167.900; -424.000; -571.000
416.363; -284.700; -765.000; -733.000
416.489; -131.400; -324.000; -251.000
416.615; -276.900; -707.000; -742.000
416.741; -241.000; -677.000; -784.000
416.866; -282.100; -673.000; -736.000
416.992; -262.500; -801.000; -818.000
417.118; -134.100;  -41.000;  -80.000
417.244; -219.700; -798.000; -531.000
417.369; -295.500; -801.000; -612.000
417.495; -141.100; -325.000; -254.000
417.621; -356.100;-1015.000; -803.000
417.746; -185.500; -579.000; -572.000
417.872; -138.700; -254.000; -144.000
417.998; -166.800; -515.000; -530.000
418.123; -367.100;-1073.000; -845.000
418.249; -168.700; -512.000; -601.000
418.374; -330.300; -916.000; -824.000
418.500; -186.700; -383.000; -482.000
418.626;  -53.800;   70.000;  -59.000
418.751; -168.400; -549.000; -448.000
418.877; -278.700; -637.000; -643.000
419.002; -164.000; -688.000; -560.000
419.128; -324.300; -930.000; -721.000
419.253; -318.700; -967.000; -837.000
419.379; -235.100; -391.000; -338.000
419.504;   43.500;  325.000;  415.000
419.629; -152.000; -393.000; -212.000
419.755;  -89.800; -317.000; -254.000
419.880; -120.000;  -98.000;   67.000
420.006; -134.000; -280.000; -221.000
420.131; -255.300; -662.000; -775.000
420.256; -131.200; -315.000; -316.000
420.382; -269.300; -665.000; -687.000
420.507; -247.200; -649.000; -778.000
420.632; -183.900; -337.000; -339.000
420.758; -109.300; -251.000; -425.000
420.883; -259.500; -876.000; -672.000
421.008; -238.600; -775.000; -619.000
421.133; -202.600; -509.000; -467.000
421.259; -142.600; -325.000; -259.000
421.384; -303.400; -834.000; -693.000
421.509; -266.900;-1052.000; -862.000
421.634; -343.700; -936.000; -820.000
421.759; -168.000; -359.000; -327.000
421.885; -256.000; -717.000; -656.000
422.010; -183.400; -673.000; -542.000
422.135; -285.600; -695.000; -727.000
422.260;   76.000;  340.000;  280.000
422.385; -138.200;   12.000;  -98.000
422.510;  -18.100;  151.000;  -26.000
422.635;  -90.000;  -87.000;  -43.000
422.760; -229.200; -766.000; -791.000
422.885;  -40.800;  -57.000;  -80.000
423.010;  -37.200; -112.000; -169.000
423.135; -226.400; -481.000; -561.000
423.260;  -86.100; -150.000; -245.000
423.385;   21.400;  476.000;  222.000
423.510;    2.600;   71.000;  -22.000
423.635;  -74.800;  133.000;   45.000
423.760;   63.300;  383.000;  328.000
423.885;   14.400;  336.000;  391.000
424.010;  -36.500;  -68.000;  -13.000
424.135;  -74.100;    5.000;  -33.000
424.259; -207.100; -654.000; -457.000
424.384; -193.000; -279.000; -272.000
424.509;  -79.000; -260.000; -186.000
424.634; -278.800; -761.000; -623.000
424.759; -205.100; -688.000; -544.000
424.883; -194.100; -506.000; -527.000
425.008; -196.800; -502.000; -410.000
425.133; -270.500; -679.000; -653.000
425.258; -200.500; -517.000; -381.000
425.382; -286.100; -867.000; -774.000
425.507; -185.000; -487.000; -543.000
425.632; -287.800; -802.000; -663.000
425.756; -113.200; -256.000; -146.000
425.881; -301.300; -831.000; -857.000
426.006; -155.100; -604.000; -355.000
426.130; -258.700; -696.000; -508.000
426.255; -181.600; -611.000; -491.000
426.379; -113.800; -189.000; -577.000
426.504;  166.100;  660.000;  544.000
426.629; -250.300; -519.000; -466.000
426.753;  -64.900;   64.000;  -46.000
426.878; -152.500; -252.000; -288.000
427.002; -220.100; -651.000; -668.000
427.127; -156.200;  -35.000; -158.000
427.251;   76.700;  372.000;  401.000
427.375; -130.200; -191.000; -173.000
427.500; -212.700; -616.000; -610.000
427.624; -183.200; -234.000; -400.000
427.749; -136.000; -216.000; -225.000
427.873; -209.100; -499.000; -412.000
427.997; -114.000; -222.000; -230.000
428.122;  141.600;  795.000;  703.000
428.246;   98.300;  433.000;  434.000
428.371; -307.000; -869.000; -773.000
428.495; -220.500; -624.000; -646.000
428.619; -127.200; -186.000; -117.000
428.743;   17.900;   65.000;  132.000
428.868; -306.800; -732.000; -643.000
428.992; -148.300; -219.000; -326.000
429.116; -176.000; -329.000; -357.000
429.240;   56.800;  419.000;  426.000
429.365; -192.800; -454.000; -574.000
429.489; -227.900; -638.000; -647.000
429.613; -127.300; -236.000; -177.000
429.737; -171.600; -563.000; -432.000
429.861; -152.000; -247.000; -133.000
429.985; -163.800; -425.000; -305.000
430.109; -348.800; -770.000; -908.000
430.234;   16.700;   76.000;  -50.000
430.358; -169.000; -250.000; -160.000
430.482; -237.800; -672.000; -564.000
430.606; -236.300; -655.000; -375.000
430.730; -193.000; -437.000; -388.000
430.854; -317.300; -909.000; -835.000
430.978; -268.000; -795.000; -764.000
431.102; -217.700; -499.000; -422.000
431.226; -284.300; -874.000; -815.000
431.350;    9.000;  345.000;  422.000
431.474; -162.100; -661.000; -373.000
431.597; -370.600;-1060.000; -848.000
431.721; -125.100; -276.000; -267.000
431.845; -274.000; -704.000; -472.000
431.969; -139.400; -304.000; -349.000
432.093; -201.400; -395.000; -317.000
432.217;   -8.500;   32.000;   82.000
432.341; -235.200; -523.000; -518.000
432.464;  -59.200;   96.000;   40.000
432.588; -191.000; -401.000; -329.000
432.712;  -72.300;  -52.000;  -52.000
432.836;   14.100;  213.000;  263.000
432.959; -148.900; -372.000; -311.000
433.083; -102.100;   11.000;    2.000
433.207;   65.200;  285.000;  930.000
433.330; -167.100; -391.000; -200.000
433.454; -239.400; -654.000; -638.000
433.578;   73.000;  583.000;  278.000
433.701; -224.100; -623.000; -675.000
433.825; -181.200; -292.000; -299.000
433.949;  -72.600;   28.000;  -72.000
434.072; -176.700; -410.000; -323.000
434.196; -115.800; -309.000; -117.000
434.319; 7703.000;25482.000;25124.000
434.443; -210.500; -656.000; -603.000
434.566;  -36.200;  281.000;   62.000
434.690; -209.600; -637.000; -383.000
434.813; -137.400; -251.000; -173.000
434.937; -207.500; -569.000; -696.000
435.060; -168.700; -423.000; -332.000
435.184; -179.200; -492.000; -217.000
435.307;  -79.400;  159.000;  102.000
435.431;  -27.300;  -40.000;   24.000
435.554; -149.800; -399.000; -240.000
435.677; -145.700; -350.000; -258.000
435.801;  -57.900;  -25.000;   49.000
435.924;  -65.300;    1.000;  -67.000
436.048; -334.300;-1019.000; -732.000
436.171;  -90.300; -240.000;  -66.000
436.294; -159.900; -248.000; -229.000
436.417; -315.200; -963.000; -849.000
436.541; -300.300; -814.000; -840.000
436.664; -100.200; -242.000; -316.000
436.787;  -78.900;   13.000;  113.000
436.910; -221.400; -792.000; -422.000
437.034;  -62.500;  142.000;  143.000
437.157;  -28.800;  -11.000;    0.000
437.280; -199.300; -392.000; -292.000
437.403; -285.400; -982.000; -869.000
437.526; -328.600; -903.000; -865.000
437.649; -161.300; -505.000; -332.000
437.772; -297.000; -692.000; -540.000
437.896;  128.800;  700.000;  544.000
438.019; -251.000; -758.000; -503.000
438.142; -200.800; -596.000; -506.000
438.265; -284.300; -639.000; -670.000
438.388; -147.100; -520.000; -410.000
438.511; -271.900; -597.000; -394.000
438.634;  -96.700; -247.000; -125.000
438.757; -277.700; -693.000; -619.000
438.880;  -41.200;  -34.000;  -57.000
439.003; -214.300; -417.000; -437.000
439.126; -126.100; -287.000; -167.000
439.248; -101.300;  -98.000; -139.000
439.371;  -31.500;    9.000;  -53.000
439.494;   94.800;  510.000;  439.000
439.617;  -77.300;   65.000;  -88.000
439.740; -335.800; -968.000; -816.000
439.863; -251.700; -755.000; -595.000
439.986; -235.200; -476.000; -431.000
440.108; -114.700; -161.000; -112.000
440.231; -379.500; -950.000; -836.000
440.354; -100.400;  -64.000; -150.000
440.477; -276.300; -566.000; -542.000
440.599; -143.800; -200.000; -225.000
440.722; -266.400; -709.000; -586.000
440.845;  198.800;  751.000;  928.000
440.968; -206.200; -415.000; -311.000
441.090;  -95.100; -199.000;  -33.000
441.213; -349.200;-1021.000; -825.000
441.336;  -93.000; -159.000;   -5.000
441.458; -203.900; -549.000; -396.000
441.581; -223.700; -628.000; -629.000
441.703; -149.100; -152.000;   13.000
441.826; -199.400; -557.000; -400.000
441.948; -108.800;   56.000;   51.000
442.071;   99.400;  555.000;  424.000
442.193; -256.200; -531.000; -485.000
442.316;  -37.800;  152.000;   97.000
442.438; -178.400; -233.000;  -10.000
442.561;   -0.900;  272.000;  262.000
442.683; -290.000; -809.000; -522.000
442.806;  -56.500;   -8.000;   74.000
442.928; -311.100; -859.000; -604.000
443.051; -195.200; -577.000; -373.000
443.173; -193.900; -341.000; -339.000
443.295; -178.900; -263.000; -371.000
443.418; -164.700; -321.000;  -29.000
443.540;  -59.500; -106.000;   -4.000
443.662; -261.700; -563.000; -465.000
443.785;   11.700;  335.000;  199.000
443.907; -212.100; -362.000; -208.000
444.029; -211.400; -767.000; -494.000
444.152; -279.100; -644.000; -554.000
444.274;   -6.900;  -18.000;  -24.000
444.396; -217.200; -461.000; -221.000
444.518; -223.100; -691.000; -454.000
444.640; -215.600; -268.000; -111.000
444.763;   23.700;  388.000;  249.000
444.885; -231.900; -432.000; -392.000
445.007;  -47.400;   35.000;   86.000
445.129; -232.700; -610.000; -515.000
445.251; -188.300; -372.000; -439.000
445.373; -314.100; -537.000; -386.000
445.495;   -2.100;  242.000;  350.000
445.617;  124.700;  853.000;  753.000
445.739; -144.400; -215.000;  -97.000
445.861; -126.900; -245.000; -112.000
445.984; -136.800; -267.000; -101.000
446.105; -182.600; -418.000; -251.000
446.227; -102.000; -176.000;  -19.000
446.349; -227.100; -358.000; -249.000
446.471; -229.000; -615.000; -448.000
446.593; -180.300; -316.000;   19.000
446.715; -108.900;  -67.000;   41.000
446.837;  118.900;  697.000;  832.000
446.959; -205.600; -457.000; -478.000
447.081; -262.500; -628.000; -518.000
447.203;  210.000;  862.000;  834.000
447.325; -161.000; -270.000;   42.000
447.446;   23.500;  286.000;  530.000
447.568; -366.900; -921.000; -803.000
447.690; -152.400; -236.000; -245.000
447.812; -297.100; -798.000; -519.000
447.933;  -29.000;  155.000;  127.000
448.055; -157.800; -306.000; -261.000
448.177;  -24.000;   31.000;   79.000
448.299; -381.300; -935.000; -727.000
448.420;   -3.500;  -25.000;  159.000
448.542; -111.900;   -3.000;   33.000
448.664;   15.900;  109.000;  322.000
448.785;  -15.900;  265.000;   83.000
448.907; -173.900; -614.000; -353.000
449.028; -302.000; -771.000; -471.000
449.150;  111.600;  492.000;  589.000
449.272; -390.600;-1044.000; -913.000
449.393;  118.000;  612.000;  694.000
449.515; -275.400; -634.000; -581.000
449.636; -103.500; -264.000; -155.000
449.758;   85.500;  763.000;  622.000
449.879; -199.900; -498.000; -396.000
450.001; -159.500; -149.000;  -49.000
450.122;  -61.800;  -95.000;  162.000
450.244;  -58.400;   37.000;  364.000
450.365; -180.800; -495.000; -301.000
450.486; -117.700;   80.000;  268.000
450.608;   37.500;  393.000;  326.000
450.729;   29.700;  578.000;  645.000
450.850; -212.700; -574.000; -466.000
450.972; -296.400; -552.000; -389.000
451.093;   24.500;  190.000;  588.000
451.214; -211.600; -516.000; -337.000
451.336;   68.600;  773.000;  579.000
451.457;    8.100;  264.000;  393.000
451.578;  -83.600; -118.000;  -74.000
451.699; -271.600; -546.000; -540.000
451.821; -129.300; -284.000;  -50.000
451.942;  -12.800;  278.000;  285.000
452.063;   32.000;  228.000;  419.000
452.184; -172.900;  -54.000;  -49.000
452.305;  -13.300;  103.000;  170.000
452.427; -229.600; -549.000; -301.000
452.548; -118.900;   23.000;   79.000
452.669; -159.900; -257.000;  -89.000
452.790; -110.300;    3.000;  -18.000
452.911;  -26.600;  195.000;  259.000
453.032; -140.700; -289.000;  -60.000
453.153; -105.000;  -29.000;   81.000
453.274;  165.500;  737.000;  868.000
453.395; -132.200;  -51.000;  175.000
453.516;    9.800; 1317.000; 1388.000
453.637; -216.000; -205.000; -150.000
453.758;  -95.400;   15.000;   69.000
453.879; -244.000; -462.000; -250.000
454.000;  221.000; 1086.000;  948.000
454.121; -264.100; -554.000; -326.000
454.242; -242.400; -599.000; -383.000
454.362; -110.700;  -99.000;  114.000
454.483; -165.000; -309.000; -229.000
454.604;   46.900;  512.000;  580.000
454.725; -246.800; -627.000; -555.000
454.846; -274.500; -474.000; -406.000
454.967;   -9.900;  230.000;  539.000
455.087;  -54.700;  179.000;  153.000
455.208;   91.200;  554.000;  856.000
455.329; -102.100;  -22.000;   82.000
455.450;   97.300;  473.000;  633.000
455.570; -204.400; -234.000; -211.000
455.691;  -39.800;  201.000;  407.000
455.812; -224.000; -270.000;  -92.000
455.932;  -63.100;  107.000;  -97.000
456.053; -137.000;   36.000;   24.000
456.173; -167.200; -433.000; -355.000
456.294; -282.600; -476.000; -303.000
456.415;  -78.400;  -73.000;   70.000
456.535;  -46.300;  297.000;  273.000
456.656;  -51.800;  132.000;  240.000
456.776; -108.800;    3.000;  298.000
456.897;   44.000;  308.000;  513.000
457.017; -203.200; -153.000;   -3.000
457.138; -169.900; -402.000; -249.000
457.258;  -57.800;  263.000;  224.000
457.379;   21.300;  509.000;  521.000
457.499;  -62.800;  443.000;  432.000
457.620; -218.000; -407.000; -231.000
457.740; -162.800; -132.000;  -11.000
457.860;  -77.900;   87.000;   44.000
457.981; -118.500;  132.000;  124.000
458.101; -121.400;  -89.000;   40.000
458.221;   -5.900;  336.000;  402.000
458.342;  -66.700;   -4.000;  -37.000
458.462;   -6.200;  617.000;  352.000
458.582; -166.500; -302.000; -294.000
458.703;  -79.700;  303.000;  154.000
458.823; -101.800;   22.000;  163.000
458.943;  -35.000;  341.000;  467.000
459.063;  -72.600; 1124.000;  192.000
459.183; -100.000;  328.000;  313.000
459.304;   50.400;  315.000;  517.000
459.424; -174.100; -246.000;  -89.000
459.544;   66.700;  388.000;  764.000
459.664;  -14.300;  499.000;  506.000
459.784;  187.900; 1004.000; 1175.000
459.904;   73.700;  867.000;  744.000
460.024;  141.700;  867.000;  684.000
460.144;   -2.200;  449.000;  554.000
460.264;   33.000;  515.000;  327.000
460.385; -181.800; -145.000; -119.000
460.505;  138.700;  905.000;  858.000
460.625; -185.800;  -17.000;  -68.000
460.745;   36.200;  396.000;  541.000
460.864;  -82.300;  153.000;  469.000
460.984;   48.400;  499.000;  573.000
461.104;  295.500; 1656.000; 1775.000
461.224;  109.000;  657.000;  650.000
461.344;  -45.300;  431.000;  360.000
461.464;  -21.000;  258.000;  513.000
461.584;  -45.000;  283.000;  466.000
461.704;  -84.500;   58.000;  108.000
461.824; -107.100;  238.000;  259.000
461.943;  -81.200;  191.000;  130.000
462.063; -132.000;    2.000;  324.000
462.183;   84.900;  639.000;  717.000
462.303;  234.800; 1678.000; 1230.000
462.422;  113.400;  781.000;  840.000
462.542; -105.700;  271.000;  391.000
462.662;   22.600;  353.000;  380.000
462.782;  -10.000;  833.000;  572.000
462.901;   58.700;  545.000;  717.000
463.021;  303.800; 1702.000; 1638.000
463.141;   17.500;  337.000;  770.000
463.260;  -47.300;  614.000;  474.000
463.380;   56.400;  902.000;  884.000
463.499;  -34.100;  342.000;  332.000
463.619;   -7.000;  581.000;  559.000
463.738;  238.400; 1644.000;  903.000
463.858;   62.500;  657.000;  811.000
463.978;  -56.200;  542.000;  396.000
464.097;  130.300;  921.000; 1114.000
464.217;  126.700; 1196.000; 1143.000
464.336;  184.200; 1068.000; 1130.000
464.455;  -64.000;  328.000;  659.000
464.575;   27.600;  597.000;  602.000
464.694;  136.600; 1204.000; 1179.000
464.814;  140.600; 1190.000; 1138.000
464.933;  132.500; 1095.000; 1027.000
465.052;  213.400; 1412.000; 1054.000
465.172;   46.300;  922.000;  799.000
465.291;  255.800; 1376.000; 1320.000
465.410;   12.900;  462.000;  735.000
465.530;  212.600; 1355.000; 1310.000
465.649;  114.100; 1209.000; 1273.000
465.768;  301.300; 1673.000; 1508.000
465.888;  117.300;  941.000; 1174.000
466.007;  257.200; 1335.000; 1440.000
466.126;   22.700;  721.000;  641.000
466.245;  157.300; 1176.000; 1187.000
466.364;   56.100;  950.000; 1060.000
466.484;  176.800; 1024.000; 1213.000
466.603;   87.700; 1101.000; 1222.000
466.722;  282.300; 1490.000; 1769.000
466.841;  140.700; 1151.000; 1401.000
466.960;  114.000; 1069.000;  972.000
467.079;  327.800; 1971.000; 1786.000
467.198;  159.500; 1238.000; 1181.000
467.317;  206.700; 1768.000; 1162.000
467.436;  177.600; 1709.000; 1261.000
467.555;  297.800; 1796.000; 1746.000
467.674;  174.600; 1227.000; 1329.000
467.793;  116.600; 1376.000; 1374.000
467.912;  183.100; 1658.000; 1539.000
468.031;  295.000; 2038.000; 1930.000
468.150;  335.500; 1842.000; 1837.000
468.269;  358.600; 2313.000; 2090.000
468.388;  414.800; 2168.000; 2339.000
468.507;  576.400; 2884.000; 2903.000
468.626;  623.100; 2555.000; 2541.000
468.744;  305.900; 2018.000; 2174.000
468.863;  473.000; 2312.000; 2523.000
468.982;  234.000; 1503.000; 1555.000
469.101;  497.100; 2788.000; 2692.000
469.220;  305.700; 2333.000; 2176.000
469.338;  582.200; 2935.000; 3051.000
469.457;  393.600; 2719.000; 2545.000
469.576;  788.900; 3953.000; 3784.000
469.695;  505.400; 2877.000; 3066.000
469.813;  900.800; 4148.000; 4192.000
469.932;  803.000; 4255.000; 4485.000
470.051;  802.800; 4075.000; 4161.000
470.169;  826.800; 4470.000; 4338.000
470.288;  922.900; 4700.000; 4809.000
470.406;  977.700; 5059.000; 5194.000
470.525; 1237.100; 6101.000; 5787.000
470.644; 1364.500; 6847.000; 6794.000
470.762; 1657.700; 8397.000; 7873.000
470.881; 1772.800; 8651.000; 8464.000
470.999; 2072.600; 9685.000; 9151.000
471.118; 2290.800;11174.000;10711.000

