
Integration time [ms]: 100.000
Averaging Nr. [scans]: 40
Smoothing Nr. [pixels]: 0
Data measured with spectrometer [name]: 2101012U2
Wave   ;Sample   ;Dark     ;Reference
[nm]   ;[counts] ;[counts] ;[counts] 

197.733;   63.350;  516.000;  404.000
197.879;  -80.925; -610.000; -634.000
198.025;  -38.250; -475.000; -420.000
198.171;  -57.450; -602.000; -612.000
198.317;  -32.200; -401.000; -316.000
198.463;  -53.700; -655.000; -404.000
198.609;   23.000;  181.000; -137.000
198.755;  -71.950; -644.000; -410.000
198.901;  -64.225; -505.000; -424.000
199.047;  -51.525; -615.000; -488.000
199.193;  -27.200; -230.000; -468.000
199.339;  -31.675; -222.000; -369.000
199.485;   42.475;  330.000;  271.000
199.631;   15.900;  227.000;  310.000
199.777;  -45.200; -466.000; -398.000
199.923;  -62.975; -610.000; -424.000
200.069;   -4.425; -141.000;  -58.000
200.215;   63.175;  128.000;  453.000
200.361;   42.400;  243.000;  477.000
200.507;  -49.100; -600.000; -373.000
200.653;   -8.375; -371.000; -194.000
200.798;  -22.625; -215.000; -125.000
200.944;  -18.175; -146.000;  -41.000
201.090;   42.050;   61.000;  222.000
201.236;   -2.075; -116.000; -158.000
201.382;  124.675;  874.000;  903.000
201.528;   -5.975;  -58.000;  -48.000
201.674;  -23.125; -386.000; -293.000
201.819;  -61.200; -540.000; -439.000
201.965;  -73.575; -699.000; -447.000
202.111;  -27.675; -273.000; -226.000
202.257;  -31.250; -250.000; -238.000
202.402;   11.550;   13.000;  -36.000
202.548;  -30.825; -169.000; -116.000
202.694;   79.550;  410.000; -183.000
202.840;  -79.075; -603.000; -531.000
202.985;  -67.175; -681.000; -639.000
203.131; -105.925; -832.000; -666.000
203.277;  -17.975; -199.000; -262.000
203.423;  -35.150; -434.000; -520.000
203.568;  -41.525; -462.000; -237.000
203.714;  -45.550; -535.000; -542.000
203.860;  -79.700; -682.000; -641.000
204.005;   21.950;  112.000;  167.000
204.151;   70.425;  561.000;  556.000
204.296;  -38.200; -354.000; -221.000
204.442;  -75.100; -600.000; -547.000
204.588;  -67.075; -592.000; -579.000
204.733;   15.775;  178.000;  168.000
204.879; -118.625;-1018.000; -822.000
205.025;    7.375;  -99.000;  126.000
205.170;    9.525;  -17.000;   94.000
205.316;   80.400;  438.000;  661.000
205.461;  -63.525; -698.000; -554.000
205.607;   83.425;  609.000;  665.000
205.752;  -69.625; -626.000; -551.000
205.898;  -51.900; -501.000; -391.000
206.043;  -46.100; -578.000; -506.000
206.189;  -32.150; -243.000; -285.000
206.334;   93.300;  554.000;  606.000
206.480;   72.800;  409.000;  239.000
206.625;  -79.000; -529.000; -552.000
206.771;  -38.400; -451.000; -373.000
206.916;  -19.100; -210.000; -537.000
207.062;  -82.850; -545.000; -591.000
207.207;  -53.150; -546.000; -443.000
207.353;   47.025;  185.000;  460.000
207.498;   28.025;  196.000;   85.000
207.643;  -50.550; -501.000; -370.000
207.789; -115.925;-1069.000; -910.000
207.934;  -90.325; -665.000; -713.000
208.080;  -18.500; -154.000;   66.000
208.225;  -13.950;  -22.000;  -57.000
208.370;  -77.925; -727.000; -619.000
208.516;  -73.325; -741.000; -487.000
208.661;  -17.275; -127.000;  -69.000
208.806;  -23.650; -165.000; -171.000
208.952; -122.650;-1044.000; -731.000
209.097;   80.625;  378.000;  349.000
209.242;  -48.750; -307.000; -382.000
209.387;   66.375;  392.000;  350.000
209.533;  -47.675; -321.000; -350.000
209.678;   84.100;  472.000;  543.000
209.823;  -45.775; -408.000; -310.000
209.969; -105.050; -860.000; -757.000
210.114; -100.425; -907.000; -719.000
210.259; -118.050; -939.000; -889.000
210.404;   -0.325; -171.000;  103.000
210.549;    8.775;  108.000;    3.000
210.695;  -12.450;   -3.000;  -95.000
210.840;   40.800;   94.000;   67.000
210.985;  -43.725; -484.000; -303.000
211.130;   68.450;  268.000;  406.000
211.275;   11.025;  207.000;  199.000
211.420;  -47.825; -300.000; -289.000
211.566;  -62.175; -536.000; -489.000
211.711;   22.025;  218.000;  157.000
211.856;  -53.550; -545.000; -519.000
212.001;    8.075;  151.000;   44.000
212.146;   13.850;  153.000;   49.000
212.291;  -23.500; -210.000; -186.000
212.436;  -11.875; -280.000;   -6.000
212.581;  -78.975; -685.000; -653.000
212.726;  -70.175; -487.000; -538.000
212.871;  -53.250; -552.000; -217.000
213.016; -141.375;-1172.000;-1029.000
213.161;   62.725;  406.000;  291.000
213.306;  -61.550; -435.000; -577.000
213.451;  -92.875; -778.000; -689.000
213.596;  -38.800; -455.000; -347.000
213.741;  -53.250; -448.000; -538.000
213.886;  -72.925; -498.000; -517.000
214.031;  -26.225; -294.000; -124.000
214.176;  -41.325; -408.000; -341.000
214.321;  -24.600; -296.000; -157.000
214.466;  -17.350; -163.000;  -43.000
214.611;  -13.200;  -61.000;  -10.000
214.756; -115.800; -948.000; -858.000
214.901;  -28.950; -388.000; -226.000
215.046; -107.550; -797.000; -825.000
215.191;    6.550;  128.000;   35.000
215.336;    2.850; -157.000;  -19.000
215.480;  -65.250; -684.000; -505.000
215.625;   -9.325; -175.000;  -19.000
215.770;  -81.275; -757.000; -662.000
215.915;    3.250;   -5.000;  -97.000
216.060;  -12.575; -113.000;  -21.000
216.205; -101.725; -731.000; -779.000
216.349;  -68.400; -470.000; -533.000
216.494; -117.425; -939.000; -867.000
216.639; -119.900; -823.000; -888.000
216.784;  -71.200; -577.000; -525.000
216.929;   47.400;  392.000;  281.000
217.073;    2.875; -244.000;  -31.000
217.218;    3.225;   78.000;  -47.000
217.363;  -86.200; -656.000; -618.000
217.507;  -77.175; -623.000; -588.000
217.652; -112.550; -845.000; -874.000
217.797;  -80.375; -708.000; -659.000
217.942; -102.325; -856.000; -720.000
218.086;   63.450;  608.000;  539.000
218.231;  -15.525; -174.000;  -26.000
218.376;  -47.550; -337.000; -229.000
218.520;   15.725;  -41.000;   96.000
218.665;  -34.800; -338.000; -204.000
218.810;  -27.650; -275.000; -233.000
218.954;   10.675;  201.000;   35.000
219.099;  -94.775; -713.000; -963.000
219.243;  -70.750; -589.000; -554.000
219.388;  -25.625; -264.000; -136.000
219.532;  -15.900; -116.000; -116.000
219.677;  -67.925; -564.000; -521.000
219.822;   -7.275;   33.000;   89.000
219.966;   19.125;   17.000;  -99.000
220.111;  -36.725; -328.000;  -40.000
220.255;  -91.000; -797.000; -750.000
220.400;  -12.025; -180.000; -146.000
220.544;  -64.275; -516.000; -450.000
220.689;  -54.200; -422.000; -451.000
220.833;   -9.500; -123.000;  -58.000
220.978;  -40.225; -393.000; -563.000
221.122;   18.675;  319.000;  307.000
221.267; -119.550; -906.000; -837.000
221.411;  -59.175; -478.000; -394.000
221.555;   -7.575; -104.000;  -23.000
221.700;  -32.250; -329.000; -222.000
221.844;   31.925;  255.000;  272.000
221.989;  -43.175; -328.000; -311.000
222.133;  -29.000; -289.000; -307.000
222.277;   -1.250;    5.000;   78.000
222.422;   18.800;  227.000;  113.000
222.566;  -31.425; -381.000; -214.000
222.711;  -52.825; -414.000; -479.000
222.855;  -81.700; -643.000; -586.000
222.999;  -83.650; -642.000; -717.000
223.144;  -21.550; -195.000; -194.000
223.288;   58.350;  423.000;  251.000
223.432;   36.450;  184.000;  230.000
223.576;    9.950;  152.000;  -21.000
223.721;   39.075;  364.000;  273.000
223.865;  -51.600; -472.000; -475.000
224.009;  245.550; 1673.000; 1631.000
224.153;  -72.600; -660.000; -671.000
224.298;  -56.250; -531.000; -489.000
224.442;   -7.550;  -74.000;  -33.000
224.586;   -1.775; -169.000; -106.000
224.730; -100.900; -858.000; -670.000
224.875;  -92.675; -739.000; -688.000
225.019;    8.900;  102.000;  188.000
225.163;   64.675;  208.000;  341.000
225.307;   23.450;   97.000;  -91.000
225.451;   52.850;  360.000;  481.000
225.595;   16.825;  264.000;  176.000
225.739;  -17.900; -170.000;  -94.000
225.884;   -2.375;   86.000;    5.000
226.028;  -96.125; -760.000; -626.000
226.172;  -29.475; -260.000; -273.000
226.316; -114.750; -941.000; -902.000
226.460;  -59.750; -645.000; -493.000
226.604;  -57.275; -406.000; -400.000
226.748; -101.300; -836.000; -733.000
226.892;  -22.650; -227.000; -181.000
227.036;  -57.300; -537.000; -447.000
227.180;  -46.025; -551.000; -375.000
227.324;  -71.275; -561.000; -580.000
227.468;  -96.975; -819.000; -717.000
227.612;   12.900;  242.000;  -28.000
227.756;    2.850; -845.000; -698.000
227.900;   50.100;  342.000;  441.000
228.044;  -50.500; -509.000; -290.000
228.188;   56.775;  448.000;  568.000
228.332;  -76.750; -546.000; -472.000
228.476;  -28.975; -223.000; -149.000
228.620;  -20.175; -210.000; -150.000
228.764;   73.950;  431.000;  349.000
228.908;  -15.925; -155.000;   30.000
229.052;  -60.675; -615.000; -528.000
229.195;  -11.775; -172.000;   13.000
229.339;  -27.375; -235.000; -305.000
229.483;  -24.750;    5.000; -162.000
229.627;   -4.775; -156.000;  139.000
229.771;  -43.925; -218.000; -294.000
229.915;    2.950;  230.000;   79.000
230.059;  -83.125; -648.000; -663.000
230.202;  -31.975; -370.000; -317.000
230.346;  -19.350; -107.000;  107.000
230.490;  -52.625; -489.000; -521.000
230.634;  -95.400; -736.000; -553.000
230.777;   82.975;  478.000;  509.000
230.921;  -40.100; -450.000; -359.000
231.065;  -48.425; -246.000; -286.000
231.209;   30.925;  261.000;  265.000
231.352;   20.625;   54.000;   40.000
231.496;   27.225;  568.000;  188.000
231.640;  -70.725; -693.000; -621.000
231.783;   60.275;  546.000;  525.000
231.927;  -43.300; -294.000; -365.000
232.071; -106.425; -962.000; -736.000
232.214; -100.150; -980.000; -764.000
232.358;  -87.450; -683.000; -599.000
232.502;    4.900;  -19.000;    7.000
232.645; -124.500;-1090.000; -927.000
232.789;  -22.050; -257.000; -218.000
232.933;  -30.975; -407.000; -224.000
233.076; -118.750;-1038.000; -897.000
233.220;  -98.525; -752.000; -777.000
233.363;  -78.600; -669.000; -477.000
233.507;   64.225;  371.000;  129.000
233.650;  -99.000; -764.000; -834.000
233.794;   59.950;  438.000;  461.000
233.938;  -51.975; -530.000; -362.000
234.081;  -12.050;  -93.000;   31.000
234.225;  -67.775; -631.000; -539.000
234.368;  -96.425; -773.000; -723.000
234.512;  -42.475; -385.000; -299.000
234.655;  -74.425; -582.000; -555.000
234.798;  -72.400; -493.000; -466.000
234.942; -120.025; -884.000;-1002.000
235.085;  -87.425; -651.000; -443.000
235.229;  -60.825; -405.000; -410.000
235.372;  -53.325; -247.000; -191.000
235.516;  -61.975; -397.000; -321.000
235.659;    8.875;   92.000;  121.000
235.802;   -2.825;  -38.000;  -22.000
235.946;   18.600;  335.000;  215.000
236.089;   34.500;  126.000;  250.000
236.233;   57.350;  275.000;  298.000
236.376;  -44.350; -235.000; -378.000
236.519;  -44.325; -297.000; -319.000
236.663;   -6.850; -215.000; -117.000
236.806; -129.175;-1029.000; -999.000
236.949;   52.175;  543.000;  431.000
237.092;   61.100;  412.000;  391.000
237.236;  -72.675; -589.000; -502.000
237.379;   51.225;  352.000;  428.000
237.522; -114.675; -879.000; -768.000
237.666;  -19.225; -271.000;   18.000
237.809; -121.875; -851.000; -823.000
237.952;   34.675;  469.000;  271.000
238.095;  -56.025; -447.000; -442.000
238.238;   95.450;  688.000;  700.000
238.382;    8.700;  166.000;  103.000
238.525;  -65.450; -598.000; -511.000
238.668; -122.075;-1060.000; -985.000
238.811;  -92.500; -638.000; -643.000
238.954;  -70.125; -483.000; -334.000
239.097;   96.975;  617.000;  664.000
239.241;   24.000;  394.000;  326.000
239.384;  -29.325; -254.000; -214.000
239.527;  -52.525; -424.000; -224.000
239.670; -140.275; -994.000;-1091.000
239.813;  -99.025; -696.000; -658.000
239.956;   68.125;  579.000;  473.000
240.099;  -98.425; -778.000; -725.000
240.242;   51.050;  428.000;  432.000
240.385;   51.325;  466.000;  450.000
240.528;  -79.000; -706.000; -473.000
240.671;   15.050;  189.000;  134.000
240.814;  -47.650; -441.000; -158.000
240.957;  -89.325; -767.000; -578.000
241.100;  -91.600; -779.000; -755.000
241.243; -126.275;-1234.000; -893.000
241.386;  -63.675; -508.000; -379.000
241.529;  -73.900; -735.000; -547.000
241.672;  -66.925; -566.000; -495.000
241.815; -113.400; -832.000; -808.000
241.958;  -31.000; -125.000; -182.000
242.101;  -71.400; -545.000; -390.000
242.244;  -42.000; -270.000; -325.000
242.387;  -37.125; -304.000; -246.000
242.530;   50.200;  470.000;  134.000
242.673;  -31.625; -381.000; -309.000
242.815; -110.525; -925.000; -899.000
242.958;  -71.075; -482.000; -381.000
243.101;    5.900;  132.000;  187.000
243.244;  -67.825; -564.000; -521.000
243.387;  -47.225; -313.000; -316.000
243.530;  -92.325; -657.000; -674.000
243.672;    3.075;   43.000;  -92.000
243.815;  -52.525; -355.000; -283.000
243.958;    9.425;   98.000;  -26.000
244.101;   -1.250;   59.000;  -16.000
244.243;  -16.950;  -47.000;  101.000
244.386;  -92.150; -761.000; -630.000
244.529;  -35.400; -132.000; -139.000
244.672; -140.325;-1154.000; -951.000
244.814;  -86.450; -621.000; -794.000
244.957;  -39.850; -380.000; -304.000
245.100;  -70.100; -489.000; -489.000
245.242;  -62.450; -387.000; -374.000
245.385;  -16.550;  -59.000;  -39.000
245.528; -116.400; -871.000; -705.000
245.670;   89.750;  612.000;  634.000
245.813;  -85.100; -599.000; -547.000
245.956;  -35.550; -324.000; -275.000
246.098;  -58.450; -508.000; -650.000
246.241;    6.925;  194.000;   48.000
246.383;  -13.825; -119.000;  -73.000
246.526;  -69.300; -454.000; -525.000
246.669; -121.450; -889.000; -780.000
246.811;    9.450;  172.000;   -1.000
246.954;  -51.225; -512.000; -426.000
247.096;  -26.000;  -84.000;   -6.000
247.239;  -61.700; -482.000; -445.000
247.381;  -66.925; -647.000; -488.000
247.524;   87.600;  645.000;  679.000
247.666;   -1.250;   58.000;   11.000
247.809; -102.250; -887.000; -691.000
247.951;    6.500;  -75.000;  138.000
248.094;   36.425;  432.000;  308.000
248.236; -153.975;-1262.000;-1238.000
248.378;   11.575; -356.000;  -81.000
248.521;  -15.050; -334.000; -337.000
248.663;  -22.475; -236.000; -267.000
248.806;  -28.150; -300.000; -266.000
248.948;  -95.975; -886.000; -763.000
249.090;  -37.100; -428.000; -398.000
249.233;  -42.075; -344.000; -381.000
249.375;  -83.425; -474.000; -451.000
249.518;   -9.550;  -83.000; -133.000
249.660;   -7.600; -103.000;    3.000
249.802; -165.950;-1303.000;-1189.000
249.945;  -77.525; -612.000; -540.000
250.087; -102.050; -834.000; -768.000
250.229;  -56.050; -362.000; -480.000
250.371;  -61.325; -494.000; -439.000
250.514;  -57.150; -310.000; -244.000
250.656;  -60.325;   69.000;  102.000
250.798; -110.600; -849.000; -800.000
250.940;  -54.000; -322.000; -322.000
251.083;  -18.750; -335.000; -111.000
251.225;   69.600;  338.000;  310.000
251.367;  -46.925; -274.000; -373.000
251.509;  -25.950; -265.000; -210.000
251.651;  -95.325; -731.000; -671.000
251.794;   72.175;  538.000;  632.000
251.936;  -94.175; -821.000; -747.000
252.078;  -64.850; -540.000; -461.000
252.220;  -67.175; -645.000; -477.000
252.362;   86.350;  344.000;  462.000
252.504;  -67.600; -677.000; -584.000
252.646; -108.825; -875.000; -722.000
252.788;   -4.625;   14.000; -128.000
252.931;  -30.400; -257.000; -253.000
253.073;  -49.875; -376.000; -317.000
253.215;    0.625;  141.000;  122.000
253.357;  -11.000;   82.000; -153.000
253.499;  -38.375; -374.000; -234.000
253.641;  -81.200; -749.000; -594.000
253.783;  -90.050; -609.000; -527.000
253.925;  -89.725; -586.000; -591.000
254.067; -101.875; -744.000; -667.000
254.209;  -31.125; -391.000; -259.000
254.351; -124.675; -865.000; -883.000
254.493;  -59.275; -441.000; -417.000
254.635; -125.225; -936.000; -818.000
254.777;  -83.275; -752.000; -687.000
254.918;  -58.925; -512.000; -430.000
255.060;  -60.025; -551.000; -395.000
255.202;  -56.200; -473.000; -261.000
255.344;  -69.250; -658.000; -455.000
255.486;  -74.050; -471.000; -406.000
255.628; -108.650; -780.000; -781.000
255.770;  -98.375; -676.000; -536.000
255.912;  -56.725; -559.000; -468.000
256.053;  -85.875; -730.000; -508.000
256.195;  155.100; 1008.000;  903.000
256.337;  -96.925; -861.000; -595.000
256.479;   61.000;  532.000;  416.000
256.621;  -40.475; -394.000; -212.000
256.762;  -89.475; -789.000; -742.000
256.904;   58.475;  485.000;  487.000
257.046;  -32.300; -381.000; -271.000
257.188;  -45.200; -351.000; -264.000
257.329;  -80.625; -525.000; -464.000
257.471; -110.375; -939.000; -807.000
257.613;  -72.050; -584.000; -498.000
257.755; -139.825;-1073.000; -982.000
257.896;   29.650;  286.000;  392.000
258.038;  -58.375; -403.000; -352.000
258.180;  -38.900; -354.000; -279.000
258.321;  -76.150; -581.000; -457.000
258.463;    1.375;  -71.000;  133.000
258.605;  -79.450; -562.000; -570.000
258.746; -101.550; -886.000; -772.000
258.888; -137.000;-1026.000;-1020.000
259.029;   29.625;  121.000;   -8.000
259.171;  -92.200; -614.000; -550.000
259.313;    2.475;  -49.000;  -47.000
259.454;  -57.075; -536.000; -414.000
259.596;  -59.725; -483.000; -390.000
259.737;  -73.450; -590.000; -474.000
259.879;   28.350;  217.000;  311.000
260.020;   87.400;  901.000;  636.000
260.162;  -21.575; -146.000; -253.000
260.303; -110.950; -768.000; -687.000
260.445;  -82.650; -609.000; -613.000
260.586;   53.100;  392.000;  157.000
260.728;  -55.350; -360.000; -248.000
260.869; -116.175; -350.000; -343.000
261.011;   80.125;  706.000;  537.000
261.152;  -55.100; -479.000; -319.000
261.293;  -84.625; -576.000; -595.000
261.435;  -34.575; -219.000; -184.000
261.576;  -54.450; -455.000; -325.000
261.718;   64.525;  420.000;  470.000
261.859; -121.450; -940.000; -949.000
262.000; -126.700; -951.000;-1016.000
262.142;  -24.625;  -52.000;  -60.000
262.283; -104.125; -808.000; -691.000
262.424;  -91.325; -666.000; -625.000
262.566; -147.275;-1161.000; -983.000
262.707; -107.425; -840.000; -830.000
262.848; -105.500; -769.000; -726.000
262.990;  -42.575; -362.000; -345.000
263.131;   98.800;  650.000;  681.000
263.272;  -15.225;  -61.000;  -41.000
263.413;  -88.525; -589.000; -561.000
263.555;  -62.000; -669.000; -143.000
263.696;  -74.400; -550.000; -641.000
263.837;  -66.250; -449.000; -551.000
263.978;   10.400;   -5.000;  -77.000
264.119;  -48.675; -283.000; -264.000
264.261; -107.675; -847.000; -630.000
264.402;   -9.900;   33.000;   40.000
264.543;  -64.175; -509.000; -524.000
264.684;   -7.950;   61.000;  -50.000
264.825;  -65.625; -816.000; -538.000
264.966;   -8.475;  -84.000;  -67.000
265.107;  -99.075; -646.000; -670.000
265.248; -105.500; -825.000; -812.000
265.390;  -11.300;  152.000;   -9.000
265.531;  -21.125; -238.000; -107.000
265.672;  -73.325; -557.000; -630.000
265.813;   41.300;  563.000;  439.000
265.954; -133.650; -959.000; -940.000
266.095;  -24.500; -372.000; -322.000
266.236;  -93.650; -686.000; -548.000
266.377;  -57.375; -243.000; -297.000
266.518;  -72.375; -619.000; -547.000
266.659;   33.500;  170.000;  268.000
266.800;   16.650;   83.000;   85.000
266.941;  -75.475; -487.000; -478.000
267.082;   26.475;  354.000;   99.000
267.223;  -53.775; -344.000; -273.000
267.364; -110.050; -892.000; -686.000
267.504;  -16.100;    3.000;  135.000
267.645;    3.225;  160.000;   67.000
267.786;  -36.225; -147.000;  -86.000
267.927;  -65.750; -473.000; -379.000
268.068;  -17.500; -186.000;  -61.000
268.209;  -41.700; -175.000; -413.000
268.350;  -78.675; -388.000; -532.000
268.490;  -77.650; -648.000; -521.000
268.631;   27.600;  127.000;  225.000
268.772; -114.150; -874.000; -647.000
268.913;  -46.100; -328.000; -476.000
269.054;   -9.050; -117.000;   12.000
269.194;  -62.925; -418.000; -402.000
269.335; -146.125;-1137.000;-1074.000
269.476;  -23.625;   33.000;  -35.000
269.617;  -38.100; -347.000; -392.000
269.757;  -89.650; -713.000; -646.000
269.898; -113.800; -856.000; -613.000
270.039;  -65.950; -415.000; -405.000
270.180; -119.600; -952.000; -816.000
270.320;  -31.675; -190.000; -250.000
270.461;  -34.500; -277.000; -249.000
270.602;    2.925; -186.000; -156.000
270.742; -110.325; -868.000; -943.000
270.883;  -56.925; -442.000; -390.000
271.023;  -51.475; -358.000; -357.000
271.164;  -71.675; -607.000; -528.000
271.305;  -98.150; -666.000; -654.000
271.445;  -83.725; -722.000; -683.000
271.586;  -58.175; -462.000; -283.000
271.726;  -37.800; -397.000; -322.000
271.867;  -62.500; -594.000; -534.000
272.008;  161.200; -473.000; -285.000
272.148;  126.475;  462.000;  468.000
272.289;    2.525; -113.000; -181.000
272.429;   20.600;   19.000;  185.000
272.570;  -98.325; -633.000; -737.000
272.710; -100.850; -825.000; -775.000
272.851;  -16.625;  113.000; -130.000
272.991; -149.550;-1173.000;-1077.000
273.131;  -68.800; -419.000; -459.000
273.272;  -95.275; -683.000; -723.000
273.412;    4.725; -143.000;  -31.000
273.553;  -48.275; -488.000; -507.000
273.693;  126.675;  913.000;  858.000
273.834;  -91.825; -894.000; -692.000
273.974;  -76.575; -664.000; -615.000
274.114;  -89.425; -772.000; -560.000
274.255;   62.800;  414.000;  373.000
274.395;    4.200; -180.000; -125.000
274.535;   35.050;  199.000;  350.000
274.676;    7.125;  225.000;   94.000
274.816;    7.650;  110.000;   34.000
274.956;  -76.300; -624.000; -690.000
275.097;  -63.775;-1014.000; -922.000
275.237; -105.650; -913.000; -803.000
275.377;  -98.525; -778.000; -689.000
275.517; -148.825; -878.000; -937.000
275.658;  -59.450; -590.000; -555.000
275.798;  -65.450; -606.000; -413.000
275.938;   11.625;  215.000;  323.000
276.078; -105.600; -626.000; -395.000
276.218;   -7.050;   99.000;  104.000
276.359; -115.325;-1026.000;-1024.000
276.499;  -71.275; -605.000; -446.000
276.639;  -28.100; -305.000; -151.000
276.779;  -46.100; -475.000; -357.000
276.919;  -94.525; -783.000; -624.000
277.059;  -30.250; -261.000; -212.000
277.199;  -48.675; -357.000; -259.000
277.340;   35.025;  287.000;  175.000
277.480;  -95.500; -840.000; -693.000
277.620;    7.525;  192.000;   16.000
277.760; -191.450;-1533.000;-1294.000
277.900;    9.300;  113.000;   33.000
278.040;   14.275;  137.000;  159.000
278.180;   35.400;  270.000;  170.000
278.320;    6.525;   21.000;   56.000
278.460;  -74.675; -443.000; -469.000
278.600;  -83.425; -708.000; -598.000
278.740;   55.800;  448.000;  224.000
278.880;  -47.700; -768.000; -791.000
279.020;  -22.250; -194.000; -144.000
279.160;  -72.875; -672.000; -595.000
279.300; -103.800; -926.000; -873.000
279.440;  -87.175; -709.000; -622.000
279.579;  -33.775;-1014.000; -929.000
279.719;  -39.175; -410.000; -394.000
279.859;   73.025;   -4.000;   41.000
279.999;   38.925; -208.000;  101.000
280.139;  -29.300; -435.000; -387.000
280.279;  -70.750; -708.000; -745.000
280.419;  -22.300; -229.000; -147.000
280.559;  -29.775; -259.000; -180.000
280.698;  -96.500; -790.000; -639.000
280.838;  -96.150; -778.000; -800.000
280.978;  -95.400; -846.000; -790.000
281.118; -101.425; -811.000; -704.000
281.257;    1.150;   24.000;    6.000
281.397; -116.950;-1094.000; -960.000
281.537;  -99.150; -599.000; -712.000
281.677;  -31.050; -150.000; -101.000
281.816;  -98.275; -700.000; -630.000
281.956;  -39.050; -193.000; -257.000
282.096;  -73.725; -539.000; -396.000
282.235; -102.150; -672.000; -638.000
282.375;  -17.900; -243.000;  -98.000
282.515;  -96.850; -715.000; -707.000
282.654;   18.550;   29.000;  106.000
282.794;   20.700;  388.000;  244.000
282.934;  -53.000; -530.000; -491.000
283.073; -129.275;-1030.000; -857.000
283.213;  -62.325; -460.000; -467.000
283.353;  -22.650; -408.000; -349.000
283.492;  -28.325; -264.000; -296.000
283.632;  -30.850; -254.000; -168.000
283.771; -102.800; -859.000; -730.000
283.911;  -41.725; -369.000; -260.000
284.050; -118.875; -794.000; -748.000
284.190; -141.050;-1229.000;-1096.000
284.329; -152.150;-1055.000; -964.000
284.469;  -71.025; -516.000; -591.000
284.608;  -64.675; -559.000; -598.000
284.748;  -75.575; -614.000; -570.000
284.887;   -1.125;  -87.000;  -20.000
285.027; -119.325; -844.000; -892.000
285.166;  -31.125; -192.000; -249.000
285.306;    9.000; -116.000;  -33.000
285.445;  -44.750; -229.000; -343.000
285.584;  -80.800; -630.000; -494.000
285.724;  -47.450; -282.000; -322.000
285.863; -108.775; -857.000; -507.000
286.002;  -47.800; -366.000; -276.000
286.142; -105.250; -715.000; -622.000
286.281;  -80.475; -525.000; -493.000
286.420;  -84.975; -554.000; -417.000
286.560;   87.900;  653.000;  623.000
286.699; -137.050; -958.000; -912.000
286.838;  -80.650; -590.000; -591.000
286.978;  -77.325; -533.000; -537.000
287.117; -124.125;-1085.000; -950.000
287.256;  -23.175; -228.000; -211.000
287.395;  -53.025; -197.000; -378.000
287.535;  -42.875; -370.000; -298.000
287.674;  -70.675; -509.000; -484.000
287.813;   50.550;  661.000;  533.000
287.952; -124.200;-1010.000; -871.000
288.091; -142.775;-1049.000; -915.000
288.231;   18.800;   13.000;   15.000
288.370; -159.850;-1217.000;-1200.000
288.509; -105.175; -728.000; -645.000
288.648;  -80.900; -770.000; -548.000
288.787;  -40.100; -243.000;  -87.000
288.926;  -52.650; -454.000; -475.000
289.065;  107.700;  859.000;  672.000
289.204;  -51.125; -377.000; -217.000
289.344; -104.450; -791.000; -690.000
289.483;   39.300;  416.000;  304.000
289.622;  -28.050; -291.000; -149.000
289.761;   -5.300; -309.000; -166.000
289.900; -109.125; -785.000; -626.000
290.039;  -20.900;  -12.000;  -95.000
290.178;  -35.975; -274.000; -180.000
290.317;  -71.000; -618.000; -479.000
290.456;  -80.400; -463.000; -451.000
290.595; -121.375; -961.000; -833.000
290.734; -145.050; -904.000; -891.000
290.873;  -57.950; -456.000; -420.000
291.011; -110.525; -833.000; -843.000
291.150; -100.875; -770.000; -682.000
291.289;  -28.300; -343.000; -110.000
291.428;  -82.075; -599.000; -480.000
291.567;  -51.150; -370.000; -442.000
291.706;    3.875;  109.000;  154.000
291.845;  -95.350; -597.000; -505.000
291.984; -169.250;-1234.000;-1061.000
292.122;   50.800;  602.000;  582.000
292.261;   55.050;  620.000;  463.000
292.400;    2.350; -144.000;  211.000
292.539; -119.725; -959.000; -813.000
292.678;  -37.275; -325.000; -300.000
292.816; -148.575;-1136.000; -965.000
292.955;  -83.225; -844.000; -684.000
293.094;  -35.875; -173.000; -337.000
293.233;  -54.575; -556.000; -400.000
293.371;  -35.300; -225.000;  -84.000
293.510; -100.250; -866.000; -780.000
293.649; -120.925; -959.000; -924.000
293.787;  -60.650;-1083.000;-1012.000
293.926;  -12.525; -113.000;  -32.000
294.065;  -49.800; -379.000; -290.000
294.203;   47.050;  298.000;  406.000
294.342;   16.550;   74.000;  156.000
294.481; 6160.625;51180.000; -836.000
294.619;  -25.525; -425.000; -582.000
294.758; -141.250;-1230.000;-1137.000
294.896;   65.875; -125.000;    5.000
295.035; -124.175;-1040.000;-1006.000
295.174; -137.525;-1082.000; -954.000
295.312;  -45.575; -323.000; -203.000
295.451;  -14.600; -307.000; -428.000
295.589;  -40.150; -389.000; -518.000
295.728;   20.025; -292.000; -165.000
295.866;    8.900;  -36.000;  -51.000
296.005;  -69.200; -584.000; -341.000
296.143;  -79.725; -558.000; -596.000
296.282;  -95.200; -957.000; -881.000
296.420;  -65.100; -657.000; -557.000
296.559;  -93.575; -892.000; -633.000
296.697;   13.975; -847.000; -665.000
296.835;   39.900;-1141.000;-1002.000
296.974;   61.350;  -23.000;   39.000
297.112;    0.625; -443.000; -504.000
297.251;  -63.075; -815.000; -755.000
297.389;   87.975; -576.000; -438.000
297.527;   42.400; -145.000;  -83.000
297.666;  -45.925; -486.000; -438.000
297.804;  -40.675; -404.000; -264.000
297.942;  -12.700; -136.000; -161.000
298.081;   -1.025; -183.000;   63.000
298.219;   59.375;  -17.000;  -19.000
298.357;   52.475; -144.000;  -71.000
298.495;   34.325; -810.000; -812.000
298.634;   76.700;  245.000;  219.000
298.772;   40.650; -220.000; -338.000
298.910;  -28.425; -309.000; -182.000
299.048;  -13.650; -130.000; -153.000
299.187;  -25.325; -350.000; -250.000
299.325;   11.600;   52.000;  122.000
299.463;   46.575; -389.000; -299.000
299.601;  116.950; -327.000; -271.000
299.739;  -94.400; -908.000; -883.000
299.877;  -86.700; -791.000; -703.000
300.016;  -24.100;-1095.000; -935.000
300.154;  145.300;  -19.000; -161.000
300.292;   58.950; -428.000; -348.000
300.430;   25.625; -408.000; -291.000
300.568;  -87.400; -940.000; -874.000
300.706;  -45.600; -366.000; -469.000
300.844;  -64.575;-1108.000; -979.000
300.982;  112.050;  246.000;  282.000
301.120;  -99.725; -965.000; -866.000
301.258;  -84.800; -812.000; -705.000
301.396;   23.600;  104.000;  -41.000
301.534;   63.500; -218.000; -293.000
301.672;   -6.450; -664.000; -521.000
301.810;   28.475; -613.000; -545.000
301.948;  111.625;   53.000;  149.000
302.086;  612.250; -250.000;  -32.000
302.224;  908.850; -610.000; -585.000
302.362;   28.425; -558.000; -622.000
302.500;  -32.550; -923.000; -893.000
302.638;   97.275;  128.000;  245.000
302.776;   -0.975; -352.000; -408.000
302.913;   48.225;  447.000;  236.000
303.051;   -0.825;  -86.000;  -23.000
303.189;   44.950;   90.000;  118.000
303.327;  -28.125; -341.000; -256.000
303.465;  -95.475; -832.000; -588.000
303.603;  -86.175; -805.000; -604.000
303.740;   96.650;  417.000;  241.000
303.878;   16.925; -800.000; -759.000
304.016;  -80.050; -915.000; -790.000
304.154; -105.900;-1123.000;-1152.000
304.291;  -53.275; -505.000; -554.000
304.429;   11.775;  102.000;   74.000
304.567; -126.475; -908.000; -893.000
304.705;  -36.825; -408.000; -515.000
304.842;   96.075; -616.000; -540.000
304.980;   64.650;  215.000;   35.000
305.118;   27.500; -367.000; -365.000
305.255;  -87.750; -945.000; -927.000
305.393;   49.100;  178.000;  239.000
305.531;  -94.525;-1173.000; -956.000
305.668;  -74.625; -663.000; -582.000
305.806;  106.575; -358.000; -439.000
305.943;   96.325; -629.000; -637.000
306.081;   50.875; -378.000; -267.000
306.219; -110.325; -863.000; -748.000
306.356;    3.225;  158.000;   27.000
306.494;   93.750;  981.000;  761.000
306.631;   -1.250;  -11.000;  -55.000
306.769;    1.925; -613.000; -485.000
306.906;  -18.675; -284.000; -258.000
307.044;  -60.475; -473.000; -488.000
307.181;  -60.475; -410.000; -332.000
307.319;   10.650;  112.000;   87.000
307.456; -167.300;-1191.000;-1153.000
307.594;  -99.875; -980.000; -727.000
307.731;   -7.175; -371.000; -164.000
307.868;   -9.500;  -15.000;   20.000
308.006; -127.300; -961.000; -847.000
308.143;  -67.125; -618.000; -330.000
308.281;  170.150;  -37.000; -254.000
308.418;  -23.800; -748.000; -640.000
308.555;  -51.400; -400.000; -250.000
308.693;  -70.725; -577.000; -573.000
308.830; -101.450; -712.000; -657.000
308.967;  -16.800; -215.000;  -95.000
309.105;  -47.175; -507.000; -396.000
309.242;   37.050; -468.000; -367.000
309.379;  322.525; -577.000; -655.000
309.517;  -71.975; -936.000; -948.000
309.654; -102.500; -910.000; -734.000
309.791;  -80.250; -662.000; -580.000
309.928; -117.900; -977.000; -914.000
310.065;  169.675;  819.000;  697.000
310.203;   -9.425; -825.000; -850.000
310.340;  -13.775; -465.000; -321.000
310.477;  -73.150; -412.000; -516.000
310.614;  -69.250; -383.000; -473.000
310.751;  -72.100; -427.000; -518.000
310.889;  -24.250;    1.000;   11.000
311.026; -148.250;-1161.000; -939.000
311.163;  -57.500; -386.000; -380.000
311.300;  -71.375; -512.000; -479.000
311.437;  -85.150; -658.000; -619.000
311.574; -138.300;-1226.000; -985.000
311.711;  -65.625; -595.000; -433.000
311.848;  -38.675; -380.000; -388.000
311.985;    3.550;  270.000;   93.000
312.122; -110.825; -932.000; -762.000
312.259; -119.850; -941.000; -994.000
312.396;  -76.750; -508.000; -551.000
312.533;  -83.850; -812.000; -790.000
312.670; -116.175;-1070.000; -898.000
312.807;  -39.625; -352.000; -367.000
312.944;  -71.950; -513.000; -611.000
313.081;  -41.725; -150.000; -415.000
313.218;  -91.400;-1111.000; -867.000
313.355;    6.125; -531.000; -449.000
313.492;   13.100; -455.000; -292.000
313.629;  122.725;  815.000;  735.000
313.766; -123.450;-1176.000;-1008.000
313.902;  -24.950; -186.000;   21.000
314.039;  -44.475; -372.000; -289.000
314.176;   29.150;  286.000;  192.000
314.313;  -64.150; -569.000; -473.000
314.450;  -67.100; -788.000; -684.000
314.587;  -61.325; -468.000; -480.000
314.723;  -13.150;  -78.000;  130.000
314.860;   26.400;  318.000;  332.000
314.997;   37.500;  223.000;  142.000
315.134;  -40.175; -385.000; -368.000
315.270;  -50.675; -480.000; -496.000
315.407; -106.725;-1094.000; -967.000
315.544;  -51.825; -657.000; -538.000
315.681;  -60.450; -681.000; -565.000
315.817;   22.525; -133.000; -176.000
315.954;   19.775; -613.000; -392.000
316.091; -122.450;-1045.000;-1023.000
316.227;  -10.950;  -71.000; -179.000
316.364;   -3.475;   23.000;    6.000
316.500;  -32.650; -113.000; -300.000
316.637;  -38.325; -181.000; -302.000
316.774;  -87.150; -625.000; -358.000
316.910;  -91.550; -598.000; -629.000
317.047;  -72.925; -487.000; -351.000
317.183;  -53.400; -435.000; -566.000
317.320;  -11.225; -367.000; -321.000
317.456;  -71.575; -733.000; -805.000
317.593;  -87.500; -598.000; -641.000
317.729;   -7.300;  168.000;  -67.000
317.866; -186.825;-1434.000;-1285.000
318.002;  -92.775; -708.000; -948.000
318.139;  -80.750; -883.000; -867.000
318.275; -102.375;-1003.000; -738.000
318.412;  -56.950; -517.000; -336.000
318.548;  -36.800; -751.000; -720.000
318.685;  -94.400; -985.000; -888.000
318.821;  -91.150; -762.000; -735.000
318.957;   -9.425;   34.000;  -23.000
319.094;   17.700;  297.000;  154.000
319.230;  -58.700; -756.000; -742.000
319.367;  138.900; -471.000; -520.000
319.503;   44.825; -538.000; -436.000
319.639;  -84.075; -877.000; -793.000
319.775;  -51.950; -750.000; -685.000
319.912;  -50.450; -424.000; -519.000
320.048;  -83.075;-1184.000;-1184.000
320.184;   83.050;   59.000;   70.000
320.321;  -65.300; -497.000; -467.000
320.457;   59.350;  475.000;  662.000
320.593;  -63.425; -375.000; -382.000
320.729; -107.275; -732.000; -734.000
320.866;  -67.325; -577.000; -635.000
321.002;  -84.825; -759.000; -809.000
321.138;    3.875; -135.000; -211.000
321.274;   66.000; -148.000; -115.000
321.410;  -18.400; -585.000; -353.000
321.546;  -23.800;-1011.000; -911.000
321.683;   58.050;  400.000;  185.000
321.819;   -8.000;  -48.000; -117.000
321.955; -104.450; -743.000; -722.000
322.091;  -38.350; -585.000; -540.000
322.227;   -0.975; -382.000; -202.000
322.363;  -21.425; -320.000; -215.000
322.499;  -40.400; -343.000; -331.000
322.635;  149.925;  636.000;  443.000
322.771;   25.575; -139.000;   12.000
322.907;   84.525;  129.000;  327.000
323.043;  -20.175; -115.000; -206.000
323.179;  -37.350; -394.000; -363.000
323.315;   15.025; -401.000; -371.000
323.451;   89.275; -328.000; -236.000
323.587;   61.450;  -60.000;  -77.000
323.723;   12.225; -682.000; -601.000
323.859;   -9.550; -258.000;  -76.000
323.995;  -38.750; -467.000; -409.000
324.131; -120.675; -967.000; -892.000
324.267;  -32.875; -254.000; -276.000
324.402; -120.250; -960.000; -983.000
324.538;  -14.425; -279.000; -104.000
324.674;   24.975;  164.000;   77.000
324.810;  113.650;  226.000;  308.000
324.946;   -9.775; -810.000; -658.000
325.082;  -83.700; -568.000; -475.000
325.217;  -11.750;  -62.000;   16.000
325.353; -102.225; -764.000; -659.000
325.489;  -86.375; -540.000; -506.000
325.625;  -76.500; -579.000; -525.000
325.760;   63.575;  517.000;  376.000
325.896;  -30.925; -515.000; -702.000
326.032;  -47.925; -403.000; -352.000
326.168;  -58.775; -462.000; -369.000
326.303;  -65.225; -352.000; -461.000
326.439;  -31.550; -336.000; -276.000
326.575;    9.125; -190.000;  -29.000
326.710;  -20.550; -156.000;  -30.000
326.846;   -6.400;  146.000;  103.000
326.982;  -88.100; -530.000; -548.000
327.117;  -73.125; -481.000; -442.000
327.253;  -91.325; -745.000; -742.000
327.388; -124.925;-1137.000;-1153.000
327.524;  -57.000; -811.000; -578.000
327.659;  -15.325;  -58.000;  -22.000
327.795;  -20.550;   69.000;   45.000
327.931;  -79.525; -723.000; -499.000
328.066;  -20.325; -417.000; -276.000
328.202;   -2.775;   12.000; -129.000
328.337;   89.350;  957.000;  713.000
328.473;   30.900;  -12.000;  -74.000
328.608;  -26.650; -256.000; -267.000
328.743;  -73.525; -799.000; -664.000
328.879;    9.850;  214.000;  114.000
329.014;  -31.950; -102.000; -122.000
329.150;  -93.150; -358.000; -483.000
329.285;  -72.425; -465.000; -466.000
329.421;  -56.125; -548.000; -246.000
329.556;  -14.075;  -36.000;   85.000
329.691;  -93.075; -633.000; -615.000
329.827;  -84.475; -626.000; -480.000
329.962;  -50.575;  131.000; -301.000
330.097;  -79.900; -673.000; -585.000
330.233;  -41.375; -410.000; -223.000
330.368; -127.600; -839.000; -628.000
330.503;   -8.775;    3.000;   98.000
330.638;    1.725;  -93.000; -125.000
330.774;  -60.025; -609.000; -530.000
330.909;  -45.500; -434.000; -244.000
331.044; -111.850; -714.000; -708.000
331.179; -152.450;-1217.000;-1109.000
331.315;    6.175;   77.000;   20.000
331.450;   18.550;  157.000;  285.000
331.585;  -92.175; -805.000; -706.000
331.720;  -74.200; -510.000; -460.000
331.855;  -20.000;  -35.000; -102.000
331.990;  269.875;   62.000;  138.000
332.126;  133.225; -110.000;   71.000
332.261;  -12.150; -379.000; -265.000
332.396;    3.125; -135.000; -242.000
332.531;  -86.100;-1074.000;-1031.000
332.666;   29.400; -519.000; -363.000
332.801; -104.575; -726.000; -807.000
332.936;  -28.500; -192.000; -122.000
333.071; -149.850; -870.000; -817.000
333.206;   19.250;  307.000;  379.000
333.341;   27.100;  344.000;  418.000
333.476; -102.225; -627.000; -623.000
333.611;  -30.925; -251.000; -173.000
333.746;  -48.025; -381.000; -464.000
333.881; -113.500; -973.000; -935.000
334.016; -137.125; -936.000; -917.000
334.151; -120.400; -746.000; -702.000
334.286;   13.925;  152.000;  186.000
334.421;  -17.275; -125.000; -178.000
334.556;  -88.175; -611.000; -567.000
334.690;  -85.300; -631.000; -577.000
334.825;   56.650;  381.000;   83.000
334.960;  -58.475; -285.000; -413.000
335.095;   -3.875;  135.000;  -91.000
335.230;  -88.775; -722.000; -738.000
335.365; -145.050;-1084.000; -990.000
335.499; -129.350;-1108.000;-1037.000
335.634;   20.350;    9.000;  534.000
335.769;  -97.375; -755.000; -720.000
335.904;  -58.850; -603.000; -561.000
336.038;  -38.725; -735.000; -657.000
336.173; -130.475;-1206.000;-1194.000
336.308;    5.575; -116.000; -189.000
336.443;   13.775; -544.000; -634.000
336.577;  -77.050; -936.000; -787.000
336.712;   61.025;   -4.000;  -12.000
336.847;  -45.250; -724.000; -607.000
336.981;   60.050; -272.000; -208.000
337.116;  269.200;  615.000;  501.000
337.250;  152.825; -434.000; -421.000
337.385;  276.425; -297.000; -208.000
337.520;   84.525; -632.000; -603.000
337.654;  -34.950; -215.000; -126.000
337.789; -123.275; -989.000; -933.000
337.923;  -30.125; -104.000; -205.000
338.058;  -91.375; -673.000; -738.000
338.192;  -36.700; -611.000; -488.000
338.327;  -17.075;  -18.000; -155.000
338.461;  -71.000; -299.000; -469.000
338.596;  -85.775; -780.000; -638.000
338.730;  -98.900; -767.000; -803.000
338.865;   82.250;  -46.000; -140.000
338.999;  -50.300; -846.000; -702.000
339.134;  -30.000; -634.000; -536.000
339.268;   30.600; -741.000; -603.000
339.403;  366.050; -740.000; -775.000
339.537;  123.300; -894.000; -820.000
339.671; -105.150; -829.000; -813.000
339.806;  -62.000; -556.000; -512.000
339.940;   -0.350; -261.000; -235.000
340.074;  -92.250; -685.000; -510.000
340.209;  -43.875; -351.000; -230.000
340.343;  -79.950; -517.000; -573.000
340.477;  138.725;  998.000; 1036.000
340.612;  -47.750;-1033.000; -900.000
340.746;  140.800; -199.000; -243.000
340.880;  -72.075; -924.000; -785.000
341.014;  -34.675;  -45.000; -154.000
341.149; -117.800; -756.000; -718.000
341.283; -113.500; -839.000; -754.000
341.417;  -90.700;-1124.000; -938.000
341.551;  114.775; -768.000; -708.000
341.685;  -34.300; -633.000; -611.000
341.820;  -67.250; -562.000; -493.000
341.954;  -56.550; -218.000; -349.000
342.088; -161.350;-1102.000;-1019.000
342.222;   53.225;  565.000;  618.000
342.356;  -62.150; -395.000; -335.000
342.490;  -91.425; -880.000; -841.000
342.624;  -41.350; -339.000; -242.000
342.758;  -13.975; -364.000; -312.000
342.892;  -62.500; -710.000; -585.000
343.026;  -45.125;  -58.000; -116.000
343.160;  -74.425; -426.000; -376.000
343.294;  -71.225; -474.000; -337.000
343.428;  -39.775; -488.000; -448.000
343.562;  -15.100; -172.000;  -23.000
343.696;  -30.100; -385.000; -314.000
343.830;  -23.675; -362.000; -356.000
343.964;    9.675; -231.000; -168.000
344.098;  882.225;  199.000;   70.000
344.232;  721.925; -266.000; -127.000
344.366;   87.550; -567.000; -453.000
344.500;   59.675; -665.000; -744.000
344.634;   40.725; -324.000; -164.000
344.768;  -30.250; -531.000; -341.000
344.902;   23.650;  278.000;  256.000
345.035;  -83.600; -556.000; -496.000
345.169; -133.050; -933.000; -656.000
345.303;  -28.850; -308.000; -482.000
345.437;  -65.500; -826.000; -717.000
345.571;  -75.325; -675.000; -594.000
345.704;  -69.350; -309.000; -532.000
345.838;   -6.575; -331.000; -284.000
345.972;  -34.150; -543.000; -495.000
346.106;  147.650; -179.000; -190.000
346.239;  427.500; -312.000; -243.000
346.373;  -10.300; -343.000; -302.000
346.507; -130.800; -950.000; -962.000
346.640;  126.275;  -30.000;   13.000
346.774;  -37.225; -650.000; -797.000
346.908;  -20.225; -138.000;  -11.000
347.041; -108.850; -646.000; -593.000
347.175;    2.650;  259.000;   27.000
347.309;  -64.150; -698.000; -628.000
347.442; -105.050; -883.000; -732.000
347.576;  273.975;  670.000;  668.000
347.709;  186.950; -123.000;  -52.000
347.843;  -91.450; -933.000; -825.000
347.976;   26.775;  235.000;  294.000
348.110; -166.225;-1268.000;-1186.000
348.243; -115.100; -679.000; -772.000
348.377;    7.175;  -26.000;   60.000
348.510;   45.375;  403.000;  540.000
348.644;  -37.625;  -37.000; -159.000
348.777;   -1.775;  180.000;  191.000
348.911;  -43.450; -142.000; -112.000
349.044;  144.500;  471.000;  448.000
349.178;  145.200;-1069.000;-1006.000
349.311;  114.500;  141.000;  255.000
349.444;   12.675; -927.000; -813.000
349.578;  -29.025; -347.000; -200.000
349.711; -103.900; -959.000; -862.000
349.845;  -23.025; -661.000; -591.000
349.978; -135.500;-1224.000;-1137.000
350.111;  -88.725; -546.000; -612.000
350.244;  -79.300; -596.000; -700.000
350.378;   -7.200; -392.000; -393.000
350.511;  -64.050; -393.000; -426.000
350.644; -102.400; -808.000; -806.000
350.778;   12.775;  168.000;  104.000
350.911;    7.000;  134.000;  140.000
351.044;  -91.850; -685.000; -615.000
351.177;  -27.650; -321.000; -281.000
351.310;  -22.275;    3.000; -131.000
351.444;  -93.250; -888.000; -788.000
351.577;  108.650;  140.000;   90.000
351.710;   98.550;  593.000;  417.000
351.843;  -34.450; -165.000;  -77.000
351.976;  -11.925;  149.000;  -79.000
352.109;  -94.650; -621.000; -612.000
352.242;  -39.750; -464.000; -419.000
352.376;  -63.450; -580.000; -636.000
352.509;  142.575; -437.000; -356.000
352.642;    4.475; -654.000; -604.000
352.775;   57.000; -141.000;  -98.000
352.908; -122.250; -933.000; -904.000
353.041;  -97.475; -814.000; -824.000
353.174;  -54.200; -551.000; -424.000
353.307;  -85.200; -753.000; -764.000
353.440;   75.550;  541.000;  453.000
353.573;  -96.350; -957.000;-1008.000
353.706;  -50.250; -384.000; -558.000
353.839;  -24.400; -264.000; -220.000
353.971;  -83.575; -657.000; -512.000
354.104;  -82.025; -896.000; -835.000
354.237;  -39.800; -627.000; -662.000
354.370;  -86.500; -846.000; -879.000
354.503; -178.175;-1231.000;-1308.000
354.636;  -39.875; -529.000; -348.000
354.769; -126.475; -937.000; -860.000
354.902;   -6.975; -230.000; -139.000
355.034;  -16.725; -164.000; -220.000
355.167;  -23.400; -262.000; -162.000
355.300;  -81.850;-1061.000; -880.000
355.433; 1005.075;  -71.000;  -14.000
355.565; 1567.650; -402.000; -384.000
355.698;  402.000; -356.000; -296.000
355.831;    1.050; -882.000; -801.000
355.964;   71.550; -285.000; -170.000
356.096;  -83.725; -856.000; -843.000
356.229;   -2.250; -523.000; -530.000
356.362;  329.450; -373.000; -266.000
356.494;  617.050; -229.000; -162.000
356.627;  469.025;  269.000;  377.000
356.760;  682.650;  120.000;   53.000
356.892;  974.800; -286.000; -601.000
357.025;  632.675;  403.000;  389.000
357.157;  572.525; -167.000; -179.000
357.290;  694.875; -856.000; -713.000
357.423;  210.475; -667.000; -556.000
357.555;  100.975; -217.000; -228.000
357.688;  116.850; -483.000; -364.000
357.820;  447.500; -870.000; -877.000
357.953; 3693.025; -563.000; -589.000
358.085;  811.025; -632.000; -612.000
358.218; 1057.150;-1131.000; -932.000
358.350;  183.100;  -58.000;  312.000
358.483; -112.525;-1300.000;-1187.000
358.615;  -34.050;-1182.000;-1078.000
358.747;  -49.000;-1187.000;-1058.000
358.880;   14.300; -810.000; -744.000
359.012;   -1.350; -376.000; -202.000
359.145;  -37.600; -480.000; -511.000
359.277;   64.625; -962.000; -913.000
359.409; 2983.025;  536.000;  231.000
359.542;  805.100; -738.000; -688.000
359.674;   63.150;   46.000;   13.000
359.806;  -54.375; -565.000; -438.000
359.939;  -40.750; -617.000; -516.000
360.071;  -11.700; -583.000; -579.000
360.203;  -17.875; -411.000; -364.000
360.335;   52.225;  164.000;  -16.000
360.468;  189.950; -249.000; -307.000
360.600; 2426.250; -547.000; -454.000
360.732; 2945.375; -546.000; -423.000
360.864;  430.975;-1216.000;-1044.000
360.996;  251.425; -516.000; -554.000
361.129;   41.925; -389.000; -598.000
361.261;   31.525;  110.000; -113.000
361.393;  -32.825; -252.000; -214.000
361.525;    4.800;   94.000;  244.000
361.657;  -34.875; -821.000; -703.000
361.789;   -4.825; -139.000; -155.000
361.921;  217.175; -642.000; -593.000
362.053;  252.550;  524.000;  541.000
362.185;   55.300;  288.000;   72.000
362.318;  -84.825; -709.000; -705.000
362.450;  112.475;  294.000;  444.000
362.582;   75.025; -913.000; -870.000
362.714;  -43.925; -353.000; -332.000
362.846; -100.100; -606.000; -490.000
362.978; -133.875; -941.000; -811.000
363.109;   20.900; -161.000; -260.000
363.241;  428.700; -739.000; -749.000
363.373;  446.200; -649.000; -564.000
363.505;  698.200; -186.000;  -91.000
363.637;  176.000; -787.000; -601.000
363.769; -113.500;-1067.000;-1080.000
363.901;  -78.675; -596.000; -654.000
364.033; -109.175;-1103.000;-1062.000
364.165;  -20.050; -283.000; -283.000
364.296;   86.975; -316.000; -177.000
364.428;   82.875;-1344.000;-1220.000
364.560;  -61.975; -679.000; -661.000
364.692;  -64.300; -738.000; -835.000
364.824;  245.350; -588.000; -456.000
364.955;  459.325; -402.000; -564.000
365.087;  987.950;-1097.000; -852.000
365.219;   34.350; -686.000; -816.000
365.351;  -63.750; -526.000; -572.000
365.482;   55.325;  300.000;  240.000
365.614;  -33.275; -402.000; -314.000
365.746; -100.425; -729.000; -752.000
365.877;  -90.925; -706.000; -672.000
366.009;  262.425;  -35.000;  -62.000
366.141;  -81.075;-1249.000;-1134.000
366.272; -104.975; -803.000; -719.000
366.404; -105.825;-1005.000; -874.000
366.535;  -21.800; -139.000;  -12.000
366.667; -106.825; -644.000; -649.000
366.799;   32.025;  353.000;  203.000
366.930; -121.700; -862.000; -996.000
367.062;  115.650; -639.000; -613.000
367.193;  163.425; -872.000; -842.000
367.325;  -74.700; -580.000; -684.000
367.456;   43.600; -246.000;   31.000
367.588;  159.425; -371.000; -318.000
367.719;   29.050;  -44.000;  -45.000
367.851;  -17.800; -222.000; -241.000
367.982;  -67.425; -875.000; -732.000
368.113;   86.350; -475.000; -358.000
368.245; -113.500; -960.000; -841.000
368.376;  -20.925; -254.000; -302.000
368.508;  -31.500; -188.000; -263.000
368.639; -143.275;-1166.000;-1034.000
368.770;  -23.675; -670.000; -589.000
368.902;  -61.200; -836.000; -926.000
369.033; -110.325; -906.000; -855.000
369.164;  -33.250; -720.000; -653.000
369.296; -109.425; -452.000; -601.000
369.427;  -23.525; -209.000; -144.000
369.558;  -49.875; -593.000; -377.000
369.689;  -94.250; -721.000; -569.000
369.821; -125.475; -951.000; -845.000
369.952;  -26.875;   42.000; -108.000
370.083;  -47.525; -229.000; -108.000
370.214;  -96.000; -735.000; -650.000
370.345;    5.525;   65.000;   81.000
370.477;  -88.100; -810.000; -790.000
370.608;  217.425; -328.000; -264.000
370.739;  -56.400;-1233.000;-1292.000
370.870;  -26.375;-1102.000; -923.000
371.001;   78.350; -378.000; -467.000
371.132;  -80.625; -754.000; -735.000
371.263;  -13.550;  -42.000; -148.000
371.394; -123.025; -841.000; -748.000
371.525;   23.425;  345.000;  225.000
371.657;  -87.425; -808.000; -670.000
371.788;   58.300;  103.000;  199.000
371.919;  169.875; -384.000; -304.000
372.050; 3481.425;  -91.000; -156.000
372.181; 1031.550; -188.000; -294.000
372.311;  348.050;   42.000; -127.000
372.442;   37.800; -457.000; -451.000
372.573;  -18.825; -444.000; -340.000
372.704; -120.375;-1008.000; -980.000
372.835;   86.600; -228.000; -289.000
372.966;  -45.000; -646.000; -554.000
373.097;  -65.825; -575.000; -711.000
373.228;  -32.725; -717.000; -542.000
373.359;  137.775; -824.000; -536.000
373.490;  889.350; -881.000; -727.000
373.620; 1145.475;-1001.000; -803.000
373.751; 1716.450; -332.000; -396.000
373.882;  789.075; -663.000; -733.000
374.013;   59.600; -449.000; -262.000
374.143;  -36.225; -581.000; -659.000
374.274; -100.950; -987.000; -908.000
374.405;  166.200; -388.000; -276.000
374.536;  415.500; -526.000; -387.000
374.666; 1076.875; -759.000; -807.000
374.797;  202.175; -817.000; -868.000
374.928;  819.900; -710.000; -560.000
375.058;  872.525; -535.000; -500.000
375.189;   75.825;  -59.000;  -93.000
375.320;  -85.800; -928.000;-1034.000
375.450;  -39.625; -625.000; -616.000
375.581;  -35.250; -526.000; -436.000
375.712;  -34.850; -574.000; -250.000
375.842;  279.200; -438.000; -415.000
375.973;  194.250; -554.000; -513.000
376.103;  -50.450; -665.000; -648.000
376.234;  -81.325; -531.000; -552.000
376.364;  -32.650; -944.000; -867.000
376.495;  316.150;  925.000;  529.000
376.625;  -13.450; -472.000; -485.000
376.756;   51.675; -709.000; -678.000
376.886;  -70.550;-1178.000;-1026.000
377.017;   53.925;-1048.000;-1061.000
377.147;  365.500; -786.000; -782.000
377.278;   49.950;  174.000;  228.000
377.408; -104.150; -801.000; -815.000
377.538; -113.675; -707.000; -693.000
377.669;  -70.750; -537.000; -613.000
377.799;  -89.950; -645.000; -635.000
377.929;  -57.925; -610.000; -428.000
378.060; -144.750; -781.000; -847.000
378.190;  -54.475; -726.000; -531.000
378.320;  -72.050; -401.000; -406.000
378.451;  -16.050; -131.000;  -22.000
378.581;    0.850;  -67.000; -110.000
378.711;  143.350; 1035.000;  866.000
378.841;  -42.100; -533.000; -675.000
378.972;  -67.875; -871.000; -751.000
379.102;  -23.675; -652.000; -579.000
379.232;  -29.575; -126.000;  -73.000
379.362; -111.150;-1001.000; -885.000
379.492;   12.150; -373.000; -424.000
379.623;   88.225;    0.000;  111.000
379.753;  -86.225;-1107.000; -974.000
379.883;  189.175;   59.000;  156.000
380.013;    7.800;-1081.000;-1017.000
380.143; -100.300;-1097.000;-1056.000
380.273; -102.350; -985.000; -861.000
380.403;   -9.375; -344.000; -257.000
380.533;  -36.625; -651.000; -664.000
380.663;   56.850;  173.000;  128.000
380.793; -102.225;-1027.000;-1074.000
380.923;  -16.050; -103.000;  -34.000
381.053;  -97.100; -613.000; -623.000
381.183;  -28.325; -106.000; -248.000
381.313;   28.375; -656.000; -470.000
381.443;   43.875; -692.000; -473.000
381.573;  181.275; -402.000; -409.000
381.703;  266.350;-1249.000;-1095.000
381.833; -116.500;-1454.000;-1336.000
381.963;   86.375; -134.000;  -87.000
382.093; 1358.050; -925.000; -909.000
382.223;  447.775; -713.000; -602.000
382.353;  -16.700; -801.000; -608.000
382.482;  338.900;-1091.000; -964.000
382.612;  750.700; -872.000; -644.000
382.742;  416.875; -695.000; -622.000
382.872;  232.750; -565.000; -551.000
383.002;   52.175;  347.000; -132.000
383.131;  -20.550; -226.000; -160.000
383.261;  -41.225; -706.000; -768.000
383.391;  305.450; -552.000; -377.000
383.521; 3317.850;  451.000;  263.000
383.650;  835.575; -947.000; -904.000
383.780;   -6.825; -783.000; -656.000
383.910;  104.675;  880.000;  802.000
384.039;    6.050; -794.000; -656.000
384.169;  198.400;-1205.000;-1017.000
384.299;  -25.225; -650.000; -662.000
384.428;  -95.275; -764.000; -680.000
384.558;  -40.125; -308.000; -275.000
384.687;  -35.550; -414.000; -334.000
384.817;   13.800;   75.000;   -2.000
384.947;   27.725; -234.000; -141.000
385.076;  288.375;  982.000;  912.000
385.206;   97.900;  369.000;  480.000
385.335;  -34.750; -549.000; -417.000
385.465;  -64.650; -655.000; -663.000
385.594;  110.475;  -53.000;  -44.000
385.724;  398.425; -868.000; -838.000
385.853;  116.825; -296.000; -270.000
385.982; 1274.550; -743.000; -787.000
386.112; 2101.575;-1052.000; -871.000
386.241;  146.700; -307.000; -312.000
386.371;   14.100; -174.000;  -87.000
386.500;   -5.575; -825.000; -789.000
386.629;    5.975; -874.000; -817.000
386.759;   75.150;  -43.000;   68.000
386.888;  -17.975; -170.000; -250.000
387.017;  -73.100; -648.000; -620.000
387.147; -101.100; -771.000; -798.000
387.276;   -5.000; -410.000; -397.000
387.405;   -3.425; -398.000; -342.000
387.535;  -38.350; -452.000; -361.000
387.664;  -58.875; -692.000; -620.000
387.793;   55.525; -198.000; -113.000
387.922;  493.275;  255.000;  200.000
388.052;   19.125; -576.000; -423.000
388.181;   -6.825; -342.000; -472.000
388.310;  -15.150; -889.000; -710.000
388.439;  -58.375; -749.000; -742.000
388.568;  181.450;  365.000;  244.000
388.697;  983.575; -756.000; -653.000
388.826;  205.000; -768.000; -666.000
388.956;   32.550; -285.000; -307.000
389.085;  -25.250; -347.000; -287.000
389.214; -117.150; -842.000; -872.000
389.343;  -71.375; -645.000; -413.000
389.472;  399.175;  126.000;  149.000
389.601;  532.325;   91.000;    0.000
389.730;   21.550; -568.000; -687.000
389.859;   57.400;  226.000;   46.000
389.988;  154.900; -423.000; -408.000
390.117;  134.650; -168.000; -146.000
390.246;   -8.175; -331.000; -320.000
390.375;   92.525; -673.000; -626.000
390.504;  -64.325; -703.000; -621.000
390.633;  -84.375; -672.000; -726.000
390.761;  -83.775; -732.000; -645.000
390.890;    4.975;   -4.000; -130.000
391.019;  -30.100; -421.000; -441.000
391.148; -119.150; -826.000; -855.000
391.277;  -74.600; -576.000; -493.000
391.406;  -71.500; -821.000; -805.000
391.534;   23.475;  574.000; -301.000
391.663;  -72.150; -583.000; -645.000
391.792;  -81.300; -673.000; -701.000
391.921;   84.050;   -3.000;   15.000
392.050;  164.000; -287.000; -228.000
392.178;  -53.200;-1206.000;-1061.000
392.307;  134.825; -758.000; -712.000
392.436;   75.300; -427.000; -641.000
392.564;   12.875;  166.000;   -6.000
392.693;  -97.250; -860.000; -682.000
392.822;  164.625; -529.000; -534.000
392.950;   99.725; -880.000; -714.000
393.079;  308.325; -188.000; -328.000
393.208;   45.950; -488.000; -511.000
393.336;  -12.175; -170.000; -145.000
393.465;  -48.775; -317.000; -199.000
393.593;   -0.400;   62.000;   79.000
393.722; -150.525;-1121.000; -916.000
393.850;  -41.175; -188.000;  -61.000
393.979; -141.600; -926.000; -805.000
394.107;  -66.475; -517.000; -537.000
394.236;  -33.075; -570.000; -507.000
394.364;  190.575;  383.000;  206.000
394.493;  345.375; -911.000; -767.000
394.621;   -4.850; -955.000; -916.000
394.750;  732.550; -873.000; -923.000
394.878; 3010.050; -247.000; -149.000
395.007; 4209.475; -721.000; -807.000
395.135;  321.625; -790.000; -721.000
395.263;  -84.575;-1038.000;-1040.000
395.392;    1.725;  -25.000; -107.000
395.520; -134.200; -818.000; -679.000
395.648;  -88.775; -865.000; -915.000
395.777;  -23.175; -366.000; -405.000
395.905;  -48.375; -449.000; -564.000
396.033;   23.050;  217.000;  172.000
396.162;  570.150; -399.000; -453.000
396.290;  522.075;  -17.000;   -2.000
396.418;   84.500; -555.000; -514.000
396.546;  -83.375; -571.000; -466.000
396.674;  -96.150; -850.000; -878.000
396.803;    3.725;  -72.000;  -23.000
396.931;   69.400; -179.000; -199.000
397.059;   41.325;-1026.000; -989.000
397.187; -108.575;-1026.000; -975.000
397.315; -119.625; -884.000; -649.000
397.443;  -96.025; -592.000; -443.000
397.572;  -87.150; -578.000; -424.000
397.700;  -38.125; -607.000; -614.000
397.828;   12.650;  120.000;  -90.000
397.956;  -59.775; -508.000; -478.000
398.084;  -79.400; -767.000; -626.000
398.212;   26.400;  137.000;  124.000
398.340;    9.800;  -56.000;  159.000
398.468;   30.250; -390.000; -169.000
398.596; -133.675; -993.000; -953.000
398.724; -106.675; -762.000; -767.000
398.852; -153.650;-1024.000; -976.000
398.980;  -74.125; -560.000; -560.000
399.108;  -57.575; -982.000; -735.000
399.236;   44.350;   13.000;    8.000
399.363;    4.200;  222.000;  196.000
399.491;  -67.675; -404.000; -398.000
399.619; -124.550; -829.000; -800.000
399.747; -106.575; -859.000; -771.000
399.875;   80.450;  220.000;  234.000
400.003;  -42.250; -359.000; -284.000
400.130;  -84.000; -421.000; -341.000
400.258;  -33.500;  -83.000;   38.000
400.386;  -60.900; -352.000; -168.000
400.514;  -52.650; -526.000; -587.000
400.641;  -80.600; -928.000; -802.000
400.769; -153.925; -979.000; -888.000
400.897; -118.050; -838.000; -793.000
401.025;  -34.900; -166.000; -152.000
401.152;   -4.450;  220.000;   38.000
401.280;  -87.350; -430.000; -429.000
401.408; -112.150; -712.000; -576.000
401.535; -114.675; -735.000; -758.000
401.663; -179.875;-1134.000;-1054.000
401.790;  -88.050; -514.000; -525.000
401.918;   35.825;  436.000;  405.000
402.046;  -27.200;  134.000;  122.000
402.173;  -35.300;  -18.000;    7.000
402.301;  -77.300; -519.000; -397.000
402.428;   47.575;  528.000;  383.000
402.556; -146.875;-1188.000; -913.000
402.683;  -33.050;  -20.000;   -1.000
402.811;  -28.300;  -37.000; -206.000
402.938;  -10.200;   20.000;   27.000
403.066;  178.600; -574.000; -558.000
403.193;  318.375;  299.000;  239.000
403.321;  241.250; -396.000; -574.000
403.448;  311.325;   83.000;   27.000
403.575;  126.375;  -90.000;  -46.000
403.703;  -95.875; -732.000; -557.000
403.830;  -77.650; -531.000; -496.000
403.957; -136.800;-1117.000;-1023.000
404.085;    6.250;  -61.000; -172.000
404.212;  100.725;  -50.000;   63.000
404.339;  266.575; -566.000; -306.000
404.467; 5926.550; -612.000; -524.000
404.594; 4004.250; -287.000; -227.000
404.721;  932.575; -869.000; -764.000
404.848;   71.725; -113.000; -202.000
404.976; -108.525; -856.000; -783.000
405.103;  -25.975;  -14.000;  -82.000
405.230;   -6.450;  190.000;  226.000
405.357;   21.675;  117.000;   44.000
405.484;  264.925;  -49.000;    5.000
405.612;   48.975; -548.000; -563.000
405.739;  -54.600; -488.000; -243.000
405.866;   64.150;  669.000;  385.000
405.993;  -51.650; -398.000; -102.000
406.120; -138.800; -801.000; -887.000
406.247;  -58.300; -323.000; -342.000
406.374;  389.350;  540.000;  629.000
406.501;   94.200; -632.000; -702.000
406.628;  -66.675; -621.000; -589.000
406.755;  -93.100; -803.000; -620.000
406.882;  -58.775; -228.000; -277.000
407.009; -103.550; -719.000; -628.000
407.136;   32.325; -480.000; -401.000
407.263;  130.625; -939.000; -829.000
407.390;  -62.875; -692.000; -614.000
407.517; -167.225;-1139.000;-1187.000
407.644;  -57.125; -332.000; -256.000
407.771; -123.550; -249.000; -287.000
407.898;    6.650;  168.000;  328.000
408.025;  -51.100; -421.000; -313.000
408.151;  -19.250;   82.000;  153.000
408.278;  -65.075; -267.000; -216.000
408.405; -122.275; -931.000; -899.000
408.532;  -57.300; -549.000; -542.000
408.659; -119.225; -677.000; -648.000
408.785; -198.800;-1298.000;-1170.000
408.912;  -70.300; -412.000; -296.000
409.039; -108.825; -610.000; -686.000
409.166;  -98.300; -591.000; -555.000
409.292;  -99.575; -571.000; -534.000
409.419; -129.525; -665.000; -649.000
409.546;  -77.975; -431.000; -192.000
409.672; -120.375; -713.000; -545.000
409.799;  -17.800;  -36.000;   34.000
409.926;  -48.425; -180.000; -179.000
410.052; -160.125;-1127.000;-1091.000
410.179;  -55.825; -368.000; -392.000
410.305;  -85.075; -375.000; -493.000
410.432;  -52.600; -220.000; -333.000
410.558;  -79.500; -305.000; -380.000
410.685; -119.325; -688.000; -431.000
410.812;  -95.550; -409.000; -588.000
410.938; -132.350; -964.000; -808.000
411.065;  -98.150; -671.000; -645.000
411.191;  -26.125; -189.000; -174.000
411.317; -119.475; -823.000; -742.000
411.444;  -63.000; -317.000; -246.000
411.570;  -84.500; -339.000; -294.000
411.697; -131.150; -758.000; -752.000
411.823; -158.175; -989.000; -999.000
411.949;  -35.450;  -56.000;   17.000
412.076; -103.350; -539.000; -519.000
412.202; -116.150; -758.000; -757.000
412.329; -121.150; -798.000; -752.000
412.455; -126.600; -821.000; -657.000
412.581;  -10.850;  -15.000;  172.000
412.707;  -64.150; -540.000; -457.000
412.834;    2.725;  156.000;  219.000
412.960;  -85.725; -785.000; -784.000
413.086;  -88.975; -743.000; -701.000
413.212;  128.975;  604.000;  578.000
413.339;  -53.300; -685.000; -701.000
413.465;  -13.650; -364.000; -310.000
413.591;  -98.175; -757.000; -474.000
413.717;  -46.450; -358.000; -366.000
413.843; -140.400; -839.000; -861.000
413.969;  -62.975;  -47.000; -292.000
414.096; -110.500; -679.000; -679.000
414.222;  -14.600;  -33.000;   85.000
414.348;  -23.350; -652.000; -385.000
414.474;   95.175;   38.000;  -52.000
414.600;  -11.400; -126.000; -144.000
414.726;  -14.000;  -96.000;  -55.000
414.852;  -61.575; -365.000; -342.000
414.978;   19.275;  104.000;  -18.000
415.104;   52.625;   38.000;   80.000
415.230;   15.300; -329.000; -330.000
415.356;   35.025; -409.000; -514.000
415.482;  203.600;   13.000;  -35.000
415.608;  282.250; -247.000; -323.000
415.734;  974.775;   67.000;   38.000
415.860;20206.900; -875.000; -767.000
415.986;15573.650; -685.000; -607.000
416.111; 1371.500; -798.000; -652.000
416.237;  271.275; -424.000; -571.000
416.363; 1117.075; -765.000; -733.000
416.489; 4450.050; -324.000; -251.000
416.615;  520.475; -707.000; -742.000
416.741;  -12.150; -677.000; -784.000
416.866;  -95.025; -673.000; -736.000
416.992; -127.050; -801.000; -818.000
417.118;  -27.100;  -41.000;  -80.000
417.244;  -70.175; -798.000; -531.000
417.369;  -76.575; -801.000; -612.000
417.495;  -21.450; -325.000; -254.000
417.621;  -95.225;-1015.000; -803.000
417.746;  -10.775; -579.000; -572.000
417.872;   31.700; -254.000; -144.000
417.998;   47.475; -515.000; -530.000
418.123; 1070.925;-1073.000; -845.000
418.249; 5648.975; -512.000; -601.000
418.374;  859.575; -916.000; -824.000
418.500;  125.500; -383.000; -482.000
418.626;  122.575;   70.000;  -59.000
418.751;  106.550; -549.000; -448.000
418.877;  204.000; -637.000; -643.000
419.002; 1776.475; -688.000; -560.000
419.128;13093.800; -930.000; -721.000
419.253; 3399.300; -967.000; -837.000
419.379;  467.625; -391.000; -338.000
419.504;  409.775;  325.000;  415.000
419.629;  552.100; -393.000; -212.000
419.755; 3534.725; -317.000; -254.000
419.880;22144.525;  -98.000;   67.000
420.006;11886.450; -280.000; -221.000
420.131;30970.700; -662.000; -775.000
420.256; 4721.850; -315.000; -316.000
420.382;  619.025; -665.000; -687.000
420.507;   78.150; -649.000; -778.000
420.632;  127.025; -337.000; -339.000
420.758;  222.800; -251.000; -425.000
420.883;  -83.925; -876.000; -672.000
421.008; -107.575; -775.000; -619.000
421.133;  -84.075; -509.000; -467.000
421.259;  -43.725; -325.000; -259.000
421.384; -112.075; -834.000; -693.000
421.509;  -64.475;-1052.000; -862.000
421.634; 1020.525; -936.000; -820.000
421.759;  478.350; -359.000; -327.000
421.885;  -45.525; -717.000; -656.000
422.010;  -84.250; -673.000; -542.000
422.135; -149.425; -695.000; -727.000
422.260;   26.275;  340.000;  280.000
422.385;  -38.975;   12.000;  -98.000
422.510;   -4.200;  151.000;  -26.000
422.635;   10.025;  -87.000;  -43.000
422.760;   97.450; -766.000; -791.000
422.885;   56.850;  -57.000;  -80.000
423.010;  -36.825; -112.000; -169.000
423.135; -102.850; -481.000; -561.000
423.260;  -16.900; -150.000; -245.000
423.385;   54.950;  476.000;  222.000
423.510;   25.075;   71.000;  -22.000
423.635;   77.900;  133.000;   45.000
423.760;   47.450;  383.000;  328.000
423.885;   52.450;  336.000;  391.000
424.010;   19.750;  -68.000;  -13.000
424.135;  -32.125;    5.000;  -33.000
424.259;  -85.900; -654.000; -457.000
424.384;  -56.075; -279.000; -272.000
424.509;  -30.775; -260.000; -186.000
424.634;  -86.175; -761.000; -623.000
424.759;  -24.525; -688.000; -544.000
424.883;   -6.150; -506.000; -527.000
425.008;  159.850; -502.000; -410.000
425.133; 2055.100; -679.000; -653.000
425.258; 1011.775; -517.000; -381.000
425.382;  976.325; -867.000; -774.000
425.507; 2582.025; -487.000; -543.000
425.632;  476.025; -802.000; -663.000
425.756;  461.800; -256.000; -146.000
425.881; 6596.625; -831.000; -857.000
426.006;18991.850; -604.000; -355.000
426.130; 3134.650; -696.000; -508.000
426.255;  409.075; -611.000; -491.000
426.379;  180.825; -189.000; -577.000
426.504;  370.950;  660.000;  544.000
426.629; 4094.800; -519.000; -466.000
426.753; 2968.750;   64.000;  -46.000
426.878;  364.900; -252.000; -288.000
427.002;  187.000; -651.000; -668.000
427.127; 1563.650;  -35.000; -158.000
427.251;11838.150;  372.000;  401.000
427.375; 3612.000; -191.000; -173.000
427.500; 2251.250; -616.000; -610.000
427.624;  799.150; -234.000; -400.000
427.749;   84.725; -216.000; -225.000
427.873;  -20.450; -499.000; -412.000
427.997;  -46.125; -222.000; -230.000
428.122;   72.100;  795.000;  703.000
428.246;   55.675;  433.000;  434.000
428.371; -114.025; -869.000; -773.000
428.495; -100.225; -624.000; -646.000
428.619;  -27.875; -186.000; -117.000
428.743;   19.425;   65.000;  132.000
428.868;   -5.375; -732.000; -643.000
428.992; 1312.250; -219.000; -326.000
429.116;  553.800; -329.000; -357.000
429.240;  258.000;  419.000;  426.000
429.365;  -17.350; -454.000; -574.000
429.489;  -38.575; -638.000; -647.000
429.613;   33.775; -236.000; -177.000
429.737;   34.350; -563.000; -432.000
429.861;  282.975; -247.000; -133.000
429.985; 5591.800; -425.000; -305.000
430.109; 6569.275; -770.000; -908.000
430.234;  782.650;   76.000;  -50.000
430.358;   89.675; -250.000; -160.000
430.482;  -69.475; -672.000; -564.000
430.606;  -51.725; -655.000; -375.000
430.730;    7.775; -437.000; -388.000
430.854;  115.500; -909.000; -835.000
430.978;  -77.075; -795.000; -764.000
431.102;  -77.225; -499.000; -422.000
431.226; -139.675; -874.000; -815.000
431.350;   22.975;  345.000;  422.000
431.474;  -88.700; -661.000; -373.000
431.597; -132.375;-1060.000; -848.000
431.721;  -80.175; -276.000; -267.000
431.845; -124.000; -704.000; -472.000
431.969;  -89.075; -304.000; -349.000
432.093;  -90.425; -395.000; -317.000
432.217;  -19.125;   32.000;   82.000
432.341; -103.050; -523.000; -518.000
432.464;   -3.850;   96.000;   40.000
432.588;  180.225; -401.000; -329.000
432.712;   78.975;  -52.000;  -52.000
432.836;   51.900;  213.000;  263.000
432.959;   -9.975; -372.000; -311.000
433.083;   92.800;   11.000;    2.000
433.207;  382.800;  285.000;  930.000
433.330; 5124.650; -391.000; -200.000
433.454; 6746.000; -654.000; -638.000
433.578; 3796.850;  583.000;  278.000
433.701;  761.350; -623.000; -675.000
433.825;  151.525; -292.000; -299.000
433.949;  155.325;   28.000;  -72.000
434.072;   46.175; -410.000; -323.000
434.196;  -22.975; -309.000; -117.000
434.319; 3628.475;25482.000;25124.000
434.443;  705.950; -656.000; -603.000
434.566; 2794.575;  281.000;   62.000
434.690;  517.350; -637.000; -383.000
434.813;   66.775; -251.000; -173.000
434.937;  -79.775; -569.000; -696.000
435.060;  -33.650; -423.000; -332.000
435.184;  245.675; -492.000; -217.000
435.307;  164.975;  159.000;  102.000
435.431;  -24.975;  -40.000;   24.000
435.554;  -87.075; -399.000; -240.000
435.677; -102.300; -350.000; -258.000
435.801;  -40.700;  -25.000;   49.000
435.924;  -40.800;    1.000;  -67.000
436.048; -117.800;-1019.000; -732.000
436.171;  -85.700; -240.000;  -66.000
436.294;  -26.475; -248.000; -229.000
436.417;  110.700; -963.000; -849.000
436.541;  -68.550; -814.000; -840.000
436.664;  -68.875; -242.000; -316.000
436.787;  -31.250;   13.000;  113.000
436.910; -109.250; -792.000; -422.000
437.034;   -3.375;  142.000;  143.000
437.157;   25.425;  -11.000;    0.000
437.280;  -43.275; -392.000; -292.000
437.403; -108.125; -982.000; -869.000
437.526;  491.700; -903.000; -865.000
437.649; 2023.900; -505.000; -332.000
437.772;  304.375; -692.000; -540.000
437.896;  111.300;  700.000;  544.000
438.019;  -97.975; -758.000; -503.000
438.142;  -88.275; -596.000; -506.000
438.265;  -39.875; -639.000; -670.000
438.388;  497.025; -520.000; -410.000
438.511;  104.650; -597.000; -394.000
438.634;  -43.675; -247.000; -125.000
438.757; -129.475; -693.000; -619.000
438.880;  -23.750;  -34.000;  -57.000
439.003;  -75.900; -417.000; -437.000
439.126;  -76.400; -287.000; -167.000
439.248;  -61.925;  -98.000; -139.000
439.371;  -51.950;    9.000;  -53.000
439.494;   30.725;  510.000;  439.000
439.617;  -48.150;   65.000;  -88.000
439.740; -180.825; -968.000; -816.000
439.863; -145.775; -755.000; -595.000
439.986; -133.850; -476.000; -431.000
440.108;  -47.750; -161.000; -112.000
440.231; -151.450; -950.000; -836.000
440.354;  -50.525;  -64.000; -150.000
440.477;   16.625; -566.000; -542.000
440.599;   -7.750; -200.000; -225.000
440.722; -115.950; -709.000; -586.000
440.845;   58.500;  751.000;  928.000
440.968; -111.700; -415.000; -311.000
441.090;  -64.400; -199.000;  -33.000
441.213; -168.300;-1021.000; -825.000
441.336;  -63.150; -159.000;   -5.000
441.458;  -78.175; -549.000; -396.000
441.581;  -94.750; -628.000; -629.000
441.703;  -67.400; -152.000;   13.000
441.826; -125.375; -557.000; -400.000
441.948;  -49.500;   56.000;   51.000
442.071;   19.450;  555.000;  424.000
442.193; -123.050; -531.000; -485.000
442.316;    7.275;  152.000;   97.000
442.438;   38.400; -233.000;  -10.000
442.561;   65.650;  272.000;  262.000
442.683;  441.225; -809.000; -522.000
442.806; 1052.375;   -8.000;   74.000
442.928;   24.300; -859.000; -604.000
443.051;  -66.725; -577.000; -373.000
443.173;  -96.200; -341.000; -339.000
443.295;  -90.050; -263.000; -371.000
443.418;  -63.400; -321.000;  -29.000
443.540;  -21.825; -106.000;   -4.000
443.662; -113.225; -563.000; -465.000
443.785;  -17.450;  335.000;  199.000
443.907;  -99.925; -362.000; -208.000
444.029; -127.650; -767.000; -494.000
444.152; -138.700; -644.000; -554.000
444.274;  -41.300;  -18.000;  -24.000
444.396; -100.475; -461.000; -221.000
444.518; -123.300; -691.000; -454.000
444.640; -104.875; -268.000; -111.000
444.763;  -38.650;  388.000;  249.000
444.885; -103.700; -432.000; -392.000
445.007;  -34.675;   35.000;   86.000
445.129; -112.525; -610.000; -515.000
445.251; -107.350; -372.000; -439.000
445.373; -127.775; -537.000; -386.000
445.495;   -3.975;  242.000;  350.000
445.617;   53.225;  853.000;  753.000
445.739;  -58.100; -215.000;  -97.000
445.861;  -32.100; -245.000; -112.000
445.984;  -43.300; -267.000; -101.000
446.105;  180.450; -418.000; -251.000
446.227;  550.825; -176.000;  -19.000
446.349;   15.900; -358.000; -249.000
446.471; -102.650; -615.000; -448.000
446.593;  -57.475; -316.000;   19.000
446.715;   -9.575;  -67.000;   41.000
446.837;   66.425;  697.000;  832.000
446.959; -104.475; -457.000; -478.000
447.081; -124.300; -628.000; -518.000
447.203;   53.850;  862.000;  834.000
447.325;  -83.650; -270.000;   42.000
447.446;   -6.625;  286.000;  530.000
447.568; -145.425; -921.000; -803.000
447.690;  -89.150; -236.000; -245.000
447.812; -138.550; -798.000; -519.000
447.933;  -42.300;  155.000;  127.000
448.055;  -52.225; -306.000; -261.000
448.177;  127.100;   31.000;   79.000
448.299;   74.200; -935.000; -727.000
448.420;   18.225;  -25.000;  159.000
448.542;  -28.000;   -3.000;   33.000
448.664;   -8.425;  109.000;  322.000
448.785;  -37.325;  265.000;   83.000
448.907;  -93.425; -614.000; -353.000
449.028;  -19.025; -771.000; -471.000
449.150;   61.550;  492.000;  589.000
449.272; -167.075;-1044.000; -913.000
449.393;    9.375;  612.000;  694.000
449.515; -135.150; -634.000; -581.000
449.636;  -71.100; -264.000; -155.000
449.758;   75.500;  763.000;  622.000
449.879; -101.725; -498.000; -396.000
450.001;  -86.700; -149.000;  -49.000
450.122;  -50.425;  -95.000;  162.000
450.244;  -20.600;   37.000;  364.000
450.365;  -94.350; -495.000; -301.000
450.486;  -26.800;   80.000;  268.000
450.608;   24.775;  393.000;  326.000
450.729;   72.650;  578.000;  645.000
450.850;   18.000; -574.000; -466.000
450.972;  774.875; -552.000; -389.000
451.093; 5096.900;  190.000;  588.000
451.214; 2405.125; -516.000; -337.000
451.336;  440.625;  773.000;  579.000
451.457;   63.575;  264.000;  393.000
451.578;  -39.925; -118.000;  -74.000
451.699; -113.025; -546.000; -540.000
451.821;  -69.225; -284.000;  -50.000
451.942;   12.925;  278.000;  285.000
452.063;   31.750;  228.000;  419.000
452.184;  561.575;  -54.000;  -49.000
452.305; 1153.025;  103.000;  170.000
452.427;  163.100; -549.000; -301.000
452.548;  -10.075;   23.000;   79.000
452.669;  -37.075; -257.000;  -89.000
452.790;  -38.875;    3.000;  -18.000
452.911;   -2.300;  195.000;  259.000
453.032;  -78.300; -289.000;  -60.000
453.153;  -40.800;  -29.000;   81.000
453.274;   45.725;  737.000;  868.000
453.395;  -47.825;  -51.000;  175.000
453.516;  111.200; 1317.000; 1388.000
453.637;  -75.975; -205.000; -150.000
453.758;  -66.050;   15.000;   69.000
453.879; -112.800; -462.000; -250.000
454.000;   76.600; 1086.000;  948.000
454.121; -115.200; -554.000; -326.000
454.242; -107.650; -599.000; -383.000
454.362;  -43.975;  -99.000;  114.000
454.483;  -35.550; -309.000; -229.000
454.604;   56.975;  512.000;  580.000
454.725; -134.675; -627.000; -555.000
454.846; -115.225; -474.000; -406.000
454.967;  -17.950;  230.000;  539.000
455.087;  -33.075;  179.000;  153.000
455.208;    5.550;  554.000;  856.000
455.329;  -55.825;  -22.000;   82.000
455.450;   42.375;  473.000;  633.000
455.570;  -79.700; -234.000; -211.000
455.691;  -50.075;  201.000;  407.000
455.812; -102.450; -270.000;  -92.000
455.932;  -67.375;  107.000;  -97.000
456.053;  -83.300;   36.000;   24.000
456.173; -108.250; -433.000; -355.000
456.294; -120.825; -476.000; -303.000
456.415;  -76.775;  -73.000;   70.000
456.535;  -45.675;  297.000;  273.000
456.656;  -55.175;  132.000;  240.000
456.776;  -73.475;    3.000;  298.000
456.897;  -21.500;  308.000;  513.000
457.017;  -73.050; -153.000;   -3.000
457.138; -128.450; -402.000; -249.000
457.258;  -36.450;  263.000;  224.000
457.379;  -15.150;  509.000;  521.000
457.499;  -25.300;  443.000;  432.000
457.620; -122.875; -407.000; -231.000
457.740; -104.575; -132.000;  -11.000
457.860;  -74.675;   87.000;   44.000
457.981;  -34.900;  132.000;  124.000
458.101;  -72.400;  -89.000;   40.000
458.221;  -17.525;  336.000;  402.000
458.342;  -60.150;   -4.000;  -37.000
458.462;   27.550;  617.000;  352.000
458.582;  -13.875; -302.000; -294.000
458.703;    8.900;  303.000;  154.000
458.823;  -29.100;   22.000;  163.000
458.943;   32.325;  341.000;  467.000
459.063;  -16.625; 1124.000;  192.000
459.183;  -14.550;  328.000;  313.000
459.304;   -0.200;  315.000;  517.000
459.424;  -54.325; -246.000;  -89.000
459.544;  316.825;  388.000;  764.000
459.664;  893.800;  499.000;  506.000
459.784;  334.775; 1004.000; 1175.000
459.904;   62.425;  867.000;  744.000
460.024;   57.950;  867.000;  684.000
460.144;   11.075;  449.000;  554.000
460.264;  -15.925;  515.000;  327.000
460.385;  -98.000; -145.000; -119.000
460.505;   26.175;  905.000;  858.000
460.625;  -99.050;  -17.000;  -68.000
460.745;  -18.625;  396.000;  541.000
460.864;  -37.925;  153.000;  469.000
460.984;    3.950;  499.000;  573.000
461.104;  126.825; 1656.000; 1775.000
461.224;    9.500;  657.000;  650.000
461.344;  -36.225;  431.000;  360.000
461.464;  -27.550;  258.000;  513.000
461.584;  -14.325;  283.000;  466.000
461.704;  -52.375;   58.000;  108.000
461.824;  -43.175;  238.000;  259.000
461.943;  -54.775;  191.000;  130.000
462.063;  -70.825;    2.000;  324.000
462.183;   28.375;  639.000;  717.000
462.303;  102.875; 1678.000; 1230.000
462.422;   32.600;  781.000;  840.000
462.542;  -37.425;  271.000;  391.000
462.662;   41.750;  353.000;  380.000
462.782;  260.725;  833.000;  572.000
462.901;  491.900;  545.000;  717.000
463.021;  306.825; 1702.000; 1638.000
463.141;   -7.900;  337.000;  770.000
463.260;  -22.500;  614.000;  474.000
463.380;    4.975;  902.000;  884.000
463.499;  -31.525;  342.000;  332.000
463.619;  -35.200;  581.000;  559.000
463.738;  101.525; 1644.000;  903.000
463.858;   24.925;  657.000;  811.000
463.978;  -29.800;  542.000;  396.000
464.097;   37.075;  921.000; 1114.000
464.217;  117.800; 1196.000; 1143.000
464.336;  122.950; 1068.000; 1130.000
464.455;  -29.350;  328.000;  659.000
464.575;   36.100;  597.000;  602.000
464.694;  175.425; 1204.000; 1179.000
464.814;  115.400; 1190.000; 1138.000
464.933;   74.925; 1095.000; 1027.000
465.052;   88.575; 1412.000; 1054.000
465.172;   90.225;  922.000;  799.000
465.291;  142.375; 1376.000; 1320.000
465.410;   17.000;  462.000;  735.000
465.530;   89.525; 1355.000; 1310.000
465.649;   65.850; 1209.000; 1273.000
465.768;  131.325; 1673.000; 1508.000
465.888;   47.975;  941.000; 1174.000
466.007;   70.550; 1335.000; 1440.000
466.126;    2.750;  721.000;  641.000
466.245;   23.500; 1176.000; 1187.000
466.364;    7.175;  950.000; 1060.000
466.484;   46.600; 1024.000; 1213.000
466.603;   44.175; 1101.000; 1222.000
466.722;  118.200; 1490.000; 1769.000
466.841;   85.550; 1151.000; 1401.000
466.960;   43.050; 1069.000;  972.000
467.079;  134.750; 1971.000; 1786.000
467.198;   51.100; 1238.000; 1181.000
467.317;   87.300; 1768.000; 1162.000
467.436;   59.750; 1709.000; 1261.000
467.555;  138.800; 1796.000; 1746.000
467.674;   63.100; 1227.000; 1329.000
467.793;   40.300; 1376.000; 1374.000
467.912;   93.800; 1658.000; 1539.000
468.031;  138.400; 2038.000; 1930.000
468.150;  132.600; 1842.000; 1837.000
468.269;  193.000; 2313.000; 2090.000
468.388;  180.075; 2168.000; 2339.000
468.507;  256.875; 2884.000; 2903.000
468.626;  263.600; 2555.000; 2541.000
468.744;  162.450; 2018.000; 2174.000
468.863;  192.675; 2312.000; 2523.000
468.982;   99.700; 1503.000; 1555.000
469.101;  229.900; 2788.000; 2692.000
469.220;  143.200; 2333.000; 2176.000
469.338;  265.325; 2935.000; 3051.000
469.457;  194.925; 2719.000; 2545.000
469.576;  339.375; 3953.000; 3784.000
469.695;  249.625; 2877.000; 3066.000
469.813;  435.300; 4148.000; 4192.000
469.932;  402.375; 4255.000; 4485.000
470.051;  402.350; 4075.000; 4161.000
470.169;  843.025; 4470.000; 4338.000
470.288; 1505.500; 4700.000; 4809.000
470.406;  941.325; 5059.000; 5194.000
470.525;  632.950; 6101.000; 5787.000
470.644;  630.725; 6847.000; 6794.000
470.762;  801.650; 8397.000; 7873.000
470.881;  910.625; 8651.000; 8464.000
470.999; 1002.475; 9685.000; 9151.000
471.118; 1118.750;11174.000;10711.000

