
Integration time [ms]: 100.000
Averaging Nr. [scans]: 40
Smoothing Nr. [pixels]: 0
Data measured with spectrometer [name]: 2101012U2
Wave   ;Sample   ;Dark     ;Reference
[nm]   ;[counts] ;[counts] ;[counts] 

197.733;   60.650;  516.000;  404.000
197.879;  -84.675; -610.000; -634.000
198.025;  -42.925; -475.000; -420.000
198.171;  -84.200; -602.000; -612.000
198.317;  -32.300; -401.000; -316.000
198.463;  -68.450; -655.000; -404.000
198.609;   31.225;  181.000; -137.000
198.755;  -81.600; -644.000; -410.000
198.901;  -73.875; -505.000; -424.000
199.047;  -64.700; -615.000; -488.000
199.193;  -47.225; -230.000; -468.000
199.339;  -42.025; -222.000; -369.000
199.485;   47.825;  330.000;  271.000
199.631;    8.550;  227.000;  310.000
199.777;  -53.050; -466.000; -398.000
199.923;  -73.475; -610.000; -424.000
200.069;   -2.950; -141.000;  -58.000
200.215;   52.900;  128.000;  453.000
200.361;   49.975;  243.000;  477.000
200.507;  -58.375; -600.000; -373.000
200.653;  -32.650; -371.000; -194.000
200.798;  -30.625; -215.000; -125.000
200.944;   -8.475; -146.000;  -41.000
201.090;   33.200;   61.000;  222.000
201.236;   -0.250; -116.000; -158.000
201.382;  125.275;  874.000;  903.000
201.528;    4.600;  -58.000;  -48.000
201.674;  -58.450; -386.000; -293.000
201.819;  -66.700; -540.000; -439.000
201.965;  -99.975; -699.000; -447.000
202.111;  -26.500; -273.000; -226.000
202.257;  -32.600; -250.000; -238.000
202.402;    4.250;   13.000;  -36.000
202.548;  -40.525; -169.000; -116.000
202.694;   93.600;  410.000; -183.000
202.840;  -71.950; -603.000; -531.000
202.985;  -81.750; -681.000; -639.000
203.131; -117.725; -832.000; -666.000
203.277;  -32.025; -199.000; -262.000
203.423;  -59.525; -434.000; -520.000
203.568;  -31.975; -462.000; -237.000
203.714;  -60.700; -535.000; -542.000
203.860;  -85.225; -682.000; -641.000
204.005;    9.975;  112.000;  167.000
204.151;   71.775;  561.000;  556.000
204.296;  -50.025; -354.000; -221.000
204.442;  -80.400; -600.000; -547.000
204.588;  -78.675; -592.000; -579.000
204.733;   26.525;  178.000;  168.000
204.879; -137.675;-1018.000; -822.000
205.025;    7.200;  -99.000;  126.000
205.170;   -3.950;  -17.000;   94.000
205.316;   85.275;  438.000;  661.000
205.461;  -82.475; -698.000; -554.000
205.607;   83.700;  609.000;  665.000
205.752;  -81.050; -626.000; -551.000
205.898;  -60.675; -501.000; -391.000
206.043;  -64.075; -578.000; -506.000
206.189;  -41.150; -243.000; -285.000
206.334;   71.100;  554.000;  606.000
206.480;   73.550;  409.000;  239.000
206.625;  -92.550; -529.000; -552.000
206.771;  -48.375; -451.000; -373.000
206.916;  -37.350; -210.000; -537.000
207.062;  -72.825; -545.000; -591.000
207.207;  -67.025; -546.000; -443.000
207.353;   48.700;  185.000;  460.000
207.498;    0.525;  196.000;   85.000
207.643;  -44.750; -501.000; -370.000
207.789; -149.275;-1069.000; -910.000
207.934;  -98.225; -665.000; -713.000
208.080;  -27.650; -154.000;   66.000
208.225;   -2.200;  -22.000;  -57.000
208.370;  -74.550; -727.000; -619.000
208.516;  -68.575; -741.000; -487.000
208.661;  -45.550; -127.000;  -69.000
208.806;  -26.175; -165.000; -171.000
208.952; -134.450;-1044.000; -731.000
209.097;   73.825;  378.000;  349.000
209.242;  -52.700; -307.000; -382.000
209.387;   64.675;  392.000;  350.000
209.533;  -55.000; -321.000; -350.000
209.678;   81.050;  472.000;  543.000
209.823;  -53.175; -408.000; -310.000
209.969; -105.250; -860.000; -757.000
210.114; -112.175; -907.000; -719.000
210.259; -124.600; -939.000; -889.000
210.404;  -27.525; -171.000;  103.000
210.549;   -2.425;  108.000;    3.000
210.695;  -22.175;   -3.000;  -95.000
210.840;   32.150;   94.000;   67.000
210.985;  -74.650; -484.000; -303.000
211.130;   72.725;  268.000;  406.000
211.275;    5.125;  207.000;  199.000
211.420;  -56.250; -300.000; -289.000
211.566;  -77.950; -536.000; -489.000
211.711;   18.650;  218.000;  157.000
211.856;  -63.925; -545.000; -519.000
212.001;    8.850;  151.000;   44.000
212.146;   24.850;  153.000;   49.000
212.291;  -28.350; -210.000; -186.000
212.436;  -39.950; -280.000;   -6.000
212.581;  -77.200; -685.000; -653.000
212.726;  -78.550; -487.000; -538.000
212.871;  -51.475; -552.000; -217.000
213.016; -138.975;-1172.000;-1029.000
213.161;   42.625;  406.000;  291.000
213.306;  -83.400; -435.000; -577.000
213.451;  -98.950; -778.000; -689.000
213.596;  -44.750; -455.000; -347.000
213.741;  -54.375; -448.000; -538.000
213.886;  -89.350; -498.000; -517.000
214.031;  -13.150; -294.000; -124.000
214.176;  -58.050; -408.000; -341.000
214.321;  -26.425; -296.000; -157.000
214.466;  -34.650; -163.000;  -43.000
214.611;  -11.075;  -61.000;  -10.000
214.756; -114.900; -948.000; -858.000
214.901;  -23.650; -388.000; -226.000
215.046; -120.600; -797.000; -825.000
215.191;   17.125;  128.000;   35.000
215.336;  -19.425; -157.000;  -19.000
215.480;  -68.750; -684.000; -505.000
215.625;  -26.125; -175.000;  -19.000
215.770;  -93.075; -757.000; -662.000
215.915;  -22.575;   -5.000;  -97.000
216.060;  -15.500; -113.000;  -21.000
216.205; -112.950; -731.000; -779.000
216.349;  -72.850; -470.000; -533.000
216.494; -134.550; -939.000; -867.000
216.639; -115.400; -823.000; -888.000
216.784;  -87.850; -577.000; -525.000
216.929;   43.300;  392.000;  281.000
217.073;  -13.425; -244.000;  -31.000
217.218;    6.925;   78.000;  -47.000
217.363;  -96.900; -656.000; -618.000
217.507;  -87.650; -623.000; -588.000
217.652; -140.275; -845.000; -874.000
217.797;  -87.300; -708.000; -659.000
217.942; -116.550; -856.000; -720.000
218.086;   74.075;  608.000;  539.000
218.231;  -28.550; -174.000;  -26.000
218.376;  -39.650; -337.000; -229.000
218.520;  -12.100;  -41.000;   96.000
218.665;  -35.425; -338.000; -204.000
218.810;  -58.575; -275.000; -233.000
218.954;   23.425;  201.000;   35.000
219.099; -127.750; -713.000; -963.000
219.243;  -78.800; -589.000; -554.000
219.388;  -31.750; -264.000; -136.000
219.532;  -13.900; -116.000; -116.000
219.677;  -76.275; -564.000; -521.000
219.822;    2.625;   33.000;   89.000
219.966;   -2.725;   17.000;  -99.000
220.111;  -37.075; -328.000;  -40.000
220.255;  -95.100; -797.000; -750.000
220.400;  -21.800; -180.000; -146.000
220.544;  -76.725; -516.000; -450.000
220.689;  -47.000; -422.000; -451.000
220.833;   -8.275; -123.000;  -58.000
220.978;  -43.625; -393.000; -563.000
221.122;    6.675;  319.000;  307.000
221.267; -133.775; -906.000; -837.000
221.411;  -81.125; -478.000; -394.000
221.555;  -13.475; -104.000;  -23.000
221.700;  -55.250; -329.000; -222.000
221.844;   32.050;  255.000;  272.000
221.989;  -47.600; -328.000; -311.000
222.133;  -37.700; -289.000; -307.000
222.277;  -10.950;    5.000;   78.000
222.422;   11.250;  227.000;  113.000
222.566;  -58.000; -381.000; -214.000
222.711;  -58.975; -414.000; -479.000
222.855;  -87.700; -643.000; -586.000
222.999;  -88.250; -642.000; -717.000
223.144;  -34.500; -195.000; -194.000
223.288;   43.925;  423.000;  251.000
223.432;   12.850;  184.000;  230.000
223.576;    8.850;  152.000;  -21.000
223.721;   44.575;  364.000;  273.000
223.865;  -54.775; -472.000; -475.000
224.009;  267.500; 1673.000; 1631.000
224.153;  -78.975; -660.000; -671.000
224.298;  -71.800; -531.000; -489.000
224.442;   -3.825;  -74.000;  -33.000
224.586;  -14.975; -169.000; -106.000
224.730;  -97.125; -858.000; -670.000
224.875; -116.250; -739.000; -688.000
225.019;    3.400;  102.000;  188.000
225.163;   46.850;  208.000;  341.000
225.307;   23.125;   97.000;  -91.000
225.451;   52.325;  360.000;  481.000
225.595;   24.025;  264.000;  176.000
225.739;  -38.925; -170.000;  -94.000
225.884;    7.300;   86.000;    5.000
226.028; -109.625; -760.000; -626.000
226.172;  -36.525; -260.000; -273.000
226.316; -128.150; -941.000; -902.000
226.460;  -75.200; -645.000; -493.000
226.604;  -62.325; -406.000; -400.000
226.748; -105.575; -836.000; -733.000
226.892;  -45.025; -227.000; -181.000
227.036;  -50.350; -537.000; -447.000
227.180;  -55.575; -551.000; -375.000
227.324;  -77.775; -561.000; -580.000
227.468; -132.400; -819.000; -717.000
227.612;    0.250;  242.000;  -28.000
227.756; -118.525; -845.000; -698.000
227.900;   47.150;  342.000;  441.000
228.044;  -65.750; -509.000; -290.000
228.188;   58.000;  448.000;  568.000
228.332;  -89.600; -546.000; -472.000
228.476;  -21.300; -223.000; -149.000
228.620;  -47.450; -210.000; -150.000
228.764;   66.950;  431.000;  349.000
228.908;  -25.925; -155.000;   30.000
229.052;  -77.000; -615.000; -528.000
229.195;  -23.725; -172.000;   13.000
229.339;  -26.925; -235.000; -305.000
229.483;  -35.875;    5.000; -162.000
229.627;  -20.400; -156.000;  139.000
229.771;  -62.775; -218.000; -294.000
229.915;   10.050;  230.000;   79.000
230.059;  -87.450; -648.000; -663.000
230.202;  -32.900; -370.000; -317.000
230.346;  -24.425; -107.000;  107.000
230.490;  -62.925; -489.000; -521.000
230.634; -106.675; -736.000; -553.000
230.777;   62.450;  478.000;  509.000
230.921;  -75.425; -450.000; -359.000
231.065;  -49.175; -246.000; -286.000
231.209;   14.975;  261.000;  265.000
231.352;   19.450;   54.000;   40.000
231.496;   10.175;  568.000;  188.000
231.640;  -89.925; -693.000; -621.000
231.783;   55.475;  546.000;  525.000
231.927;  -59.475; -294.000; -365.000
232.071; -124.650; -962.000; -736.000
232.214; -111.475; -980.000; -764.000
232.358; -112.150; -683.000; -599.000
232.502;   -2.375;  -19.000;    7.000
232.645; -138.600;-1090.000; -927.000
232.789;  -24.400; -257.000; -218.000
232.933;  -48.525; -407.000; -224.000
233.076; -122.700;-1038.000; -897.000
233.220; -112.125; -752.000; -777.000
233.363;  -84.100; -669.000; -477.000
233.507;   52.150;  371.000;  129.000
233.650; -110.350; -764.000; -834.000
233.794;   45.750;  438.000;  461.000
233.938;  -66.000; -530.000; -362.000
234.081;  -20.975;  -93.000;   31.000
234.225;  -81.275; -631.000; -539.000
234.368; -131.550; -773.000; -723.000
234.512;  -51.050; -385.000; -299.000
234.655;  -99.275; -582.000; -555.000
234.798;  -64.375; -493.000; -466.000
234.942; -126.600; -884.000;-1002.000
235.085;  -75.575; -651.000; -443.000
235.229;  -78.100; -405.000; -410.000
235.372;  -54.775; -247.000; -191.000
235.516;  -64.200; -397.000; -321.000
235.659;   11.900;   92.000;  121.000
235.802;  -23.900;  -38.000;  -22.000
235.946;   25.275;  335.000;  215.000
236.089;    6.575;  126.000;  250.000
236.233;   47.425;  275.000;  298.000
236.376;  -73.000; -235.000; -378.000
236.519;  -55.950; -297.000; -319.000
236.663;  -34.225; -215.000; -117.000
236.806; -151.650;-1029.000; -999.000
236.949;   45.075;  543.000;  431.000
237.092;   45.625;  412.000;  391.000
237.236;  -90.600; -589.000; -502.000
237.379;   58.450;  352.000;  428.000
237.522; -125.675; -879.000; -768.000
237.666;  -24.450; -271.000;   18.000
237.809; -141.125; -851.000; -823.000
237.952;   30.700;  469.000;  271.000
238.095;  -80.125; -447.000; -442.000
238.238;   82.825;  688.000;  700.000
238.382;  -13.000;  166.000;  103.000
238.525;  -75.350; -598.000; -511.000
238.668; -152.450;-1060.000; -985.000
238.811;  -91.725; -638.000; -643.000
238.954;  -75.700; -483.000; -334.000
239.097;   99.250;  617.000;  664.000
239.241;   30.100;  394.000;  326.000
239.384;  -25.350; -254.000; -214.000
239.527;  -71.150; -424.000; -224.000
239.670; -153.750; -994.000;-1091.000
239.813; -126.625; -696.000; -658.000
239.956;   65.825;  579.000;  473.000
240.099; -120.900; -778.000; -725.000
240.242;   59.775;  428.000;  432.000
240.385;   53.175;  466.000;  450.000
240.528;  -80.650; -706.000; -473.000
240.671;   11.025;  189.000;  134.000
240.814;  -59.575; -441.000; -158.000
240.957; -106.150; -767.000; -578.000
241.100; -103.000; -779.000; -755.000
241.243; -159.100;-1234.000; -893.000
241.386;  -65.625; -508.000; -379.000
241.529;  -93.775; -735.000; -547.000
241.672;  -66.550; -566.000; -495.000
241.815; -126.000; -832.000; -808.000
241.958;  -29.400; -125.000; -182.000
242.101;  -87.875; -545.000; -390.000
242.244;  -41.225; -270.000; -325.000
242.387;  -48.950; -304.000; -246.000
242.530;   59.525;  470.000;  134.000
242.673;  -52.275; -381.000; -309.000
242.815; -122.225; -925.000; -899.000
242.958;  -74.950; -482.000; -381.000
243.101;   17.350;  132.000;  187.000
243.244;  -93.225; -564.000; -521.000
243.387;  -54.225; -313.000; -316.000
243.530;  -97.325; -657.000; -674.000
243.672;    1.475;   43.000;  -92.000
243.815;  -72.125; -355.000; -283.000
243.958;   -4.275;   98.000;  -26.000
244.101;   -3.525;   59.000;  -16.000
244.243;  -22.750;  -47.000;  101.000
244.386; -116.550; -761.000; -630.000
244.529;  -22.550; -132.000; -139.000
244.672; -166.850;-1154.000; -951.000
244.814; -105.125; -621.000; -794.000
244.957;  -48.500; -380.000; -304.000
245.100;  -75.250; -489.000; -489.000
245.242;  -74.600; -387.000; -374.000
245.385;  -17.400;  -59.000;  -39.000
245.528; -116.675; -871.000; -705.000
245.670;   81.475;  612.000;  634.000
245.813;  -99.725; -599.000; -547.000
245.956;  -32.650; -324.000; -275.000
246.098;  -88.050; -508.000; -650.000
246.241;   -3.050;  194.000;   48.000
246.383;  -16.125; -119.000;  -73.000
246.526;  -63.500; -454.000; -525.000
246.669; -116.250; -889.000; -780.000
246.811;    8.225;  172.000;   -1.000
246.954;  -66.725; -512.000; -426.000
247.096;  -20.875;  -84.000;   -6.000
247.239;  -83.025; -482.000; -445.000
247.381;  -71.500; -647.000; -488.000
247.524;   82.850;  645.000;  679.000
247.666;  -17.550;   58.000;   11.000
247.809; -118.425; -887.000; -691.000
247.951;   -2.850;  -75.000;  138.000
248.094;   25.525;  432.000;  308.000
248.236; -150.625;-1262.000;-1238.000
248.378;    4.900; -356.000;  -81.000
248.521;  -20.125; -334.000; -337.000
248.663;  -43.300; -236.000; -267.000
248.806;  -20.200; -300.000; -266.000
248.948;  -95.750; -886.000; -763.000
249.090;  -47.350; -428.000; -398.000
249.233;  -62.400; -344.000; -381.000
249.375;  -59.950; -474.000; -451.000
249.518;  -33.650;  -83.000; -133.000
249.660;   -6.775; -103.000;    3.000
249.802; -172.725;-1303.000;-1189.000
249.945;  -88.825; -612.000; -540.000
250.087; -126.000; -834.000; -768.000
250.229;  -39.300; -362.000; -480.000
250.371;  -81.975; -494.000; -439.000
250.514;  -55.950; -310.000; -244.000
250.656;  -18.500;   69.000;  102.000
250.798; -124.250; -849.000; -800.000
250.940;  -74.750; -322.000; -322.000
251.083;  -32.025; -335.000; -111.000
251.225;   63.500;  338.000;  310.000
251.367;  -44.525; -274.000; -373.000
251.509;  -43.625; -265.000; -210.000
251.651; -104.025; -731.000; -671.000
251.794;   78.000;  538.000;  632.000
251.936; -116.575; -821.000; -747.000
252.078;  -78.800; -540.000; -461.000
252.220;  -81.675; -645.000; -477.000
252.362;   85.175;  344.000;  462.000
252.504;  -77.375; -677.000; -584.000
252.646; -116.575; -875.000; -722.000
252.788;   -5.700;   14.000; -128.000
252.931;  -48.600; -257.000; -253.000
253.073;  -41.500; -376.000; -317.000
253.215;    5.600;  141.000;  122.000
253.357;  -27.800;   82.000; -153.000
253.499;  -60.575; -374.000; -234.000
253.641;  -86.825; -749.000; -594.000
253.783; -109.775; -609.000; -527.000
253.925;  -87.800; -586.000; -591.000
254.067; -119.275; -744.000; -667.000
254.209;  -32.200; -391.000; -259.000
254.351; -142.625; -865.000; -883.000
254.493;  -84.150; -441.000; -417.000
254.635; -132.925; -936.000; -818.000
254.777;  -95.700; -752.000; -687.000
254.918;  -70.200; -512.000; -430.000
255.060;  -59.925; -551.000; -395.000
255.202;  -57.000; -473.000; -261.000
255.344;  -86.650; -658.000; -455.000
255.486;  -69.625; -471.000; -406.000
255.628; -112.150; -780.000; -781.000
255.770;  -94.275; -676.000; -536.000
255.912;  -71.000; -559.000; -468.000
256.053;  -94.950; -730.000; -508.000
256.195;  159.550; 1008.000;  903.000
256.337; -105.975; -861.000; -595.000
256.479;   52.975;  532.000;  416.000
256.621;  -52.050; -394.000; -212.000
256.762; -110.250; -789.000; -742.000
256.904;   46.100;  485.000;  487.000
257.046;  -44.050; -381.000; -271.000
257.188;  -49.025; -351.000; -264.000
257.329;  -79.550; -525.000; -464.000
257.471; -133.150; -939.000; -807.000
257.613;  -78.200; -584.000; -498.000
257.755; -157.400;-1073.000; -982.000
257.896;   36.100;  286.000;  392.000
258.038;  -71.575; -403.000; -352.000
258.180;  -41.725; -354.000; -279.000
258.321;  -95.625; -581.000; -457.000
258.463;   -3.975;  -71.000;  133.000
258.605;  -88.375; -562.000; -570.000
258.746; -115.275; -886.000; -772.000
258.888; -152.450;-1026.000;-1020.000
259.029;   16.500;  121.000;   -8.000
259.171;  -98.275; -614.000; -550.000
259.313;   -8.150;  -49.000;  -47.000
259.454;  -69.350; -536.000; -414.000
259.596;  -65.650; -483.000; -390.000
259.737;  -85.275; -590.000; -474.000
259.879;   38.650;  217.000;  311.000
260.020;   82.750;  901.000;  636.000
260.162;  -36.825; -146.000; -253.000
260.303; -131.900; -768.000; -687.000
260.445;  -87.575; -609.000; -613.000
260.586;   16.325;  392.000;  157.000
260.728;  -50.900; -360.000; -248.000
260.869;  -75.625; -350.000; -343.000
261.011;   88.675;  706.000;  537.000
261.152;  -75.000; -479.000; -319.000
261.293;  -81.950; -576.000; -595.000
261.435;  -22.800; -219.000; -184.000
261.576;  -68.575; -455.000; -325.000
261.718;   59.675;  420.000;  470.000
261.859; -131.875; -940.000; -949.000
262.000; -138.700; -951.000;-1016.000
262.142;  -13.050;  -52.000;  -60.000
262.283; -116.825; -808.000; -691.000
262.424;  -86.575; -666.000; -625.000
262.566; -156.725;-1161.000; -983.000
262.707; -112.400; -840.000; -830.000
262.848; -132.150; -769.000; -726.000
262.990;  -48.525; -362.000; -345.000
263.131;   82.375;  650.000;  681.000
263.272;   -5.825;  -61.000;  -41.000
263.413;  -99.925; -589.000; -561.000
263.555;  -84.700; -669.000; -143.000
263.696; -101.975; -550.000; -641.000
263.837;  -64.925; -449.000; -551.000
263.978;   -5.975;   -5.000;  -77.000
264.119;  -45.575; -283.000; -264.000
264.261; -125.525; -847.000; -630.000
264.402;  -12.900;   33.000;   40.000
264.543;  -81.500; -509.000; -524.000
264.684;  -15.200;   61.000;  -50.000
264.825;  -68.900; -816.000; -538.000
264.966;    1.850;  -84.000;  -67.000
265.107; -115.700; -646.000; -670.000
265.248; -115.100; -825.000; -812.000
265.390;  -13.375;  152.000;   -9.000
265.531;  -22.650; -238.000; -107.000
265.672;  -97.250; -557.000; -630.000
265.813;   79.200;  563.000;  439.000
265.954; -164.350; -959.000; -940.000
266.095;  -22.125; -372.000; -322.000
266.236; -111.150; -686.000; -548.000
266.377;  -51.300; -243.000; -297.000
266.518;  -67.725; -619.000; -547.000
266.659;   20.400;  170.000;  268.000
266.800;   -4.225;   83.000;   85.000
266.941;  -84.275; -487.000; -478.000
267.082;   23.150;  354.000;   99.000
267.223;  -47.425; -344.000; -273.000
267.364; -123.825; -892.000; -686.000
267.504;  -21.200;    3.000;  135.000
267.645;  -20.200;  160.000;   67.000
267.786;  -36.050; -147.000;  -86.000
267.927;  -67.975; -473.000; -379.000
268.068;  -17.575; -186.000;  -61.000
268.209;  -47.725; -175.000; -413.000
268.350;  -50.375; -388.000; -532.000
268.490;  -89.000; -648.000; -521.000
268.631;   34.225;  127.000;  225.000
268.772; -117.925; -874.000; -647.000
268.913;  -47.100; -328.000; -476.000
269.054;  -20.175; -117.000;   12.000
269.194;  -40.750; -418.000; -402.000
269.335; -154.975;-1137.000;-1074.000
269.476;   -3.925;   33.000;  -35.000
269.617;  -48.925; -347.000; -392.000
269.757;  -98.475; -713.000; -646.000
269.898; -110.200; -856.000; -613.000
270.039;  -58.375; -415.000; -405.000
270.180; -145.075; -952.000; -816.000
270.320;  -19.125; -190.000; -250.000
270.461;  -51.675; -277.000; -249.000
270.602;  -19.375; -186.000; -156.000
270.742; -117.150; -868.000; -943.000
270.883;  -56.500; -442.000; -390.000
271.023;  -66.100; -358.000; -357.000
271.164;  -77.300; -607.000; -528.000
271.305; -105.600; -666.000; -654.000
271.445;  -88.875; -722.000; -683.000
271.586;  -75.800; -462.000; -283.000
271.726;  -38.925; -397.000; -322.000
271.867;  -70.875; -594.000; -534.000
272.008;  193.825; -473.000; -285.000
272.148;  135.325;  462.000;  468.000
272.289;   17.700; -113.000; -181.000
272.429;    9.550;   19.000;  185.000
272.570;  -89.925; -633.000; -737.000
272.710; -105.100; -825.000; -775.000
272.851;  -19.925;  113.000; -130.000
272.991; -176.950;-1173.000;-1077.000
273.131;  -66.225; -419.000; -459.000
273.272; -101.175; -683.000; -723.000
273.412;    3.150; -143.000;  -31.000
273.553;  -59.025; -488.000; -507.000
273.693;  140.075;  913.000;  858.000
273.834;  -94.450; -894.000; -692.000
273.974;  -69.400; -664.000; -615.000
274.114;  -99.350; -772.000; -560.000
274.255;   87.675;  414.000;  373.000
274.395;    6.925; -180.000; -125.000
274.535;   43.450;  199.000;  350.000
274.676;   15.225;  225.000;   94.000
274.816;   -3.150;  110.000;   34.000
274.956;  -81.425; -624.000; -690.000
275.097;  -61.550;-1014.000; -922.000
275.237; -114.875; -913.000; -803.000
275.377;  -96.750; -778.000; -689.000
275.517; -153.950; -878.000; -937.000
275.658;  -56.475; -590.000; -555.000
275.798;  -55.375; -606.000; -413.000
275.938;   11.500;  215.000;  323.000
276.078;  -98.200; -626.000; -395.000
276.218;   13.050;   99.000;  104.000
276.359; -133.425;-1026.000;-1024.000
276.499;  -70.575; -605.000; -446.000
276.639;  -44.975; -305.000; -151.000
276.779;  -45.275; -475.000; -357.000
276.919; -114.675; -783.000; -624.000
277.059;  -27.750; -261.000; -212.000
277.199;  -40.000; -357.000; -259.000
277.340;   52.450;  287.000;  175.000
277.480; -112.150; -840.000; -693.000
277.620;   23.675;  192.000;   16.000
277.760; -201.025;-1533.000;-1294.000
277.900;   16.800;  113.000;   33.000
278.040;   15.500;  137.000;  159.000
278.180;   44.400;  270.000;  170.000
278.320;   -3.650;   21.000;   56.000
278.460;  -74.350; -443.000; -469.000
278.600;  -99.525; -708.000; -598.000
278.740;   53.325;  448.000;  224.000
278.880;  -39.750; -768.000; -791.000
279.020;   -1.075; -194.000; -144.000
279.160;  -93.250; -672.000; -595.000
279.300; -118.900; -926.000; -873.000
279.440;  -85.800; -709.000; -622.000
279.579;   -8.150;-1014.000; -929.000
279.719;  -51.100; -410.000; -394.000
279.859;   67.175;   -4.000;   41.000
279.999;   21.425; -208.000;  101.000
280.139;  -20.150; -435.000; -387.000
280.279;  -71.100; -708.000; -745.000
280.419;   -6.900; -229.000; -147.000
280.559;  -43.025; -259.000; -180.000
280.698;  -79.000; -790.000; -639.000
280.838;  -93.400; -778.000; -800.000
280.978;  -92.425; -846.000; -790.000
281.118; -111.600; -811.000; -704.000
281.257;   -2.250;   24.000;    6.000
281.397; -107.275;-1094.000; -960.000
281.537;  -75.875; -599.000; -712.000
281.677;  -14.300; -150.000; -101.000
281.816;  -84.850; -700.000; -630.000
281.956;  -37.025; -193.000; -257.000
282.096;  -62.725; -539.000; -396.000
282.235; -117.800; -672.000; -638.000
282.375;  -17.325; -243.000;  -98.000
282.515;  -98.750; -715.000; -707.000
282.654;   30.475;   29.000;  106.000
282.794;   30.675;  388.000;  244.000
282.934;  -49.650; -530.000; -491.000
283.073; -137.700;-1030.000; -857.000
283.213;  -45.425; -460.000; -467.000
283.353;  -25.800; -408.000; -349.000
283.492;  -36.950; -264.000; -296.000
283.632;  -36.600; -254.000; -168.000
283.771;  -97.375; -859.000; -730.000
283.911;  -57.725; -369.000; -260.000
284.050; -108.125; -794.000; -748.000
284.190; -169.525;-1229.000;-1096.000
284.329; -138.375;-1055.000; -964.000
284.469;  -57.025; -516.000; -591.000
284.608;  -63.200; -559.000; -598.000
284.748;  -77.175; -614.000; -570.000
284.887;   -3.850;  -87.000;  -20.000
285.027; -127.525; -844.000; -892.000
285.166;  -31.700; -192.000; -249.000
285.306;   -3.875; -116.000;  -33.000
285.445;  -38.425; -229.000; -343.000
285.584;  -98.350; -630.000; -494.000
285.724;  -44.750; -282.000; -322.000
285.863; -116.775; -857.000; -507.000
286.002;  -37.025; -366.000; -276.000
286.142; -111.350; -715.000; -622.000
286.281;  -73.125; -525.000; -493.000
286.420;  -75.325; -554.000; -417.000
286.560;   97.375;  653.000;  623.000
286.699; -133.850; -958.000; -912.000
286.838;  -77.050; -590.000; -591.000
286.978;  -93.300; -533.000; -537.000
287.117; -139.350;-1085.000; -950.000
287.256;  -30.475; -228.000; -211.000
287.395;  -44.625; -197.000; -378.000
287.535;  -53.025; -370.000; -298.000
287.674;  -81.850; -509.000; -484.000
287.813;   55.875;  661.000;  533.000
287.952; -116.800;-1010.000; -871.000
288.091; -149.350;-1049.000; -915.000
288.231;   17.550;   13.000;   15.000
288.370; -173.350;-1217.000;-1200.000
288.509;  -89.475; -728.000; -645.000
288.648;  -97.475; -770.000; -548.000
288.787;  -19.900; -243.000;  -87.000
288.926;  -73.125; -454.000; -475.000
289.065;  123.900;  859.000;  672.000
289.204;  -61.125; -377.000; -217.000
289.344;  -80.075; -791.000; -690.000
289.483;   23.375;  416.000;  304.000
289.622;  -24.350; -291.000; -149.000
289.761;  -11.950; -309.000; -166.000
289.900; -123.900; -785.000; -626.000
290.039;  -29.450;  -12.000;  -95.000
290.178;  -37.925; -274.000; -180.000
290.317;  -76.000; -618.000; -479.000
290.456;  -66.300; -463.000; -451.000
290.595; -141.800; -961.000; -833.000
290.734; -136.250; -904.000; -891.000
290.873;  -78.775; -456.000; -420.000
291.011; -116.150; -833.000; -843.000
291.150; -101.325; -770.000; -682.000
291.289;  -30.850; -343.000; -110.000
291.428;  -88.775; -599.000; -480.000
291.567;  -52.900; -370.000; -442.000
291.706;   -5.200;  109.000;  154.000
291.845;  -85.975; -597.000; -505.000
291.984; -174.375;-1234.000;-1061.000
292.122;   76.800;  602.000;  582.000
292.261;   49.500;  620.000;  463.000
292.400;    7.325; -144.000;  211.000
292.539; -135.200; -959.000; -813.000
292.678;  -32.450; -325.000; -300.000
292.816; -157.250;-1136.000; -965.000
292.955;  -82.200; -844.000; -684.000
293.094;  -24.775; -173.000; -337.000
293.233;  -57.900; -556.000; -400.000
293.371;  -40.475; -225.000;  -84.000
293.510; -113.125; -866.000; -780.000
293.649; -133.100; -959.000; -924.000
293.787;  -49.675;-1083.000;-1012.000
293.926;   -1.300; -113.000;  -32.000
294.065;  -36.775; -379.000; -290.000
294.203;   43.800;  298.000;  406.000
294.342;   30.050;   74.000;  156.000
294.481; 6252.450;51180.000; -836.000
294.619;  -32.050; -425.000; -582.000
294.758; -153.375;-1230.000;-1137.000
294.896;   93.275; -125.000;    5.000
295.035; -117.650;-1040.000;-1006.000
295.174; -112.725;-1082.000; -954.000
295.312;  -54.700; -323.000; -203.000
295.451;    8.075; -307.000; -428.000
295.589;  -47.925; -389.000; -518.000
295.728;   37.225; -292.000; -165.000
295.866;    1.100;  -36.000;  -51.000
296.005;  -61.125; -584.000; -341.000
296.143;  -69.400; -558.000; -596.000
296.282; -104.675; -957.000; -881.000
296.420;  -82.000; -657.000; -557.000
296.559;  -70.425; -892.000; -633.000
296.697;   63.925; -847.000; -665.000
296.835;  130.425;-1141.000;-1002.000
296.974;   48.450;  -23.000;   39.000
297.112;   26.600; -443.000; -504.000
297.251;  -60.600; -815.000; -755.000
297.389;  134.275; -576.000; -438.000
297.527;   47.650; -145.000;  -83.000
297.666;  -30.975; -486.000; -438.000
297.804;  -40.300; -404.000; -264.000
297.942;   -0.200; -136.000; -161.000
298.081;    1.075; -183.000;   63.000
298.219;   95.925;  -17.000;  -19.000
298.357;   73.100; -144.000;  -71.000
298.495;   66.100; -810.000; -812.000
298.634;   94.275;  245.000;  219.000
298.772;   91.950; -220.000; -338.000
298.910;  -36.650; -309.000; -182.000
299.048;   -3.125; -130.000; -153.000
299.187;  -11.700; -350.000; -250.000
299.325;   41.450;   52.000;  122.000
299.463;   80.250; -389.000; -299.000
299.601;  147.450; -327.000; -271.000
299.739;  -91.925; -908.000; -883.000
299.877;  -72.500; -791.000; -703.000
300.016;  -43.650;-1095.000; -935.000
300.154;  196.800;  -19.000; -161.000
300.292;   93.650; -428.000; -348.000
300.430;   64.050; -408.000; -291.000
300.568;  -93.275; -940.000; -874.000
300.706;  -32.100; -366.000; -469.000
300.844;  -60.750;-1108.000; -979.000
300.982;  134.125;  246.000;  282.000
301.120; -108.675; -965.000; -866.000
301.258;  -59.600; -812.000; -705.000
301.396;   49.975;  104.000;  -41.000
301.534;  125.300; -218.000; -293.000
301.672;   15.975; -664.000; -521.000
301.810;   90.675; -613.000; -545.000
301.948;  145.675;   53.000;  149.000
302.086;  730.725; -250.000;  -32.000
302.224; 1167.475; -610.000; -585.000
302.362;   68.625; -558.000; -622.000
302.500;   18.050; -923.000; -893.000
302.638;  128.225;  128.000;  245.000
302.776;    7.450; -352.000; -408.000
302.913;   51.925;  447.000;  236.000
303.051;    8.475;  -86.000;  -23.000
303.189;   72.300;   90.000;  118.000
303.327;  -30.175; -341.000; -256.000
303.465;  -72.725; -832.000; -588.000
303.603;  -94.100; -805.000; -604.000
303.740;  123.025;  417.000;  241.000
303.878;   58.525; -800.000; -759.000
304.016;  -89.925; -915.000; -790.000
304.154; -114.600;-1123.000;-1152.000
304.291;  -27.925; -505.000; -554.000
304.429;   17.175;  102.000;   74.000
304.567; -118.750; -908.000; -893.000
304.705;  -58.350; -408.000; -515.000
304.842;  137.325; -616.000; -540.000
304.980;   57.050;  215.000;   35.000
305.118;   80.725; -367.000; -365.000
305.255;  -45.425; -945.000; -927.000
305.393;   71.425;  178.000;  239.000
305.531;  -84.000;-1173.000; -956.000
305.668;  -69.675; -663.000; -582.000
305.806;  116.600; -358.000; -439.000
305.943;  132.600; -629.000; -637.000
306.081;   89.425; -378.000; -267.000
306.219; -106.525; -863.000; -748.000
306.356;   16.825;  158.000;   27.000
306.494;  116.275;  981.000;  761.000
306.631;   -8.475;  -11.000;  -55.000
306.769;   14.325; -613.000; -485.000
306.906;   -7.925; -284.000; -258.000
307.044;  -61.200; -473.000; -488.000
307.181;  -63.750; -410.000; -332.000
307.319;   18.925;  112.000;   87.000
307.456; -169.725;-1191.000;-1153.000
307.594; -101.725; -980.000; -727.000
307.731;  -14.600; -371.000; -164.000
307.868;   -4.825;  -15.000;   20.000
308.006; -114.475; -961.000; -847.000
308.143;  -60.950; -618.000; -330.000
308.281;  135.775;  -37.000; -254.000
308.418;  -10.050; -748.000; -640.000
308.555;  -73.850; -400.000; -250.000
308.693;  -69.325; -577.000; -573.000
308.830; -106.650; -712.000; -657.000
308.967;   -6.425; -215.000;  -95.000
309.105;  -38.775; -507.000; -396.000
309.242;   32.250; -468.000; -367.000
309.379;  305.150; -577.000; -655.000
309.517;  -61.975; -936.000; -948.000
309.654; -111.875; -910.000; -734.000
309.791;  -64.425; -662.000; -580.000
309.928; -106.125; -977.000; -914.000
310.065;  181.600;  819.000;  697.000
310.203;   21.700; -825.000; -850.000
310.340;    6.775; -465.000; -321.000
310.477;  -74.700; -412.000; -516.000
310.614;  -67.000; -383.000; -473.000
310.751;  -66.600; -427.000; -518.000
310.889;  -17.675;    1.000;   11.000
311.026; -150.225;-1161.000; -939.000
311.163;  -51.975; -386.000; -380.000
311.300;  -75.575; -512.000; -479.000
311.437;  -62.750; -658.000; -619.000
311.574; -158.925;-1226.000; -985.000
311.711;  -52.225; -595.000; -433.000
311.848;  -37.075; -380.000; -388.000
311.985;   24.650;  270.000;   93.000
312.122; -111.625; -932.000; -762.000
312.259; -108.125; -941.000; -994.000
312.396;  -74.500; -508.000; -551.000
312.533;  -73.125; -812.000; -790.000
312.670; -130.050;-1070.000; -898.000
312.807;  -29.000; -352.000; -367.000
312.944;  -73.175; -513.000; -611.000
313.081;   -8.500; -150.000; -415.000
313.218;  -97.800;-1111.000; -867.000
313.355;   24.775; -531.000; -449.000
313.492;   25.675; -455.000; -292.000
313.629;  136.925;  815.000;  735.000
313.766; -160.400;-1176.000;-1008.000
313.902;    3.450; -186.000;   21.000
314.039;  -42.650; -372.000; -289.000
314.176;   34.150;  286.000;  192.000
314.313;  -65.325; -569.000; -473.000
314.450;  -61.250; -788.000; -684.000
314.587;  -42.625; -468.000; -480.000
314.723;   15.925;  -78.000;  130.000
314.860;   30.300;  318.000;  332.000
314.997;   38.000;  223.000;  142.000
315.134;  -43.625; -385.000; -368.000
315.270;  -13.575; -480.000; -496.000
315.407; -114.875;-1094.000; -967.000
315.544;  -30.575; -657.000; -538.000
315.681;  -67.400; -681.000; -565.000
315.817;   43.875; -133.000; -176.000
315.954;   45.975; -613.000; -392.000
316.091; -119.275;-1045.000;-1023.000
316.227;  -13.275;  -71.000; -179.000
316.364;   -3.275;   23.000;    6.000
316.500;  -35.200; -113.000; -300.000
316.637;  -28.850; -181.000; -302.000
316.774;  -87.700; -625.000; -358.000
316.910;  -92.350; -598.000; -629.000
317.047;  -82.350; -487.000; -351.000
317.183;  -52.975; -435.000; -566.000
317.320;  -39.800; -367.000; -321.000
317.456;  -71.375; -733.000; -805.000
317.593;  -91.650; -598.000; -641.000
317.729;    6.375;  168.000;  -67.000
317.866; -200.075;-1434.000;-1285.000
318.002;  -81.200; -708.000; -948.000
318.139;  -85.875; -883.000; -867.000
318.275; -109.300;-1003.000; -738.000
318.412;  -76.100; -517.000; -336.000
318.548;   -4.525; -751.000; -720.000
318.685;  -93.650; -985.000; -888.000
318.821;  -91.425; -762.000; -735.000
318.957;  -13.925;   34.000;  -23.000
319.094;   55.450;  297.000;  154.000
319.230;  -60.325; -756.000; -742.000
319.367;  169.475; -471.000; -520.000
319.503;   68.500; -538.000; -436.000
319.639; -111.200; -877.000; -793.000
319.775;  -55.000; -750.000; -685.000
319.912;  -37.875; -424.000; -519.000
320.048;  -78.925;-1184.000;-1184.000
320.184;   69.200;   59.000;   70.000
320.321;  -72.225; -497.000; -467.000
320.457;   45.450;  475.000;  662.000
320.593;  -67.100; -375.000; -382.000
320.729; -104.250; -732.000; -734.000
320.866;  -71.625; -577.000; -635.000
321.002;  -70.325; -759.000; -809.000
321.138;   -1.325; -135.000; -211.000
321.274;   78.900; -148.000; -115.000
321.410;  -11.225; -585.000; -353.000
321.546;   -8.375;-1011.000; -911.000
321.683;   77.325;  400.000;  185.000
321.819;    4.750;  -48.000; -117.000
321.955; -113.225; -743.000; -722.000
322.091;  -30.725; -585.000; -540.000
322.227;   -5.575; -382.000; -202.000
322.363;   -5.325; -320.000; -215.000
322.499;  -37.275; -343.000; -331.000
322.635;  184.300;  636.000;  443.000
322.771;   34.400; -139.000;   12.000
322.907;  101.100;  129.000;  327.000
323.043;  -17.700; -115.000; -206.000
323.179;  -28.775; -394.000; -363.000
323.315;   67.675; -401.000; -371.000
323.451;  150.950; -328.000; -236.000
323.587;   57.425;  -60.000;  -77.000
323.723;   43.550; -682.000; -601.000
323.859;   -6.050; -258.000;  -76.000
323.995;  -25.700; -467.000; -409.000
324.131; -114.850; -967.000; -892.000
324.267;  -34.100; -254.000; -276.000
324.402; -123.475; -960.000; -983.000
324.538;   -7.575; -279.000; -104.000
324.674;   41.100;  164.000;   77.000
324.810;  184.500;  226.000;  308.000
324.946;   41.675; -810.000; -658.000
325.082;  -70.375; -568.000; -475.000
325.217;   -2.750;  -62.000;   16.000
325.353;  -98.775; -764.000; -659.000
325.489;  -88.375; -540.000; -506.000
325.625;  -67.250; -579.000; -525.000
325.760;   42.900;  517.000;  376.000
325.896;  -50.050; -515.000; -702.000
326.032;  -48.225; -403.000; -352.000
326.168;  -60.750; -462.000; -369.000
326.303;  -62.650; -352.000; -461.000
326.439;  -24.475; -336.000; -276.000
326.575;   11.325; -190.000;  -29.000
326.710;    3.150; -156.000;  -30.000
326.846;  -17.075;  146.000;  103.000
326.982;  -88.900; -530.000; -548.000
327.117;  -69.475; -481.000; -442.000
327.253;  -90.075; -745.000; -742.000
327.388; -154.500;-1137.000;-1153.000
327.524;  -28.100; -811.000; -578.000
327.659;  -21.275;  -58.000;  -22.000
327.795;  -16.100;   69.000;   45.000
327.931;  -98.225; -723.000; -499.000
328.066;  -18.150; -417.000; -276.000
328.202;   -2.525;   12.000; -129.000
328.337;  113.875;  957.000;  713.000
328.473;   41.925;  -12.000;  -74.000
328.608;  -28.425; -256.000; -267.000
328.743;  -77.900; -799.000; -664.000
328.879;   29.150;  214.000;  114.000
329.014;  -42.800; -102.000; -122.000
329.150;  -82.025; -358.000; -483.000
329.285;  -84.325; -465.000; -466.000
329.421;  -47.125; -548.000; -246.000
329.556;  -23.700;  -36.000;   85.000
329.691; -103.125; -633.000; -615.000
329.827;  -85.475; -626.000; -480.000
329.962;  -33.250;  131.000; -301.000
330.097;  -90.800; -673.000; -585.000
330.233;  -39.325; -410.000; -223.000
330.368; -124.975; -839.000; -628.000
330.503;    2.650;    3.000;   98.000
330.638;   15.625;  -93.000; -125.000
330.774;  -39.575; -609.000; -530.000
330.909;  -44.500; -434.000; -244.000
331.044;  -99.200; -714.000; -708.000
331.179; -177.350;-1217.000;-1109.000
331.315;   15.675;   77.000;   20.000
331.450;   28.950;  157.000;  285.000
331.585;  -82.775; -805.000; -706.000
331.720;  -86.200; -510.000; -460.000
331.855;   -9.200;  -35.000; -102.000
331.990;  166.050;   62.000;  138.000
332.126;  100.450; -110.000;   71.000
332.261;  -39.100; -379.000; -265.000
332.396;  -15.650; -135.000; -242.000
332.531; -109.300;-1074.000;-1031.000
332.666;   -3.125; -519.000; -363.000
332.801; -115.175; -726.000; -807.000
332.936;   -9.925; -192.000; -122.000
333.071; -125.900; -870.000; -817.000
333.206;   25.325;  307.000;  379.000
333.341;   33.450;  344.000;  418.000
333.476;  -76.375; -627.000; -623.000
333.611;  -35.125; -251.000; -173.000
333.746;  -34.125; -381.000; -464.000
333.881; -102.275; -973.000; -935.000
334.016; -120.550; -936.000; -917.000
334.151; -108.800; -746.000; -702.000
334.286;   38.750;  152.000;  186.000
334.421;  -10.725; -125.000; -178.000
334.556;  -75.550; -611.000; -567.000
334.690;  -89.050; -631.000; -577.000
334.825;   53.025;  381.000;   83.000
334.960;  -53.950; -285.000; -413.000
335.095;   37.175;  135.000;  -91.000
335.230;  -93.825; -722.000; -738.000
335.365; -132.125;-1084.000; -990.000
335.499; -113.425;-1108.000;-1037.000
335.634;   39.150;    9.000;  534.000
335.769;  -83.950; -755.000; -720.000
335.904;  -38.800; -603.000; -561.000
336.038;  -32.600; -735.000; -657.000
336.173;  -84.225;-1206.000;-1194.000
336.308;   24.600; -116.000; -189.000
336.443;   37.850; -544.000; -634.000
336.577;  -60.825; -936.000; -787.000
336.712;   93.150;   -4.000;  -12.000
336.847;  -13.075; -724.000; -607.000
336.981;  125.950; -272.000; -208.000
337.116;  338.850;  615.000;  501.000
337.250;  203.150; -434.000; -421.000
337.385;  186.100; -297.000; -208.000
337.520;   37.125; -632.000; -603.000
337.654;  -53.325; -215.000; -126.000
337.789; -125.675; -989.000; -933.000
337.923;  -29.925; -104.000; -205.000
338.058;  -70.850; -673.000; -738.000
338.192;   -9.075; -611.000; -488.000
338.327;    0.550;  -18.000; -155.000
338.461;  -54.575; -299.000; -469.000
338.596;  -96.600; -780.000; -638.000
338.730;  -95.950; -767.000; -803.000
338.865;   54.050;  -46.000; -140.000
338.999;  -68.975; -846.000; -702.000
339.134;  -51.550; -634.000; -536.000
339.268;    8.825; -741.000; -603.000
339.403;  271.425; -740.000; -775.000
339.537;   65.325; -894.000; -820.000
339.671; -124.525; -829.000; -813.000
339.806;  -81.000; -556.000; -512.000
339.940;    2.900; -261.000; -235.000
340.074; -109.625; -685.000; -510.000
340.209;  -39.950; -351.000; -230.000
340.343;  -92.225; -517.000; -573.000
340.477;  159.450;  998.000; 1036.000
340.612;  -82.800;-1033.000; -900.000
340.746;   93.750; -199.000; -243.000
340.880;  -58.575; -924.000; -785.000
341.014;  -16.550;  -45.000; -154.000
341.149; -122.025; -756.000; -718.000
341.283; -113.350; -839.000; -754.000
341.417;  -68.700;-1124.000; -938.000
341.551;  223.500; -768.000; -708.000
341.685;  -27.625; -633.000; -611.000
341.820;  -67.350; -562.000; -493.000
341.954;  -46.100; -218.000; -349.000
342.088; -143.375;-1102.000;-1019.000
342.222;   53.450;  565.000;  618.000
342.356;  -54.275; -395.000; -335.000
342.490;  -82.550; -880.000; -841.000
342.624;  -33.975; -339.000; -242.000
342.758;   13.600; -364.000; -312.000
342.892;  -50.300; -710.000; -585.000
343.026;  -41.775;  -58.000; -116.000
343.160;  -51.325; -426.000; -376.000
343.294;  -72.850; -474.000; -337.000
343.428;   -7.600; -488.000; -448.000
343.562;  -11.975; -172.000;  -23.000
343.696;  -10.250; -385.000; -314.000
343.830;  -14.500; -362.000; -356.000
343.964;   43.525; -231.000; -168.000
344.098; 1170.150;  199.000;   70.000
344.232;  972.850; -266.000; -127.000
344.366;   94.675; -567.000; -453.000
344.500;  100.100; -665.000; -744.000
344.634;   53.150; -324.000; -164.000
344.768;   22.275; -531.000; -341.000
344.902;   21.625;  278.000;  256.000
345.035;  -70.675; -556.000; -496.000
345.169; -137.325; -933.000; -656.000
345.303;  -42.200; -308.000; -482.000
345.437;  -61.800; -826.000; -717.000
345.571;  -77.500; -675.000; -594.000
345.704;  -70.450; -309.000; -532.000
345.838;   -7.875; -331.000; -284.000
345.972;  -12.525; -543.000; -495.000
346.106;  139.000; -179.000; -190.000
346.239;  423.375; -312.000; -243.000
346.373;   17.750; -343.000; -302.000
346.507; -133.825; -950.000; -962.000
346.640;  194.675;  -30.000;   13.000
346.774;  -26.925; -650.000; -797.000
346.908;  -16.075; -138.000;  -11.000
347.041;  -90.125; -646.000; -593.000
347.175;   -3.275;  259.000;   27.000
347.309;  -57.425; -698.000; -628.000
347.442;  -92.275; -883.000; -732.000
347.576;  327.475;  670.000;  668.000
347.709;  267.925; -123.000;  -52.000
347.843;  -73.350; -933.000; -825.000
347.976;   54.300;  235.000;  294.000
348.110; -182.725;-1268.000;-1186.000
348.243; -101.950; -679.000; -772.000
348.377;    0.450;  -26.000;   60.000
348.510;   72.050;  403.000;  540.000
348.644;  -29.625;  -37.000; -159.000
348.777;   13.550;  180.000;  191.000
348.911;  -54.650; -142.000; -112.000
349.044;  202.775;  471.000;  448.000
349.178;  235.975;-1069.000;-1006.000
349.311;  120.050;  141.000;  255.000
349.444;  -26.350; -927.000; -813.000
349.578;   -4.075; -347.000; -200.000
349.711;  -78.900; -959.000; -862.000
349.845;   44.725; -661.000; -591.000
349.978; -141.325;-1224.000;-1137.000
350.111;  -77.275; -546.000; -612.000
350.244;  -49.775; -596.000; -700.000
350.378;   17.175; -392.000; -393.000
350.511;  -76.525; -393.000; -426.000
350.644; -101.775; -808.000; -806.000
350.778;   12.050;  168.000;  104.000
350.911;    8.200;  134.000;  140.000
351.044;  -85.325; -685.000; -615.000
351.177;  -16.975; -321.000; -281.000
351.310;  -11.725;    3.000; -131.000
351.444;  -63.100; -888.000; -788.000
351.577;  159.100;  140.000;   90.000
351.710;  120.775;  593.000;  417.000
351.843;  -34.175; -165.000;  -77.000
351.976;   -1.575;  149.000;  -79.000
352.109;  -81.650; -621.000; -612.000
352.242;  -13.925; -464.000; -419.000
352.376;  -45.400; -580.000; -636.000
352.509;  276.625; -437.000; -356.000
352.642;   62.775; -654.000; -604.000
352.775;   87.700; -141.000;  -98.000
352.908; -101.925; -933.000; -904.000
353.041; -101.850; -814.000; -824.000
353.174;  -37.925; -551.000; -424.000
353.307;  -67.225; -753.000; -764.000
353.440;   72.325;  541.000;  453.000
353.573; -114.675; -957.000;-1008.000
353.706;  -46.050; -384.000; -558.000
353.839;  -15.900; -264.000; -220.000
353.971;  -82.275; -657.000; -512.000
354.104;  -71.450; -896.000; -835.000
354.237;  -19.750; -627.000; -662.000
354.370;  -72.500; -846.000; -879.000
354.503; -174.450;-1231.000;-1308.000
354.636;  -26.725; -529.000; -348.000
354.769; -111.650; -937.000; -860.000
354.902;    4.500; -230.000; -139.000
355.034;   -2.250; -164.000; -220.000
355.167;  -13.725; -262.000; -162.000
355.300;  -93.150;-1061.000; -880.000
355.433;  807.050;  -71.000;  -14.000
355.565; 1227.925; -402.000; -384.000
355.698;  317.075; -356.000; -296.000
355.831;   -2.425; -882.000; -801.000
355.964;  133.000; -285.000; -170.000
356.096;  -61.950; -856.000; -843.000
356.229;   39.125; -523.000; -530.000
356.362;  241.750; -373.000; -266.000
356.494;  487.475; -229.000; -162.000
356.627;  575.650;  269.000;  377.000
356.760;  591.250;  120.000;   53.000
356.892;  731.825; -286.000; -601.000
357.025;  806.075;  403.000;  389.000
357.157;  781.825; -167.000; -179.000
357.290;  475.400; -856.000; -713.000
357.423;  156.225; -667.000; -556.000
357.555;  151.950; -217.000; -228.000
357.688;  174.275; -483.000; -364.000
357.820;  547.225; -870.000; -877.000
357.953; 4159.400; -563.000; -589.000
358.085;  987.000; -632.000; -612.000
358.218; 1665.675;-1131.000; -932.000
358.350;  311.425;  -58.000;  312.000
358.483; -102.075;-1300.000;-1187.000
358.615;   38.250;-1182.000;-1078.000
358.747;  -23.500;-1187.000;-1058.000
358.880;   74.350; -810.000; -744.000
359.012;    7.800; -376.000; -202.000
359.145;  -33.575; -480.000; -511.000
359.277;   84.475; -962.000; -913.000
359.409; 3538.950;  536.000;  231.000
359.542;  931.600; -738.000; -688.000
359.674;   96.925;   46.000;   13.000
359.806;  -45.925; -565.000; -438.000
359.939;  -56.250; -617.000; -516.000
360.071;  -38.150; -583.000; -579.000
360.203;  -18.050; -411.000; -364.000
360.335;   67.875;  164.000;  -16.000
360.468;  219.650; -249.000; -307.000
360.600; 2688.800; -547.000; -454.000
360.732; 2236.625; -546.000; -423.000
360.864;  304.225;-1216.000;-1044.000
360.996;  400.050; -516.000; -554.000
361.129;   85.425; -389.000; -598.000
361.261;   26.000;  110.000; -113.000
361.393;  -30.200; -252.000; -214.000
361.525;   26.850;   94.000;  244.000
361.657;  -28.200; -821.000; -703.000
361.789;   25.750; -139.000; -155.000
361.921;  331.575; -642.000; -593.000
362.053;  336.150;  524.000;  541.000
362.185;   81.000;  288.000;   72.000
362.318;  -75.525; -709.000; -705.000
362.450;  169.900;  294.000;  444.000
362.582;  275.525; -913.000; -870.000
362.714;  -21.800; -353.000; -332.000
362.846;  -89.975; -606.000; -490.000
362.978; -139.350; -941.000; -811.000
363.109;   90.400; -161.000; -260.000
363.241;  577.650; -739.000; -749.000
363.373;  372.475; -649.000; -564.000
363.505;  514.525; -186.000;  -91.000
363.637;  129.925; -787.000; -601.000
363.769; -110.950;-1067.000;-1080.000
363.901;  -45.675; -596.000; -654.000
364.033; -122.075;-1103.000;-1062.000
364.165;    5.600; -283.000; -283.000
364.296;   66.875; -316.000; -177.000
364.428;   16.050;-1344.000;-1220.000
364.560;  -78.325; -679.000; -661.000
364.692;  -47.775; -738.000; -835.000
364.824;  407.750; -588.000; -456.000
364.955;  427.125; -402.000; -564.000
365.087;  601.575;-1097.000; -852.000
365.219;    5.575; -686.000; -816.000
365.351;  -71.975; -526.000; -572.000
365.482;   56.550;  300.000;  240.000
365.614;  -40.250; -402.000; -314.000
365.746;  -86.000; -729.000; -752.000
365.877; -105.850; -706.000; -672.000
366.009;  183.725;  -35.000;  -62.000
366.141; -102.100;-1249.000;-1134.000
366.272; -106.900; -803.000; -719.000
366.404; -129.300;-1005.000; -874.000
366.535;   -6.300; -139.000;  -12.000
366.667; -103.600; -644.000; -649.000
366.799;   46.575;  353.000;  203.000
366.930; -104.475; -862.000; -996.000
367.062;  110.625; -639.000; -613.000
367.193;   67.575; -872.000; -842.000
367.325;  -59.450; -580.000; -684.000
367.456;  114.450; -246.000;   31.000
367.588;  132.475; -371.000; -318.000
367.719;   25.525;  -44.000;  -45.000
367.851;    4.675; -222.000; -241.000
367.982;  -16.625; -875.000; -732.000
368.113;  147.700; -475.000; -358.000
368.245; -113.975; -960.000; -841.000
368.376;   -3.500; -254.000; -302.000
368.508;  -24.900; -188.000; -263.000
368.639; -127.500;-1166.000;-1034.000
368.770;    7.175; -670.000; -589.000
368.902;  -36.500; -836.000; -926.000
369.033;  -97.725; -906.000; -855.000
369.164;  -44.575; -720.000; -653.000
369.296; -113.650; -452.000; -601.000
369.427;   17.925; -209.000; -144.000
369.558;  -37.675; -593.000; -377.000
369.689;  -77.900; -721.000; -569.000
369.821; -131.600; -951.000; -845.000
369.952;  -22.550;   42.000; -108.000
370.083;  -52.425; -229.000; -108.000
370.214;  -82.450; -735.000; -650.000
370.345;   -7.600;   65.000;   81.000
370.477;  -68.625; -810.000; -790.000
370.608;  315.950; -328.000; -264.000
370.739;  -18.000;-1233.000;-1292.000
370.870;  -10.675;-1102.000; -923.000
371.001;  138.950; -378.000; -467.000
371.132;  -75.925; -754.000; -735.000
371.263;  -18.050;  -42.000; -148.000
371.394; -132.925; -841.000; -748.000
371.525;   37.400;  345.000;  225.000
371.657;  -80.600; -808.000; -670.000
371.788;   92.925;  103.000;  199.000
371.919;  234.150; -384.000; -304.000
372.050; 4452.325;  -91.000; -156.000
372.181; 1333.325; -188.000; -294.000
372.311;  475.025;   42.000; -127.000
372.442;   64.675; -457.000; -451.000
372.573;   -1.225; -444.000; -340.000
372.704; -107.950;-1008.000; -980.000
372.835;  131.350; -228.000; -289.000
372.966;  -50.650; -646.000; -554.000
373.097;  -41.925; -575.000; -711.000
373.228;  -17.325; -717.000; -542.000
373.359;  216.275; -824.000; -536.000
373.490; 1222.275; -881.000; -727.000
373.620; 1541.775;-1001.000; -803.000
373.751; 2356.875; -332.000; -396.000
373.882; 1063.275; -663.000; -733.000
374.013;  134.100; -449.000; -262.000
374.143;   -6.900; -581.000; -659.000
374.274; -105.850; -987.000; -908.000
374.405;  220.000; -388.000; -276.000
374.536;  580.925; -526.000; -387.000
374.666; 1517.025; -759.000; -807.000
374.797;  330.325; -817.000; -868.000
374.928; 1156.850; -710.000; -560.000
375.058; 1180.475; -535.000; -500.000
375.189;  111.500;  -59.000;  -93.000
375.320; -100.475; -928.000;-1034.000
375.450;  -30.975; -625.000; -616.000
375.581;  -46.300; -526.000; -436.000
375.712;  -19.200; -574.000; -250.000
375.842;  414.950; -438.000; -415.000
375.973;  318.850; -554.000; -513.000
376.103;   -9.450; -665.000; -648.000
376.234;  -57.250; -531.000; -552.000
376.364;    2.525; -944.000; -867.000
376.495;  377.525;  925.000;  529.000
376.625;   42.775; -472.000; -485.000
376.756;  102.675; -709.000; -678.000
376.886;  -45.700;-1178.000;-1026.000
377.017;   12.050;-1048.000;-1061.000
377.147;  237.900; -786.000; -782.000
377.278;   54.525;  174.000;  228.000
377.408; -128.950; -801.000; -815.000
377.538; -105.450; -707.000; -693.000
377.669;  -75.550; -537.000; -613.000
377.799;  -71.650; -645.000; -635.000
377.929;  -29.575; -610.000; -428.000
378.060; -124.950; -781.000; -847.000
378.190;  -59.700; -726.000; -531.000
378.320;  -37.425; -401.000; -406.000
378.451;   10.475; -131.000;  -22.000
378.581;    9.850;  -67.000; -110.000
378.711;  187.450; 1035.000;  866.000
378.841;    3.325; -533.000; -675.000
378.972;  -59.425; -871.000; -751.000
379.102;   35.225; -652.000; -579.000
379.232;  -13.300; -126.000;  -73.000
379.362;  -90.800;-1001.000; -885.000
379.492;   42.650; -373.000; -424.000
379.623;  148.325;    0.000;  111.000
379.753;  -82.350;-1107.000; -974.000
379.883;  244.900;   59.000;  156.000
380.013;   38.600;-1081.000;-1017.000
380.143;  -78.000;-1097.000;-1056.000
380.273;  -85.225; -985.000; -861.000
380.403;    3.725; -344.000; -257.000
380.533;   -0.300; -651.000; -664.000
380.663;  105.175;  173.000;  128.000
380.793;  -68.250;-1027.000;-1074.000
380.923;  -13.875; -103.000;  -34.000
381.053;  -85.125; -613.000; -623.000
381.183;  -19.525; -106.000; -248.000
381.313;   75.800; -656.000; -470.000
381.443;   87.875; -692.000; -473.000
381.573;  293.050; -402.000; -409.000
381.703;  453.775;-1249.000;-1095.000
381.833;  -95.700;-1454.000;-1336.000
381.963;  140.400; -134.000;  -87.000
382.093; 1702.700; -925.000; -909.000
382.223;  532.900; -713.000; -602.000
382.353;   17.450; -801.000; -608.000
382.482;  540.650;-1091.000; -964.000
382.612;  955.975; -872.000; -644.000
382.742;  524.525; -695.000; -622.000
382.872;  372.550; -565.000; -551.000
383.002;   91.725;  347.000; -132.000
383.131;  -12.150; -226.000; -160.000
383.261;  -46.500; -706.000; -768.000
383.391;  289.775; -552.000; -377.000
383.521; 2417.375;  451.000;  263.000
383.650;  494.850; -947.000; -904.000
383.780;  -17.550; -783.000; -656.000
383.910;  127.325;  880.000;  802.000
384.039;   63.100; -794.000; -656.000
384.169;  329.350;-1205.000;-1017.000
384.299;   14.375; -650.000; -662.000
384.428;  -70.500; -764.000; -680.000
384.558;  -26.600; -308.000; -275.000
384.687;  -17.200; -414.000; -334.000
384.817;   27.325;   75.000;   -2.000
384.947;   50.650; -234.000; -141.000
385.076;  353.875;  982.000;  912.000
385.206;  120.925;  369.000;  480.000
385.335;   -3.075; -549.000; -417.000
385.465;  -76.900; -655.000; -663.000
385.594;  188.700;  -53.000;  -44.000
385.724;  584.125; -868.000; -838.000
385.853;  187.025; -296.000; -270.000
385.982; 1789.500; -743.000; -787.000
386.112; 2753.625;-1052.000; -871.000
386.241;  226.075; -307.000; -312.000
386.371;   46.500; -174.000;  -87.000
386.500;   35.525; -825.000; -789.000
386.629;   44.850; -874.000; -817.000
386.759;   61.325;  -43.000;   68.000
386.888;   27.275; -170.000; -250.000
387.017;  -63.925; -648.000; -620.000
387.147;  -60.525; -771.000; -798.000
387.276;   24.325; -410.000; -397.000
387.405;   47.275; -398.000; -342.000
387.535;  -24.750; -452.000; -361.000
387.664;  -48.550; -692.000; -620.000
387.793;   89.825; -198.000; -113.000
387.922;  691.050;  255.000;  200.000
388.052;   65.675; -576.000; -423.000
388.181;   90.150; -342.000; -472.000
388.310;   83.600; -889.000; -710.000
388.439;   -0.650; -749.000; -742.000
388.568;  259.225;  365.000;  244.000
388.697; 1431.550; -756.000; -653.000
388.826;  302.825; -768.000; -666.000
388.956;   97.175; -285.000; -307.000
389.085;   -1.025; -347.000; -287.000
389.214; -100.475; -842.000; -872.000
389.343;  -55.025; -645.000; -413.000
389.472;  341.450;  126.000;  149.000
389.601;  483.700;   91.000;    0.000
389.730;   41.375; -568.000; -687.000
389.859;   83.450;  226.000;   46.000
389.988;  275.775; -423.000; -408.000
390.117;  208.675; -168.000; -146.000
390.246;   13.825; -331.000; -320.000
390.375;  179.650; -673.000; -626.000
390.504;  -50.300; -703.000; -621.000
390.633;  -79.775; -672.000; -726.000
390.761;  -44.575; -732.000; -645.000
390.890;   59.150;   -4.000; -130.000
391.019;   -6.850; -421.000; -441.000
391.148; -121.575; -826.000; -855.000
391.277;  -43.650; -576.000; -493.000
391.406;  -45.950; -821.000; -805.000
391.534;   23.425;  574.000; -301.000
391.663;  -51.850; -583.000; -645.000
391.792;  -67.775; -673.000; -701.000
391.921;  163.550;   -3.000;   15.000
392.050;  316.075; -287.000; -228.000
392.178;   13.475;-1206.000;-1061.000
392.307;  217.900; -758.000; -712.000
392.436;  113.250; -427.000; -641.000
392.564;   16.275;  166.000;   -6.000
392.693;  -79.275; -860.000; -682.000
392.822;  285.250; -529.000; -534.000
392.950;  163.825; -880.000; -714.000
393.079;  455.300; -188.000; -328.000
393.208;   54.050; -488.000; -511.000
393.336;   -4.250; -170.000; -145.000
393.465;  -51.525; -317.000; -199.000
393.593;   19.000;   62.000;   79.000
393.722; -159.625;-1121.000; -916.000
393.850;  -27.200; -188.000;  -61.000
393.979; -169.725; -926.000; -805.000
394.107;  -48.025; -517.000; -537.000
394.236;  -14.575; -570.000; -507.000
394.364;  214.775;  383.000;  206.000
394.493;  318.175; -911.000; -767.000
394.621;  -21.200; -955.000; -916.000
394.750;  542.400; -873.000; -923.000
394.878; 2421.850; -247.000; -149.000
395.007; 3216.175; -721.000; -807.000
395.135;  231.625; -790.000; -721.000
395.263;  -97.500;-1038.000;-1040.000
395.392;   -0.975;  -25.000; -107.000
395.520; -137.250; -818.000; -679.000
395.648;  -79.175; -865.000; -915.000
395.777;   11.325; -366.000; -405.000
395.905;  -44.700; -449.000; -564.000
396.033;   19.175;  217.000;  172.000
396.162;  549.800; -399.000; -453.000
396.290;  514.450;  -17.000;   -2.000
396.418;  158.575; -555.000; -514.000
396.546;  -51.750; -571.000; -466.000
396.674;  -89.950; -850.000; -878.000
396.803;    5.500;  -72.000;  -23.000
396.931;  134.125; -179.000; -199.000
397.059;  135.400;-1026.000; -989.000
397.187; -105.925;-1026.000; -975.000
397.315; -122.725; -884.000; -649.000
397.443;  -91.550; -592.000; -443.000
397.572;  -85.000; -578.000; -424.000
397.700;   34.900; -607.000; -614.000
397.828;   22.450;  120.000;  -90.000
397.956;  -44.350; -508.000; -478.000
398.084;  -90.625; -767.000; -626.000
398.212;   51.125;  137.000;  124.000
398.340;   25.950;  -56.000;  159.000
398.468;   74.300; -390.000; -169.000
398.596; -128.275; -993.000; -953.000
398.724; -101.625; -762.000; -767.000
398.852; -165.575;-1024.000; -976.000
398.980;  -66.300; -560.000; -560.000
399.108;  -37.825; -982.000; -735.000
399.236;   51.675;   13.000;    8.000
399.363;   20.425;  222.000;  196.000
399.491;  -56.225; -404.000; -398.000
399.619; -128.000; -829.000; -800.000
399.747;  -92.250; -859.000; -771.000
399.875;   87.525;  220.000;  234.000
400.003;  -40.800; -359.000; -284.000
400.130;  -95.125; -421.000; -341.000
400.258;  -23.125;  -83.000;   38.000
400.386;  -71.100; -352.000; -168.000
400.514;  -28.600; -526.000; -587.000
400.641;  -63.775; -928.000; -802.000
400.769; -146.375; -979.000; -888.000
400.897;  -98.250; -838.000; -793.000
401.025;  -15.000; -166.000; -152.000
401.152;   -3.975;  220.000;   38.000
401.280;  -88.750; -430.000; -429.000
401.408; -130.075; -712.000; -576.000
401.535; -101.850; -735.000; -758.000
401.663; -179.250;-1134.000;-1054.000
401.790;  -83.800; -514.000; -525.000
401.918;   37.475;  436.000;  405.000
402.046;  -26.675;  134.000;  122.000
402.173;  -22.950;  -18.000;    7.000
402.301;  -61.825; -519.000; -397.000
402.428;   39.550;  528.000;  383.000
402.556; -131.750;-1188.000; -913.000
402.683;  -36.325;  -20.000;   -1.000
402.811;  -17.175;  -37.000; -206.000
402.938;   -7.100;   20.000;   27.000
403.066;  287.025; -574.000; -558.000
403.193;  440.475;  299.000;  239.000
403.321;  359.850; -396.000; -574.000
403.448;  417.475;   83.000;   27.000
403.575;  189.250;  -90.000;  -46.000
403.703;  -93.625; -732.000; -557.000
403.830;  -71.950; -531.000; -496.000
403.957; -139.325;-1117.000;-1023.000
404.085;    5.875;  -61.000; -172.000
404.212;  117.400;  -50.000;   63.000
404.339;  220.200; -566.000; -306.000
404.467; 4643.175; -612.000; -524.000
404.594; 3471.950; -287.000; -227.000
404.721;  951.400; -869.000; -764.000
404.848;   92.300; -113.000; -202.000
404.976; -114.125; -856.000; -783.000
405.103;   -7.625;  -14.000;  -82.000
405.230;   -5.600;  190.000;  226.000
405.357;   27.975;  117.000;   44.000
405.484;  209.975;  -49.000;    5.000
405.612;   26.750; -548.000; -563.000
405.739;  -56.375; -488.000; -243.000
405.866;  108.675;  669.000;  385.000
405.993;  -41.775; -398.000; -102.000
406.120; -133.225; -801.000; -887.000
406.247;  -38.175; -323.000; -342.000
406.374;  576.900;  540.000;  629.000
406.501;  181.750; -632.000; -702.000
406.628;  -65.900; -621.000; -589.000
406.755;  -86.750; -803.000; -620.000
406.882;  -34.975; -228.000; -277.000
407.009;  -95.575; -719.000; -628.000
407.136;   94.100; -480.000; -401.000
407.263;  230.975; -939.000; -829.000
407.390;  -67.025; -692.000; -614.000
407.517; -167.675;-1139.000;-1187.000
407.644;  -55.150; -332.000; -256.000
407.771;  -61.550; -249.000; -287.000
407.898;   12.400;  168.000;  328.000
408.025;  -59.175; -421.000; -313.000
408.151;  -11.075;   82.000;  153.000
408.278;  -59.325; -267.000; -216.000
408.405; -108.625; -931.000; -899.000
408.532;  -72.625; -549.000; -542.000
408.659; -118.875; -677.000; -648.000
408.785; -201.800;-1298.000;-1170.000
408.912;  -55.925; -412.000; -296.000
409.039; -119.275; -610.000; -686.000
409.166;  -99.900; -591.000; -555.000
409.292; -101.150; -571.000; -534.000
409.419; -115.400; -665.000; -649.000
409.546;  -86.675; -431.000; -192.000
409.672; -115.200; -713.000; -545.000
409.799;  -29.150;  -36.000;   34.000
409.926;  -41.075; -180.000; -179.000
410.052; -182.825;-1127.000;-1091.000
410.179;  -48.525; -368.000; -392.000
410.305;  -88.250; -375.000; -493.000
410.432;  -19.400; -220.000; -333.000
410.558;  -90.550; -305.000; -380.000
410.685; -109.100; -688.000; -431.000
410.812;  -90.550; -409.000; -588.000
410.938; -141.650; -964.000; -808.000
411.065;  -83.550; -671.000; -645.000
411.191;  -10.425; -189.000; -174.000
411.317; -120.175; -823.000; -742.000
411.444;  -68.875; -317.000; -246.000
411.570;  -78.050; -339.000; -294.000
411.697; -129.725; -758.000; -752.000
411.823; -169.375; -989.000; -999.000
411.949;  -18.825;  -56.000;   17.000
412.076; -110.450; -539.000; -519.000
412.202; -119.350; -758.000; -757.000
412.329; -125.950; -798.000; -752.000
412.455; -119.925; -821.000; -657.000
412.581;  -26.925;  -15.000;  172.000
412.707;  -45.875; -540.000; -457.000
412.834;   17.550;  156.000;  219.000
412.960;  -90.000; -785.000; -784.000
413.086; -107.900; -743.000; -701.000
413.212;  173.800;  604.000;  578.000
413.339;  -59.300; -685.000; -701.000
413.465;   32.225; -364.000; -310.000
413.591;  -88.675; -757.000; -474.000
413.717;  -55.525; -358.000; -366.000
413.843; -144.125; -839.000; -861.000
413.969;  -50.350;  -47.000; -292.000
414.096;  -99.750; -679.000; -679.000
414.222;  -12.400;  -33.000;   85.000
414.348;   -2.600; -652.000; -385.000
414.474;  131.325;   38.000;  -52.000
414.600;   -5.375; -126.000; -144.000
414.726;  -16.000;  -96.000;  -55.000
414.852;  -68.650; -365.000; -342.000
414.978;   19.350;  104.000;  -18.000
415.104;   26.050;   38.000;   80.000
415.230;   16.200; -329.000; -330.000
415.356;   30.800; -409.000; -514.000
415.482;  190.450;   13.000;  -35.000
415.608;  230.100; -247.000; -323.000
415.734;  854.700;   67.000;   38.000
415.860;17557.400; -875.000; -767.000
415.986;12464.825; -685.000; -607.000
416.111; 1055.375; -798.000; -652.000
416.237;  185.500; -424.000; -571.000
416.363;  902.850; -765.000; -733.000
416.489; 3368.100; -324.000; -251.000
416.615;  317.275; -707.000; -742.000
416.741;  -49.900; -677.000; -784.000
416.866; -103.500; -673.000; -736.000
416.992; -128.750; -801.000; -818.000
417.118;  -36.875;  -41.000;  -80.000
417.244;  -59.100; -798.000; -531.000
417.369;  -86.900; -801.000; -612.000
417.495;    2.875; -325.000; -254.000
417.621;  -74.900;-1015.000; -803.000
417.746;    5.750; -579.000; -572.000
417.872;   45.675; -254.000; -144.000
417.998;   34.225; -515.000; -530.000
418.123;  850.025;-1073.000; -845.000
418.249; 4373.125; -512.000; -601.000
418.374;  567.375; -916.000; -824.000
418.500;   73.525; -383.000; -482.000
418.626;   82.475;   70.000;  -59.000
418.751;   96.700; -549.000; -448.000
418.877;  161.750; -637.000; -643.000
419.002; 1497.075; -688.000; -560.000
419.128;10263.650; -930.000; -721.000
419.253; 2470.750; -967.000; -837.000
419.379;  310.650; -391.000; -338.000
419.504;  336.575;  325.000;  415.000
419.629;  390.275; -393.000; -212.000
419.755; 2784.100; -317.000; -254.000
419.880;16200.600;  -98.000;   67.000
420.006; 9363.975; -280.000; -221.000
420.131;24805.075; -662.000; -775.000
420.256; 3567.775; -315.000; -316.000
420.382;  443.225; -665.000; -687.000
420.507;   60.925; -649.000; -778.000
420.632;  201.125; -337.000; -339.000
420.758;  365.950; -251.000; -425.000
420.883;  -84.600; -876.000; -672.000
421.008;  -95.575; -775.000; -619.000
421.133;  -78.375; -509.000; -467.000
421.259;  -48.825; -325.000; -259.000
421.384; -112.075; -834.000; -693.000
421.509;  -10.850;-1052.000; -862.000
421.634; 1732.350; -936.000; -820.000
421.759;  748.125; -359.000; -327.000
421.885;  -29.425; -717.000; -656.000
422.010;  -71.575; -673.000; -542.000
422.135; -152.000; -695.000; -727.000
422.260;   36.400;  340.000;  280.000
422.385;  -47.400;   12.000;  -98.000
422.510;    1.175;  151.000;  -26.000
422.635;   32.950;  -87.000;  -43.000
422.760;  111.025; -766.000; -791.000
422.885;   61.550;  -57.000;  -80.000
423.010;  -35.050; -112.000; -169.000
423.135;  -97.325; -481.000; -561.000
423.260;   -7.125; -150.000; -245.000
423.385;   76.125;  476.000;  222.000
423.510;   47.550;   71.000;  -22.000
423.635;   97.200;  133.000;   45.000
423.760;   66.275;  383.000;  328.000
423.885;   48.250;  336.000;  391.000
424.010;   14.750;  -68.000;  -13.000
424.135;  -30.325;    5.000;  -33.000
424.259;  -88.300; -654.000; -457.000
424.384;  -62.250; -279.000; -272.000
424.509;  -22.875; -260.000; -186.000
424.634; -108.800; -761.000; -623.000
424.759;  -39.400; -688.000; -544.000
424.883;  -37.050; -506.000; -527.000
425.008;  157.500; -502.000; -410.000
425.133; 1661.800; -679.000; -653.000
425.258;  757.100; -517.000; -381.000
425.382; 1218.925; -867.000; -774.000
425.507; 3169.200; -487.000; -543.000
425.632;  463.900; -802.000; -663.000
425.756;  382.175; -256.000; -146.000
425.881; 4840.375; -831.000; -857.000
426.006;12824.500; -604.000; -355.000
426.130; 2087.700; -696.000; -508.000
426.255;  252.700; -611.000; -491.000
426.379;  127.050; -189.000; -577.000
426.504;  330.975;  660.000;  544.000
426.629; 3566.225; -519.000; -466.000
426.753; 2403.625;   64.000;  -46.000
426.878;  281.775; -252.000; -288.000
427.002;  106.975; -651.000; -668.000
427.127; 1365.025;  -35.000; -158.000
427.251; 9434.075;  372.000;  401.000
427.375; 2696.225; -191.000; -173.000
427.500; 2711.975; -616.000; -610.000
427.624;  901.900; -234.000; -400.000
427.749;  126.175; -216.000; -225.000
427.873;  -26.675; -499.000; -412.000
427.997;  -39.575; -222.000; -230.000
428.122;   82.500;  795.000;  703.000
428.246;   89.325;  433.000;  434.000
428.371; -118.275; -869.000; -773.000
428.495; -103.725; -624.000; -646.000
428.619;  -26.400; -186.000; -117.000
428.743;   30.625;   65.000;  132.000
428.868;   35.300; -732.000; -643.000
428.992; 1762.600; -219.000; -326.000
429.116;  735.775; -329.000; -357.000
429.240;  359.200;  419.000;  426.000
429.365;  -12.550; -454.000; -574.000
429.489;  -55.500; -638.000; -647.000
429.613;   16.575; -236.000; -177.000
429.737;   36.875; -563.000; -432.000
429.861;  235.275; -247.000; -133.000
429.985; 4708.575; -425.000; -305.000
430.109; 5088.775; -770.000; -908.000
430.234;  579.025;   76.000;  -50.000
430.358;   59.700; -250.000; -160.000
430.482;  -75.525; -672.000; -564.000
430.606;  -56.575; -655.000; -375.000
430.730;   54.000; -437.000; -388.000
430.854;  205.250; -909.000; -835.000
430.978;  -45.825; -795.000; -764.000
431.102;  -76.825; -499.000; -422.000
431.226;  -96.300; -874.000; -815.000
431.350;   45.100;  345.000;  422.000
431.474;  -57.725; -661.000; -373.000
431.597; -151.250;-1060.000; -848.000
431.721;  -81.725; -276.000; -267.000
431.845; -135.625; -704.000; -472.000
431.969;  -89.325; -304.000; -349.000
432.093; -101.475; -395.000; -317.000
432.217;  -24.550;   32.000;   82.000
432.341;  -87.150; -523.000; -518.000
432.464;   22.600;   96.000;   40.000
432.588;  301.450; -401.000; -329.000
432.712;  135.475;  -52.000;  -52.000
432.836;   37.825;  213.000;  263.000
432.959;  -28.025; -372.000; -311.000
433.083;   65.700;   11.000;    2.000
433.207;  316.325;  285.000;  930.000
433.330; 4096.825; -391.000; -200.000
433.454; 4975.875; -654.000; -638.000
433.578; 2947.750;  583.000;  278.000
433.701;  548.675; -623.000; -675.000
433.825;  198.450; -292.000; -299.000
433.949;  313.325;   28.000;  -72.000
434.072;  138.850; -410.000; -323.000
434.196;  -12.125; -309.000; -117.000
434.319; 3738.375;25482.000;25124.000
434.443;  725.850; -656.000; -603.000
434.566; 2220.725;  281.000;   62.000
434.690;  354.050; -637.000; -383.000
434.813;   40.875; -251.000; -173.000
434.937;  -78.600; -569.000; -696.000
435.060;    1.850; -423.000; -332.000
435.184;  542.650; -492.000; -217.000
435.307;  279.775;  159.000;  102.000
435.431;   -7.450;  -40.000;   24.000
435.554;  -76.700; -399.000; -240.000
435.677;  -84.150; -350.000; -258.000
435.801;  -44.950;  -25.000;   49.000
435.924;    4.675;    1.000;  -67.000
436.048;  -72.825;-1019.000; -732.000
436.171;  -64.150; -240.000;  -66.000
436.294;  -27.900; -248.000; -229.000
436.417;   46.425; -963.000; -849.000
436.541;  -96.800; -814.000; -840.000
436.664;  -42.250; -242.000; -316.000
436.787;   -6.150;   13.000;  113.000
436.910; -117.950; -792.000; -422.000
437.034;    4.725;  142.000;  143.000
437.157;  102.525;  -11.000;    0.000
437.280;  -23.975; -392.000; -292.000
437.403;  -44.600; -982.000; -869.000
437.526; 1007.850; -903.000; -865.000
437.649; 3472.200; -505.000; -332.000
437.772;  540.175; -692.000; -540.000
437.896;  161.800;  700.000;  544.000
438.019;  -92.550; -758.000; -503.000
438.142;  -72.075; -596.000; -506.000
438.265;   41.525; -639.000; -670.000
438.388;  821.650; -520.000; -410.000
438.511;  183.975; -597.000; -394.000
438.634;  -37.000; -247.000; -125.000
438.757; -135.800; -693.000; -619.000
438.880;  -21.375;  -34.000;  -57.000
439.003;  -80.400; -417.000; -437.000
439.126;  -76.475; -287.000; -167.000
439.248;  -68.925;  -98.000; -139.000
439.371;  -33.175;    9.000;  -53.000
439.494;   26.300;  510.000;  439.000
439.617;  -55.375;   65.000;  -88.000
439.740; -190.100; -968.000; -816.000
439.863; -147.350; -755.000; -595.000
439.986; -134.650; -476.000; -431.000
440.108;  -53.400; -161.000; -112.000
440.231; -161.200; -950.000; -836.000
440.354;  -22.350;  -64.000; -150.000
440.477;   80.850; -566.000; -542.000
440.599;   42.725; -200.000; -225.000
440.722; -126.675; -709.000; -586.000
440.845;   75.375;  751.000;  928.000
440.968; -107.000; -415.000; -311.000
441.090;  -71.825; -199.000;  -33.000
441.213; -180.425;-1021.000; -825.000
441.336;  -69.200; -159.000;   -5.000
441.458;  -69.575; -549.000; -396.000
441.581;  -74.225; -628.000; -629.000
441.703;  -82.225; -152.000;   13.000
441.826; -102.100; -557.000; -400.000
441.948;  -64.525;   56.000;   51.000
442.071;   15.400;  555.000;  424.000
442.193; -118.800; -531.000; -485.000
442.316;   10.825;  152.000;   97.000
442.438;   30.200; -233.000;  -10.000
442.561;   85.925;  272.000;  262.000
442.683;  843.100; -809.000; -522.000
442.806; 1673.475;   -8.000;   74.000
442.928;  107.225; -859.000; -604.000
443.051;  -59.425; -577.000; -373.000
443.173;  -97.475; -341.000; -339.000
443.295;  -75.700; -263.000; -371.000
443.418;  -74.050; -321.000;  -29.000
443.540;    5.950; -106.000;   -4.000
443.662; -108.550; -563.000; -465.000
443.785;  -10.625;  335.000;  199.000
443.907; -102.875; -362.000; -208.000
444.029; -145.725; -767.000; -494.000
444.152; -153.425; -644.000; -554.000
444.274;  -36.775;  -18.000;  -24.000
444.396; -115.950; -461.000; -221.000
444.518; -131.350; -691.000; -454.000
444.640; -102.325; -268.000; -111.000
444.763;  -14.550;  388.000;  249.000
444.885; -121.875; -432.000; -392.000
445.007;  -35.875;   35.000;   86.000
445.129; -124.475; -610.000; -515.000
445.251; -105.200; -372.000; -439.000
445.373; -146.750; -537.000; -386.000
445.495;    0.250;  242.000;  350.000
445.617;   45.925;  853.000;  753.000
445.739;  -62.500; -215.000;  -97.000
445.861;  -31.975; -245.000; -112.000
445.984;  -32.250; -267.000; -101.000
446.105;  307.650; -418.000; -251.000
446.227;  852.200; -176.000;  -19.000
446.349;   26.725; -358.000; -249.000
446.471;  -93.300; -615.000; -448.000
446.593;  -51.750; -316.000;   19.000
446.715;   10.700;  -67.000;   41.000
446.837;   73.375;  697.000;  832.000
446.959; -112.025; -457.000; -478.000
447.081; -136.700; -628.000; -518.000
447.203;   67.200;  862.000;  834.000
447.325;  -93.075; -270.000;   42.000
447.446;    1.425;  286.000;  530.000
447.568; -155.750; -921.000; -803.000
447.690;  -79.525; -236.000; -245.000
447.812; -153.800; -798.000; -519.000
447.933;  -40.100;  155.000;  127.000
448.055;  -71.550; -306.000; -261.000
448.177;  197.550;   31.000;   79.000
448.299;  141.850; -935.000; -727.000
448.420;   30.025;  -25.000;  159.000
448.542;  -52.700;   -3.000;   33.000
448.664;  -18.850;  109.000;  322.000
448.785;  -54.575;  265.000;   83.000
448.907;  -72.050; -614.000; -353.000
449.028;  -23.400; -771.000; -471.000
449.150;   75.425;  492.000;  589.000
449.272; -188.825;-1044.000; -913.000
449.393;   16.650;  612.000;  694.000
449.515; -149.650; -634.000; -581.000
449.636;  -58.950; -264.000; -155.000
449.758;   81.025;  763.000;  622.000
449.879;  -91.450; -498.000; -396.000
450.001;  -76.225; -149.000;  -49.000
450.122;  -36.550;  -95.000;  162.000
450.244;  -37.175;   37.000;  364.000
450.365;  -90.075; -495.000; -301.000
450.486;  -36.100;   80.000;  268.000
450.608;    1.125;  393.000;  326.000
450.729;   42.100;  578.000;  645.000
450.850;  -34.925; -574.000; -466.000
450.972;  549.225; -552.000; -389.000
451.093; 3807.300;  190.000;  588.000
451.214; 1587.075; -516.000; -337.000
451.336;  277.825;  773.000;  579.000
451.457;   34.925;  264.000;  393.000
451.578;  -55.775; -118.000;  -74.000
451.699; -129.025; -546.000; -540.000
451.821;  -71.575; -284.000;  -50.000
451.942;   -6.750;  278.000;  285.000
452.063;   28.675;  228.000;  419.000
452.184;  431.100;  -54.000;  -49.000
452.305;  886.100;  103.000;  170.000
452.427;   74.100; -549.000; -301.000
452.548;  -20.975;   23.000;   79.000
452.669;  -47.300; -257.000;  -89.000
452.790;  -37.750;    3.000;  -18.000
452.911;  -14.500;  195.000;  259.000
453.032;  -62.375; -289.000;  -60.000
453.153;  -29.825;  -29.000;   81.000
453.274;   54.925;  737.000;  868.000
453.395;  -48.950;  -51.000;  175.000
453.516;  126.250; 1317.000; 1388.000
453.637;  -54.325; -205.000; -150.000
453.758;  -49.625;   15.000;   69.000
453.879; -122.025; -462.000; -250.000
454.000;   73.775; 1086.000;  948.000
454.121; -107.600; -554.000; -326.000
454.242; -113.525; -599.000; -383.000
454.362;  -51.025;  -99.000;  114.000
454.483;  -32.725; -309.000; -229.000
454.604;   74.400;  512.000;  580.000
454.725; -119.975; -627.000; -555.000
454.846; -147.250; -474.000; -406.000
454.967;  -23.125;  230.000;  539.000
455.087;  -46.950;  179.000;  153.000
455.208;   10.850;  554.000;  856.000
455.329;  -84.125;  -22.000;   82.000
455.450;   25.625;  473.000;  633.000
455.570; -101.950; -234.000; -211.000
455.691;  -54.900;  201.000;  407.000
455.812; -116.050; -270.000;  -92.000
455.932;  -66.650;  107.000;  -97.000
456.053;  -94.950;   36.000;   24.000
456.173; -112.900; -433.000; -355.000
456.294; -132.975; -476.000; -303.000
456.415;  -60.300;  -73.000;   70.000
456.535;  -35.800;  297.000;  273.000
456.656;  -45.075;  132.000;  240.000
456.776;  -77.200;    3.000;  298.000
456.897;  -17.175;  308.000;  513.000
457.017;  -82.225; -153.000;   -3.000
457.138;  -98.200; -402.000; -249.000
457.258;  -25.450;  263.000;  224.000
457.379;  -14.925;  509.000;  521.000
457.499;  -25.350;  443.000;  432.000
457.620; -122.100; -407.000; -231.000
457.740;  -98.000; -132.000;  -11.000
457.860;  -61.975;   87.000;   44.000
457.981;  -49.025;  132.000;  124.000
458.101;  -71.100;  -89.000;   40.000
458.221;  -23.525;  336.000;  402.000
458.342;  -65.000;   -4.000;  -37.000
458.462;    1.400;  617.000;  352.000
458.582;  -65.675; -302.000; -294.000
458.703;  -24.625;  303.000;  154.000
458.823;  -39.425;   22.000;  163.000
458.943;   17.150;  341.000;  467.000
459.063;  -21.675; 1124.000;  192.000
459.183;  -15.425;  328.000;  313.000
459.304;    0.575;  315.000;  517.000
459.424;  -64.625; -246.000;  -89.000
459.544;  253.900;  388.000;  764.000
459.664;  654.825;  499.000;  506.000
459.784;  262.225; 1004.000; 1175.000
459.904;   61.450;  867.000;  744.000
460.024;   76.525;  867.000;  684.000
460.144;   18.375;  449.000;  554.000
460.264;  -11.775;  515.000;  327.000
460.385;  -99.350; -145.000; -119.000
460.505;   38.150;  905.000;  858.000
460.625; -100.600;  -17.000;  -68.000
460.745;  -27.125;  396.000;  541.000
460.864;  -64.875;  153.000;  469.000
460.984;   19.450;  499.000;  573.000
461.104;  138.925; 1656.000; 1775.000
461.224;   28.725;  657.000;  650.000
461.344;  -29.600;  431.000;  360.000
461.464;  -24.000;  258.000;  513.000
461.584;   -9.750;  283.000;  466.000
461.704;  -43.025;   58.000;  108.000
461.824;  -57.625;  238.000;  259.000
461.943;  -48.750;  191.000;  130.000
462.063;  -74.825;    2.000;  324.000
462.183;   29.550;  639.000;  717.000
462.303;   99.875; 1678.000; 1230.000
462.422;   30.125;  781.000;  840.000
462.542;  -38.675;  271.000;  391.000
462.662;   36.325;  353.000;  380.000
462.782;  210.575;  833.000;  572.000
462.901;  394.200;  545.000;  717.000
463.021;  242.150; 1702.000; 1638.000
463.141;   -0.050;  337.000;  770.000
463.260;  -25.250;  614.000;  474.000
463.380;   28.050;  902.000;  884.000
463.499;  -44.550;  342.000;  332.000
463.619;  -27.975;  581.000;  559.000
463.738;  117.825; 1644.000;  903.000
463.858;    8.475;  657.000;  811.000
463.978;  -21.825;  542.000;  396.000
464.097;   32.100;  921.000; 1114.000
464.217;   91.450; 1196.000; 1143.000
464.336;  100.450; 1068.000; 1130.000
464.455;  -44.200;  328.000;  659.000
464.575;   45.225;  597.000;  602.000
464.694;  188.925; 1204.000; 1179.000
464.814;  108.800; 1190.000; 1138.000
464.933;   69.250; 1095.000; 1027.000
465.052;   97.175; 1412.000; 1054.000
465.172;   80.450;  922.000;  799.000
465.291;  149.625; 1376.000; 1320.000
465.410;   25.325;  462.000;  735.000
465.530;   83.150; 1355.000; 1310.000
465.649;   62.850; 1209.000; 1273.000
465.768;  145.950; 1673.000; 1508.000
465.888;   44.425;  941.000; 1174.000
466.007;   90.275; 1335.000; 1440.000
466.126;   -1.275;  721.000;  641.000
466.245;   35.400; 1176.000; 1187.000
466.364;   12.450;  950.000; 1060.000
466.484;   62.550; 1024.000; 1213.000
466.603;   16.275; 1101.000; 1222.000
466.722;  119.200; 1490.000; 1769.000
466.841;   75.400; 1151.000; 1401.000
466.960;   49.100; 1069.000;  972.000
467.079;  134.475; 1971.000; 1786.000
467.198;   52.050; 1238.000; 1181.000
467.317;   71.350; 1768.000; 1162.000
467.436;   57.975; 1709.000; 1261.000
467.555;  130.700; 1796.000; 1746.000
467.674;   65.425; 1227.000; 1329.000
467.793;   36.125; 1376.000; 1374.000
467.912;   99.500; 1658.000; 1539.000
468.031;  143.975; 2038.000; 1930.000
468.150;  146.225; 1842.000; 1837.000
468.269;  190.250; 2313.000; 2090.000
468.388;  180.450; 2168.000; 2339.000
468.507;  256.000; 2884.000; 2903.000
468.626;  229.950; 2555.000; 2541.000
468.744;  135.650; 2018.000; 2174.000
468.863;  186.600; 2312.000; 2523.000
468.982;   90.200; 1503.000; 1555.000
469.101;  224.100; 2788.000; 2692.000
469.220;  135.650; 2333.000; 2176.000
469.338;  247.175; 2935.000; 3051.000
469.457;  190.775; 2719.000; 2545.000
469.576;  357.950; 3953.000; 3784.000
469.695;  236.200; 2877.000; 3066.000
469.813;  434.275; 4148.000; 4192.000
469.932;  406.325; 4255.000; 4485.000
470.051;  426.175; 4075.000; 4161.000
470.169;  757.375; 4470.000; 4338.000
470.288; 1280.450; 4700.000; 4809.000
470.406;  798.975; 5059.000; 5194.000
470.525;  626.925; 6101.000; 5787.000
470.644;  647.725; 6847.000; 6794.000
470.762;  804.875; 8397.000; 7873.000
470.881;  894.825; 8651.000; 8464.000
470.999; 1035.900; 9685.000; 9151.000
471.118; 1096.900;11174.000;10711.000

