
Integration time [ms]: 100.000
Averaging Nr. [scans]: 40
Smoothing Nr. [pixels]: 0
Data measured with spectrometer [name]: 2101012U2
Wave   ;Sample   ;Dark     ;Reference
[nm]   ;[counts] ;[counts] ;[counts] 

197.733;   65.800;  516.000;  404.000
197.879;  -89.550; -610.000; -634.000
198.025;  -53.075; -475.000; -420.000
198.171;  -79.625; -602.000; -612.000
198.317;  -48.850; -401.000; -316.000
198.463;  -57.075; -655.000; -404.000
198.609;   17.600;  181.000; -137.000
198.755;  -88.400; -644.000; -410.000
198.901;  -71.350; -505.000; -424.000
199.047;  -60.625; -615.000; -488.000
199.193;  -34.450; -230.000; -468.000
199.339;  -35.075; -222.000; -369.000
199.485;   45.100;  330.000;  271.000
199.631;    7.625;  227.000;  310.000
199.777;  -51.000; -466.000; -398.000
199.923;  -65.150; -610.000; -424.000
200.069;  -14.675; -141.000;  -58.000
200.215;   55.575;  128.000;  453.000
200.361;   41.625;  243.000;  477.000
200.507;  -62.350; -600.000; -373.000
200.653;  -25.600; -371.000; -194.000
200.798;  -50.000; -215.000; -125.000
200.944;   -6.950; -146.000;  -41.000
201.090;   45.275;   61.000;  222.000
201.236;   -9.825; -116.000; -158.000
201.382;  128.350;  874.000;  903.000
201.528;   10.400;  -58.000;  -48.000
201.674;  -52.625; -386.000; -293.000
201.819;  -64.575; -540.000; -439.000
201.965;  -88.425; -699.000; -447.000
202.111;  -34.725; -273.000; -226.000
202.257;  -33.350; -250.000; -238.000
202.402;   -1.650;   13.000;  -36.000
202.548;  -28.200; -169.000; -116.000
202.694;   84.275;  410.000; -183.000
202.840;  -71.050; -603.000; -531.000
202.985;  -83.075; -681.000; -639.000
203.131; -116.975; -832.000; -666.000
203.277;  -28.900; -199.000; -262.000
203.423;  -66.000; -434.000; -520.000
203.568;  -39.025; -462.000; -237.000
203.714;  -66.550; -535.000; -542.000
203.860;  -87.925; -682.000; -641.000
204.005;   14.400;  112.000;  167.000
204.151;   75.250;  561.000;  556.000
204.296;  -44.000; -354.000; -221.000
204.442;  -65.175; -600.000; -547.000
204.588;  -83.775; -592.000; -579.000
204.733;    3.025;  178.000;  168.000
204.879; -123.075;-1018.000; -822.000
205.025;    4.325;  -99.000;  126.000
205.170;   -8.300;  -17.000;   94.000
205.316;   80.350;  438.000;  661.000
205.461;  -77.100; -698.000; -554.000
205.607;  103.075;  609.000;  665.000
205.752;  -76.000; -626.000; -551.000
205.898;  -51.475; -501.000; -391.000
206.043;  -60.875; -578.000; -506.000
206.189;  -47.725; -243.000; -285.000
206.334;   94.925;  554.000;  606.000
206.480;   71.650;  409.000;  239.000
206.625;  -96.300; -529.000; -552.000
206.771;  -59.050; -451.000; -373.000
206.916;  -54.525; -210.000; -537.000
207.062;  -64.575; -545.000; -591.000
207.207;  -67.800; -546.000; -443.000
207.353;   58.100;  185.000;  460.000
207.498;   30.050;  196.000;   85.000
207.643;  -55.625; -501.000; -370.000
207.789; -134.500;-1069.000; -910.000
207.934; -105.525; -665.000; -713.000
208.080;  -21.225; -154.000;   66.000
208.225;   -3.900;  -22.000;  -57.000
208.370;  -94.450; -727.000; -619.000
208.516;  -92.175; -741.000; -487.000
208.661;  -16.750; -127.000;  -69.000
208.806;  -30.625; -165.000; -171.000
208.952; -129.025;-1044.000; -731.000
209.097;   76.325;  378.000;  349.000
209.242;  -50.775; -307.000; -382.000
209.387;   52.875;  392.000;  350.000
209.533;  -60.325; -321.000; -350.000
209.678;   76.175;  472.000;  543.000
209.823;  -47.700; -408.000; -310.000
209.969; -109.225; -860.000; -757.000
210.114; -116.850; -907.000; -719.000
210.259; -125.875; -939.000; -889.000
210.404;  -14.275; -171.000;  103.000
210.549;   -2.375;  108.000;    3.000
210.695;  -28.550;   -3.000;  -95.000
210.840;   23.325;   94.000;   67.000
210.985;  -58.325; -484.000; -303.000
211.130;   66.625;  268.000;  406.000
211.275;   15.725;  207.000;  199.000
211.420;  -49.150; -300.000; -289.000
211.566;  -69.100; -536.000; -489.000
211.711;   21.200;  218.000;  157.000
211.856;  -81.725; -545.000; -519.000
212.001;    9.375;  151.000;   44.000
212.146;   25.725;  153.000;   49.000
212.291;  -18.625; -210.000; -186.000
212.436;  -26.825; -280.000;   -6.000
212.581;  -95.900; -685.000; -653.000
212.726;  -86.575; -487.000; -538.000
212.871;  -63.800; -552.000; -217.000
213.016; -152.000;-1172.000;-1029.000
213.161;   58.400;  406.000;  291.000
213.306;  -73.350; -435.000; -577.000
213.451;  -90.725; -778.000; -689.000
213.596;  -48.775; -455.000; -347.000
213.741;  -61.575; -448.000; -538.000
213.886;  -87.600; -498.000; -517.000
214.031;  -36.800; -294.000; -124.000
214.176;  -48.825; -408.000; -341.000
214.321;  -20.225; -296.000; -157.000
214.466;  -21.775; -163.000;  -43.000
214.611;  -23.175;  -61.000;  -10.000
214.756; -124.050; -948.000; -858.000
214.901;  -25.625; -388.000; -226.000
215.046; -116.800; -797.000; -825.000
215.191;    9.975;  128.000;   35.000
215.336;  -28.500; -157.000;  -19.000
215.480;  -67.400; -684.000; -505.000
215.625;   -9.275; -175.000;  -19.000
215.770;  -97.175; -757.000; -662.000
215.915;  -14.275;   -5.000;  -97.000
216.060;   -5.425; -113.000;  -21.000
216.205; -112.875; -731.000; -779.000
216.349;  -96.675; -470.000; -533.000
216.494; -145.775; -939.000; -867.000
216.639; -121.525; -823.000; -888.000
216.784;  -99.750; -577.000; -525.000
216.929;   37.175;  392.000;  281.000
217.073;    9.900; -244.000;  -31.000
217.218;   -1.125;   78.000;  -47.000
217.363;  -86.275; -656.000; -618.000
217.507;  -81.725; -623.000; -588.000
217.652; -134.600; -845.000; -874.000
217.797;  -94.650; -708.000; -659.000
217.942; -108.900; -856.000; -720.000
218.086;   65.850;  608.000;  539.000
218.231;  -28.900; -174.000;  -26.000
218.376;  -31.225; -337.000; -229.000
218.520;   -4.150;  -41.000;   96.000
218.665;  -41.050; -338.000; -204.000
218.810;  -41.575; -275.000; -233.000
218.954;   18.775;  201.000;   35.000
219.099; -116.100; -713.000; -963.000
219.243;  -69.750; -589.000; -554.000
219.388;  -33.625; -264.000; -136.000
219.532;  -17.400; -116.000; -116.000
219.677;  -93.975; -564.000; -521.000
219.822;    0.000;   33.000;   89.000
219.966;    3.450;   17.000;  -99.000
220.111;  -30.000; -328.000;  -40.000
220.255;  -98.300; -797.000; -750.000
220.400;  -41.825; -180.000; -146.000
220.544;  -75.175; -516.000; -450.000
220.689;  -60.675; -422.000; -451.000
220.833;  -17.900; -123.000;  -58.000
220.978;  -42.275; -393.000; -563.000
221.122;   16.350;  319.000;  307.000
221.267; -116.250; -906.000; -837.000
221.411;  -83.025; -478.000; -394.000
221.555;  -19.975; -104.000;  -23.000
221.700;  -61.675; -329.000; -222.000
221.844;   39.050;  255.000;  272.000
221.989;  -43.025; -328.000; -311.000
222.133;  -48.875; -289.000; -307.000
222.277;   -8.775;    5.000;   78.000
222.422;   15.225;  227.000;  113.000
222.566;  -48.075; -381.000; -214.000
222.711;  -66.100; -414.000; -479.000
222.855;  -89.050; -643.000; -586.000
222.999;  -91.375; -642.000; -717.000
223.144;  -25.425; -195.000; -194.000
223.288;   46.375;  423.000;  251.000
223.432;   32.075;  184.000;  230.000
223.576;   12.375;  152.000;  -21.000
223.721;   35.100;  364.000;  273.000
223.865;  -64.475; -472.000; -475.000
224.009;  223.800; 1673.000; 1631.000
224.153;  -87.400; -660.000; -671.000
224.298;  -71.600; -531.000; -489.000
224.442;   -8.500;  -74.000;  -33.000
224.586;  -15.625; -169.000; -106.000
224.730; -101.475; -858.000; -670.000
224.875; -113.900; -739.000; -688.000
225.019;  -10.825;  102.000;  188.000
225.163;   67.325;  208.000;  341.000
225.307;   22.900;   97.000;  -91.000
225.451;   38.850;  360.000;  481.000
225.595;   12.950;  264.000;  176.000
225.739;  -29.675; -170.000;  -94.000
225.884;    5.025;   86.000;    5.000
226.028; -103.500; -760.000; -626.000
226.172;  -49.700; -260.000; -273.000
226.316; -121.400; -941.000; -902.000
226.460;  -70.075; -645.000; -493.000
226.604;  -48.725; -406.000; -400.000
226.748; -109.900; -836.000; -733.000
226.892;  -33.000; -227.000; -181.000
227.036;  -61.150; -537.000; -447.000
227.180;  -65.200; -551.000; -375.000
227.324;  -78.600; -561.000; -580.000
227.468; -124.250; -819.000; -717.000
227.612;    5.900;  242.000;  -28.000
227.756; -118.200; -845.000; -698.000
227.900;   50.575;  342.000;  441.000
228.044;  -60.475; -509.000; -290.000
228.188;   58.600;  448.000;  568.000
228.332;  -85.925; -546.000; -472.000
228.476;  -34.250; -223.000; -149.000
228.620;  -32.350; -210.000; -150.000
228.764;   63.875;  431.000;  349.000
228.908;  -10.950; -155.000;   30.000
229.052;  -58.825; -615.000; -528.000
229.195;   -2.275; -172.000;   13.000
229.339;  -31.175; -235.000; -305.000
229.483;  -14.000;    5.000; -162.000
229.627;   -6.375; -156.000;  139.000
229.771;  -60.350; -218.000; -294.000
229.915;    7.300;  230.000;   79.000
230.059; -104.300; -648.000; -663.000
230.202;  -39.825; -370.000; -317.000
230.346;  -26.125; -107.000;  107.000
230.490;  -72.800; -489.000; -521.000
230.634; -108.375; -736.000; -553.000
230.777;   62.800;  478.000;  509.000
230.921;  -75.575; -450.000; -359.000
231.065;  -50.375; -246.000; -286.000
231.209;   30.700;  261.000;  265.000
231.352;   15.950;   54.000;   40.000
231.496;   16.925;  568.000;  188.000
231.640;  -98.275; -693.000; -621.000
231.783;   60.075;  546.000;  525.000
231.927;  -59.150; -294.000; -365.000
232.071; -137.575; -962.000; -736.000
232.214; -124.325; -980.000; -764.000
232.358; -105.225; -683.000; -599.000
232.502;   -2.825;  -19.000;    7.000
232.645; -137.800;-1090.000; -927.000
232.789;  -30.850; -257.000; -218.000
232.933;  -56.850; -407.000; -224.000
233.076; -137.300;-1038.000; -897.000
233.220; -109.900; -752.000; -777.000
233.363;  -85.425; -669.000; -477.000
233.507;   50.700;  371.000;  129.000
233.650; -107.300; -764.000; -834.000
233.794;   45.775;  438.000;  461.000
233.938;  -59.475; -530.000; -362.000
234.081;  -25.550;  -93.000;   31.000
234.225;  -77.050; -631.000; -539.000
234.368; -113.075; -773.000; -723.000
234.512;  -47.775; -385.000; -299.000
234.655;  -93.675; -582.000; -555.000
234.798;  -79.575; -493.000; -466.000
234.942; -136.850; -884.000;-1002.000
235.085;  -81.675; -651.000; -443.000
235.229;  -82.875; -405.000; -410.000
235.372;  -55.100; -247.000; -191.000
235.516;  -61.350; -397.000; -321.000
235.659;   11.900;   92.000;  121.000
235.802;   -9.900;  -38.000;  -22.000
235.946;   30.075;  335.000;  215.000
236.089;    6.400;  126.000;  250.000
236.233;   47.300;  275.000;  298.000
236.376;  -53.725; -235.000; -378.000
236.519;  -56.825; -297.000; -319.000
236.663;  -32.175; -215.000; -117.000
236.806; -150.250;-1029.000; -999.000
236.949;   64.225;  543.000;  431.000
237.092;   45.525;  412.000;  391.000
237.236;  -93.525; -589.000; -502.000
237.379;   63.725;  352.000;  428.000
237.522; -124.125; -879.000; -768.000
237.666;  -29.775; -271.000;   18.000
237.809; -144.300; -851.000; -823.000
237.952;   34.150;  469.000;  271.000
238.095;  -72.800; -447.000; -442.000
238.238;   89.600;  688.000;  700.000
238.382;   -4.425;  166.000;  103.000
238.525;  -78.850; -598.000; -511.000
238.668; -149.850;-1060.000; -985.000
238.811;  -85.975; -638.000; -643.000
238.954;  -74.825; -483.000; -334.000
239.097;   77.875;  617.000;  664.000
239.241;   26.425;  394.000;  326.000
239.384;  -40.250; -254.000; -214.000
239.527;  -59.525; -424.000; -224.000
239.670; -156.625; -994.000;-1091.000
239.813; -121.350; -696.000; -658.000
239.956;   63.575;  579.000;  473.000
240.099; -121.825; -778.000; -725.000
240.242;   63.700;  428.000;  432.000
240.385;   46.600;  466.000;  450.000
240.528;  -86.100; -706.000; -473.000
240.671;   22.275;  189.000;  134.000
240.814;  -48.800; -441.000; -158.000
240.957; -124.100; -767.000; -578.000
241.100; -106.625; -779.000; -755.000
241.243; -159.000;-1234.000; -893.000
241.386;  -73.250; -508.000; -379.000
241.529; -100.000; -735.000; -547.000
241.672;  -76.650; -566.000; -495.000
241.815; -125.025; -832.000; -808.000
241.958;  -25.150; -125.000; -182.000
242.101;  -83.250; -545.000; -390.000
242.244;  -40.875; -270.000; -325.000
242.387;  -42.975; -304.000; -246.000
242.530;   52.125;  470.000;  134.000
242.673;  -43.125; -381.000; -309.000
242.815; -130.350; -925.000; -899.000
242.958;  -63.175; -482.000; -381.000
243.101;    0.100;  132.000;  187.000
243.244;  -97.325; -564.000; -521.000
243.387;  -69.900; -313.000; -316.000
243.530; -106.450; -657.000; -674.000
243.672;   -7.625;   43.000;  -92.000
243.815;  -50.250; -355.000; -283.000
243.958;  -18.650;   98.000;  -26.000
244.101;   -8.025;   59.000;  -16.000
244.243;  -17.250;  -47.000;  101.000
244.386; -115.275; -761.000; -630.000
244.529;  -42.250; -132.000; -139.000
244.672; -171.400;-1154.000; -951.000
244.814; -118.100; -621.000; -794.000
244.957;  -69.150; -380.000; -304.000
245.100;  -71.850; -489.000; -489.000
245.242;  -62.425; -387.000; -374.000
245.385;    1.300;  -59.000;  -39.000
245.528; -128.600; -871.000; -705.000
245.670;   81.525;  612.000;  634.000
245.813;  -88.775; -599.000; -547.000
245.956;  -25.475; -324.000; -275.000
246.098;  -79.625; -508.000; -650.000
246.241;    0.325;  194.000;   48.000
246.383;  -17.650; -119.000;  -73.000
246.526;  -83.425; -454.000; -525.000
246.669; -127.025; -889.000; -780.000
246.811;    0.700;  172.000;   -1.000
246.954;  -66.725; -512.000; -426.000
247.096;  -28.050;  -84.000;   -6.000
247.239;  -69.075; -482.000; -445.000
247.381;  -81.050; -647.000; -488.000
247.524;   74.800;  645.000;  679.000
247.666;   -7.725;   58.000;   11.000
247.809; -128.725; -887.000; -691.000
247.951;   -0.275;  -75.000;  138.000
248.094;   24.275;  432.000;  308.000
248.236; -167.350;-1262.000;-1238.000
248.378;  -13.300; -356.000;  -81.000
248.521;  -20.300; -334.000; -337.000
248.663;  -53.575; -236.000; -267.000
248.806;  -21.050; -300.000; -266.000
248.948;  -98.950; -886.000; -763.000
249.090;  -62.875; -428.000; -398.000
249.233;  -54.825; -344.000; -381.000
249.375;  -74.250; -474.000; -451.000
249.518;  -16.100;  -83.000; -133.000
249.660;  -27.850; -103.000;    3.000
249.802; -178.225;-1303.000;-1189.000
249.945;  -94.300; -612.000; -540.000
250.087; -133.175; -834.000; -768.000
250.229;  -63.925; -362.000; -480.000
250.371;  -78.250; -494.000; -439.000
250.514;  -68.175; -310.000; -244.000
250.656;  -71.025;   69.000;  102.000
250.798; -123.250; -849.000; -800.000
250.940;  -68.200; -322.000; -322.000
251.083;  -41.075; -335.000; -111.000
251.225;   56.125;  338.000;  310.000
251.367;  -46.925; -274.000; -373.000
251.509;  -52.000; -265.000; -210.000
251.651; -111.975; -731.000; -671.000
251.794;   58.900;  538.000;  632.000
251.936; -115.700; -821.000; -747.000
252.078;  -73.125; -540.000; -461.000
252.220;  -84.200; -645.000; -477.000
252.362;   62.900;  344.000;  462.000
252.504;  -95.000; -677.000; -584.000
252.646; -115.100; -875.000; -722.000
252.788;  -22.725;   14.000; -128.000
252.931;  -39.850; -257.000; -253.000
253.073;  -64.050; -376.000; -317.000
253.215;  -12.650;  141.000;  122.000
253.357;  -21.500;   82.000; -153.000
253.499;  -59.125; -374.000; -234.000
253.641; -112.900; -749.000; -594.000
253.783; -101.175; -609.000; -527.000
253.925;  -93.700; -586.000; -591.000
254.067; -117.800; -744.000; -667.000
254.209;  -39.500; -391.000; -259.000
254.351; -153.500; -865.000; -883.000
254.493;  -74.975; -441.000; -417.000
254.635; -143.650; -936.000; -818.000
254.777;  -98.850; -752.000; -687.000
254.918;  -78.250; -512.000; -430.000
255.060;  -60.650; -551.000; -395.000
255.202;  -72.975; -473.000; -261.000
255.344;  -90.600; -658.000; -455.000
255.486;  -72.375; -471.000; -406.000
255.628; -116.275; -780.000; -781.000
255.770; -101.575; -676.000; -536.000
255.912;  -62.825; -559.000; -468.000
256.053; -108.375; -730.000; -508.000
256.195;  152.300; 1008.000;  903.000
256.337; -120.500; -861.000; -595.000
256.479;   77.300;  532.000;  416.000
256.621;  -59.800; -394.000; -212.000
256.762; -108.250; -789.000; -742.000
256.904;   50.300;  485.000;  487.000
257.046;  -48.525; -381.000; -271.000
257.188;  -46.825; -351.000; -264.000
257.329;  -91.375; -525.000; -464.000
257.471; -127.025; -939.000; -807.000
257.613;  -78.775; -584.000; -498.000
257.755; -147.375;-1073.000; -982.000
257.896;   20.900;  286.000;  392.000
258.038;  -75.550; -403.000; -352.000
258.180;  -37.500; -354.000; -279.000
258.321;  -75.800; -581.000; -457.000
258.463;  -12.600;  -71.000;  133.000
258.605; -108.050; -562.000; -570.000
258.746; -123.200; -886.000; -772.000
258.888; -160.000;-1026.000;-1020.000
259.029;   10.300;  121.000;   -8.000
259.171;  -83.775; -614.000; -550.000
259.313;  -11.575;  -49.000;  -47.000
259.454;  -71.000; -536.000; -414.000
259.596;  -71.075; -483.000; -390.000
259.737;  -88.025; -590.000; -474.000
259.879;   21.200;  217.000;  311.000
260.020;   76.775;  901.000;  636.000
260.162;  -36.075; -146.000; -253.000
260.303; -117.100; -768.000; -687.000
260.445;  -94.825; -609.000; -613.000
260.586;   18.325;  392.000;  157.000
260.728;  -56.250; -360.000; -248.000
260.869; -120.925; -350.000; -343.000
261.011;   68.475;  706.000;  537.000
261.152;  -48.150; -479.000; -319.000
261.293; -104.875; -576.000; -595.000
261.435;  -52.225; -219.000; -184.000
261.576;  -53.350; -455.000; -325.000
261.718;   43.225;  420.000;  470.000
261.859; -145.200; -940.000; -949.000
262.000; -140.925; -951.000;-1016.000
262.142;  -20.050;  -52.000;  -60.000
262.283; -129.000; -808.000; -691.000
262.424; -104.175; -666.000; -625.000
262.566; -163.325;-1161.000; -983.000
262.707; -131.500; -840.000; -830.000
262.848; -131.325; -769.000; -726.000
262.990;  -60.900; -362.000; -345.000
263.131;   80.725;  650.000;  681.000
263.272;  -19.150;  -61.000;  -41.000
263.413;  -97.225; -589.000; -561.000
263.555;  -87.200; -669.000; -143.000
263.696;  -80.925; -550.000; -641.000
263.837;  -80.600; -449.000; -551.000
263.978;    1.325;   -5.000;  -77.000
264.119;  -63.600; -283.000; -264.000
264.261; -121.975; -847.000; -630.000
264.402;  -10.100;   33.000;   40.000
264.543;  -85.275; -509.000; -524.000
264.684;  -15.400;   61.000;  -50.000
264.825;  -77.375; -816.000; -538.000
264.966;  -23.675;  -84.000;  -67.000
265.107; -126.800; -646.000; -670.000
265.248; -135.725; -825.000; -812.000
265.390;   -8.475;  152.000;   -9.000
265.531;  -32.250; -238.000; -107.000
265.672;  -91.900; -557.000; -630.000
265.813;   57.000;  563.000;  439.000
265.954; -147.575; -959.000; -940.000
266.095;  -28.425; -372.000; -322.000
266.236;  -87.550; -686.000; -548.000
266.377;  -53.825; -243.000; -297.000
266.518;  -85.450; -619.000; -547.000
266.659;   12.875;  170.000;  268.000
266.800;    2.400;   83.000;   85.000
266.941;  -84.125; -487.000; -478.000
267.082;   13.200;  354.000;   99.000
267.223;  -62.775; -344.000; -273.000
267.364; -131.550; -892.000; -686.000
267.504;  -24.925;    3.000;  135.000
267.645;   -8.650;  160.000;   67.000
267.786;  -46.675; -147.000;  -86.000
267.927;  -72.250; -473.000; -379.000
268.068;  -13.300; -186.000;  -61.000
268.209;  -53.425; -175.000; -413.000
268.350;  -64.650; -388.000; -532.000
268.490;  -83.425; -648.000; -521.000
268.631;   22.600;  127.000;  225.000
268.772; -122.300; -874.000; -647.000
268.913;  -62.525; -328.000; -476.000
269.054;  -18.650; -117.000;   12.000
269.194;  -48.575; -418.000; -402.000
269.335; -175.325;-1137.000;-1074.000
269.476;  -22.650;   33.000;  -35.000
269.617;  -59.050; -347.000; -392.000
269.757; -108.575; -713.000; -646.000
269.898; -114.900; -856.000; -613.000
270.039;  -69.875; -415.000; -405.000
270.180; -148.900; -952.000; -816.000
270.320;  -20.775; -190.000; -250.000
270.461;  -47.200; -277.000; -249.000
270.602;  -12.825; -186.000; -156.000
270.742; -132.400; -868.000; -943.000
270.883;  -61.225; -442.000; -390.000
271.023;  -79.950; -358.000; -357.000
271.164;  -76.700; -607.000; -528.000
271.305; -108.075; -666.000; -654.000
271.445; -110.450; -722.000; -683.000
271.586;  -72.500; -462.000; -283.000
271.726;  -52.675; -397.000; -322.000
271.867;  -70.975; -594.000; -534.000
272.008;  143.250; -473.000; -285.000
272.148;  101.925;  462.000;  468.000
272.289;   -6.025; -113.000; -181.000
272.429;   -6.675;   19.000;  185.000
272.570;  -98.700; -633.000; -737.000
272.710; -112.250; -825.000; -775.000
272.851;  -44.600;  113.000; -130.000
272.991; -169.125;-1173.000;-1077.000
273.131;  -85.575; -419.000; -459.000
273.272; -106.600; -683.000; -723.000
273.412;   -9.075; -143.000;  -31.000
273.553;  -68.200; -488.000; -507.000
273.693;  128.075;  913.000;  858.000
273.834; -111.250; -894.000; -692.000
273.974;  -98.975; -664.000; -615.000
274.114; -108.450; -772.000; -560.000
274.255;   56.200;  414.000;  373.000
274.395;   -9.675; -180.000; -125.000
274.535;   32.100;  199.000;  350.000
274.676;   -0.275;  225.000;   94.000
274.816;   -4.500;  110.000;   34.000
274.956;  -90.800; -624.000; -690.000
275.097;  -83.700;-1014.000; -922.000
275.237; -130.775; -913.000; -803.000
275.377; -106.850; -778.000; -689.000
275.517; -154.400; -878.000; -937.000
275.658;  -70.125; -590.000; -555.000
275.798;  -77.500; -606.000; -413.000
275.938;   24.775;  215.000;  323.000
276.078;  -91.900; -626.000; -395.000
276.218;   -5.875;   99.000;  104.000
276.359; -149.075;-1026.000;-1024.000
276.499;  -77.550; -605.000; -446.000
276.639;  -44.000; -305.000; -151.000
276.779;  -52.075; -475.000; -357.000
276.919; -104.200; -783.000; -624.000
277.059;  -40.525; -261.000; -212.000
277.199;  -55.200; -357.000; -259.000
277.340;   32.050;  287.000;  175.000
277.480; -123.525; -840.000; -693.000
277.620;   16.800;  192.000;   16.000
277.760; -214.300;-1533.000;-1294.000
277.900;   12.275;  113.000;   33.000
278.040;   -4.175;  137.000;  159.000
278.180;   23.825;  270.000;  170.000
278.320;   -7.850;   21.000;   56.000
278.460;  -88.350; -443.000; -469.000
278.600;  -91.075; -708.000; -598.000
278.740;   28.900;  448.000;  224.000
278.880;  -77.325; -768.000; -791.000
279.020;  -15.175; -194.000; -144.000
279.160; -114.100; -672.000; -595.000
279.300; -133.125; -926.000; -873.000
279.440;  -97.825; -709.000; -622.000
279.579;  -45.700;-1014.000; -929.000
279.719;  -63.800; -410.000; -394.000
279.859;   52.000;   -4.000;   41.000
279.999;   12.325; -208.000;  101.000
280.139;  -43.475; -435.000; -387.000
280.279;  -83.750; -708.000; -745.000
280.419;  -27.100; -229.000; -147.000
280.559;  -41.975; -259.000; -180.000
280.698; -102.150; -790.000; -639.000
280.838; -119.925; -778.000; -800.000
280.978; -115.050; -846.000; -790.000
281.118; -117.300; -811.000; -704.000
281.257;   -1.675;   24.000;    6.000
281.397; -141.300;-1094.000; -960.000
281.537; -103.725; -599.000; -712.000
281.677;  -31.625; -150.000; -101.000
281.816; -101.950; -700.000; -630.000
281.956;  -31.700; -193.000; -257.000
282.096;  -84.950; -539.000; -396.000
282.235; -117.075; -672.000; -638.000
282.375;  -33.900; -243.000;  -98.000
282.515; -111.675; -715.000; -707.000
282.654;   11.350;   29.000;  106.000
282.794;   25.250;  388.000;  244.000
282.934;  -68.275; -530.000; -491.000
283.073; -137.050;-1030.000; -857.000
283.213;  -62.825; -460.000; -467.000
283.353;  -60.475; -408.000; -349.000
283.492;  -39.825; -264.000; -296.000
283.632;  -64.475; -254.000; -168.000
283.771; -120.500; -859.000; -730.000
283.911;  -72.450; -369.000; -260.000
284.050; -117.675; -794.000; -748.000
284.190; -168.725;-1229.000;-1096.000
284.329; -161.650;-1055.000; -964.000
284.469;  -94.025; -516.000; -591.000
284.608;  -64.425; -559.000; -598.000
284.748;  -91.625; -614.000; -570.000
284.887;  -10.000;  -87.000;  -20.000
285.027; -134.650; -844.000; -892.000
285.166;  -49.625; -192.000; -249.000
285.306;  -13.050; -116.000;  -33.000
285.445;  -60.000; -229.000; -343.000
285.584; -102.950; -630.000; -494.000
285.724;  -64.775; -282.000; -322.000
285.863; -131.975; -857.000; -507.000
286.002;  -66.950; -366.000; -276.000
286.142; -110.875; -715.000; -622.000
286.281;  -83.475; -525.000; -493.000
286.420;  -85.225; -554.000; -417.000
286.560;   85.975;  653.000;  623.000
286.699; -158.725; -958.000; -912.000
286.838;  -95.175; -590.000; -591.000
286.978; -102.350; -533.000; -537.000
287.117; -146.150;-1085.000; -950.000
287.256;  -45.350; -228.000; -211.000
287.395;  -52.850; -197.000; -378.000
287.535;  -60.875; -370.000; -298.000
287.674;  -92.850; -509.000; -484.000
287.813;   58.300;  661.000;  533.000
287.952; -145.975;-1010.000; -871.000
288.091; -151.950;-1049.000; -915.000
288.231;   -5.500;   13.000;   15.000
288.370; -190.175;-1217.000;-1200.000
288.509; -109.950; -728.000; -645.000
288.648; -102.050; -770.000; -548.000
288.787;  -44.225; -243.000;  -87.000
288.926;  -88.650; -454.000; -475.000
289.065;  109.100;  859.000;  672.000
289.204;  -62.475; -377.000; -217.000
289.344;  -91.700; -791.000; -690.000
289.483;   19.850;  416.000;  304.000
289.622;  -46.300; -291.000; -149.000
289.761;  -16.975; -309.000; -166.000
289.900; -134.150; -785.000; -626.000
290.039;  -19.400;  -12.000;  -95.000
290.178;  -56.825; -274.000; -180.000
290.317;  -97.350; -618.000; -479.000
290.456;  -78.750; -463.000; -451.000
290.595; -144.200; -961.000; -833.000
290.734; -156.250; -904.000; -891.000
290.873;  -82.475; -456.000; -420.000
291.011; -112.300; -833.000; -843.000
291.150; -117.125; -770.000; -682.000
291.289;  -49.450; -343.000; -110.000
291.428; -105.725; -599.000; -480.000
291.567;  -72.400; -370.000; -442.000
291.706;  -11.325;  109.000;  154.000
291.845;  -99.400; -597.000; -505.000
291.984; -184.175;-1234.000;-1061.000
292.122;   64.150;  602.000;  582.000
292.261;   27.425;  620.000;  463.000
292.400;   -2.200; -144.000;  211.000
292.539; -133.725; -959.000; -813.000
292.678;  -53.775; -325.000; -300.000
292.816; -171.050;-1136.000; -965.000
292.955; -114.300; -844.000; -684.000
293.094;  -44.675; -173.000; -337.000
293.233;  -57.200; -556.000; -400.000
293.371;  -45.475; -225.000;  -84.000
293.510; -122.500; -866.000; -780.000
293.649; -137.000; -959.000; -924.000
293.787;  -89.900;-1083.000;-1012.000
293.926;  -10.250; -113.000;  -32.000
294.065;  -54.400; -379.000; -290.000
294.203;   39.100;  298.000;  406.000
294.342;   14.675;   74.000;  156.000
294.481; 6302.100;51180.000; -836.000
294.619;  -41.975; -425.000; -582.000
294.758; -159.400;-1230.000;-1137.000
294.896;   46.075; -125.000;    5.000
295.035; -147.500;-1040.000;-1006.000
295.174; -138.725;-1082.000; -954.000
295.312;  -55.600; -323.000; -203.000
295.451;  -32.075; -307.000; -428.000
295.589;  -69.450; -389.000; -518.000
295.728;    4.350; -292.000; -165.000
295.866;  -14.275;  -36.000;  -51.000
296.005;  -87.575; -584.000; -341.000
296.143;  -73.175; -558.000; -596.000
296.282; -120.050; -957.000; -881.000
296.420; -106.100; -657.000; -557.000
296.559;  -97.975; -892.000; -633.000
296.697;  -15.825; -847.000; -665.000
296.835;   -2.975;-1141.000;-1002.000
296.974;   22.425;  -23.000;   39.000
297.112;   -6.950; -443.000; -504.000
297.251;  -90.125; -815.000; -755.000
297.389;   30.975; -576.000; -438.000
297.527;   18.875; -145.000;  -83.000
297.666;  -70.125; -486.000; -438.000
297.804;  -62.100; -404.000; -264.000
297.942;  -18.675; -136.000; -161.000
298.081;   -8.750; -183.000;   63.000
298.219;   38.925;  -17.000;  -19.000
298.357;   22.850; -144.000;  -71.000
298.495;   -9.825; -810.000; -812.000
298.634;   47.450;  245.000;  219.000
298.772;   16.950; -220.000; -338.000
298.910;  -52.625; -309.000; -182.000
299.048;  -19.025; -130.000; -153.000
299.187;  -45.650; -350.000; -250.000
299.325;   -8.825;   52.000;  122.000
299.463;    1.550; -389.000; -299.000
299.601;   57.900; -327.000; -271.000
299.739; -127.600; -908.000; -883.000
299.877;  -80.125; -791.000; -703.000
300.016;  -72.125;-1095.000; -935.000
300.154;  109.275;  -19.000; -161.000
300.292;   14.575; -428.000; -348.000
300.430;   -2.350; -408.000; -291.000
300.568; -126.700; -940.000; -874.000
300.706;  -58.350; -366.000; -469.000
300.844;  -97.650;-1108.000; -979.000
300.982;  103.400;  246.000;  282.000
301.120; -126.350; -965.000; -866.000
301.258;  -91.675; -812.000; -705.000
301.396;   21.700;  104.000;  -41.000
301.534;   28.325; -218.000; -293.000
301.672;  -40.300; -664.000; -521.000
301.810;  -18.550; -613.000; -545.000
301.948;   80.075;   53.000;  149.000
302.086;  460.675; -250.000;  -32.000
302.224;  741.375; -610.000; -585.000
302.362;  -12.900; -558.000; -622.000
302.500;  -67.400; -923.000; -893.000
302.638;   66.500;  128.000;  245.000
302.776;  -23.200; -352.000; -408.000
302.913;   29.775;  447.000;  236.000
303.051;  -30.900;  -86.000;  -23.000
303.189;   17.525;   90.000;  118.000
303.327;  -46.775; -341.000; -256.000
303.465;  -91.475; -832.000; -588.000
303.603; -100.050; -805.000; -604.000
303.740;   70.675;  417.000;  241.000
303.878;  -29.725; -800.000; -759.000
304.016; -104.150; -915.000; -790.000
304.154; -143.925;-1123.000;-1152.000
304.291;  -55.525; -505.000; -554.000
304.429;   -6.375;  102.000;   74.000
304.567; -147.175; -908.000; -893.000
304.705;  -63.400; -408.000; -515.000
304.842;   36.850; -616.000; -540.000
304.980;   40.225;  215.000;   35.000
305.118;   20.925; -367.000; -365.000
305.255; -100.150; -945.000; -927.000
305.393;   29.075;  178.000;  239.000
305.531; -127.200;-1173.000; -956.000
305.668;  -78.875; -663.000; -582.000
305.806;   74.875; -358.000; -439.000
305.943;   55.125; -629.000; -637.000
306.081;   32.525; -378.000; -267.000
306.219; -121.175; -863.000; -748.000
306.356;   -6.325;  158.000;   27.000
306.494;  110.425;  981.000;  761.000
306.631;  -12.700;  -11.000;  -55.000
306.769;  -14.150; -613.000; -485.000
306.906;  -43.475; -284.000; -258.000
307.044;  -77.600; -473.000; -488.000
307.181;  -85.225; -410.000; -332.000
307.319;    0.400;  112.000;   87.000
307.456; -180.900;-1191.000;-1153.000
307.594; -124.350; -980.000; -727.000
307.731;  -36.200; -371.000; -164.000
307.868;  -19.075;  -15.000;   20.000
308.006; -161.325; -961.000; -847.000
308.143;  -85.175; -618.000; -330.000
308.281;   73.875;  -37.000; -254.000
308.418;  -44.050; -748.000; -640.000
308.555;  -83.700; -400.000; -250.000
308.693;  -90.325; -577.000; -573.000
308.830; -120.775; -712.000; -657.000
308.967;  -21.425; -215.000;  -95.000
309.105;  -51.875; -507.000; -396.000
309.242;  -16.900; -468.000; -367.000
309.379;  157.425; -577.000; -655.000
309.517; -112.250; -936.000; -948.000
309.654; -122.950; -910.000; -734.000
309.791;  -90.175; -662.000; -580.000
309.928; -132.725; -977.000; -914.000
310.065;  148.800;  819.000;  697.000
310.203;  -44.850; -825.000; -850.000
310.340;  -38.375; -465.000; -321.000
310.477;  -88.875; -412.000; -516.000
310.614;  -83.825; -383.000; -473.000
310.751;  -85.375; -427.000; -518.000
310.889;  -34.275;    1.000;   11.000
311.026; -156.750;-1161.000; -939.000
311.163;  -61.575; -386.000; -380.000
311.300;  -90.975; -512.000; -479.000
311.437;  -90.375; -658.000; -619.000
311.574; -176.750;-1226.000; -985.000
311.711;  -64.050; -595.000; -433.000
311.848;  -56.250; -380.000; -388.000
311.985;   -6.525;  270.000;   93.000
312.122; -131.725; -932.000; -762.000
312.259; -135.225; -941.000; -994.000
312.396; -101.275; -508.000; -551.000
312.533; -111.225; -812.000; -790.000
312.670; -141.025;-1070.000; -898.000
312.807;  -53.750; -352.000; -367.000
312.944;  -83.950; -513.000; -611.000
313.081;  -38.900; -150.000; -415.000
313.218; -125.450;-1111.000; -867.000
313.355;  -11.100; -531.000; -449.000
313.492;   -1.100; -455.000; -292.000
313.629;  109.325;  815.000;  735.000
313.766; -183.325;-1176.000;-1008.000
313.902;  -26.050; -186.000;   21.000
314.039;  -60.700; -372.000; -289.000
314.176;    0.850;  286.000;  192.000
314.313;  -86.825; -569.000; -473.000
314.450; -101.275; -788.000; -684.000
314.587;  -68.950; -468.000; -480.000
314.723;  -25.425;  -78.000;  130.000
314.860;   16.650;  318.000;  332.000
314.997;    5.425;  223.000;  142.000
315.134;  -54.400; -385.000; -368.000
315.270;  -52.475; -480.000; -496.000
315.407; -146.775;-1094.000; -967.000
315.544;  -70.500; -657.000; -538.000
315.681;  -93.175; -681.000; -565.000
315.817;    4.775; -133.000; -176.000
315.954;    0.600; -613.000; -392.000
316.091; -139.475;-1045.000;-1023.000
316.227;  -32.075;  -71.000; -179.000
316.364;   -6.450;   23.000;    6.000
316.500;  -55.175; -113.000; -300.000
316.637;  -46.275; -181.000; -302.000
316.774;  -94.100; -625.000; -358.000
316.910; -100.900; -598.000; -629.000
317.047;  -76.950; -487.000; -351.000
317.183;  -54.425; -435.000; -566.000
317.320;  -20.500; -367.000; -321.000
317.456;  -84.025; -733.000; -805.000
317.593; -113.525; -598.000; -641.000
317.729;   -5.550;  168.000;  -67.000
317.866; -214.550;-1434.000;-1285.000
318.002; -111.975; -708.000; -948.000
318.139; -122.250; -883.000; -867.000
318.275; -114.875;-1003.000; -738.000
318.412;  -67.025; -517.000; -336.000
318.548;  -48.350; -751.000; -720.000
318.685; -121.825; -985.000; -888.000
318.821;  -99.900; -762.000; -735.000
318.957;  -27.675;   34.000;  -23.000
319.094;   13.200;  297.000;  154.000
319.230;  -94.125; -756.000; -742.000
319.367;   70.400; -471.000; -520.000
319.503;   13.175; -538.000; -436.000
319.639; -114.150; -877.000; -793.000
319.775;  -86.975; -750.000; -685.000
319.912;  -69.575; -424.000; -519.000
320.048; -111.200;-1184.000;-1184.000
320.184;   65.375;   59.000;   70.000
320.321;  -83.925; -497.000; -467.000
320.457;   51.575;  475.000;  662.000
320.593;  -86.175; -375.000; -382.000
320.729; -112.150; -732.000; -734.000
320.866;  -81.100; -577.000; -635.000
321.002; -109.650; -759.000; -809.000
321.138;  -32.525; -135.000; -211.000
321.274;   32.725; -148.000; -115.000
321.410;  -44.625; -585.000; -353.000
321.546;  -70.900;-1011.000; -911.000
321.683;   38.575;  400.000;  185.000
321.819;  -15.875;  -48.000; -117.000
321.955; -119.200; -743.000; -722.000
322.091;  -62.875; -585.000; -540.000
322.227;  -34.400; -382.000; -202.000
322.363;  -37.525; -320.000; -215.000
322.499;  -51.700; -343.000; -331.000
322.635;  123.375;  636.000;  443.000
322.771;    4.700; -139.000;   12.000
322.907;   74.100;  129.000;  327.000
323.043;  -39.375; -115.000; -206.000
323.179;  -58.100; -394.000; -363.000
323.315;  -23.025; -401.000; -371.000
323.451;   52.325; -328.000; -236.000
323.587;   50.575;  -60.000;  -77.000
323.723;  -21.025; -682.000; -601.000
323.859;  -35.050; -258.000;  -76.000
323.995;  -49.525; -467.000; -409.000
324.131; -129.050; -967.000; -892.000
324.267;  -54.575; -254.000; -276.000
324.402; -144.450; -960.000; -983.000
324.538;  -31.075; -279.000; -104.000
324.674;   -0.875;  164.000;   77.000
324.810;   64.150;  226.000;  308.000
324.946;  -42.075; -810.000; -658.000
325.082;  -85.400; -568.000; -475.000
325.217;  -16.450;  -62.000;   16.000
325.353; -129.875; -764.000; -659.000
325.489; -105.750; -540.000; -506.000
325.625; -101.825; -579.000; -525.000
325.760;   41.750;  517.000;  376.000
325.896;  -30.700; -515.000; -702.000
326.032;  -69.475; -403.000; -352.000
326.168;  -62.750; -462.000; -369.000
326.303;  -66.600; -352.000; -461.000
326.439;  -26.100; -336.000; -276.000
326.575;  -12.050; -190.000;  -29.000
326.710;  -15.650; -156.000;  -30.000
326.846;  -23.050;  146.000;  103.000
326.982; -106.400; -530.000; -548.000
327.117;  -90.900; -481.000; -442.000
327.253; -103.975; -745.000; -742.000
327.388; -154.550;-1137.000;-1153.000
327.524;  -88.075; -811.000; -578.000
327.659;  -33.075;  -58.000;  -22.000
327.795;  -17.900;   69.000;   45.000
327.931;  -97.725; -723.000; -499.000
328.066;  -49.225; -417.000; -276.000
328.202;  -25.675;   12.000; -129.000
328.337;  107.900;  957.000;  713.000
328.473;   15.725;  -12.000;  -74.000
328.608;  -31.875; -256.000; -267.000
328.743; -108.200; -799.000; -664.000
328.879;    8.600;  214.000;  114.000
329.014;  -55.425; -102.000; -122.000
329.150;  -78.750; -358.000; -483.000
329.285;  -94.775; -465.000; -466.000
329.421;  -58.325; -548.000; -246.000
329.556;  -41.875;  -36.000;   85.000
329.691; -101.300; -633.000; -615.000
329.827; -106.325; -626.000; -480.000
329.962;  -45.750;  131.000; -301.000
330.097; -108.325; -673.000; -585.000
330.233;  -44.275; -410.000; -223.000
330.368; -149.625; -839.000; -628.000
330.503;  -33.325;    3.000;   98.000
330.638;   -7.725;  -93.000; -125.000
330.774;  -85.150; -609.000; -530.000
330.909;  -52.775; -434.000; -244.000
331.044; -100.600; -714.000; -708.000
331.179; -187.900;-1217.000;-1109.000
331.315;    6.175;   77.000;   20.000
331.450;   -4.375;  157.000;  285.000
331.585; -104.600; -805.000; -706.000
331.720; -105.075; -510.000; -460.000
331.855;  -14.625;  -35.000; -102.000
331.990;  273.925;   62.000;  138.000
332.126;  130.700; -110.000;   71.000
332.261;  -12.950; -379.000; -265.000
332.396;  -17.600; -135.000; -242.000
332.531;  -96.400;-1074.000;-1031.000
332.666;   20.375; -519.000; -363.000
332.801; -122.825; -726.000; -807.000
332.936;  -44.825; -192.000; -122.000
333.071; -141.000; -870.000; -817.000
333.206;    5.550;  307.000;  379.000
333.341;   17.150;  344.000;  418.000
333.476;  -99.400; -627.000; -623.000
333.611;  -49.075; -251.000; -173.000
333.746;  -66.075; -381.000; -464.000
333.881; -141.525; -973.000; -935.000
334.016; -145.275; -936.000; -917.000
334.151; -133.125; -746.000; -702.000
334.286;    3.100;  152.000;  186.000
334.421;  -24.900; -125.000; -178.000
334.556;  -99.150; -611.000; -567.000
334.690; -105.775; -631.000; -577.000
334.825;   44.000;  381.000;   83.000
334.960;  -72.900; -285.000; -413.000
335.095;    4.875;  135.000;  -91.000
335.230; -109.900; -722.000; -738.000
335.365; -159.825;-1084.000; -990.000
335.499; -142.675;-1108.000;-1037.000
335.634;    1.425;    9.000;  534.000
335.769; -106.750; -755.000; -720.000
335.904;  -81.325; -603.000; -561.000
336.038;  -73.050; -735.000; -657.000
336.173; -150.175;-1206.000;-1194.000
336.308;  -10.800; -116.000; -189.000
336.443;    6.850; -544.000; -634.000
336.577;  -94.150; -936.000; -787.000
336.712;   43.325;   -4.000;  -12.000
336.847;  -59.250; -724.000; -607.000
336.981;   39.950; -272.000; -208.000
337.116;  232.775;  615.000;  501.000
337.250;   98.225; -434.000; -421.000
337.385;  244.500; -297.000; -208.000
337.520;   88.175; -632.000; -603.000
337.654;  -54.400; -215.000; -126.000
337.789; -146.950; -989.000; -933.000
337.923;  -53.225; -104.000; -205.000
338.058; -105.900; -673.000; -738.000
338.192;  -59.325; -611.000; -488.000
338.327;  -19.925;  -18.000; -155.000
338.461;  -78.775; -299.000; -469.000
338.596; -113.175; -780.000; -638.000
338.730; -116.900; -767.000; -803.000
338.865;   84.400;  -46.000; -140.000
338.999;  -62.250; -846.000; -702.000
339.134;  -44.625; -634.000; -536.000
339.268;   -4.750; -741.000; -603.000
339.403;  351.150; -740.000; -775.000
339.537;  120.650; -894.000; -820.000
339.671; -118.325; -829.000; -813.000
339.806;  -78.625; -556.000; -512.000
339.940;   -1.300; -261.000; -235.000
340.074; -109.475; -685.000; -510.000
340.209;  -55.475; -351.000; -230.000
340.343;  -99.175; -517.000; -573.000
340.477;  129.350;  998.000; 1036.000
340.612;  -60.300;-1033.000; -900.000
340.746;  125.100; -199.000; -243.000
340.880; -100.775; -924.000; -785.000
341.014;  -38.150;  -45.000; -154.000
341.149; -128.650; -756.000; -718.000
341.283; -129.850; -839.000; -754.000
341.417; -121.000;-1124.000; -938.000
341.551;   70.500; -768.000; -708.000
341.685;  -38.950; -633.000; -611.000
341.820;  -68.175; -562.000; -493.000
341.954;  -55.400; -218.000; -349.000
342.088; -174.975;-1102.000;-1019.000
342.222;   33.625;  565.000;  618.000
342.356;  -79.350; -395.000; -335.000
342.490; -128.600; -880.000; -841.000
342.624;  -67.425; -339.000; -242.000
342.758;  -35.700; -364.000; -312.000
342.892;  -90.650; -710.000; -585.000
343.026;  -43.475;  -58.000; -116.000
343.160;  -67.250; -426.000; -376.000
343.294;  -99.100; -474.000; -337.000
343.428;  -57.875; -488.000; -448.000
343.562;  -23.350; -172.000;  -23.000
343.696;  -47.625; -385.000; -314.000
343.830;  -35.650; -362.000; -356.000
343.964;   -2.100; -231.000; -168.000
344.098;  695.625;  199.000;   70.000
344.232;  552.725; -266.000; -127.000
344.366;   51.875; -567.000; -453.000
344.500;    2.300; -665.000; -744.000
344.634;   -8.925; -324.000; -164.000
344.768;  -49.175; -531.000; -341.000
344.902;   -0.575;  278.000;  256.000
345.035;  -94.275; -556.000; -496.000
345.169; -145.275; -933.000; -656.000
345.303;  -69.400; -308.000; -482.000
345.437;  -99.750; -826.000; -717.000
345.571;  -81.750; -675.000; -594.000
345.704;  -67.825; -309.000; -532.000
345.838;  -38.800; -331.000; -284.000
345.972;  -46.225; -543.000; -495.000
346.106;  153.450; -179.000; -190.000
346.239;  361.125; -312.000; -243.000
346.373;    0.750; -343.000; -302.000
346.507; -161.575; -950.000; -962.000
346.640;   74.675;  -30.000;   13.000
346.774;  -82.500; -650.000; -797.000
346.908;  -38.400; -138.000;  -11.000
347.041; -109.925; -646.000; -593.000
347.175;   -6.675;  259.000;   27.000
347.309; -101.600; -698.000; -628.000
347.442; -136.875; -883.000; -732.000
347.576;  210.775;  670.000;  668.000
347.709;  125.000; -123.000;  -52.000
347.843; -121.900; -933.000; -825.000
347.976;   18.700;  235.000;  294.000
348.110; -185.575;-1268.000;-1186.000
348.243; -125.925; -679.000; -772.000
348.377;   -8.950;  -26.000;   60.000
348.510;   40.925;  403.000;  540.000
348.644;  -49.050;  -37.000; -159.000
348.777;  -14.050;  180.000;  191.000
348.911;  -58.050; -142.000; -112.000
349.044;  122.975;  471.000;  448.000
349.178;   58.100;-1069.000;-1006.000
349.311;   93.825;  141.000;  255.000
349.444;  -15.100; -927.000; -813.000
349.578;  -39.700; -347.000; -200.000
349.711; -134.525; -959.000; -862.000
349.845;  -33.725; -661.000; -591.000
349.978; -174.825;-1224.000;-1137.000
350.111; -104.175; -546.000; -612.000
350.244;  -99.575; -596.000; -700.000
350.378;  -14.800; -392.000; -393.000
350.511;  -95.525; -393.000; -426.000
350.644; -125.700; -808.000; -806.000
350.778;   -4.650;  168.000;  104.000
350.911;   -8.175;  134.000;  140.000
351.044; -104.900; -685.000; -615.000
351.177;  -39.675; -321.000; -281.000
351.310;  -27.575;    3.000; -131.000
351.444; -107.050; -888.000; -788.000
351.577;   84.450;  140.000;   90.000
351.710;   75.350;  593.000;  417.000
351.843;  -50.750; -165.000;  -77.000
351.976;  -20.025;  149.000;  -79.000
352.109; -105.975; -621.000; -612.000
352.242;  -48.625; -464.000; -419.000
352.376;  -86.450; -580.000; -636.000
352.509;  106.400; -437.000; -356.000
352.642;  -42.575; -654.000; -604.000
352.775;   42.525; -141.000;  -98.000
352.908; -133.000; -933.000; -904.000
353.041; -116.050; -814.000; -824.000
353.174;  -86.975; -551.000; -424.000
353.307; -114.325; -753.000; -764.000
353.440;   75.925;  541.000;  453.000
353.573; -129.775; -957.000;-1008.000
353.706;  -52.925; -384.000; -558.000
353.839;  -43.350; -264.000; -220.000
353.971;  -96.175; -657.000; -512.000
354.104;  -96.275; -896.000; -835.000
354.237;  -60.925; -627.000; -662.000
354.370; -109.050; -846.000; -879.000
354.503; -202.000;-1231.000;-1308.000
354.636;  -62.625; -529.000; -348.000
354.769; -139.775; -937.000; -860.000
354.902;  -26.575; -230.000; -139.000
355.034;  -39.800; -164.000; -220.000
355.167;  -27.075; -262.000; -162.000
355.300; -106.600;-1061.000; -880.000
355.433;  969.025;  -71.000;  -14.000
355.565; 1516.475; -402.000; -384.000
355.698;  376.175; -356.000; -296.000
355.831;  -46.725; -882.000; -801.000
355.964;   42.925; -285.000; -170.000
356.096; -120.925; -856.000; -843.000
356.229;  -31.825; -523.000; -530.000
356.362;  318.150; -373.000; -266.000
356.494;  600.350; -229.000; -162.000
356.627;  393.675;  269.000;  377.000
356.760;  638.625;  120.000;   53.000
356.892;  968.475; -286.000; -601.000
357.025;  503.250;  403.000;  389.000
357.157;  433.150; -167.000; -179.000
357.290;  715.925; -856.000; -713.000
357.423;  193.650; -667.000; -556.000
357.555;   75.550; -217.000; -228.000
357.688;   78.350; -483.000; -364.000
357.820;  338.475; -870.000; -877.000
357.953; 3098.700; -563.000; -589.000
358.085;  595.750; -632.000; -612.000
358.218;  737.400;-1131.000; -932.000
358.350;  128.125;  -58.000;  312.000
358.483; -159.125;-1300.000;-1187.000
358.615;  -73.875;-1182.000;-1078.000
358.747; -107.725;-1187.000;-1058.000
358.880;  -15.550; -810.000; -744.000
359.012;  -21.675; -376.000; -202.000
359.145;  -50.400; -480.000; -511.000
359.277;    4.800; -962.000; -913.000
359.409; 2535.925;  536.000;  231.000
359.542;  623.825; -738.000; -688.000
359.674;   55.675;   46.000;   13.000
359.806;  -78.650; -565.000; -438.000
359.939;  -61.125; -617.000; -516.000
360.071;  -10.850; -583.000; -579.000
360.203;  -33.500; -411.000; -364.000
360.335;   28.475;  164.000;  -16.000
360.468;  145.750; -249.000; -307.000
360.600; 2116.800; -547.000; -454.000
360.732; 2890.175; -546.000; -423.000
360.864;  371.575;-1216.000;-1044.000
360.996;  169.100; -516.000; -554.000
361.129;   -9.950; -389.000; -598.000
361.261;   -1.775;  110.000; -113.000
361.393;  -46.100; -252.000; -214.000
361.525;    5.625;   94.000;  244.000
361.657;  -78.375; -821.000; -703.000
361.789;  -17.175; -139.000; -155.000
361.921;  112.075; -642.000; -593.000
362.053;  188.575;  524.000;  541.000
362.185;   26.125;  288.000;   72.000
362.318; -118.100; -709.000; -705.000
362.450;   80.750;  294.000;  444.000
362.582;    7.725; -913.000; -870.000
362.714;  -52.550; -353.000; -332.000
362.846;  -96.300; -606.000; -490.000
362.978; -144.950; -941.000; -811.000
363.109;   -7.050; -161.000; -260.000
363.241;  310.325; -739.000; -749.000
363.373;  391.600; -649.000; -564.000
363.505;  698.825; -186.000;  -91.000
363.637;  125.000; -787.000; -601.000
363.769; -139.200;-1067.000;-1080.000
363.901;  -92.500; -596.000; -654.000
364.033; -152.750;-1103.000;-1062.000
364.165;   -5.450; -283.000; -283.000
364.296;   55.025; -316.000; -177.000
364.428;   62.575;-1344.000;-1220.000
364.560;  -89.075; -679.000; -661.000
364.692;  -74.675; -738.000; -835.000
364.824;  161.075; -588.000; -456.000
364.955;  411.600; -402.000; -564.000
365.087; 1014.275;-1097.000; -852.000
365.219;    3.775; -686.000; -816.000
365.351;  -81.300; -526.000; -572.000
365.482;   28.800;  300.000;  240.000
365.614;  -52.425; -402.000; -314.000
365.746; -119.850; -729.000; -752.000
365.877; -117.250; -706.000; -672.000
366.009;  280.000;  -35.000;  -62.000
366.141; -106.600;-1249.000;-1134.000
366.272; -120.250; -803.000; -719.000
366.404; -137.750;-1005.000; -874.000
366.535;  -16.325; -139.000;  -12.000
366.667; -112.025; -644.000; -649.000
366.799;   27.325;  353.000;  203.000
366.930; -141.625; -862.000; -996.000
367.062;  104.800; -639.000; -613.000
367.193;  168.650; -872.000; -842.000
367.325;  -74.425; -580.000; -684.000
367.456;   23.150; -246.000;   31.000
367.588;  151.700; -371.000; -318.000
367.719;   13.575;  -44.000;  -45.000
367.851;  -32.025; -222.000; -241.000
367.982;  -77.975; -875.000; -732.000
368.113;   38.500; -475.000; -358.000
368.245; -138.425; -960.000; -841.000
368.376;  -38.775; -254.000; -302.000
368.508;  -36.025; -188.000; -263.000
368.639; -165.950;-1166.000;-1034.000
368.770;  -49.175; -670.000; -589.000
368.902; -103.475; -836.000; -926.000
369.033; -123.325; -906.000; -855.000
369.164;  -73.850; -720.000; -653.000
369.296; -115.575; -452.000; -601.000
369.427;  -13.725; -209.000; -144.000
369.558;  -76.500; -593.000; -377.000
369.689;  -96.525; -721.000; -569.000
369.821; -148.075; -951.000; -845.000
369.952;  -28.675;   42.000; -108.000
370.083;  -58.350; -229.000; -108.000
370.214; -108.000; -735.000; -650.000
370.345;   -8.925;   65.000;   81.000
370.477; -106.550; -810.000; -790.000
370.608;  150.075; -328.000; -264.000
370.739; -102.175;-1233.000;-1292.000
370.870;  -63.050;-1102.000; -923.000
371.001;   26.625; -378.000; -467.000
371.132; -106.025; -754.000; -735.000
371.263;  -36.250;  -42.000; -148.000
371.394; -128.600; -841.000; -748.000
371.525;   16.725;  345.000;  225.000
371.657; -124.225; -808.000; -670.000
371.788;   43.100;  103.000;  199.000
371.919;  109.150; -384.000; -304.000
372.050; 2880.575;  -91.000; -156.000
372.181;  816.025; -188.000; -294.000
372.311;  276.300;   42.000; -127.000
372.442;  -16.725; -457.000; -451.000
372.573;  -29.450; -444.000; -340.000
372.704; -136.375;-1008.000; -980.000
372.835;   28.425; -228.000; -289.000
372.966;  -86.400; -646.000; -554.000
373.097;  -95.275; -575.000; -711.000
373.228;  -66.625; -717.000; -542.000
373.359;   58.500; -824.000; -536.000
373.490;  681.650; -881.000; -727.000
373.620;  852.800;-1001.000; -803.000
373.751; 1361.275; -332.000; -396.000
373.882;  572.850; -663.000; -733.000
374.013;    6.975; -449.000; -262.000
374.143;  -81.650; -581.000; -659.000
374.274; -135.000; -987.000; -908.000
374.405;  114.200; -388.000; -276.000
374.536;  304.050; -526.000; -387.000
374.666;  810.650; -759.000; -807.000
374.797;  133.300; -817.000; -868.000
374.928;  617.900; -710.000; -560.000
375.058;  638.450; -535.000; -500.000
375.189;   37.600;  -59.000;  -93.000
375.320; -136.775; -928.000;-1034.000
375.450;  -70.875; -625.000; -616.000
375.581;  -67.000; -526.000; -436.000
375.712;  -54.300; -574.000; -250.000
375.842;  196.225; -438.000; -415.000
375.973;  126.850; -554.000; -513.000
376.103;  -79.475; -665.000; -648.000
376.234;  -89.800; -531.000; -552.000
376.364;  -84.950; -944.000; -867.000
376.495;  241.725;  925.000;  529.000
376.625;  -43.800; -472.000; -485.000
376.756;    0.500; -709.000; -678.000
376.886; -107.800;-1178.000;-1026.000
377.017;   52.075;-1048.000;-1061.000
377.147;  348.225; -786.000; -782.000
377.278;   34.575;  174.000;  228.000
377.408; -140.975; -801.000; -815.000
377.538; -119.000; -707.000; -693.000
377.669;  -88.925; -537.000; -613.000
377.799; -119.200; -645.000; -635.000
377.929;  -84.275; -610.000; -428.000
378.060; -145.000; -781.000; -847.000
378.190;  -63.800; -726.000; -531.000
378.320;  -61.675; -401.000; -406.000
378.451;  -12.825; -131.000;  -22.000
378.581;  -31.925;  -67.000; -110.000
378.711;  125.375; 1035.000;  866.000
378.841;  -56.800; -533.000; -675.000
378.972; -106.400; -871.000; -751.000
379.102;  -39.225; -652.000; -579.000
379.232;  -33.825; -126.000;  -73.000
379.362; -123.550;-1001.000; -885.000
379.492;  -18.675; -373.000; -424.000
379.623;   63.900;    0.000;  111.000
379.753; -132.900;-1107.000; -974.000
379.883;  135.425;   59.000;  156.000
380.013;  -64.050;-1081.000;-1017.000
380.143; -134.925;-1097.000;-1056.000
380.273; -127.475; -985.000; -861.000
380.403;  -19.075; -344.000; -257.000
380.533;  -51.225; -651.000; -664.000
380.663;   43.025;  173.000;  128.000
380.793; -127.800;-1027.000;-1074.000
380.923;  -37.125; -103.000;  -34.000
381.053; -114.625; -613.000; -623.000
381.183;  -29.100; -106.000; -248.000
381.313;  -13.250; -656.000; -470.000
381.443;   -4.525; -692.000; -473.000
381.573;  101.225; -402.000; -409.000
381.703;  131.375;-1249.000;-1095.000
381.833; -159.200;-1454.000;-1336.000
381.963;   86.600; -134.000;  -87.000
382.093; 1098.500; -925.000; -909.000
382.223;  290.550; -713.000; -602.000
382.353;  -40.375; -801.000; -608.000
382.482;  233.475;-1091.000; -964.000
382.612;  573.275; -872.000; -644.000
382.742;  304.250; -695.000; -622.000
382.872;  166.425; -565.000; -551.000
383.002;   38.975;  347.000; -132.000
383.131;  -33.125; -226.000; -160.000
383.261;  -68.575; -706.000; -768.000
383.391;  258.375; -552.000; -377.000
383.521; 3416.550;  451.000;  263.000
383.650;  777.350; -947.000; -904.000
383.780;  -19.650; -783.000; -656.000
383.910;   90.875;  880.000;  802.000
384.039;  -23.750; -794.000; -656.000
384.169;   94.550;-1205.000;-1017.000
384.299;  -64.800; -650.000; -662.000
384.428; -111.450; -764.000; -680.000
384.558;  -70.525; -308.000; -275.000
384.687;  -73.150; -414.000; -334.000
384.817;   -2.175;   75.000;   -2.000
384.947;  -15.000; -234.000; -141.000
385.076;  228.850;  982.000;  912.000
385.206;   76.350;  369.000;  480.000
385.335;  -62.025; -549.000; -417.000
385.465; -121.250; -655.000; -663.000
385.594;   72.175;  -53.000;  -44.000
385.724;  264.875; -868.000; -838.000
385.853;   68.900; -296.000; -270.000
385.982; 1040.950; -743.000; -787.000
386.112; 1629.000;-1052.000; -871.000
386.241;   78.825; -307.000; -312.000
386.371;  -11.525; -174.000;  -87.000
386.500;  -33.150; -825.000; -789.000
386.629;  -16.475; -874.000; -817.000
386.759;   48.200;  -43.000;   68.000
386.888;  -29.700; -170.000; -250.000
387.017;  -88.325; -648.000; -620.000
387.147; -103.975; -771.000; -798.000
387.276;  -27.775; -410.000; -397.000
387.405;  -24.375; -398.000; -342.000
387.535;  -62.075; -452.000; -361.000
387.664;  -81.925; -692.000; -620.000
387.793;   13.700; -198.000; -113.000
387.922;  387.500;  255.000;  200.000
388.052;  -21.250; -576.000; -423.000
388.181;  -19.125; -342.000; -472.000
388.310;  -60.025; -889.000; -710.000
388.439;  -98.875; -749.000; -742.000
388.568;  119.775;  365.000;  244.000
388.697;  771.900; -756.000; -653.000
388.826;  117.100; -768.000; -666.000
388.956;    2.725; -285.000; -307.000
389.085;  -52.850; -347.000; -287.000
389.214; -126.175; -842.000; -872.000
389.343;  -71.425; -645.000; -413.000
389.472;  412.100;  126.000;  149.000
389.601;  471.500;   91.000;    0.000
389.730;  -14.650; -568.000; -687.000
389.859;   38.125;  226.000;   46.000
389.988;  116.725; -423.000; -408.000
390.117;   83.400; -168.000; -146.000
390.246;  -37.500; -331.000; -320.000
390.375;   27.425; -673.000; -626.000
390.504;  -90.450; -703.000; -621.000
390.633; -112.600; -672.000; -726.000
390.761;  -96.875; -732.000; -645.000
390.890;  -12.050;   -4.000; -130.000
391.019;  -74.125; -421.000; -441.000
391.148; -157.850; -826.000; -855.000
391.277;  -84.725; -576.000; -493.000
391.406; -105.775; -821.000; -805.000
391.534;   -6.925;  574.000; -301.000
391.663;  -79.650; -583.000; -645.000
391.792; -114.700; -673.000; -701.000
391.921;   40.825;   -3.000;   15.000
392.050;  103.075; -287.000; -228.000
392.178;  -99.525;-1206.000;-1061.000
392.307;   60.650; -758.000; -712.000
392.436;    1.600; -427.000; -641.000
392.564;   -0.175;  166.000;   -6.000
392.693; -114.350; -860.000; -682.000
392.822;  111.875; -529.000; -534.000
392.950;   20.725; -880.000; -714.000
393.079;  218.825; -188.000; -328.000
393.208;  -18.475; -488.000; -511.000
393.336;  -27.250; -170.000; -145.000
393.465;  -60.925; -317.000; -199.000
393.593;   -2.900;   62.000;   79.000
393.722; -157.275;-1121.000; -916.000
393.850;  -52.375; -188.000;  -61.000
393.979; -161.900; -926.000; -805.000
394.107;  -71.875; -517.000; -537.000
394.236;  -51.275; -570.000; -507.000
394.364;  136.475;  383.000;  206.000
394.493;  153.600; -911.000; -767.000
394.621;  -54.825; -955.000; -916.000
394.750;  758.475; -873.000; -923.000
394.878; 3083.725; -247.000; -149.000
395.007; 4083.900; -721.000; -807.000
395.135;  279.575; -790.000; -721.000
395.263;  -95.100;-1038.000;-1040.000
395.392;   -9.100;  -25.000; -107.000
395.520; -162.975; -818.000; -679.000
395.648; -117.925; -865.000; -915.000
395.777;  -37.325; -366.000; -405.000
395.905;  -76.925; -449.000; -564.000
396.033;  -21.175;  217.000;  172.000
396.162;  304.275; -399.000; -453.000
396.290;  274.525;  -17.000;   -2.000
396.418;   29.375; -555.000; -514.000
396.546; -101.050; -571.000; -466.000
396.674; -109.000; -850.000; -878.000
396.803;   -7.075;  -72.000;  -23.000
396.931;   39.100; -179.000; -199.000
397.059;  -22.425;-1026.000; -989.000
397.187; -147.375;-1026.000; -975.000
397.315; -152.900; -884.000; -649.000
397.443; -112.950; -592.000; -443.000
397.572; -100.325; -578.000; -424.000
397.700;  -56.425; -607.000; -614.000
397.828;  -19.700;  120.000;  -90.000
397.956;  -53.500; -508.000; -478.000
398.084;  -74.750; -767.000; -626.000
398.212;   20.100;  137.000;  124.000
398.340;  -11.325;  -56.000;  159.000
398.468;   -6.275; -390.000; -169.000
398.596; -155.900; -993.000; -953.000
398.724; -134.300; -762.000; -767.000
398.852; -183.325;-1024.000; -976.000
398.980;  -88.050; -560.000; -560.000
399.108;  -86.575; -982.000; -735.000
399.236;    6.750;   13.000;    8.000
399.363;    4.300;  222.000;  196.000
399.491;  -94.275; -404.000; -398.000
399.619; -140.175; -829.000; -800.000
399.747; -115.500; -859.000; -771.000
399.875;   58.700;  220.000;  234.000
400.003;  -71.750; -359.000; -284.000
400.130; -107.975; -421.000; -341.000
400.258;  -39.825;  -83.000;   38.000
400.386;  -85.775; -352.000; -168.000
400.514;  -75.475; -526.000; -587.000
400.641; -113.975; -928.000; -802.000
400.769; -154.575; -979.000; -888.000
400.897; -144.950; -838.000; -793.000
401.025;  -44.250; -166.000; -152.000
401.152;  -13.850;  220.000;   38.000
401.280;  -95.825; -430.000; -429.000
401.408; -119.775; -712.000; -576.000
401.535; -121.925; -735.000; -758.000
401.663; -203.025;-1134.000;-1054.000
401.790;  -95.900; -514.000; -525.000
401.918;   29.400;  436.000;  405.000
402.046;  -40.075;  134.000;  122.000
402.173;  -39.325;  -18.000;    7.000
402.301;  -86.150; -519.000; -397.000
402.428;   32.100;  528.000;  383.000
402.556; -173.100;-1188.000; -913.000
402.683;  -41.500;  -20.000;   -1.000
402.811;  -42.925;  -37.000; -206.000
402.938;  -33.650;   20.000;   27.000
403.066;  124.375; -574.000; -558.000
403.193;  233.100;  299.000;  239.000
403.321;  192.650; -396.000; -574.000
403.448;  244.725;   83.000;   27.000
403.575;   92.250;  -90.000;  -46.000
403.703; -112.200; -732.000; -557.000
403.830;  -81.025; -531.000; -496.000
403.957; -159.100;-1117.000;-1023.000
404.085;   -5.525;  -61.000; -172.000
404.212;   82.200;  -50.000;   63.000
404.339;  263.675; -566.000; -306.000
404.467; 6083.675; -612.000; -524.000
404.594; 3627.475; -287.000; -227.000
404.721;  777.650; -869.000; -764.000
404.848;   52.800; -113.000; -202.000
404.976; -119.400; -856.000; -783.000
405.103;  -19.900;  -14.000;  -82.000
405.230;  -21.800;  190.000;  226.000
405.357;   -2.675;  117.000;   44.000
405.484;  258.025;  -49.000;    5.000
405.612;   23.175; -548.000; -563.000
405.739;  -65.925; -488.000; -243.000
405.866;   73.825;  669.000;  385.000
405.993;  -49.450; -398.000; -102.000
406.120; -145.000; -801.000; -887.000
406.247;  -79.775; -323.000; -342.000
406.374;  301.800;  540.000;  629.000
406.501;    4.575; -632.000; -702.000
406.628;  -91.150; -621.000; -589.000
406.755; -115.675; -803.000; -620.000
406.882;  -71.525; -228.000; -277.000
407.009; -120.650; -719.000; -628.000
407.136;  -12.175; -480.000; -401.000
407.263;   31.175; -939.000; -829.000
407.390; -100.575; -692.000; -614.000
407.517; -187.600;-1139.000;-1187.000
407.644;  -87.475; -332.000; -256.000
407.771;  -83.050; -249.000; -287.000
407.898;    0.350;  168.000;  328.000
408.025;  -92.625; -421.000; -313.000
408.151;  -23.575;   82.000;  153.000
408.278;  -96.300; -267.000; -216.000
408.405; -146.975; -931.000; -899.000
408.532; -104.175; -549.000; -542.000
408.659; -142.300; -677.000; -648.000
408.785; -210.250;-1298.000;-1170.000
408.912;  -80.025; -412.000; -296.000
409.039; -125.125; -610.000; -686.000
409.166; -127.000; -591.000; -555.000
409.292; -127.300; -571.000; -534.000
409.419; -129.725; -665.000; -649.000
409.546;  -85.100; -431.000; -192.000
409.672; -118.300; -713.000; -545.000
409.799;  -37.675;  -36.000;   34.000
409.926;  -49.600; -180.000; -179.000
410.052; -185.275;-1127.000;-1091.000
410.179;  -79.875; -368.000; -392.000
410.305; -102.350; -375.000; -493.000
410.432;  -80.550; -220.000; -333.000
410.558; -100.800; -305.000; -380.000
410.685; -120.350; -688.000; -431.000
410.812; -128.975; -409.000; -588.000
410.938; -144.975; -964.000; -808.000
411.065; -118.975; -671.000; -645.000
411.191;  -53.600; -189.000; -174.000
411.317; -135.125; -823.000; -742.000
411.444;  -80.750; -317.000; -246.000
411.570;  -81.100; -339.000; -294.000
411.697; -138.100; -758.000; -752.000
411.823; -188.600; -989.000; -999.000
411.949;  -56.450;  -56.000;   17.000
412.076; -131.550; -539.000; -519.000
412.202; -126.850; -758.000; -757.000
412.329; -141.375; -798.000; -752.000
412.455; -123.100; -821.000; -657.000
412.581;  -33.175;  -15.000;  172.000
412.707;  -92.250; -540.000; -457.000
412.834;  -11.050;  156.000;  219.000
412.960; -106.150; -785.000; -784.000
413.086; -125.975; -743.000; -701.000
413.212;  114.675;  604.000;  578.000
413.339;  -98.350; -685.000; -701.000
413.465;  -37.150; -364.000; -310.000
413.591; -110.250; -757.000; -474.000
413.717;  -68.475; -358.000; -366.000
413.843; -153.700; -839.000; -861.000
413.969;  -59.375;  -47.000; -292.000
414.096; -120.325; -679.000; -679.000
414.222;  -26.325;  -33.000;   85.000
414.348;  -57.025; -652.000; -385.000
414.474;   47.525;   38.000;  -52.000
414.600;  -37.425; -126.000; -144.000
414.726;  -34.150;  -96.000;  -55.000
414.852;  -77.025; -365.000; -342.000
414.978;   23.400;  104.000;  -18.000
415.104;   20.650;   38.000;   80.000
415.230;   10.950; -329.000; -330.000
415.356;   14.700; -409.000; -514.000
415.482;  173.875;   13.000;  -35.000
415.608;  264.675; -247.000; -323.000
415.734;  970.675;   67.000;   38.000
415.860;20785.800; -875.000; -767.000
415.986;14258.175; -685.000; -607.000
416.111; 1200.275; -798.000; -652.000
416.237;  240.075; -424.000; -571.000
416.363; 1247.750; -765.000; -733.000
416.489; 4322.775; -324.000; -251.000
416.615;  428.775; -707.000; -742.000
416.741;  -33.675; -677.000; -784.000
416.866;  -82.025; -673.000; -736.000
416.992; -147.775; -801.000; -818.000
417.118;  -43.075;  -41.000;  -80.000
417.244;  -80.600; -798.000; -531.000
417.369; -104.175; -801.000; -612.000
417.495;  -41.625; -325.000; -254.000
417.621;  -97.525;-1015.000; -803.000
417.746;  -18.775; -579.000; -572.000
417.872;   38.725; -254.000; -144.000
417.998;   38.275; -515.000; -530.000
418.123; 1137.525;-1073.000; -845.000
418.249; 5532.425; -512.000; -601.000
418.374;  743.600; -916.000; -824.000
418.500;  107.875; -383.000; -482.000
418.626;  111.600;   70.000;  -59.000
418.751;  120.900; -549.000; -448.000
418.877;  202.125; -637.000; -643.000
419.002; 1922.175; -688.000; -560.000
419.128;13174.300; -930.000; -721.000
419.253; 3017.000; -967.000; -837.000
419.379;  388.925; -391.000; -338.000
419.504;  381.875;  325.000;  415.000
419.629;  512.575; -393.000; -212.000
419.755; 3938.450; -317.000; -254.000
419.880;22496.025;  -98.000;   67.000
420.006;12003.025; -280.000; -221.000
420.131;30199.275; -662.000; -775.000
420.256; 4113.200; -315.000; -316.000
420.382;  535.850; -665.000; -687.000
420.507;   55.500; -649.000; -778.000
420.632;   68.925; -337.000; -339.000
420.758;  138.300; -251.000; -425.000
420.883;  -99.025; -876.000; -672.000
421.008; -104.450; -775.000; -619.000
421.133; -101.200; -509.000; -467.000
421.259;  -66.500; -325.000; -259.000
421.384; -126.350; -834.000; -693.000
421.509;  -93.550;-1052.000; -862.000
421.634;  773.975; -936.000; -820.000
421.759;  308.875; -359.000; -327.000
421.885;  -80.725; -717.000; -656.000
422.010; -103.175; -673.000; -542.000
422.135; -152.625; -695.000; -727.000
422.260;   10.775;  340.000;  280.000
422.385;  -50.950;   12.000;  -98.000
422.510;  -15.925;  151.000;  -26.000
422.635;   -6.475;  -87.000;  -43.000
422.760;   51.700; -766.000; -791.000
422.885;   35.350;  -57.000;  -80.000
423.010;  -36.875; -112.000; -169.000
423.135; -101.700; -481.000; -561.000
423.260;  -25.075; -150.000; -245.000
423.385;   38.600;  476.000;  222.000
423.510;   23.900;   71.000;  -22.000
423.635;   48.300;  133.000;   45.000
423.760;   52.275;  383.000;  328.000
423.885;   43.475;  336.000;  391.000
424.010;   -1.825;  -68.000;  -13.000
424.135;  -39.175;    5.000;  -33.000
424.259;  -99.050; -654.000; -457.000
424.384;  -67.450; -279.000; -272.000
424.509;  -53.175; -260.000; -186.000
424.634; -113.550; -761.000; -623.000
424.759;  -43.450; -688.000; -544.000
424.883;  -22.125; -506.000; -527.000
425.008;  145.250; -502.000; -410.000
425.133; 2061.600; -679.000; -653.000
425.258;  902.300; -517.000; -381.000
425.382;  868.825; -867.000; -774.000
425.507; 2071.250; -487.000; -543.000
425.632;  357.900; -802.000; -663.000
425.756;  458.950; -256.000; -146.000
425.881; 7348.575; -831.000; -857.000
426.006;19058.925; -604.000; -355.000
426.130; 2770.100; -696.000; -508.000
426.255;  352.000; -611.000; -491.000
426.379;  150.400; -189.000; -577.000
426.504;  380.375;  660.000;  544.000
426.629; 4119.600; -519.000; -466.000
426.753; 2711.725;   64.000;  -46.000
426.878;  298.375; -252.000; -288.000
427.002;  127.525; -651.000; -668.000
427.127; 1644.300;  -35.000; -158.000
427.251;11893.850;  372.000;  401.000
427.375; 3189.775; -191.000; -173.000
427.500; 1892.850; -616.000; -610.000
427.624;  581.975; -234.000; -400.000
427.749;   46.800; -216.000; -225.000
427.873;  -64.675; -499.000; -412.000
427.997;  -51.075; -222.000; -230.000
428.122;   62.050;  795.000;  703.000
428.246;   46.900;  433.000;  434.000
428.371; -152.575; -869.000; -773.000
428.495; -121.425; -624.000; -646.000
428.619;  -42.650; -186.000; -117.000
428.743;   -2.725;   65.000;  132.000
428.868;  -38.075; -732.000; -643.000
428.992; 1097.975; -219.000; -326.000
429.116;  402.200; -329.000; -357.000
429.240;  178.075;  419.000;  426.000
429.365;  -47.875; -454.000; -574.000
429.489;  -66.825; -638.000; -647.000
429.613;    5.725; -236.000; -177.000
429.737;   23.775; -563.000; -432.000
429.861;  268.400; -247.000; -133.000
429.985; 5868.075; -425.000; -305.000
430.109; 6166.825; -770.000; -908.000
430.234;  669.100;   76.000;  -50.000
430.358;   55.800; -250.000; -160.000
430.482;  -88.225; -672.000; -564.000
430.606;  -82.800; -655.000; -375.000
430.730;  -25.850; -437.000; -388.000
430.854;    7.125; -909.000; -835.000
430.978; -104.125; -795.000; -764.000
431.102; -111.275; -499.000; -422.000
431.226; -140.075; -874.000; -815.000
431.350;    4.825;  345.000;  422.000
431.474;  -95.250; -661.000; -373.000
431.597; -164.275;-1060.000; -848.000
431.721;  -81.725; -276.000; -267.000
431.845; -145.550; -704.000; -472.000
431.969;  -86.100; -304.000; -349.000
432.093; -106.375; -395.000; -317.000
432.217;  -42.825;   32.000;   82.000
432.341; -106.475; -523.000; -518.000
432.464;   -6.700;   96.000;   40.000
432.588;   98.150; -401.000; -329.000
432.712;   46.100;  -52.000;  -52.000
432.836;   39.975;  213.000;  263.000
432.959;  -27.850; -372.000; -311.000
433.083;   63.600;   11.000;    2.000
433.207;  378.950;  285.000;  930.000
433.330; 5385.425; -391.000; -200.000
433.454; 6379.000; -654.000; -638.000
433.578; 3658.425;  583.000;  278.000
433.701;  603.875; -623.000; -675.000
433.825;   85.200; -292.000; -299.000
433.949;   86.850;   28.000;  -72.000
434.072;   -2.025; -410.000; -323.000
434.196;  -35.725; -309.000; -117.000
434.319; 3792.075;25482.000;25124.000
434.443;  703.650; -656.000; -603.000
434.566; 2759.925;  281.000;   62.000
434.690;  413.275; -637.000; -383.000
434.813;   37.225; -251.000; -173.000
434.937; -105.975; -569.000; -696.000
435.060;  -82.900; -423.000; -332.000
435.184;  158.775; -492.000; -217.000
435.307;   78.200;  159.000;  102.000
435.431;  -42.625;  -40.000;   24.000
435.554;  -78.350; -399.000; -240.000
435.677;  -98.300; -350.000; -258.000
435.801;  -63.975;  -25.000;   49.000
435.924;  -47.475;    1.000;  -67.000
436.048; -157.100;-1019.000; -732.000
436.171;  -86.050; -240.000;  -66.000
436.294;  -36.500; -248.000; -229.000
436.417;   76.250; -963.000; -849.000
436.541;  -84.275; -814.000; -840.000
436.664;  -68.325; -242.000; -316.000
436.787;  -50.475;   13.000;  113.000
436.910; -139.875; -792.000; -422.000
437.034;  -19.500;  142.000;  143.000
437.157;    9.075;  -11.000;    0.000
437.280;  -93.175; -392.000; -292.000
437.403; -125.900; -982.000; -869.000
437.526;  371.950; -903.000; -865.000
437.649; 1483.550; -505.000; -332.000
437.772;  143.050; -692.000; -540.000
437.896;   86.600;  700.000;  544.000
438.019; -121.900; -758.000; -503.000
438.142; -106.025; -596.000; -506.000
438.265;  -58.950; -639.000; -670.000
438.388;  351.150; -520.000; -410.000
438.511;   13.825; -597.000; -394.000
438.634;  -77.575; -247.000; -125.000
438.757; -153.325; -693.000; -619.000
438.880;  -43.225;  -34.000;  -57.000
439.003; -105.750; -417.000; -437.000
439.126;  -84.000; -287.000; -167.000
439.248;  -64.750;  -98.000; -139.000
439.371;  -58.325;    9.000;  -53.000
439.494;    5.700;  510.000;  439.000
439.617;  -59.150;   65.000;  -88.000
439.740; -194.750; -968.000; -816.000
439.863; -162.350; -755.000; -595.000
439.986; -133.625; -476.000; -431.000
440.108;  -57.900; -161.000; -112.000
440.231; -174.300; -950.000; -836.000
440.354;  -58.925;  -64.000; -150.000
440.477;  -27.025; -566.000; -542.000
440.599;  -52.850; -200.000; -225.000
440.722; -127.725; -709.000; -586.000
440.845;   60.475;  751.000;  928.000
440.968; -112.425; -415.000; -311.000
441.090;  -85.550; -199.000;  -33.000
441.213; -186.325;-1021.000; -825.000
441.336;  -57.575; -159.000;   -5.000
441.458;  -86.800; -549.000; -396.000
441.581; -117.050; -628.000; -629.000
441.703;  -82.000; -152.000;   13.000
441.826; -131.825; -557.000; -400.000
441.948;  -58.750;   56.000;   51.000
442.071;   16.925;  555.000;  424.000
442.193; -125.775; -531.000; -485.000
442.316;   13.300;  152.000;   97.000
442.438;   20.500; -233.000;  -10.000
442.561;   50.350;  272.000;  262.000
442.683;  326.950; -809.000; -522.000
442.806;  766.050;   -8.000;   74.000
442.928;  -53.225; -859.000; -604.000
443.051;  -96.350; -577.000; -373.000
443.173; -117.600; -341.000; -339.000
443.295; -111.000; -263.000; -371.000
443.418;  -83.225; -321.000;  -29.000
443.540;  -32.400; -106.000;   -4.000
443.662; -129.750; -563.000; -465.000
443.785;  -26.025;  335.000;  199.000
443.907; -129.175; -362.000; -208.000
444.029; -144.450; -767.000; -494.000
444.152; -167.675; -644.000; -554.000
444.274;  -50.575;  -18.000;  -24.000
444.396; -127.700; -461.000; -221.000
444.518; -145.725; -691.000; -454.000
444.640; -102.275; -268.000; -111.000
444.763;  -30.775;  388.000;  249.000
444.885; -137.575; -432.000; -392.000
445.007;  -36.600;   35.000;   86.000
445.129; -132.500; -610.000; -515.000
445.251; -132.025; -372.000; -439.000
445.373; -151.925; -537.000; -386.000
445.495;  -10.950;  242.000;  350.000
445.617;   39.100;  853.000;  753.000
445.739;  -93.700; -215.000;  -97.000
445.861;  -44.275; -245.000; -112.000
445.984;  -56.475; -267.000; -101.000
446.105;  105.350; -418.000; -251.000
446.227;  403.400; -176.000;  -19.000
446.349;  -48.275; -358.000; -249.000
446.471; -123.050; -615.000; -448.000
446.593;  -87.050; -316.000;   19.000
446.715;  -22.600;  -67.000;   41.000
446.837;   54.575;  697.000;  832.000
446.959; -113.600; -457.000; -478.000
447.081; -154.575; -628.000; -518.000
447.203;   40.300;  862.000;  834.000
447.325;  -87.275; -270.000;   42.000
447.446;  -22.725;  286.000;  530.000
447.568; -170.925; -921.000; -803.000
447.690;  -93.175; -236.000; -245.000
447.812; -153.700; -798.000; -519.000
447.933;  -42.650;  155.000;  127.000
448.055;  -84.600; -306.000; -261.000
448.177;  118.400;   31.000;   79.000
448.299;   -2.100; -935.000; -727.000
448.420;  -10.975;  -25.000;  159.000
448.542;  -68.000;   -3.000;   33.000
448.664;  -36.275;  109.000;  322.000
448.785;  -49.925;  265.000;   83.000
448.907; -107.625; -614.000; -353.000
449.028;  -74.425; -771.000; -471.000
449.150;   41.950;  492.000;  589.000
449.272; -199.575;-1044.000; -913.000
449.393;   20.425;  612.000;  694.000
449.515; -149.150; -634.000; -581.000
449.636;  -69.350; -264.000; -155.000
449.758;   61.450;  763.000;  622.000
449.879; -113.475; -498.000; -396.000
450.001;  -93.300; -149.000;  -49.000
450.122;  -56.150;  -95.000;  162.000
450.244;  -31.150;   37.000;  364.000
450.365;  -98.050; -495.000; -301.000
450.486;  -39.400;   80.000;  268.000
450.608;   18.525;  393.000;  326.000
450.729;   77.900;  578.000;  645.000
450.850;   -1.300; -574.000; -466.000
450.972;  810.775; -552.000; -389.000
451.093; 5304.025;  190.000;  588.000
451.214; 2151.725; -516.000; -337.000
451.336;  376.925;  773.000;  579.000
451.457;   56.375;  264.000;  393.000
451.578;  -55.525; -118.000;  -74.000
451.699; -131.725; -546.000; -540.000
451.821;  -68.125; -284.000;  -50.000
451.942;  -21.725;  278.000;  285.000
452.063;   31.550;  228.000;  419.000
452.184;  577.625;  -54.000;  -49.000
452.305; 1123.275;  103.000;  170.000
452.427;  111.350; -549.000; -301.000
452.548;  -26.225;   23.000;   79.000
452.669;  -61.575; -257.000;  -89.000
452.790;  -68.350;    3.000;  -18.000
452.911;  -28.200;  195.000;  259.000
453.032;  -93.750; -289.000;  -60.000
453.153;  -69.275;  -29.000;   81.000
453.274;   50.125;  737.000;  868.000
453.395;  -68.775;  -51.000;  175.000
453.516;  118.100; 1317.000; 1388.000
453.637;  -91.225; -205.000; -150.000
453.758;  -76.925;   15.000;   69.000
453.879; -135.300; -462.000; -250.000
454.000;   69.400; 1086.000;  948.000
454.121; -137.925; -554.000; -326.000
454.242; -133.000; -599.000; -383.000
454.362;  -73.525;  -99.000;  114.000
454.483;  -48.800; -309.000; -229.000
454.604;   26.625;  512.000;  580.000
454.725; -133.425; -627.000; -555.000
454.846; -142.375; -474.000; -406.000
454.967;  -36.550;  230.000;  539.000
455.087;  -46.775;  179.000;  153.000
455.208;    8.750;  554.000;  856.000
455.329;  -68.675;  -22.000;   82.000
455.450;   50.400;  473.000;  633.000
455.570;  -87.550; -234.000; -211.000
455.691;  -57.825;  201.000;  407.000
455.812; -116.450; -270.000;  -92.000
455.932;  -78.375;  107.000;  -97.000
456.053;  -81.200;   36.000;   24.000
456.173; -116.075; -433.000; -355.000
456.294; -153.175; -476.000; -303.000
456.415;  -87.150;  -73.000;   70.000
456.535;  -39.575;  297.000;  273.000
456.656;  -50.825;  132.000;  240.000
456.776;  -81.325;    3.000;  298.000
456.897;  -20.700;  308.000;  513.000
457.017;  -93.250; -153.000;   -3.000
457.138; -123.475; -402.000; -249.000
457.258;  -55.650;  263.000;  224.000
457.379;  -27.000;  509.000;  521.000
457.499;  -40.800;  443.000;  432.000
457.620; -134.825; -407.000; -231.000
457.740; -120.275; -132.000;  -11.000
457.860;  -73.125;   87.000;   44.000
457.981;  -58.700;  132.000;  124.000
458.101;  -95.475;  -89.000;   40.000
458.221;  -19.075;  336.000;  402.000
458.342;  -70.600;   -4.000;  -37.000
458.462;   16.625;  617.000;  352.000
458.582;  -44.775; -302.000; -294.000
458.703;    2.450;  303.000;  154.000
458.823;  -23.125;   22.000;  163.000
458.943;   10.875;  341.000;  467.000
459.063;  -34.950; 1124.000;  192.000
459.183;  -36.275;  328.000;  313.000
459.304;    3.050;  315.000;  517.000
459.424;  -79.050; -246.000;  -89.000
459.544;  350.975;  388.000;  764.000
459.664;  863.950;  499.000;  506.000
459.784;  285.550; 1004.000; 1175.000
459.904;   53.525;  867.000;  744.000
460.024;   45.750;  867.000;  684.000
460.144;   -3.750;  449.000;  554.000
460.264;  -25.525;  515.000;  327.000
460.385; -109.350; -145.000; -119.000
460.505;   31.125;  905.000;  858.000
460.625; -103.750;  -17.000;  -68.000
460.745;  -35.550;  396.000;  541.000
460.864;  -57.325;  153.000;  469.000
460.984;   -5.100;  499.000;  573.000
461.104;  127.925; 1656.000; 1775.000
461.224;   17.300;  657.000;  650.000
461.344;  -41.775;  431.000;  360.000
461.464;  -52.900;  258.000;  513.000
461.584;  -33.075;  283.000;  466.000
461.704;  -80.950;   58.000;  108.000
461.824;  -74.275;  238.000;  259.000
461.943;  -59.725;  191.000;  130.000
462.063;  -82.875;    2.000;  324.000
462.183;   15.950;  639.000;  717.000
462.303;   89.975; 1678.000; 1230.000
462.422;   14.900;  781.000;  840.000
462.542;  -34.725;  271.000;  391.000
462.662;   32.450;  353.000;  380.000
462.782;  249.475;  833.000;  572.000
462.901;  489.600;  545.000;  717.000
463.021;  270.225; 1702.000; 1638.000
463.141;  -25.275;  337.000;  770.000
463.260;  -32.200;  614.000;  474.000
463.380;    9.950;  902.000;  884.000
463.499;  -45.925;  342.000;  332.000
463.619;  -51.650;  581.000;  559.000
463.738;  106.700; 1644.000;  903.000
463.858;    7.975;  657.000;  811.000
463.978;  -46.650;  542.000;  396.000
464.097;   45.075;  921.000; 1114.000
464.217;  108.400; 1196.000; 1143.000
464.336;  106.625; 1068.000; 1130.000
464.455;  -33.650;  328.000;  659.000
464.575;   23.350;  597.000;  602.000
464.694;  143.650; 1204.000; 1179.000
464.814;  107.975; 1190.000; 1138.000
464.933;   63.825; 1095.000; 1027.000
465.052;   85.125; 1412.000; 1054.000
465.172;   63.100;  922.000;  799.000
465.291;  106.925; 1376.000; 1320.000
465.410;    5.500;  462.000;  735.000
465.530;   83.975; 1355.000; 1310.000
465.649;   45.100; 1209.000; 1273.000
465.768;  118.250; 1673.000; 1508.000
465.888;   41.475;  941.000; 1174.000
466.007;   79.275; 1335.000; 1440.000
466.126;   -0.225;  721.000;  641.000
466.245;   31.750; 1176.000; 1187.000
466.364;    6.225;  950.000; 1060.000
466.484;   52.650; 1024.000; 1213.000
466.603;   24.675; 1101.000; 1222.000
466.722;  108.925; 1490.000; 1769.000
466.841;   67.950; 1151.000; 1401.000
466.960;   26.675; 1069.000;  972.000
467.079;  134.600; 1971.000; 1786.000
467.198;   33.100; 1238.000; 1181.000
467.317;   90.950; 1768.000; 1162.000
467.436;   57.425; 1709.000; 1261.000
467.555;  124.450; 1796.000; 1746.000
467.674;   43.875; 1227.000; 1329.000
467.793;   45.900; 1376.000; 1374.000
467.912;   82.450; 1658.000; 1539.000
468.031;  120.500; 2038.000; 1930.000
468.150;  130.725; 1842.000; 1837.000
468.269;  186.250; 2313.000; 2090.000
468.388;  174.950; 2168.000; 2339.000
468.507;  236.125; 2884.000; 2903.000
468.626;  260.325; 2555.000; 2541.000
468.744;  128.500; 2018.000; 2174.000
468.863;  168.425; 2312.000; 2523.000
468.982;   77.975; 1503.000; 1555.000
469.101;  227.425; 2788.000; 2692.000
469.220;  130.200; 2333.000; 2176.000
469.338;  259.300; 2935.000; 3051.000
469.457;  186.025; 2719.000; 2545.000
469.576;  345.400; 3953.000; 3784.000
469.695;  234.850; 2877.000; 3066.000
469.813;  430.100; 4148.000; 4192.000
469.932;  404.400; 4255.000; 4485.000
470.051;  430.075; 4075.000; 4161.000
470.169;  885.475; 4470.000; 4338.000
470.288; 1505.975; 4700.000; 4809.000
470.406;  873.950; 5059.000; 5194.000
470.525;  621.350; 6101.000; 5787.000
470.644;  633.600; 6847.000; 6794.000
470.762;  815.475; 8397.000; 7873.000
470.881;  922.525; 8651.000; 8464.000
470.999; 1034.050; 9685.000; 9151.000
471.118; 1101.925;11174.000;10711.000

