
Integration time [ms]: 200.000
Averaging Nr. [scans]: 10
Smoothing Nr. [pixels]: 0
Data measured with spectrometer [name]: 2101012U2
Wave   ;Sample   ;Dark     ;Reference
[nm]   ;[counts] ;[counts] ;[counts] 

197.733;  119.600;  516.000;  404.000
197.879; -146.200; -610.000; -634.000
198.025;  -90.400; -475.000; -420.000
198.171; -145.000; -602.000; -612.000
198.317;  -59.800; -401.000; -316.000
198.463; -104.400; -655.000; -404.000
198.609;   42.400;  181.000; -137.000
198.755; -165.200; -644.000; -410.000
198.901; -124.000; -505.000; -424.000
199.047; -128.100; -615.000; -488.000
199.193;  -78.600; -230.000; -468.000
199.339;  -93.900; -222.000; -369.000
199.485;   90.300;  330.000;  271.000
199.631;   45.000;  227.000;  310.000
199.777;  -97.200; -466.000; -398.000
199.923; -113.700; -610.000; -424.000
200.069;   -7.600; -141.000;  -58.000
200.215;  105.900;  128.000;  453.000
200.361;   97.200;  243.000;  477.000
200.507; -124.900; -600.000; -373.000
200.653;  -45.500; -371.000; -194.000
200.798;  -81.100; -215.000; -125.000
200.944;   -5.100; -146.000;  -41.000
201.090;   54.700;   61.000;  222.000
201.236;   -8.700; -116.000; -158.000
201.382;  278.600;  874.000;  903.000
201.528;   26.700;  -58.000;  -48.000
201.674;  -90.400; -386.000; -293.000
201.819; -130.100; -540.000; -439.000
201.965; -150.000; -699.000; -447.000
202.111;  -63.900; -273.000; -226.000
202.257;  -62.300; -250.000; -238.000
202.402;   23.100;   13.000;  -36.000
202.548;  -63.300; -169.000; -116.000
202.694;  164.300;  410.000; -183.000
202.840; -134.000; -603.000; -531.000
202.985; -138.000; -681.000; -639.000
203.131; -197.400; -832.000; -666.000
203.277;  -46.900; -199.000; -262.000
203.423;  -70.900; -434.000; -520.000
203.568;  -80.200; -462.000; -237.000
203.714; -109.700; -535.000; -542.000
203.860; -197.100; -682.000; -641.000
204.005;   46.100;  112.000;  167.000
204.151;  179.700;  561.000;  556.000
204.296;  -59.800; -354.000; -221.000
204.442; -137.300; -600.000; -547.000
204.588; -155.100; -592.000; -579.000
204.733;   43.300;  178.000;  168.000
204.879; -287.100;-1018.000; -822.000
205.025;   34.000;  -99.000;  126.000
205.170;   22.500;  -17.000;   94.000
205.316;  187.000;  438.000;  661.000
205.461; -152.200; -698.000; -554.000
205.607;  173.800;  609.000;  665.000
205.752; -152.600; -626.000; -551.000
205.898;  -85.700; -501.000; -391.000
206.043; -112.700; -578.000; -506.000
206.189; -108.000; -243.000; -285.000
206.334;  168.500;  554.000;  606.000
206.480;  192.200;  409.000;  239.000
206.625; -141.700; -529.000; -552.000
206.771;  -82.900; -451.000; -373.000
206.916;  -58.000; -210.000; -537.000
207.062; -138.300; -545.000; -591.000
207.207; -129.900; -546.000; -443.000
207.353;  130.500;  185.000;  460.000
207.498;   17.500;  196.000;   85.000
207.643;  -88.700; -501.000; -370.000
207.789; -271.400;-1069.000; -910.000
207.934; -189.800; -665.000; -713.000
208.080;  -26.800; -154.000;   66.000
208.225;  -21.400;  -22.000;  -57.000
208.370; -161.800; -727.000; -619.000
208.516; -110.000; -741.000; -487.000
208.661;  -53.200; -127.000;  -69.000
208.806;  -27.000; -165.000; -171.000
208.952; -234.400;-1044.000; -731.000
209.097;  151.000;  378.000;  349.000
209.242; -110.100; -307.000; -382.000
209.387;  107.300;  392.000;  350.000
209.533;  -91.000; -321.000; -350.000
209.678;  177.000;  472.000;  543.000
209.823;  -89.700; -408.000; -310.000
209.969; -202.100; -860.000; -757.000
210.114; -204.000; -907.000; -719.000
210.259; -261.300; -939.000; -889.000
210.404;    3.200; -171.000;  103.000
210.549;   21.600;  108.000;    3.000
210.695;   -7.000;   -3.000;  -95.000
210.840;   95.300;   94.000;   67.000
210.985; -103.900; -484.000; -303.000
211.130;  132.200;  268.000;  406.000
211.275;   89.100;  207.000;  199.000
211.420; -107.100; -300.000; -289.000
211.566; -128.000; -536.000; -489.000
211.711;   64.300;  218.000;  157.000
211.856; -112.600; -545.000; -519.000
212.001;   38.500;  151.000;   44.000
212.146;   46.400;  153.000;   49.000
212.291;  -42.300; -210.000; -186.000
212.436;  -13.100; -280.000;   -6.000
212.581; -160.400; -685.000; -653.000
212.726; -117.800; -487.000; -538.000
212.871;  -58.400; -552.000; -217.000
213.016; -307.400;-1172.000;-1029.000
213.161;  145.200;  406.000;  291.000
213.306; -123.400; -435.000; -577.000
213.451; -173.900; -778.000; -689.000
213.596;  -66.900; -455.000; -347.000
213.741; -130.300; -448.000; -538.000
213.886; -149.300; -498.000; -517.000
214.031;  -28.800; -294.000; -124.000
214.176;  -81.100; -408.000; -341.000
214.321;  -36.700; -296.000; -157.000
214.466;  -39.600; -163.000;  -43.000
214.611;   10.500;  -61.000;  -10.000
214.756; -219.400; -948.000; -858.000
214.901;  -60.100; -388.000; -226.000
215.046; -245.100; -797.000; -825.000
215.191;   51.000;  128.000;   35.000
215.336;    8.900; -157.000;  -19.000
215.480; -148.800; -684.000; -505.000
215.625;  -28.000; -175.000;  -19.000
215.770; -187.300; -757.000; -662.000
215.915;   -5.100;   -5.000;  -97.000
216.060;  -12.800; -113.000;  -21.000
216.205; -214.400; -731.000; -779.000
216.349; -117.900; -470.000; -533.000
216.494; -255.000; -939.000; -867.000
216.639; -239.200; -823.000; -888.000
216.784; -187.500; -577.000; -525.000
216.929;  122.800;  392.000;  281.000
217.073;   -4.200; -244.000;  -31.000
217.218;   18.200;   78.000;  -47.000
217.363; -139.000; -656.000; -618.000
217.507; -159.500; -623.000; -588.000
217.652; -219.800; -845.000; -874.000
217.797; -170.900; -708.000; -659.000
217.942; -204.700; -856.000; -720.000
218.086;  156.400;  608.000;  539.000
218.231;  -17.000; -174.000;  -26.000
218.376;  -53.500; -337.000; -229.000
218.520;   19.000;  -41.000;   96.000
218.665;  -39.000; -338.000; -204.000
218.810;  -60.000; -275.000; -233.000
218.954;   41.700;  201.000;   35.000
219.099; -206.300; -713.000; -963.000
219.243; -123.500; -589.000; -554.000
219.388;  -52.700; -264.000; -136.000
219.532;  -10.500; -116.000; -116.000
219.677; -174.000; -564.000; -521.000
219.822;   30.900;   33.000;   89.000
219.966;   13.400;   17.000;  -99.000
220.111;  -44.100; -328.000;  -40.000
220.255; -167.000; -797.000; -750.000
220.400;  -24.000; -180.000; -146.000
220.544; -106.600; -516.000; -450.000
220.689; -103.200; -422.000; -451.000
220.833;  -19.400; -123.000;  -58.000
220.978;  -57.600; -393.000; -563.000
221.122;   55.200;  319.000;  307.000
221.267; -205.100; -906.000; -837.000
221.411; -109.500; -478.000; -394.000
221.555;   -6.500; -104.000;  -23.000
221.700;  -66.800; -329.000; -222.000
221.844;   58.100;  255.000;  272.000
221.989;  -89.900; -328.000; -311.000
222.133;  -36.800; -289.000; -307.000
222.277;  -16.300;    5.000;   78.000
222.422;   27.000;  227.000;  113.000
222.566;  -53.400; -381.000; -214.000
222.711; -117.100; -414.000; -479.000
222.855; -146.900; -643.000; -586.000
222.999; -147.900; -642.000; -717.000
223.144;  -64.700; -195.000; -194.000
223.288;  133.600;  423.000;  251.000
223.432;   24.700;  184.000;  230.000
223.576;   78.700;  152.000;  -21.000
223.721;  115.500;  364.000;  273.000
223.865;  -84.500; -472.000; -475.000
224.009;  464.800; 1673.000; 1631.000
224.153; -169.700; -660.000; -671.000
224.298; -133.600; -531.000; -489.000
224.442;  -23.800;  -74.000;  -33.000
224.586;  -14.300; -169.000; -106.000
224.730; -190.400; -858.000; -670.000
224.875; -200.900; -739.000; -688.000
225.019;   36.500;  102.000;  188.000
225.163;  131.600;  208.000;  341.000
225.307;   55.500;   97.000;  -91.000
225.451;   75.800;  360.000;  481.000
225.595;   87.400;  264.000;  176.000
225.739;   17.400; -170.000;  -94.000
225.884;   36.700;   86.000;    5.000
226.028; -185.100; -760.000; -626.000
226.172;  -43.200; -260.000; -273.000
226.316; -209.800; -941.000; -902.000
226.460; -160.600; -645.000; -493.000
226.604; -111.400; -406.000; -400.000
226.748; -202.300; -836.000; -733.000
226.892;  -75.500; -227.000; -181.000
227.036;  -81.100; -537.000; -447.000
227.180;  -97.300; -551.000; -375.000
227.324; -126.900; -561.000; -580.000
227.468; -210.900; -819.000; -717.000
227.612;   10.300;  242.000;  -28.000
227.756; -190.800; -845.000; -698.000
227.900;  135.700;  342.000;  441.000
228.044; -104.100; -509.000; -290.000
228.188;  157.300;  448.000;  568.000
228.332; -146.000; -546.000; -472.000
228.476;  -60.100; -223.000; -149.000
228.620;  -30.100; -210.000; -150.000
228.764;  168.300;  431.000;  349.000
228.908;  -23.100; -155.000;   30.000
229.052;  -92.600; -615.000; -528.000
229.195;    9.900; -172.000;   13.000
229.339;  -25.700; -235.000; -305.000
229.483;  -36.700;    5.000; -162.000
229.627;   14.800; -156.000;  139.000
229.771; -107.200; -218.000; -294.000
229.915;   31.000;  230.000;   79.000
230.059; -187.900; -648.000; -663.000
230.202;  -82.400; -370.000; -317.000
230.346;  -28.800; -107.000;  107.000
230.490; -117.100; -489.000; -521.000
230.634; -208.400; -736.000; -553.000
230.777;  142.300;  478.000;  509.000
230.921; -110.900; -450.000; -359.000
231.065;  -84.700; -246.000; -286.000
231.209;   81.600;  261.000;  265.000
231.352;   45.600;   54.000;   40.000
231.496;   81.900;  568.000;  188.000
231.640; -148.500; -693.000; -621.000
231.783;  150.200;  546.000;  525.000
231.927;  -55.600; -294.000; -365.000
232.071; -214.200; -962.000; -736.000
232.214; -208.000; -980.000; -764.000
232.358; -180.600; -683.000; -599.000
232.502;   42.300;  -19.000;    7.000
232.645; -256.500;-1090.000; -927.000
232.789;  -14.600; -257.000; -218.000
232.933;  -43.300; -407.000; -224.000
233.076; -237.400;-1038.000; -897.000
233.220; -202.700; -752.000; -777.000
233.363; -149.500; -669.000; -477.000
233.507;  119.200;  371.000;  129.000
233.650; -175.900; -764.000; -834.000
233.794;  141.600;  438.000;  461.000
233.938;  -89.400; -530.000; -362.000
234.081;  -21.000;  -93.000;   31.000
234.225; -134.800; -631.000; -539.000
234.368; -195.300; -773.000; -723.000
234.512;  -32.400; -385.000; -299.000
234.655; -168.000; -582.000; -555.000
234.798;  -91.600; -493.000; -466.000
234.942; -251.600; -884.000;-1002.000
235.085; -133.400; -651.000; -443.000
235.229; -134.300; -405.000; -410.000
235.372;  -88.500; -247.000; -191.000
235.516; -109.800; -397.000; -321.000
235.659;   59.400;   92.000;  121.000
235.802;    4.900;  -38.000;  -22.000
235.946;   91.100;  335.000;  215.000
236.089;  122.600;  126.000;  250.000
236.233;  107.800;  275.000;  298.000
236.376;  -59.100; -235.000; -378.000
236.519;  -51.300; -297.000; -319.000
236.663;  -40.400; -215.000; -117.000
236.806; -296.500;-1029.000; -999.000
236.949;  141.900;  543.000;  431.000
237.092;  156.500;  412.000;  391.000
237.236; -168.700; -589.000; -502.000
237.379;  147.100;  352.000;  428.000
237.522; -234.300; -879.000; -768.000
237.666;  -34.500; -271.000;   18.000
237.809; -225.400; -851.000; -823.000
237.952;  112.000;  469.000;  271.000
238.095; -105.800; -447.000; -442.000
238.238;  172.100;  688.000;  700.000
238.382;   11.500;  166.000;  103.000
238.525; -129.000; -598.000; -511.000
238.668; -283.000;-1060.000; -985.000
238.811; -144.600; -638.000; -643.000
238.954;  -90.600; -483.000; -334.000
239.097;  188.200;  617.000;  664.000
239.241;   77.800;  394.000;  326.000
239.384;  -52.000; -254.000; -214.000
239.527;  -78.800; -424.000; -224.000
239.670; -300.600; -994.000;-1091.000
239.813; -195.800; -696.000; -658.000
239.956;  175.700;  579.000;  473.000
240.099; -213.200; -778.000; -725.000
240.242;  122.200;  428.000;  432.000
240.385;  107.800;  466.000;  450.000
240.528; -129.500; -706.000; -473.000
240.671;   60.800;  189.000;  134.000
240.814;  -67.700; -441.000; -158.000
240.957; -180.300; -767.000; -578.000
241.100; -193.400; -779.000; -755.000
241.243; -276.900;-1234.000; -893.000
241.386; -148.600; -508.000; -379.000
241.529; -153.700; -735.000; -547.000
241.672; -114.100; -566.000; -495.000
241.815; -241.300; -832.000; -808.000
241.958;  -39.400; -125.000; -182.000
242.101; -119.000; -545.000; -390.000
242.244;  -82.500; -270.000; -325.000
242.387;  -50.200; -304.000; -246.000
242.530;  127.900;  470.000;  134.000
242.673;  -55.200; -381.000; -309.000
242.815; -209.300; -925.000; -899.000
242.958; -145.800; -482.000; -381.000
243.101;   10.600;  132.000;  187.000
243.244; -136.800; -564.000; -521.000
243.387;  -66.500; -313.000; -316.000
243.530; -180.100; -657.000; -674.000
243.672;   28.400;   43.000;  -92.000
243.815;  -88.600; -355.000; -283.000
243.958;   -3.800;   98.000;  -26.000
244.101;   27.800;   59.000;  -16.000
244.243;  -23.500;  -47.000;  101.000
244.386; -188.400; -761.000; -630.000
244.529;    3.800; -132.000; -139.000
244.672; -310.300;-1154.000; -951.000
244.814; -203.900; -621.000; -794.000
244.957; -119.700; -380.000; -304.000
245.100; -141.000; -489.000; -489.000
245.242; -116.700; -387.000; -374.000
245.385;   12.500;  -59.000;  -39.000
245.528; -218.200; -871.000; -705.000
245.670;  219.400;  612.000;  634.000
245.813; -153.100; -599.000; -547.000
245.956;  -29.400; -324.000; -275.000
246.098; -133.500; -508.000; -650.000
246.241;   34.700;  194.000;   48.000
246.383;  -14.900; -119.000;  -73.000
246.526; -126.000; -454.000; -525.000
246.669; -214.900; -889.000; -780.000
246.811;   82.500;  172.000;   -1.000
246.954; -115.500; -512.000; -426.000
247.096;  -36.200;  -84.000;   -6.000
247.239; -131.200; -482.000; -445.000
247.381; -160.200; -647.000; -488.000
247.524;  203.800;  645.000;  679.000
247.666;   10.900;   58.000;   11.000
247.809; -203.600; -887.000; -691.000
247.951;    1.400;  -75.000;  138.000
248.094;   92.700;  432.000;  308.000
248.236; -313.600;-1262.000;-1238.000
248.378;  -54.800; -356.000;  -81.000
248.521;  -50.500; -334.000; -337.000
248.663;  -93.600; -236.000; -267.000
248.806;  -62.200; -300.000; -266.000
248.948; -207.400; -886.000; -763.000
249.090; -118.100; -428.000; -398.000
249.233;  -91.500; -344.000; -381.000
249.375; -130.700; -474.000; -451.000
249.518;  -23.500;  -83.000; -133.000
249.660;   27.800; -103.000;    3.000
249.802; -364.600;-1303.000;-1189.000
249.945; -134.900; -612.000; -540.000
250.087; -220.500; -834.000; -768.000
250.229; -108.000; -362.000; -480.000
250.371; -119.300; -494.000; -439.000
250.514;  -90.800; -310.000; -244.000
250.656;  -12.600;   69.000;  102.000
250.798; -224.800; -849.000; -800.000
250.940;  -86.400; -322.000; -322.000
251.083;  -39.300; -335.000; -111.000
251.225;  140.400;  338.000;  310.000
251.367;  -93.300; -274.000; -373.000
251.509;  -75.000; -265.000; -210.000
251.651; -182.900; -731.000; -671.000
251.794;  140.400;  538.000;  632.000
251.936; -213.700; -821.000; -747.000
252.078; -164.900; -540.000; -461.000
252.220; -122.000; -645.000; -477.000
252.362;  123.500;  344.000;  462.000
252.504; -135.600; -677.000; -584.000
252.646; -237.200; -875.000; -722.000
252.788;    1.400;   14.000; -128.000
252.931;  -73.700; -257.000; -253.000
253.073;  -91.500; -376.000; -317.000
253.215;    7.500;  141.000;  122.000
253.357;  -14.900;   82.000; -153.000
253.499;  -79.800; -374.000; -234.000
253.641; -180.800; -749.000; -594.000
253.783; -148.400; -609.000; -527.000
253.925; -147.600; -586.000; -591.000
254.067; -227.000; -744.000; -667.000
254.209;  -42.400; -391.000; -259.000
254.351; -260.600; -865.000; -883.000
254.493; -102.800; -441.000; -417.000
254.635; -201.500; -936.000; -818.000
254.777; -183.800; -752.000; -687.000
254.918; -163.500; -512.000; -430.000
255.060; -120.600; -551.000; -395.000
255.202; -128.000; -473.000; -261.000
255.344; -143.500; -658.000; -455.000
255.486; -123.200; -471.000; -406.000
255.628; -216.000; -780.000; -781.000
255.770; -181.400; -676.000; -536.000
255.912; -126.200; -559.000; -468.000
256.053; -136.500; -730.000; -508.000
256.195;  366.800; 1008.000;  903.000
256.337; -190.100; -861.000; -595.000
256.479;  160.700;  532.000;  416.000
256.621;  -52.700; -394.000; -212.000
256.762; -201.800; -789.000; -742.000
256.904;  158.300;  485.000;  487.000
257.046;  -69.700; -381.000; -271.000
257.188;  -68.200; -351.000; -264.000
257.329; -121.700; -525.000; -464.000
257.471; -201.600; -939.000; -807.000
257.613; -115.900; -584.000; -498.000
257.755; -280.900;-1073.000; -982.000
257.896;   71.500;  286.000;  392.000
258.038;  -82.300; -403.000; -352.000
258.180;  -86.800; -354.000; -279.000
258.321; -144.400; -581.000; -457.000
258.463;   13.100;  -71.000;  133.000
258.605; -137.800; -562.000; -570.000
258.746; -213.700; -886.000; -772.000
258.888; -267.100;-1026.000;-1020.000
259.029;   75.500;  121.000;   -8.000
259.171; -155.100; -614.000; -550.000
259.313;   -1.100;  -49.000;  -47.000
259.454; -128.500; -536.000; -414.000
259.596; -107.500; -483.000; -390.000
259.737; -110.500; -590.000; -474.000
259.879;  110.600;  217.000;  311.000
260.020;  217.200;  901.000;  636.000
260.162;  -55.900; -146.000; -253.000
260.303; -236.600; -768.000; -687.000
260.445; -189.900; -609.000; -613.000
260.586;   97.900;  392.000;  157.000
260.728;  -84.200; -360.000; -248.000
260.869; -105.400; -350.000; -343.000
261.011;  197.800;  706.000;  537.000
261.152;  -93.800; -479.000; -319.000
261.293; -130.000; -576.000; -595.000
261.435;  -50.100; -219.000; -184.000
261.576; -108.300; -455.000; -325.000
261.718;  141.600;  420.000;  470.000
261.859; -237.600; -940.000; -949.000
262.000; -236.400; -951.000;-1016.000
262.142;  -20.400;  -52.000;  -60.000
262.283; -204.600; -808.000; -691.000
262.424; -156.100; -666.000; -625.000
262.566; -275.000;-1161.000; -983.000
262.707; -230.300; -840.000; -830.000
262.848; -207.200; -769.000; -726.000
262.990;  -93.000; -362.000; -345.000
263.131;  199.700;  650.000;  681.000
263.272;    7.900;  -61.000;  -41.000
263.413; -170.000; -589.000; -561.000
263.555; -107.400; -669.000; -143.000
263.696; -169.000; -550.000; -641.000
263.837;  -97.500; -449.000; -551.000
263.978;    0.100;   -5.000;  -77.000
264.119;  -70.200; -283.000; -264.000
264.261; -204.600; -847.000; -630.000
264.402;    3.700;   33.000;   40.000
264.543; -114.700; -509.000; -524.000
264.684;   15.000;   61.000;  -50.000
264.825; -101.400; -816.000; -538.000
264.966;    0.200;  -84.000;  -67.000
265.107; -211.700; -646.000; -670.000
265.248; -213.300; -825.000; -812.000
265.390;   40.400;  152.000;   -9.000
265.531;  -13.200; -238.000; -107.000
265.672; -160.800; -557.000; -630.000
265.813;  169.600;  563.000;  439.000
265.954; -267.500; -959.000; -940.000
266.095;   10.100; -372.000; -322.000
266.236; -194.200; -686.000; -548.000
266.377;  -42.600; -243.000; -297.000
266.518; -129.800; -619.000; -547.000
266.659;   66.200;  170.000;  268.000
266.800;   25.300;   83.000;   85.000
266.941; -146.400; -487.000; -478.000
267.082;   60.300;  354.000;   99.000
267.223;  -65.100; -344.000; -273.000
267.364; -219.900; -892.000; -686.000
267.504;    4.100;    3.000;  135.000
267.645;   34.300;  160.000;   67.000
267.786;  -30.300; -147.000;  -86.000
267.927; -124.100; -473.000; -379.000
268.068;  -16.200; -186.000;  -61.000
268.209; -106.300; -175.000; -413.000
268.350;  -96.400; -388.000; -532.000
268.490; -146.200; -648.000; -521.000
268.631;  103.000;  127.000;  225.000
268.772; -198.900; -874.000; -647.000
268.913; -105.900; -328.000; -476.000
269.054;  -30.100; -117.000;   12.000
269.194;  -51.600; -418.000; -402.000
269.335; -276.600;-1137.000;-1074.000
269.476;    9.600;   33.000;  -35.000
269.617;  -98.300; -347.000; -392.000
269.757; -174.700; -713.000; -646.000
269.898; -221.900; -856.000; -613.000
270.039; -129.900; -415.000; -405.000
270.180; -228.700; -952.000; -816.000
270.320;  -45.100; -190.000; -250.000
270.461;  -63.900; -277.000; -249.000
270.602;   -4.100; -186.000; -156.000
270.742; -263.400; -868.000; -943.000
270.883;  -90.700; -442.000; -390.000
271.023;  -78.800; -358.000; -357.000
271.164; -124.800; -607.000; -528.000
271.305; -182.200; -666.000; -654.000
271.445; -168.600; -722.000; -683.000
271.586; -132.000; -462.000; -283.000
271.726;  -86.600; -397.000; -322.000
271.867; -132.900; -594.000; -534.000
272.008;   81.200; -473.000; -285.000
272.148;  196.500;  462.000;  468.000
272.289;  -14.600; -113.000; -181.000
272.429;   58.100;   19.000;  185.000
272.570; -184.800; -633.000; -737.000
272.710; -192.300; -825.000; -775.000
272.851;  -46.000;  113.000; -130.000
272.991; -291.700;-1173.000;-1077.000
273.131; -116.900; -419.000; -459.000
273.272; -180.400; -683.000; -723.000
273.412;  -21.500; -143.000;  -31.000
273.553; -101.800; -488.000; -507.000
273.693;  301.500;  913.000;  858.000
273.834; -201.100; -894.000; -692.000
273.974; -163.500; -664.000; -615.000
274.114; -189.300; -772.000; -560.000
274.255;  154.700;  414.000;  373.000
274.395;  -12.500; -180.000; -125.000
274.535;   79.900;  199.000;  350.000
274.676;   87.600;  225.000;   94.000
274.816;   29.500;  110.000;   34.000
274.956; -177.500; -624.000; -690.000
275.097; -205.700;-1014.000; -922.000
275.237; -213.500; -913.000; -803.000
275.377; -167.200; -778.000; -689.000
275.517; -294.900; -878.000; -937.000
275.658; -145.400; -590.000; -555.000
275.798; -141.900; -606.000; -413.000
275.938;   38.800;  215.000;  323.000
276.078; -195.700; -626.000; -395.000
276.218;   33.700;   99.000;  104.000
276.359; -244.800;-1026.000;-1024.000
276.499; -129.900; -605.000; -446.000
276.639;  -43.300; -305.000; -151.000
276.779;  -80.200; -475.000; -357.000
276.919; -197.200; -783.000; -624.000
277.059;  -38.000; -261.000; -212.000
277.199;  -87.400; -357.000; -259.000
277.340;  118.900;  287.000;  175.000
277.480; -203.000; -840.000; -693.000
277.620;   83.500;  192.000;   16.000
277.760; -384.500;-1533.000;-1294.000
277.900;    2.500;  113.000;   33.000
278.040;   76.800;  137.000;  159.000
278.180;   54.600;  270.000;  170.000
278.320;   27.000;   21.000;   56.000
278.460;  -96.400; -443.000; -469.000
278.600; -151.800; -708.000; -598.000
278.740;  147.400;  448.000;  224.000
278.880; -171.700; -768.000; -791.000
279.020;   -8.200; -194.000; -144.000
279.160; -154.300; -672.000; -595.000
279.300; -214.500; -926.000; -873.000
279.440; -198.200; -709.000; -622.000
279.579; -175.700;-1014.000; -929.000
279.719;  -98.600; -410.000; -394.000
279.859;   84.500;   -4.000;   41.000
279.999;   -6.700; -208.000;  101.000
280.139;  -92.000; -435.000; -387.000
280.279; -151.000; -708.000; -745.000
280.419;  -16.800; -229.000; -147.000
280.559;  -41.200; -259.000; -180.000
280.698; -157.600; -790.000; -639.000
280.838; -176.800; -778.000; -800.000
280.978; -171.200; -846.000; -790.000
281.118; -210.700; -811.000; -704.000
281.257;   28.800;   24.000;    6.000
281.397; -247.900;-1094.000; -960.000
281.537; -175.500; -599.000; -712.000
281.677;    0.200; -150.000; -101.000
281.816; -168.700; -700.000; -630.000
281.956;  -20.300; -193.000; -257.000
282.096;  -84.500; -539.000; -396.000
282.235; -171.900; -672.000; -638.000
282.375;   -2.900; -243.000;  -98.000
282.515; -176.400; -715.000; -707.000
282.654;   74.100;   29.000;  106.000
282.794;   85.100;  388.000;  244.000
282.934;  -72.800; -530.000; -491.000
283.073; -225.800;-1030.000; -857.000
283.213;  -93.900; -460.000; -467.000
283.353;  -43.500; -408.000; -349.000
283.492;  -34.000; -264.000; -296.000
283.632;  -51.800; -254.000; -168.000
283.771; -184.300; -859.000; -730.000
283.911; -100.400; -369.000; -260.000
284.050; -208.100; -794.000; -748.000
284.190; -300.500;-1229.000;-1096.000
284.329; -252.300;-1055.000; -964.000
284.469; -149.900; -516.000; -591.000
284.608;  -89.500; -559.000; -598.000
284.748; -139.200; -614.000; -570.000
284.887;   25.700;  -87.000;  -20.000
285.027; -215.800; -844.000; -892.000
285.166;  -47.600; -192.000; -249.000
285.306;   12.600; -116.000;  -33.000
285.445;  -36.100; -229.000; -343.000
285.584; -168.700; -630.000; -494.000
285.724;  -52.500; -282.000; -322.000
285.863; -199.000; -857.000; -507.000
286.002;  -65.500; -366.000; -276.000
286.142; -200.500; -715.000; -622.000
286.281; -129.300; -525.000; -493.000
286.420; -123.500; -554.000; -417.000
286.560;  224.500;  653.000;  623.000
286.699; -255.100; -958.000; -912.000
286.838; -167.900; -590.000; -591.000
286.978; -145.800; -533.000; -537.000
287.117; -255.200;-1085.000; -950.000
287.256;  -22.800; -228.000; -211.000
287.395;  -88.400; -197.000; -378.000
287.535;  -68.800; -370.000; -298.000
287.674; -128.300; -509.000; -484.000
287.813;  155.300;  661.000;  533.000
287.952; -235.700;-1010.000; -871.000
288.091; -254.100;-1049.000; -915.000
288.231;   23.500;   13.000;   15.000
288.370; -314.900;-1217.000;-1200.000
288.509; -157.600; -728.000; -645.000
288.648; -178.700; -770.000; -548.000
288.787;  -43.600; -243.000;  -87.000
288.926; -122.300; -454.000; -475.000
289.065;  256.300;  859.000;  672.000
289.204;  -82.200; -377.000; -217.000
289.344; -157.800; -791.000; -690.000
289.483;   67.000;  416.000;  304.000
289.622;  -43.500; -291.000; -149.000
289.761;  -14.000; -309.000; -166.000
289.900; -187.300; -785.000; -626.000
290.039;  -12.500;  -12.000;  -95.000
290.178;  -44.200; -274.000; -180.000
290.317; -143.700; -618.000; -479.000
290.456;  -78.500; -463.000; -451.000
290.595; -274.800; -961.000; -833.000
290.734; -271.200; -904.000; -891.000
290.873; -107.500; -456.000; -420.000
291.011; -208.400; -833.000; -843.000
291.150; -207.400; -770.000; -682.000
291.289;  -42.500; -343.000; -110.000
291.428; -162.800; -599.000; -480.000
291.567;  -96.400; -370.000; -442.000
291.706;   21.200;  109.000;  154.000
291.845; -177.600; -597.000; -505.000
291.984; -316.300;-1234.000;-1061.000
292.122;  191.900;  602.000;  582.000
292.261;  119.800;  620.000;  463.000
292.400;   26.800; -144.000;  211.000
292.539; -216.700; -959.000; -813.000
292.678;  -60.000; -325.000; -300.000
292.816; -300.400;-1136.000; -965.000
292.955; -177.200; -844.000; -684.000
293.094;   -8.200; -173.000; -337.000
293.233;  -72.900; -556.000; -400.000
293.371;  -32.600; -225.000;  -84.000
293.510; -194.300; -866.000; -780.000
293.649; -244.800; -959.000; -924.000
293.787; -225.800;-1083.000;-1012.000
293.926;  -28.800; -113.000;  -32.000
294.065;  -96.100; -379.000; -290.000
294.203;   91.400;  298.000;  406.000
294.342;   47.100;   74.000;  156.000
294.481;11608.200;51180.000; -836.000
294.619;  -80.300; -425.000; -582.000
294.758; -314.100;-1230.000;-1137.000
294.896;   61.100; -125.000;    5.000
295.035; -253.500;-1040.000;-1006.000
295.174; -265.800;-1082.000; -954.000
295.312;  -75.600; -323.000; -203.000
295.451;  -66.400; -307.000; -428.000
295.589; -119.800; -389.000; -518.000
295.728;   44.100; -292.000; -165.000
295.866;  -19.000;  -36.000;  -51.000
296.005; -131.600; -584.000; -341.000
296.143; -126.400; -558.000; -596.000
296.282; -204.000; -957.000; -881.000
296.420; -159.400; -657.000; -557.000
296.559; -135.200; -892.000; -633.000
296.697; -106.500; -847.000; -665.000
296.835; -127.100;-1141.000;-1002.000
296.974;   90.900;  -23.000;   39.000
297.112;  -41.400; -443.000; -504.000
297.251; -142.200; -815.000; -755.000
297.389;   16.800; -576.000; -438.000
297.527;   66.100; -145.000;  -83.000
297.666; -119.800; -486.000; -438.000
297.804;  -93.200; -404.000; -264.000
297.942;   14.000; -136.000; -161.000
298.081;   -6.800; -183.000;   63.000
298.219;   70.600;  -17.000;  -19.000
298.357;   35.500; -144.000;  -71.000
298.495; -122.800; -810.000; -812.000
298.634;  102.200;  245.000;  219.000
298.772;  -31.200; -220.000; -338.000
298.910;  -79.200; -309.000; -182.000
299.048;  -30.500; -130.000; -153.000
299.187;  -31.300; -350.000; -250.000
299.325;   44.700;   52.000;  122.000
299.463;  -21.200; -389.000; -299.000
299.601;   28.500; -327.000; -271.000
299.739; -245.100; -908.000; -883.000
299.877; -147.200; -791.000; -703.000
300.016; -238.100;-1095.000; -935.000
300.154;   91.600;  -19.000; -161.000
300.292;  -73.100; -428.000; -348.000
300.430;  -29.800; -408.000; -291.000
300.568; -229.300; -940.000; -874.000
300.706; -109.900; -366.000; -469.000
300.844; -232.200;-1108.000; -979.000
300.982;  155.800;  246.000;  282.000
301.120; -236.800; -965.000; -866.000
301.258; -151.300; -812.000; -705.000
301.396;   44.500;  104.000;  -41.000
301.534;    4.900; -218.000; -293.000
301.672; -118.200; -664.000; -521.000
301.810; -105.200; -613.000; -545.000
301.948;  104.600;   53.000;  149.000
302.086;  384.800; -250.000;  -32.000
302.224;  533.900; -610.000; -585.000
302.362;  -84.800; -558.000; -622.000
302.500; -156.500; -923.000; -893.000
302.638;  137.900;  128.000;  245.000
302.776;   -8.400; -352.000; -408.000
302.913;  103.700;  447.000;  236.000
303.051;   -9.600;  -86.000;  -23.000
303.189;   70.000;   90.000;  118.000
303.327;  -91.900; -341.000; -256.000
303.465; -170.800; -832.000; -588.000
303.603; -146.300; -805.000; -604.000
303.740;  168.700;  417.000;  241.000
303.878; -124.000; -800.000; -759.000
304.016; -205.600; -915.000; -790.000
304.154; -294.100;-1123.000;-1152.000
304.291; -102.600; -505.000; -554.000
304.429;   10.900;  102.000;   74.000
304.567; -237.600; -908.000; -893.000
304.705; -121.900; -408.000; -515.000
304.842;  -42.000; -616.000; -540.000
304.980;   65.900;  215.000;   35.000
305.118;  -59.500; -367.000; -365.000
305.255; -199.900; -945.000; -927.000
305.393;  110.900;  178.000;  239.000
305.531; -222.300;-1173.000; -956.000
305.668; -103.700; -663.000; -582.000
305.806;   -7.000; -358.000; -439.000
305.943;  -10.900; -629.000; -637.000
306.081;  -16.100; -378.000; -267.000
306.219; -186.500; -863.000; -748.000
306.356;   34.600;  158.000;   27.000
306.494;  344.500;  981.000;  761.000
306.631;   79.700;  -11.000;  -55.000
306.769;  -37.500; -613.000; -485.000
306.906;   31.600; -284.000; -258.000
307.044;  -62.800; -473.000; -488.000
307.181;  -59.200; -410.000; -332.000
307.319;  132.300;  112.000;   87.000
307.456; -295.900;-1191.000;-1153.000
307.594; -183.800; -980.000; -727.000
307.731;   31.300; -371.000; -164.000
307.868;   24.000;  -15.000;   20.000
308.006; -218.300; -961.000; -847.000
308.143; -109.500; -618.000; -330.000
308.281;  124.100;  -37.000; -254.000
308.418;  -96.100; -748.000; -640.000
308.555;  -95.000; -400.000; -250.000
308.693;  -73.900; -577.000; -573.000
308.830; -153.500; -712.000; -657.000
308.967;   30.100; -215.000;  -95.000
309.105;    8.600; -507.000; -396.000
309.242;   18.600; -468.000; -367.000
309.379;  184.300; -577.000; -655.000
309.517; -126.300; -936.000; -948.000
309.654; -106.000; -910.000; -734.000
309.791;  -66.000; -662.000; -580.000
309.928; -172.900; -977.000; -914.000
310.065;  298.200;  819.000;  697.000
310.203; -119.300; -825.000; -850.000
310.340;   32.400; -465.000; -321.000
310.477; -115.900; -412.000; -516.000
310.614;  -69.300; -383.000; -473.000
310.751;  -45.200; -427.000; -518.000
310.889;   35.600;    1.000;   11.000
311.026; -224.300;-1161.000; -939.000
311.163;  -46.700; -386.000; -380.000
311.300;  -91.500; -512.000; -479.000
311.437; -108.500; -658.000; -619.000
311.574; -301.300;-1226.000; -985.000
311.711;  -87.300; -595.000; -433.000
311.848;   -2.600; -380.000; -388.000
311.985;   88.000;  270.000;   93.000
312.122; -196.700; -932.000; -762.000
312.259; -189.800; -941.000; -994.000
312.396;  -44.800; -508.000; -551.000
312.533; -106.800; -812.000; -790.000
312.670; -216.400;-1070.000; -898.000
312.807;    0.800; -352.000; -367.000
312.944; -114.200; -513.000; -611.000
313.081;  -11.100; -150.000; -415.000
313.218; -190.900;-1111.000; -867.000
313.355;  -17.400; -531.000; -449.000
313.492;   -8.700; -455.000; -292.000
313.629;  254.100;  815.000;  735.000
313.766; -239.800;-1176.000;-1008.000
313.902;   33.800; -186.000;   21.000
314.039;  -25.200; -372.000; -289.000
314.176;  119.600;  286.000;  192.000
314.313;  -75.500; -569.000; -473.000
314.450; -112.300; -788.000; -684.000
314.587;  -90.600; -468.000; -480.000
314.723;   52.100;  -78.000;  130.000
314.860;  107.300;  318.000;  332.000
314.997;  112.400;  223.000;  142.000
315.134;  -43.400; -385.000; -368.000
315.270;  -69.100; -480.000; -496.000
315.407; -259.800;-1094.000; -967.000
315.544;  -97.800; -657.000; -538.000
315.681; -112.400; -681.000; -565.000
315.817;   69.300; -133.000; -176.000
315.954;  -52.600; -613.000; -392.000
316.091; -248.200;-1045.000;-1023.000
316.227;   12.700;  -71.000; -179.000
316.364;   39.900;   23.000;    6.000
316.500;  -26.800; -113.000; -300.000
316.637;  -44.700; -181.000; -302.000
316.774; -137.400; -625.000; -358.000
316.910; -163.800; -598.000; -629.000
317.047;  -92.900; -487.000; -351.000
317.183;  -83.500; -435.000; -566.000
317.320;  -52.300; -367.000; -321.000
317.456; -139.200; -733.000; -805.000
317.593; -128.800; -598.000; -641.000
317.729;   49.700;  168.000;  -67.000
317.866; -369.200;-1434.000;-1285.000
318.002; -160.300; -708.000; -948.000
318.139; -138.700; -883.000; -867.000
318.275; -192.500;-1003.000; -738.000
318.412; -113.200; -517.000; -336.000
318.548; -109.300; -751.000; -720.000
318.685; -200.100; -985.000; -888.000
318.821; -176.800; -762.000; -735.000
318.957;   -6.000;   34.000;  -23.000
319.094;   95.500;  297.000;  154.000
319.230; -158.800; -756.000; -742.000
319.367;   24.600; -471.000; -520.000
319.503;   -6.000; -538.000; -436.000
319.639; -215.100; -877.000; -793.000
319.775; -184.100; -750.000; -685.000
319.912;  -88.500; -424.000; -519.000
320.048; -244.800;-1184.000;-1184.000
320.184;   96.200;   59.000;   70.000
320.321;  -82.300; -497.000; -467.000
320.457;  156.800;  475.000;  662.000
320.593;  -99.900; -375.000; -382.000
320.729; -153.900; -732.000; -734.000
320.866; -139.600; -577.000; -635.000
321.002; -148.200; -759.000; -809.000
321.138;  -39.600; -135.000; -211.000
321.274;    8.800; -148.000; -115.000
321.410;  -87.300; -585.000; -353.000
321.546; -192.900;-1011.000; -911.000
321.683;  102.000;  400.000;  185.000
321.819;   -1.300;  -48.000; -117.000
321.955; -210.500; -743.000; -722.000
322.091; -107.700; -585.000; -540.000
322.227;  -49.400; -382.000; -202.000
322.363;  -70.700; -320.000; -215.000
322.499;  -39.500; -343.000; -331.000
322.635;  234.600;  636.000;  443.000
322.771;   20.900; -139.000;   12.000
322.907;  133.400;  129.000;  327.000
323.043;  -28.900; -115.000; -206.000
323.179;  -76.200; -394.000; -363.000
323.315;  -48.000; -401.000; -371.000
323.451;   58.500; -328.000; -236.000
323.587;   39.500;  -60.000;  -77.000
323.723;  -54.500; -682.000; -601.000
323.859;  -53.200; -258.000;  -76.000
323.995;  -83.800; -467.000; -409.000
324.131; -231.100; -967.000; -892.000
324.267;  -67.900; -254.000; -276.000
324.402; -244.700; -960.000; -983.000
324.538;  -16.400; -279.000; -104.000
324.674;   20.800;  164.000;   77.000
324.810;  187.300;  226.000;  308.000
324.946;  -31.400; -810.000; -658.000
325.082; -128.600; -568.000; -475.000
325.217;  -24.900;  -62.000;   16.000
325.353; -177.500; -764.000; -659.000
325.489; -140.800; -540.000; -506.000
325.625; -115.100; -579.000; -525.000
325.760;  118.000;  517.000;  376.000
325.896;  -63.600; -515.000; -702.000
326.032;  -73.900; -403.000; -352.000
326.168; -120.000; -462.000; -369.000
326.303;  -98.200; -352.000; -461.000
326.439;  -30.300; -336.000; -276.000
326.575;   39.300; -190.000;  -29.000
326.710;   32.600; -156.000;  -30.000
326.846;    5.700;  146.000;  103.000
326.982; -168.800; -530.000; -548.000
327.117; -153.800; -481.000; -442.000
327.253; -161.200; -745.000; -742.000
327.388; -260.300;-1137.000;-1153.000
327.524; -115.000; -811.000; -578.000
327.659;   -2.300;  -58.000;  -22.000
327.795;    4.700;   69.000;   45.000
327.931; -158.800; -723.000; -499.000
328.066;  -38.500; -417.000; -276.000
328.202;    3.800;   12.000; -129.000
328.337;  206.200;  957.000;  713.000
328.473;   -7.400;  -12.000;  -74.000
328.608;  -31.100; -256.000; -267.000
328.743; -142.300; -799.000; -664.000
328.879;   56.100;  214.000;  114.000
329.014;  -55.000; -102.000; -122.000
329.150; -114.900; -358.000; -483.000
329.285; -122.600; -465.000; -466.000
329.421;  -76.300; -548.000; -246.000
329.556;    1.500;  -36.000;   85.000
329.691; -181.100; -633.000; -615.000
329.827; -121.800; -626.000; -480.000
329.962;  -28.000;  131.000; -301.000
330.097; -131.400; -673.000; -585.000
330.233;  -90.200; -410.000; -223.000
330.368; -226.300; -839.000; -628.000
330.503;   14.300;    3.000;   98.000
330.638;  -12.500;  -93.000; -125.000
330.774; -132.100; -609.000; -530.000
330.909;  -67.600; -434.000; -244.000
331.044; -157.100; -714.000; -708.000
331.179; -317.900;-1217.000;-1109.000
331.315;   49.700;   77.000;   20.000
331.450;   57.100;  157.000;  285.000
331.585; -197.200; -805.000; -706.000
331.720; -141.300; -510.000; -460.000
331.855;   -7.800;  -35.000; -102.000
331.990;  165.100;   62.000;  138.000
332.126;  126.500; -110.000;   71.000
332.261;  -63.500; -379.000; -265.000
332.396;  -44.200; -135.000; -242.000
332.531; -234.800;-1074.000;-1031.000
332.666;  -28.600; -519.000; -363.000
332.801; -194.700; -726.000; -807.000
332.936;  -25.600; -192.000; -122.000
333.071; -275.500; -870.000; -817.000
333.206;   76.300;  307.000;  379.000
333.341;   99.900;  344.000;  418.000
333.476; -143.800; -627.000; -623.000
333.611;  -32.100; -251.000; -173.000
333.746;  -84.900; -381.000; -464.000
333.881; -204.100; -973.000; -935.000
334.016; -236.900; -936.000; -917.000
334.151; -247.200; -746.000; -702.000
334.286;   73.200;  152.000;  186.000
334.421;  -22.600; -125.000; -178.000
334.556; -141.400; -611.000; -567.000
334.690; -203.400; -631.000; -577.000
334.825;  108.800;  381.000;   83.000
334.960; -141.700; -285.000; -413.000
335.095;   23.500;  135.000;  -91.000
335.230; -201.300; -722.000; -738.000
335.365; -253.600;-1084.000; -990.000
335.499; -300.300;-1108.000;-1037.000
335.634;   39.400;    9.000;  534.000
335.769; -188.100; -755.000; -720.000
335.904; -149.900; -603.000; -561.000
336.038; -153.300; -735.000; -657.000
336.173; -280.700;-1206.000;-1194.000
336.308;    5.500; -116.000; -189.000
336.443;  -47.000; -544.000; -634.000
336.577; -210.800; -936.000; -787.000
336.712;   28.300;   -4.000;  -12.000
336.847; -133.900; -724.000; -607.000
336.981;  -50.100; -272.000; -208.000
337.116;  255.300;  615.000;  501.000
337.250;   18.200; -434.000; -421.000
337.385;  129.500; -297.000; -208.000
337.520;   -7.500; -632.000; -603.000
337.654;  -83.800; -215.000; -126.000
337.789; -235.700; -989.000; -933.000
337.923;  -22.300; -104.000; -205.000
338.058; -197.200; -673.000; -738.000
338.192; -132.700; -611.000; -488.000
338.327;  -13.800;  -18.000; -155.000
338.461; -109.000; -299.000; -469.000
338.596; -161.600; -780.000; -638.000
338.730; -183.300; -767.000; -803.000
338.865;   81.700;  -46.000; -140.000
338.999; -198.300; -846.000; -702.000
339.134; -129.500; -634.000; -536.000
339.268;  -98.400; -741.000; -603.000
339.403;  135.600; -740.000; -775.000
339.537;  -69.500; -894.000; -820.000
339.671; -199.700; -829.000; -813.000
339.806; -100.700; -556.000; -512.000
339.940;   22.200; -261.000; -235.000
340.074; -177.200; -685.000; -510.000
340.209;  -50.200; -351.000; -230.000
340.343; -172.600; -517.000; -573.000
340.477;  315.300;  998.000; 1036.000
340.612; -184.200;-1033.000; -900.000
340.746;   68.300; -199.000; -243.000
340.880; -191.200; -924.000; -785.000
341.014;   24.100;  -45.000; -154.000
341.149; -203.000; -756.000; -718.000
341.283; -189.600; -839.000; -754.000
341.417; -209.600;-1124.000; -938.000
341.551;  -58.000; -768.000; -708.000
341.685;  -95.500; -633.000; -611.000
341.820; -108.800; -562.000; -493.000
341.954;  -68.500; -218.000; -349.000
342.088; -274.700;-1102.000;-1019.000
342.222;  115.900;  565.000;  618.000
342.356; -107.200; -395.000; -335.000
342.490; -195.800; -880.000; -841.000
342.624;  -76.600; -339.000; -242.000
342.758;  -59.700; -364.000; -312.000
342.892; -131.400; -710.000; -585.000
343.026;  -28.300;  -58.000; -116.000
343.160;  -74.000; -426.000; -376.000
343.294; -139.200; -474.000; -337.000
343.428;  -92.800; -488.000; -448.000
343.562;  -29.200; -172.000;  -23.000
343.696;  -56.400; -385.000; -314.000
343.830;  -83.100; -362.000; -356.000
343.964;  -17.000; -231.000; -168.000
344.098;  678.100;  199.000;   70.000
344.232;  510.900; -266.000; -127.000
344.366;  -40.700; -567.000; -453.000
344.500;  -34.900; -665.000; -744.000
344.634;    6.900; -324.000; -164.000
344.768;  -84.900; -531.000; -341.000
344.902;   63.900;  278.000;  256.000
345.035; -107.900; -556.000; -496.000
345.169; -214.300; -933.000; -656.000
345.303; -131.200; -308.000; -482.000
345.437; -196.700; -826.000; -717.000
345.571; -157.200; -675.000; -594.000
345.704;  -98.700; -309.000; -532.000
345.838;  -38.900; -331.000; -284.000
345.972; -106.900; -543.000; -495.000
346.106;   83.800; -179.000; -190.000
346.239;  277.200; -312.000; -243.000
346.373;  -49.000; -343.000; -302.000
346.507; -261.400; -950.000; -962.000
346.640;  100.700;  -30.000;   13.000
346.774; -148.300; -650.000; -797.000
346.908;  -18.900; -138.000;  -11.000
347.041; -155.100; -646.000; -593.000
347.175;   43.100;  259.000;   27.000
347.309; -169.900; -698.000; -628.000
347.442; -194.700; -883.000; -732.000
347.576;  340.400;  670.000;  668.000
347.709;  127.100; -123.000;  -52.000
347.843; -198.000; -933.000; -825.000
347.976;   82.100;  235.000;  294.000
348.110; -318.600;-1268.000;-1186.000
348.243; -166.200; -679.000; -772.000
348.377;   39.800;  -26.000;   60.000
348.510;  130.400;  403.000;  540.000
348.644;  -37.300;  -37.000; -159.000
348.777;   35.500;  180.000;  191.000
348.911;  -38.900; -142.000; -112.000
349.044;  217.000;  471.000;  448.000
349.178;  -53.500;-1069.000;-1006.000
349.311;  140.800;  141.000;  255.000
349.444; -140.600; -927.000; -813.000
349.578;   -0.200; -347.000; -200.000
349.711; -210.700; -959.000; -862.000
349.845; -116.200; -661.000; -591.000
349.978; -287.400;-1224.000;-1137.000
350.111; -139.100; -546.000; -612.000
350.244; -144.000; -596.000; -700.000
350.378;  -40.900; -392.000; -393.000
350.511;  -98.100; -393.000; -426.000
350.644; -198.100; -808.000; -806.000
350.778;   10.700;  168.000;  104.000
350.911;   39.800;  134.000;  140.000
351.044; -166.500; -685.000; -615.000
351.177;  -60.300; -321.000; -281.000
351.310;  -17.500;    3.000; -131.000
351.444; -208.100; -888.000; -788.000
351.577;  116.700;  140.000;   90.000
351.710;  186.000;  593.000;  417.000
351.843;  -39.700; -165.000;  -77.000
351.976;   19.600;  149.000;  -79.000
352.109; -169.600; -621.000; -612.000
352.242;  -66.800; -464.000; -419.000
352.376; -153.800; -580.000; -636.000
352.509;   69.000; -437.000; -356.000
352.642; -184.700; -654.000; -604.000
352.775;   34.100; -141.000;  -98.000
352.908; -219.400; -933.000; -904.000
353.041; -199.100; -814.000; -824.000
353.174; -100.400; -551.000; -424.000
353.307; -180.400; -753.000; -764.000
353.440;  127.600;  541.000;  453.000
353.573; -268.800; -957.000;-1008.000
353.706; -148.000; -384.000; -558.000
353.839;  -36.400; -264.000; -220.000
353.971; -155.800; -657.000; -512.000
354.104; -190.300; -896.000; -835.000
354.237; -124.900; -627.000; -662.000
354.370; -212.300; -846.000; -879.000
354.503; -325.200;-1231.000;-1308.000
354.636;  -66.600; -529.000; -348.000
354.769; -242.800; -937.000; -860.000
354.902;  -55.800; -230.000; -139.000
355.034;  -17.200; -164.000; -220.000
355.167;  -17.400; -262.000; -162.000
355.300; -247.800;-1061.000; -880.000
355.433;  611.500;  -71.000;  -14.000
355.565;  936.700; -402.000; -384.000
355.698;  201.600; -356.000; -296.000
355.831; -156.200; -882.000; -801.000
355.964;   53.300; -285.000; -170.000
356.096; -218.100; -856.000; -843.000
356.229;  -82.700; -523.000; -530.000
356.362;  176.700; -373.000; -266.000
356.494;  360.900; -229.000; -162.000
356.627;  367.600;  269.000;  377.000
356.760;  471.700;  120.000;   53.000
356.892;  541.000; -286.000; -601.000
357.025;  485.400;  403.000;  389.000
357.157;  366.300; -167.000; -179.000
357.290;  393.800; -856.000; -713.000
357.423;   61.100; -667.000; -556.000
357.555;   64.400; -217.000; -228.000
357.688;   -3.100; -483.000; -364.000
357.820;  122.300; -870.000; -877.000
357.953; 2181.000; -563.000; -589.000
358.085;  382.500; -632.000; -612.000
358.218;  532.200;-1131.000; -932.000
358.350;  166.200;  -58.000;  312.000
358.483; -314.700;-1300.000;-1187.000
358.615; -191.900;-1182.000;-1078.000
358.747; -239.500;-1187.000;-1058.000
358.880; -105.500; -810.000; -744.000
359.012;  -72.100; -376.000; -202.000
359.145; -101.600; -480.000; -511.000
359.277; -137.800; -962.000; -913.000
359.409; 1992.900;  536.000;  231.000
359.542;  380.100; -738.000; -688.000
359.674;   70.500;   46.000;   13.000
359.806; -117.300; -565.000; -438.000
359.939;  -81.700; -617.000; -516.000
360.071;  -82.400; -583.000; -579.000
360.203;  -65.700; -411.000; -364.000
360.335;   63.900;  164.000;  -16.000
360.468;  107.200; -249.000; -307.000
360.600; 1465.500; -547.000; -454.000
360.732; 1799.900; -546.000; -423.000
360.864;   37.600;-1216.000;-1044.000
360.996;   83.900; -516.000; -554.000
361.129;  -72.100; -389.000; -598.000
361.261;   12.300;  110.000; -113.000
361.393;  -45.400; -252.000; -214.000
361.525;   35.600;   94.000;  244.000
361.657; -145.900; -821.000; -703.000
361.789;   10.500; -139.000; -155.000
361.921;   62.400; -642.000; -593.000
362.053;  283.200;  524.000;  541.000
362.185;   54.700;  288.000;   72.000
362.318; -141.900; -709.000; -705.000
362.450;  170.100;  294.000;  444.000
362.582;  -80.600; -913.000; -870.000
362.714;  -69.800; -353.000; -332.000
362.846; -150.500; -606.000; -490.000
362.978; -244.500; -941.000; -811.000
363.109;   12.100; -161.000; -260.000
363.241;  167.200; -739.000; -749.000
363.373;  192.700; -649.000; -564.000
363.505;  472.600; -186.000;  -91.000
363.637;   22.100; -787.000; -601.000
363.769; -297.400;-1067.000;-1080.000
363.901; -154.300; -596.000; -654.000
364.033; -277.200;-1103.000;-1062.000
364.165;  -30.400; -283.000; -283.000
364.296;    9.700; -316.000; -177.000
364.428; -156.200;-1344.000;-1220.000
364.560; -136.800; -679.000; -661.000
364.692; -151.000; -738.000; -835.000
364.824;   49.800; -588.000; -456.000
364.955;  220.600; -402.000; -564.000
365.087;  451.800;-1097.000; -852.000
365.219; -119.600; -686.000; -816.000
365.351; -117.700; -526.000; -572.000
365.482;   92.800;  300.000;  240.000
365.614;  -69.300; -402.000; -314.000
365.746; -180.900; -729.000; -752.000
365.877; -180.300; -706.000; -672.000
366.009;  200.800;  -35.000;  -62.000
366.141; -261.700;-1249.000;-1134.000
366.272; -192.100; -803.000; -719.000
366.404; -200.700;-1005.000; -874.000
366.535;   -8.200; -139.000;  -12.000
366.667; -174.700; -644.000; -649.000
366.799;   84.600;  353.000;  203.000
366.930; -260.100; -862.000; -996.000
367.062;   -9.700; -639.000; -613.000
367.193;  -53.600; -872.000; -842.000
367.325; -112.100; -580.000; -684.000
367.456;  -17.800; -246.000;   31.000
367.588;   61.600; -371.000; -318.000
367.719;    1.600;  -44.000;  -45.000
367.851;  -42.900; -222.000; -241.000
367.982; -186.000; -875.000; -732.000
368.113;   28.100; -475.000; -358.000
368.245; -239.500; -960.000; -841.000
368.376;  -67.500; -254.000; -302.000
368.508;  -25.500; -188.000; -263.000
368.639; -285.700;-1166.000;-1034.000
368.770;  -88.700; -670.000; -589.000
368.902; -175.400; -836.000; -926.000
369.033; -195.800; -906.000; -855.000
369.164; -144.700; -720.000; -653.000
369.296; -180.100; -452.000; -601.000
369.427;  -13.200; -209.000; -144.000
369.558;  -61.800; -593.000; -377.000
369.689; -156.000; -721.000; -569.000
369.821; -230.900; -951.000; -845.000
369.952;   -8.700;   42.000; -108.000
370.083;  -58.400; -229.000; -108.000
370.214; -148.300; -735.000; -650.000
370.345;   11.500;   65.000;   81.000
370.477; -184.700; -810.000; -790.000
370.608;  132.900; -328.000; -264.000
370.739; -192.200;-1233.000;-1292.000
370.870; -221.000;-1102.000; -923.000
371.001;   10.400; -378.000; -467.000
371.132; -167.200; -754.000; -735.000
371.263;    1.800;  -42.000; -148.000
371.394; -222.000; -841.000; -748.000
371.525;   94.700;  345.000;  225.000
371.657; -173.200; -808.000; -670.000
371.788;   90.600;  103.000;  199.000
371.919;   56.700; -384.000; -304.000
372.050; 2680.900;  -91.000; -156.000
372.181;  770.500; -188.000; -294.000
372.311;  313.900;   42.000; -127.000
372.442;  -44.900; -457.000; -451.000
372.573;  -21.600; -444.000; -340.000
372.704; -209.700;-1008.000; -980.000
372.835;   -0.600; -228.000; -289.000
372.966; -140.400; -646.000; -554.000
373.097; -139.100; -575.000; -711.000
373.228; -138.400; -717.000; -542.000
373.359;  -20.400; -824.000; -536.000
373.490;  491.400; -881.000; -727.000
373.620;  540.400;-1001.000; -803.000
373.751; 1202.700; -332.000; -396.000
373.882;  446.600; -663.000; -733.000
374.013;   21.600; -449.000; -262.000
374.143; -122.900; -581.000; -659.000
374.274; -237.800; -987.000; -908.000
374.405;  100.600; -388.000; -276.000
374.536;  237.800; -526.000; -387.000
374.666;  646.100; -759.000; -807.000
374.797;   36.400; -817.000; -868.000
374.928;  479.600; -710.000; -560.000
375.058;  429.500; -535.000; -500.000
375.189;   45.700;  -59.000;  -93.000
375.320; -235.200; -928.000;-1034.000
375.450; -116.400; -625.000; -616.000
375.581;  -92.800; -526.000; -436.000
375.712;  -85.400; -574.000; -250.000
375.842;  124.400; -438.000; -415.000
375.973;   43.100; -554.000; -513.000
376.103; -167.400; -665.000; -648.000
376.234; -139.700; -531.000; -552.000
376.364; -194.700; -944.000; -867.000
376.495;  354.100;  925.000;  529.000
376.625;  -97.700; -472.000; -485.000
376.756;  -78.100; -709.000; -678.000
376.886; -200.600;-1178.000;-1026.000
377.017; -134.500;-1048.000;-1061.000
377.147;   99.200; -786.000; -782.000
377.278;   97.900;  174.000;  228.000
377.408; -222.300; -801.000; -815.000
377.538; -173.200; -707.000; -693.000
377.669; -141.600; -537.000; -613.000
377.799; -192.500; -645.000; -635.000
377.929; -115.000; -610.000; -428.000
378.060; -224.600; -781.000; -847.000
378.190; -127.200; -726.000; -531.000
378.320;  -61.200; -401.000; -406.000
378.451;   14.700; -131.000;  -22.000
378.581;   -3.100;  -67.000; -110.000
378.711;  312.000; 1035.000;  866.000
378.841; -116.400; -533.000; -675.000
378.972; -221.400; -871.000; -751.000
379.102;  -98.000; -652.000; -579.000
379.232;  -42.000; -126.000;  -73.000
379.362; -223.400;-1001.000; -885.000
379.492;  -74.600; -373.000; -424.000
379.623;  154.700;    0.000;  111.000
379.753; -234.300;-1107.000; -974.000
379.883;  196.900;   59.000;  156.000
380.013; -174.900;-1081.000;-1017.000
380.143; -246.800;-1097.000;-1056.000
380.273; -205.000; -985.000; -861.000
380.403;  -47.100; -344.000; -257.000
380.533; -132.300; -651.000; -664.000
380.663;  126.900;  173.000;  128.000
380.793; -223.200;-1027.000;-1074.000
380.923;  -10.500; -103.000;  -34.000
381.053; -170.900; -613.000; -623.000
381.183;  -23.500; -106.000; -248.000
381.313;  -33.300; -656.000; -470.000
381.443;  -48.800; -692.000; -473.000
381.573;   75.200; -402.000; -409.000
381.703;  -28.000;-1249.000;-1095.000
381.833; -280.500;-1454.000;-1336.000
381.963;  102.500; -134.000;  -87.000
382.093;  737.800; -925.000; -909.000
382.223;  170.500; -713.000; -602.000
382.353;  -98.800; -801.000; -608.000
382.482;  110.800;-1091.000; -964.000
382.612;  388.500; -872.000; -644.000
382.742;  183.800; -695.000; -622.000
382.872;   84.200; -565.000; -551.000
383.002;  102.200;  347.000; -132.000
383.131;  -50.300; -226.000; -160.000
383.261; -114.700; -706.000; -768.000
383.391;  124.300; -552.000; -377.000
383.521; 2189.000;  451.000;  263.000
383.650;  290.900; -947.000; -904.000
383.780;  -92.100; -783.000; -656.000
383.910;  269.000;  880.000;  802.000
384.039; -135.800; -794.000; -656.000
384.169;  -94.000;-1205.000;-1017.000
384.299; -126.400; -650.000; -662.000
384.428; -176.300; -764.000; -680.000
384.558;  -65.000; -308.000; -275.000
384.687;  -98.300; -414.000; -334.000
384.817;   28.600;   75.000;   -2.000
384.947;   -9.600; -234.000; -141.000
385.076;  377.700;  982.000;  912.000
385.206;  175.300;  369.000;  480.000
385.335;  -56.500; -549.000; -417.000
385.465; -163.000; -655.000; -663.000
385.594;  110.100;  -53.000;  -44.000
385.724;  155.400; -868.000; -838.000
385.853;   69.800; -296.000; -270.000
385.982;  899.900; -743.000; -787.000
386.112; 1414.200;-1052.000; -871.000
386.241;   20.500; -307.000; -312.000
386.371;   -2.000; -174.000;  -87.000
386.500; -117.800; -825.000; -789.000
386.629;  -89.300; -874.000; -817.000
386.759;   63.000;  -43.000;   68.000
386.888;  -35.200; -170.000; -250.000
387.017; -128.300; -648.000; -620.000
387.147; -167.700; -771.000; -798.000
387.276;  -58.900; -410.000; -397.000
387.405;  -21.900; -398.000; -342.000
387.535;  -79.300; -452.000; -361.000
387.664; -141.200; -692.000; -620.000
387.793;   16.400; -198.000; -113.000
387.922;  417.900;  255.000;  200.000
388.052;  -77.100; -576.000; -423.000
388.181;  -69.000; -342.000; -472.000
388.310; -114.100; -889.000; -710.000
388.439; -158.300; -749.000; -742.000
388.568;  202.100;  365.000;  244.000
388.697;  663.900; -756.000; -653.000
388.826;   33.000; -768.000; -666.000
388.956;   16.500; -285.000; -307.000
389.085;  -38.300; -347.000; -287.000
389.214; -192.000; -842.000; -872.000
389.343; -127.800; -645.000; -413.000
389.472;  335.100;  126.000;  149.000
389.601;  432.000;   91.000;    0.000
389.730;  -68.100; -568.000; -687.000
389.859;  128.400;  226.000;   46.000
389.988;   97.000; -423.000; -408.000
390.117;   97.900; -168.000; -146.000
390.246;  -72.900; -331.000; -320.000
390.375;  -31.600; -673.000; -626.000
390.504; -107.400; -703.000; -621.000
390.633; -189.100; -672.000; -726.000
390.761; -133.300; -732.000; -645.000
390.890;   36.300;   -4.000; -130.000
391.019;  -64.700; -421.000; -441.000
391.148; -190.400; -826.000; -855.000
391.277; -118.300; -576.000; -493.000
391.406; -142.700; -821.000; -805.000
391.534;   67.500;  574.000; -301.000
391.663; -122.100; -583.000; -645.000
391.792; -142.100; -673.000; -701.000
391.921;   92.800;   -3.000;   15.000
392.050;   94.100; -287.000; -228.000
392.178; -189.500;-1206.000;-1061.000
392.307;    6.300; -758.000; -712.000
392.436;  -45.600; -427.000; -641.000
392.564;   20.200;  166.000;   -6.000
392.693; -158.300; -860.000; -682.000
392.822;   94.700; -529.000; -534.000
392.950;  -42.400; -880.000; -714.000
393.079;  166.600; -188.000; -328.000
393.208;  -71.400; -488.000; -511.000
393.336;   17.400; -170.000; -145.000
393.465;  -56.000; -317.000; -199.000
393.593;   43.400;   62.000;   79.000
393.722; -252.900;-1121.000; -916.000
393.850;   14.900; -188.000;  -61.000
393.979; -234.700; -926.000; -805.000
394.107; -113.900; -517.000; -537.000
394.236; -100.600; -570.000; -507.000
394.364;  253.600;  383.000;  206.000
394.493;  142.800; -911.000; -767.000
394.621; -155.100; -955.000; -916.000
394.750;  336.100; -873.000; -923.000
394.878; 1814.500; -247.000; -149.000
395.007; 2263.000; -721.000; -807.000
395.135;   67.000; -790.000; -721.000
395.263; -230.100;-1038.000;-1040.000
395.392;   27.800;  -25.000; -107.000
395.520; -139.600; -818.000; -679.000
395.648; -195.800; -865.000; -915.000
395.777;  -95.000; -366.000; -405.000
395.905;  -97.000; -449.000; -564.000
396.033;   66.100;  217.000;  172.000
396.162;  359.700; -399.000; -453.000
396.290;  348.400;  -17.000;   -2.000
396.418;  -38.900; -555.000; -514.000
396.546; -165.700; -571.000; -466.000
396.674; -228.000; -850.000; -878.000
396.803;   39.700;  -72.000;  -23.000
396.931;   25.300; -179.000; -199.000
397.059; -155.700;-1026.000; -989.000
397.187; -217.600;-1026.000; -975.000
397.315; -243.500; -884.000; -649.000
397.443; -148.000; -592.000; -443.000
397.572; -160.300; -578.000; -424.000
397.700; -109.800; -607.000; -614.000
397.828;   -2.300;  120.000;  -90.000
397.956; -122.000; -508.000; -478.000
398.084; -152.400; -767.000; -626.000
398.212;   38.500;  137.000;  124.000
398.340;   20.600;  -56.000;  159.000
398.468;  -48.200; -390.000; -169.000
398.596; -259.600; -993.000; -953.000
398.724; -211.900; -762.000; -767.000
398.852; -323.100;-1024.000; -976.000
398.980; -134.200; -560.000; -560.000
399.108; -171.400; -982.000; -735.000
399.236;   43.100;   13.000;    8.000
399.363;   34.000;  222.000;  196.000
399.491; -127.300; -404.000; -398.000
399.619; -248.400; -829.000; -800.000
399.747; -204.900; -859.000; -771.000
399.875;  119.900;  220.000;  234.000
400.003;  -92.200; -359.000; -284.000
400.130; -143.800; -421.000; -341.000
400.258;   13.600;  -83.000;   38.000
400.386;  -83.100; -352.000; -168.000
400.514; -121.400; -526.000; -587.000
400.641; -224.100; -928.000; -802.000
400.769; -248.200; -979.000; -888.000
400.897; -202.000; -838.000; -793.000
401.025;  -15.700; -166.000; -152.000
401.152;   53.400;  220.000;   38.000
401.280; -125.700; -430.000; -429.000
401.408; -201.100; -712.000; -576.000
401.535; -186.400; -735.000; -758.000
401.663; -306.900;-1134.000;-1054.000
401.790; -156.300; -514.000; -525.000
401.918;  159.900;  436.000;  405.000
402.046;   19.300;  134.000;  122.000
402.173;    5.000;  -18.000;    7.000
402.301; -108.200; -519.000; -397.000
402.428;  121.500;  528.000;  383.000
402.556; -256.800;-1188.000; -913.000
402.683;   13.400;  -20.000;   -1.000
402.811;   17.900;  -37.000; -206.000
402.938;   39.300;   20.000;   27.000
403.066;   70.800; -574.000; -558.000
403.193;  281.100;  299.000;  239.000
403.321;   96.900; -396.000; -574.000
403.448;  235.900;   83.000;   27.000
403.575;  111.400;  -90.000;  -46.000
403.703; -146.800; -732.000; -557.000
403.830;  -85.300; -531.000; -496.000
403.957; -262.200;-1117.000;-1023.000
404.085;   26.800;  -61.000; -172.000
404.212;   67.600;  -50.000;   63.000
404.339;  137.300; -566.000; -306.000
404.467; 3642.400; -612.000; -524.000
404.594; 2266.300; -287.000; -227.000
404.721;  421.100; -869.000; -764.000
404.848;   55.700; -113.000; -202.000
404.976; -215.900; -856.000; -783.000
405.103;    2.000;  -14.000;  -82.000
405.230;   44.600;  190.000;  226.000
405.357;   42.700;  117.000;   44.000
405.484;  203.000;  -49.000;    5.000
405.612;  -58.900; -548.000; -563.000
405.739; -102.700; -488.000; -243.000
405.866;  189.900;  669.000;  385.000
405.993;  -67.400; -398.000; -102.000
406.120; -218.500; -801.000; -887.000
406.247;  -75.500; -323.000; -342.000
406.374;  430.600;  540.000;  629.000
406.501;  -14.700; -632.000; -702.000
406.628; -130.100; -621.000; -589.000
406.755; -155.200; -803.000; -620.000
406.882;  -61.100; -228.000; -277.000
407.009; -157.900; -719.000; -628.000
407.136;  -19.000; -480.000; -401.000
407.263;  -63.600; -939.000; -829.000
407.390; -143.600; -692.000; -614.000
407.517; -314.200;-1139.000;-1187.000
407.644;  -54.400; -332.000; -256.000
407.771;  -70.600; -249.000; -287.000
407.898;   74.200;  168.000;  328.000
408.025;  -98.300; -421.000; -313.000
408.151;   31.900;   82.000;  153.000
408.278; -115.200; -267.000; -216.000
408.405; -215.200; -931.000; -899.000
408.532; -129.800; -549.000; -542.000
408.659; -167.200; -677.000; -648.000
408.785; -348.500;-1298.000;-1170.000
408.912;  -80.700; -412.000; -296.000
409.039; -144.800; -610.000; -686.000
409.166; -155.500; -591.000; -555.000
409.292; -153.200; -571.000; -534.000
409.419; -180.700; -665.000; -649.000
409.546;  -84.000; -431.000; -192.000
409.672; -154.300; -713.000; -545.000
409.799;   10.200;  -36.000;   34.000
409.926;  -40.700; -180.000; -179.000
410.052; -330.100;-1127.000;-1091.000
410.179;  -92.400; -368.000; -392.000
410.305; -124.200; -375.000; -493.000
410.432;  -25.100; -220.000; -333.000
410.558; -115.600; -305.000; -380.000
410.685; -157.100; -688.000; -431.000
410.812; -158.500; -409.000; -588.000
410.938; -212.800; -964.000; -808.000
411.065; -182.600; -671.000; -645.000
411.191;  -17.200; -189.000; -174.000
411.317; -199.500; -823.000; -742.000
411.444;  -69.100; -317.000; -246.000
411.570;  -86.700; -339.000; -294.000
411.697; -197.200; -758.000; -752.000
411.823; -297.600; -989.000; -999.000
411.949;   -3.700;  -56.000;   17.000
412.076; -162.500; -539.000; -519.000
412.202; -177.800; -758.000; -757.000
412.329; -222.300; -798.000; -752.000
412.455; -175.400; -821.000; -657.000
412.581;   -6.700;  -15.000;  172.000
412.707; -108.800; -540.000; -457.000
412.834;   59.200;  156.000;  219.000
412.960; -199.700; -785.000; -784.000
413.086; -184.100; -743.000; -701.000
413.212;  207.500;  604.000;  578.000
413.339; -187.400; -685.000; -701.000
413.465;  -69.400; -364.000; -310.000
413.591; -190.600; -757.000; -474.000
413.717;  -83.700; -358.000; -366.000
413.843; -257.900; -839.000; -861.000
413.969;  -78.200;  -47.000; -292.000
414.096; -178.300; -679.000; -679.000
414.222;   24.200;  -33.000;   85.000
414.348; -117.900; -652.000; -385.000
414.474;   67.600;   38.000;  -52.000
414.600;  -10.100; -126.000; -144.000
414.726;   18.300;  -96.000;  -55.000
414.852; -128.500; -365.000; -342.000
414.978;   45.300;  104.000;  -18.000
415.104;   53.000;   38.000;   80.000
415.230;  -22.400; -329.000; -330.000
415.356;  -62.700; -409.000; -514.000
415.482;  156.000;   13.000;  -35.000
415.608;  147.200; -247.000; -323.000
415.734;  690.900;   67.000;   38.000
415.860;13547.500; -875.000; -767.000
415.986; 8911.800; -685.000; -607.000
416.111;  604.300; -798.000; -652.000
416.237;   87.200; -424.000; -571.000
416.363;  681.700; -765.000; -733.000
416.489; 2697.400; -324.000; -251.000
416.615;  126.900; -707.000; -742.000
416.741; -124.100; -677.000; -784.000
416.866; -207.000; -673.000; -736.000
416.992; -219.600; -801.000; -818.000
417.118;  -57.700;  -41.000;  -80.000
417.244; -134.600; -798.000; -531.000
417.369; -152.500; -801.000; -612.000
417.495;  -31.500; -325.000; -254.000
417.621; -193.300;-1015.000; -803.000
417.746;  -46.900; -579.000; -572.000
417.872;   43.900; -254.000; -144.000
417.998;  -19.000; -515.000; -530.000
418.123;  593.400;-1073.000; -845.000
418.249; 3268.900; -512.000; -601.000
418.374;  302.800; -916.000; -824.000
418.500;   -9.300; -383.000; -482.000
418.626;  103.700;   70.000;  -59.000
418.751;    3.300; -549.000; -448.000
418.877;   41.600; -637.000; -643.000
419.002; 1203.800; -688.000; -560.000
419.128; 7922.100; -930.000; -721.000
419.253; 1698.000; -967.000; -837.000
419.379;  213.300; -391.000; -338.000
419.504;  344.900;  325.000;  415.000
419.629;  295.600; -393.000; -212.000
419.755; 2397.600; -317.000; -254.000
419.880;13169.600;  -98.000;   67.000
420.006; 7514.300; -280.000; -221.000
420.131;19039.900; -662.000; -775.000
420.256; 2594.100; -315.000; -316.000
420.382;  235.300; -665.000; -687.000
420.507;  -37.500; -649.000; -778.000
420.632;   45.800; -337.000; -339.000
420.758;  168.800; -251.000; -425.000
420.883; -164.100; -876.000; -672.000
421.008; -181.500; -775.000; -619.000
421.133; -212.400; -509.000; -467.000
421.259;  -57.200; -325.000; -259.000
421.384; -203.000; -834.000; -693.000
421.509; -161.000;-1052.000; -862.000
421.634;  816.700; -936.000; -820.000
421.759;  305.400; -359.000; -327.000
421.885;  -98.000; -717.000; -656.000
422.010; -119.700; -673.000; -542.000
422.135; -226.500; -695.000; -727.000
422.260;  104.700;  340.000;  280.000
422.385;  -34.600;   12.000;  -98.000
422.510;   49.200;  151.000;  -26.000
422.635;   32.300;  -87.000;  -43.000
422.760;  -37.800; -766.000; -791.000
422.885;   55.900;  -57.000;  -80.000
423.010;  -22.600; -112.000; -169.000
423.135; -136.400; -481.000; -561.000
423.260;  -40.500; -150.000; -245.000
423.385;  130.500;  476.000;  222.000
423.510;   48.600;   71.000;  -22.000
423.635;   77.400;  133.000;   45.000
423.760;  106.400;  383.000;  328.000
423.885;  110.800;  336.000;  391.000
424.010;   32.400;  -68.000;  -13.000
424.135;    5.700;    5.000;  -33.000
424.259; -115.700; -654.000; -457.000
424.384;  -85.900; -279.000; -272.000
424.509;  -38.300; -260.000; -186.000
424.634; -207.000; -761.000; -623.000
424.759; -101.100; -688.000; -544.000
424.883;  -84.100; -506.000; -527.000
425.008;   34.600; -502.000; -410.000
425.133; 1237.700; -679.000; -653.000
425.258;  422.000; -517.000; -381.000
425.382;  590.200; -867.000; -774.000
425.507; 1612.700; -487.000; -543.000
425.632;  109.700; -802.000; -663.000
425.756;  259.200; -256.000; -146.000
425.881; 4185.400; -831.000; -857.000
426.006;10438.700; -604.000; -355.000
426.130; 1377.900; -696.000; -508.000
426.255;  115.900; -611.000; -491.000
426.379;   64.500; -189.000; -577.000
426.504;  405.800;  660.000;  544.000
426.629; 2637.800; -519.000; -466.000
426.753; 1707.900;   64.000;  -46.000
426.878;  182.100; -252.000; -288.000
427.002;  -23.800; -651.000; -668.000
427.127; 1131.100;  -35.000; -158.000
427.251; 7769.900;  372.000;  401.000
427.375; 1946.100; -191.000; -173.000
427.500; 1437.900; -616.000; -610.000
427.624;  421.600; -234.000; -400.000
427.749;   29.500; -216.000; -225.000
427.873;  -67.600; -499.000; -412.000
427.997;  -37.200; -222.000; -230.000
428.122;  205.600;  795.000;  703.000
428.246;  163.100;  433.000;  434.000
428.371; -229.700; -869.000; -773.000
428.495; -153.300; -624.000; -646.000
428.619;    5.700; -186.000; -117.000
428.743;   57.100;   65.000;  132.000
428.868; -124.500; -732.000; -643.000
428.992;  919.200; -219.000; -326.000
429.116;  320.000; -329.000; -357.000
429.240;  309.200;  419.000;  426.000
429.365;  -61.700; -454.000; -574.000
429.489; -132.300; -638.000; -647.000
429.613;   35.100; -236.000; -177.000
429.737;   -3.300; -563.000; -432.000
429.861;  176.600; -247.000; -133.000
429.985; 3728.900; -425.000; -305.000
430.109; 3681.300; -770.000; -908.000
430.234;  474.700;   76.000;  -50.000
430.358;   34.300; -250.000; -160.000
430.482; -128.300; -672.000; -564.000
430.606; -123.700; -655.000; -375.000
430.730;  -14.500; -437.000; -388.000
430.854;  -40.900; -909.000; -835.000
430.978; -110.800; -795.000; -764.000
431.102; -118.500; -499.000; -422.000
431.226; -158.200; -874.000; -815.000
431.350;  137.600;  345.000;  422.000
431.474; -127.100; -661.000; -373.000
431.597; -273.600;-1060.000; -848.000
431.721;  -94.000; -276.000; -267.000
431.845; -176.700; -704.000; -472.000
431.969;  -88.600; -304.000; -349.000
432.093; -123.300; -395.000; -317.000
432.217;   43.800;   32.000;   82.000
432.341; -124.300; -523.000; -518.000
432.464;   15.900;   96.000;   40.000
432.588;   32.900; -401.000; -329.000
432.712;   71.100;  -52.000;  -52.000
432.836;   78.400;  213.000;  263.000
432.959;  -53.800; -372.000; -311.000
433.083;   79.600;   11.000;    2.000
433.207;  357.300;  285.000;  930.000
433.330; 3294.400; -391.000; -200.000
433.454; 3653.100; -654.000; -638.000
433.578; 2301.400;  583.000;  278.000
433.701;  301.400; -623.000; -675.000
433.825;   26.000; -292.000; -299.000
433.949;  128.400;   28.000;  -72.000
434.072;   -3.600; -410.000; -323.000
434.196;   -6.100; -309.000; -117.000
434.319; 7824.600;25482.000;25124.000
434.443;  422.700; -656.000; -603.000
434.566; 1705.800;  281.000;   62.000
434.690;  164.900; -637.000; -383.000
434.813;   20.900; -251.000; -173.000
434.937; -150.800; -569.000; -696.000
435.060;  -94.100; -423.000; -332.000
435.184;  144.100; -492.000; -217.000
435.307;  139.900;  159.000;  102.000
435.431;    8.300;  -40.000;   24.000
435.554;  -94.900; -399.000; -240.000
435.677; -101.800; -350.000; -258.000
435.801;    2.300;  -25.000;   49.000
435.924;  -17.600;    1.000;  -67.000
436.048; -215.400;-1019.000; -732.000
436.171;  -89.800; -240.000;  -66.000
436.294;  -56.100; -248.000; -229.000
436.417;  -85.300; -963.000; -849.000
436.541; -192.100; -814.000; -840.000
436.664;  -94.700; -242.000; -316.000
436.787;   11.000;   13.000;  113.000
436.910; -161.800; -792.000; -422.000
437.034;   26.600;  142.000;  143.000
437.157;   69.000;  -11.000;    0.000
437.280;  -86.300; -392.000; -292.000
437.403; -192.600; -982.000; -869.000
437.526;  367.400; -903.000; -865.000
437.649; 1645.700; -505.000; -332.000
437.772;  112.600; -692.000; -540.000
437.896;  211.700;  700.000;  544.000
438.019; -185.900; -758.000; -503.000
438.142; -147.300; -596.000; -506.000
438.265; -103.000; -639.000; -670.000
438.388;  251.400; -520.000; -410.000
438.511;  -32.200; -597.000; -394.000
438.634;  -79.600; -247.000; -125.000
438.757; -178.400; -693.000; -619.000
438.880;   -8.400;  -34.000;  -57.000
439.003; -127.300; -417.000; -437.000
439.126;  -86.600; -287.000; -167.000
439.248;  -61.500;  -98.000; -139.000
439.371;  -12.900;    9.000;  -53.000
439.494;  127.500;  510.000;  439.000
439.617;  -38.000;   65.000;  -88.000
439.740; -275.100; -968.000; -816.000
439.863; -230.900; -755.000; -595.000
439.986; -167.900; -476.000; -431.000
440.108;  -73.500; -161.000; -112.000
440.231; -280.600; -950.000; -836.000
440.354;  -36.300;  -64.000; -150.000
440.477; -119.000; -566.000; -542.000
440.599;  -43.800; -200.000; -225.000
440.722; -195.000; -709.000; -586.000
440.845;  241.200;  751.000;  928.000
440.968; -147.300; -415.000; -311.000
441.090;  -78.400; -199.000;  -33.000
441.213; -274.300;-1021.000; -825.000
441.336;  -57.700; -159.000;   -5.000
441.458; -116.800; -549.000; -396.000
441.581; -198.900; -628.000; -629.000
441.703;  -49.100; -152.000;   13.000
441.826; -145.500; -557.000; -400.000
441.948;  -21.300;   56.000;   51.000
442.071;  113.900;  555.000;  424.000
442.193; -183.100; -531.000; -485.000
442.316;   61.400;  152.000;   97.000
442.438;  -12.400; -233.000;  -10.000
442.561;   68.700;  272.000;  262.000
442.683;  341.700; -809.000; -522.000
442.806;  837.700;   -8.000;   74.000
442.928; -164.700; -859.000; -604.000
443.051; -118.700; -577.000; -373.000
443.173; -127.100; -341.000; -339.000
443.295; -167.100; -263.000; -371.000
443.418; -102.700; -321.000;  -29.000
443.540;  -38.300; -106.000;   -4.000
443.662; -209.900; -563.000; -465.000
443.785;   39.300;  335.000;  199.000
443.907; -182.900; -362.000; -208.000
444.029; -190.100; -767.000; -494.000
444.152; -221.000; -644.000; -554.000
444.274;  -20.500;  -18.000;  -24.000
444.396; -180.200; -461.000; -221.000
444.518; -210.800; -691.000; -454.000
444.640; -143.600; -268.000; -111.000
444.763;   26.700;  388.000;  249.000
444.885; -167.800; -432.000; -392.000
445.007;  -10.400;   35.000;   86.000
445.129; -147.300; -610.000; -515.000
445.251; -163.700; -372.000; -439.000
445.373; -208.500; -537.000; -386.000
445.495;   57.600;  242.000;  350.000
445.617;  161.400;  853.000;  753.000
445.739;  -78.500; -215.000;  -97.000
445.861;  -47.000; -245.000; -112.000
445.984;  -78.700; -267.000; -101.000
446.105;  113.400; -418.000; -251.000
446.227;  418.100; -176.000;  -19.000
446.349;  -98.400; -358.000; -249.000
446.471; -161.300; -615.000; -448.000
446.593;  -89.000; -316.000;   19.000
446.715;  -12.100;  -67.000;   41.000
446.837;  171.300;  697.000;  832.000
446.959; -150.100; -457.000; -478.000
447.081; -199.100; -628.000; -518.000
447.203;  187.700;  862.000;  834.000
447.325; -107.100; -270.000;   42.000
447.446;   62.000;  286.000;  530.000
447.568; -272.000; -921.000; -803.000
447.690; -115.700; -236.000; -245.000
447.812; -241.600; -798.000; -519.000
447.933;   12.200;  155.000;  127.000
448.055; -109.700; -306.000; -261.000
448.177;  143.200;   31.000;   79.000
448.299; -100.300; -935.000; -727.000
448.420;   83.100;  -25.000;  159.000
448.542;  -42.200;   -3.000;   33.000
448.664;   17.400;  109.000;  322.000
448.785;  -33.900;  265.000;   83.000
448.907; -139.400; -614.000; -353.000
449.028; -131.100; -771.000; -471.000
449.150;  164.000;  492.000;  589.000
449.272; -294.300;-1044.000; -913.000
449.393;  152.200;  612.000;  694.000
449.515; -227.000; -634.000; -581.000
449.636;  -90.000; -264.000; -155.000
449.758;  207.800;  763.000;  622.000
449.879; -138.300; -498.000; -396.000
450.001;  -71.800; -149.000;  -49.000
450.122;  -30.200;  -95.000;  162.000
450.244;   18.700;   37.000;  364.000
450.365; -124.700; -495.000; -301.000
450.486;  -31.400;   80.000;  268.000
450.608;   71.100;  393.000;  326.000
450.729;  125.200;  578.000;  645.000
450.850; -119.700; -574.000; -466.000
450.972;  418.100; -552.000; -389.000
451.093; 3283.500;  190.000;  588.000
451.214; 1154.800; -516.000; -337.000
451.336;  374.000;  773.000;  579.000
451.457;  109.000;  264.000;  393.000
451.578;  -33.100; -118.000;  -74.000
451.699; -205.100; -546.000; -540.000
451.821;  -95.800; -284.000;  -50.000
451.942;   41.900;  278.000;  285.000
452.063;   52.200;  228.000;  419.000
452.184;  352.200;  -54.000;  -49.000
452.305;  747.400;  103.000;  170.000
452.427;   23.000; -549.000; -301.000
452.548;  -41.800;   23.000;   79.000
452.669;  -49.600; -257.000;  -89.000
452.790;  -41.700;    3.000;  -18.000
452.911;   35.200;  195.000;  259.000
453.032;  -79.000; -289.000;  -60.000
453.153;  -35.000;  -29.000;   81.000
453.274;  188.900;  737.000;  868.000
453.395;  -49.500;  -51.000;  175.000
453.516;  294.200; 1317.000; 1388.000
453.637; -151.000; -205.000; -150.000
453.758;  -29.400;   15.000;   69.000
453.879; -158.700; -462.000; -250.000
454.000;  205.000; 1086.000;  948.000
454.121; -182.300; -554.000; -326.000
454.242; -164.400; -599.000; -383.000
454.362;  -26.300;  -99.000;  114.000
454.483;  -71.900; -309.000; -229.000
454.604;  127.200;  512.000;  580.000
454.725; -210.800; -627.000; -555.000
454.846; -190.200; -474.000; -406.000
454.967;   46.600;  230.000;  539.000
455.087;  -16.000;  179.000;  153.000
455.208;  120.500;  554.000;  856.000
455.329;  -44.600;  -22.000;   82.000
455.450;  131.000;  473.000;  633.000
455.570;  -86.000; -234.000; -211.000
455.691;  -12.500;  201.000;  407.000
455.812; -119.700; -270.000;  -92.000
455.932;  -44.200;  107.000;  -97.000
456.053; -103.900;   36.000;   24.000
456.173; -164.900; -433.000; -355.000
456.294; -164.500; -476.000; -303.000
456.415;  -58.800;  -73.000;   70.000
456.535;   30.900;  297.000;  273.000
456.656;    3.100;  132.000;  240.000
456.776;  -30.900;    3.000;  298.000
456.897;   87.800;  308.000;  513.000
457.017;  -93.100; -153.000;   -3.000
457.138; -134.100; -402.000; -249.000
457.258;    8.000;  263.000;  224.000
457.379;   43.000;  509.000;  521.000
457.499;   45.500;  443.000;  432.000
457.620; -168.100; -407.000; -231.000
457.740; -101.200; -132.000;  -11.000
457.860;   -8.200;   87.000;   44.000
457.981;  -18.400;  132.000;  124.000
458.101; -101.700;  -89.000;   40.000
458.221;   43.500;  336.000;  402.000
458.342;  -56.000;   -4.000;  -37.000
458.462;   91.300;  617.000;  352.000
458.582;  -63.300; -302.000; -294.000
458.703;   16.600;  303.000;  154.000
458.823;  -51.700;   22.000;  163.000
458.943;   49.500;  341.000;  467.000
459.063;    6.800; 1124.000;  192.000
459.183;   21.000;  328.000;  313.000
459.304;  100.900;  315.000;  517.000
459.424;  -87.700; -246.000;  -89.000
459.544;  350.800;  388.000;  764.000
459.664;  647.000;  499.000;  506.000
459.784;  323.700; 1004.000; 1175.000
459.904;  123.800;  867.000;  744.000
460.024;  186.600;  867.000;  684.000
460.144;   57.200;  449.000;  554.000
460.264;   77.800;  515.000;  327.000
460.385; -102.600; -145.000; -119.000
460.505;  151.800;  905.000;  858.000
460.625; -123.900;  -17.000;  -68.000
460.745;   36.800;  396.000;  541.000
460.864;  -39.900;  153.000;  469.000
460.984;   72.100;  499.000;  573.000
461.104;  344.800; 1656.000; 1775.000
461.224;  108.300;  657.000;  650.000
461.344;   17.600;  431.000;  360.000
461.464;    0.900;  258.000;  513.000
461.584;   35.200;  283.000;  466.000
461.704;  -35.300;   58.000;  108.000
461.824;  -27.300;  238.000;  259.000
461.943;   -7.700;  191.000;  130.000
462.063;  -82.100;    2.000;  324.000
462.183;  122.500;  639.000;  717.000
462.303;  274.100; 1678.000; 1230.000
462.422;  139.900;  781.000;  840.000
462.542;   -5.800;  271.000;  391.000
462.662;   71.100;  353.000;  380.000
462.782;  234.900;  833.000;  572.000
462.901;  400.900;  545.000;  717.000
463.021;  455.400; 1702.000; 1638.000
463.141;   30.900;  337.000;  770.000
463.260;   27.700;  614.000;  474.000
463.380;  107.900;  902.000;  884.000
463.499;    9.500;  342.000;  332.000
463.619;   11.100;  581.000;  559.000
463.738;  323.400; 1644.000;  903.000
463.858;  101.700;  657.000;  811.000
463.978;   17.500;  542.000;  396.000
464.097;  178.400;  921.000; 1114.000
464.217;  285.500; 1196.000; 1143.000
464.336;  236.200; 1068.000; 1130.000
464.455;   19.600;  328.000;  659.000
464.575;   57.600;  597.000;  602.000
464.694;  285.600; 1204.000; 1179.000
464.814;  190.900; 1190.000; 1138.000
464.933;  217.400; 1095.000; 1027.000
465.052;  239.300; 1412.000; 1054.000
465.172;  162.100;  922.000;  799.000
465.291;  237.500; 1376.000; 1320.000
465.410;   64.000;  462.000;  735.000
465.530;  223.200; 1355.000; 1310.000
465.649;  222.100; 1209.000; 1273.000
465.768;  347.700; 1673.000; 1508.000
465.888;  127.200;  941.000; 1174.000
466.007;  261.400; 1335.000; 1440.000
466.126;   55.800;  721.000;  641.000
466.245;  184.300; 1176.000; 1187.000
466.364;  131.100;  950.000; 1060.000
466.484;  198.300; 1024.000; 1213.000
466.603;  185.400; 1101.000; 1222.000
466.722;  285.700; 1490.000; 1769.000
466.841;  220.800; 1151.000; 1401.000
466.960;  148.800; 1069.000;  972.000
467.079;  383.200; 1971.000; 1786.000
467.198;  179.400; 1238.000; 1181.000
467.317;  264.400; 1768.000; 1162.000
467.436;  233.800; 1709.000; 1261.000
467.555;  308.000; 1796.000; 1746.000
467.674;  242.800; 1227.000; 1329.000
467.793;  195.400; 1376.000; 1374.000
467.912;  245.400; 1658.000; 1539.000
468.031;  348.700; 2038.000; 1930.000
468.150;  394.600; 1842.000; 1837.000
468.269;  470.200; 2313.000; 2090.000
468.388;  480.600; 2168.000; 2339.000
468.507;  580.400; 2884.000; 2903.000
468.626;  657.200; 2555.000; 2541.000
468.744;  386.100; 2018.000; 2174.000
468.863;  472.000; 2312.000; 2523.000
468.982;  246.100; 1503.000; 1555.000
469.101;  543.400; 2788.000; 2692.000
469.220;  376.500; 2333.000; 2176.000
469.338;  610.300; 2935.000; 3051.000
469.457;  494.900; 2719.000; 2545.000
469.576;  817.300; 3953.000; 3784.000
469.695;  539.900; 2877.000; 3066.000
469.813;  915.300; 4148.000; 4192.000
469.932;  870.200; 4255.000; 4485.000
470.051;  843.300; 4075.000; 4161.000
470.169; 1219.800; 4470.000; 4338.000
470.288; 1661.300; 4700.000; 4809.000
470.406; 1256.200; 5059.000; 5194.000
470.525; 1259.300; 6101.000; 5787.000
470.644; 1366.700; 6847.000; 6794.000
470.762; 1722.900; 8397.000; 7873.000
470.881; 1838.600; 8651.000; 8464.000
470.999; 2084.200; 9685.000; 9151.000
471.118; 2295.200;11174.000;10711.000

