
Integration time [ms]: 100.000
Averaging Nr. [scans]: 40
Smoothing Nr. [pixels]: 0
Data measured with spectrometer [name]: 2101012U2
Wave   ;Sample   ;Dark     ;Reference
[nm]   ;[counts] ;[counts] ;[counts] 

197.733;   53.050;  516.000;  404.000
197.879;  -69.550; -610.000; -634.000
198.025;  -45.625; -475.000; -420.000
198.171;  -53.725; -602.000; -612.000
198.317;  -22.825; -401.000; -316.000
198.463;  -65.225; -655.000; -404.000
198.609;   31.725;  181.000; -137.000
198.755;  -68.925; -644.000; -410.000
198.901;  -63.875; -505.000; -424.000
199.047;  -52.775; -615.000; -488.000
199.193;  -44.125; -230.000; -468.000
199.339;  -37.050; -222.000; -369.000
199.485;   42.950;  330.000;  271.000
199.631;   22.875;  227.000;  310.000
199.777;  -48.850; -466.000; -398.000
199.923;  -62.350; -610.000; -424.000
200.069;   11.000; -141.000;  -58.000
200.215;   48.700;  128.000;  453.000
200.361;   46.450;  243.000;  477.000
200.507;  -58.750; -600.000; -373.000
200.653;  -16.700; -371.000; -194.000
200.798;  -23.575; -215.000; -125.000
200.944;  -11.600; -146.000;  -41.000
201.090;   43.425;   61.000;  222.000
201.236;   -5.725; -116.000; -158.000
201.382;  128.725;  874.000;  903.000
201.528;    9.175;  -58.000;  -48.000
201.674;  -36.000; -386.000; -293.000
201.819;  -58.800; -540.000; -439.000
201.965;  -71.800; -699.000; -447.000
202.111;  -19.900; -273.000; -226.000
202.257;  -36.200; -250.000; -238.000
202.402;   -3.350;   13.000;  -36.000
202.548;  -25.775; -169.000; -116.000
202.694;   85.325;  410.000; -183.000
202.840;  -64.950; -603.000; -531.000
202.985;  -72.000; -681.000; -639.000
203.131;  -90.550; -832.000; -666.000
203.277;  -33.325; -199.000; -262.000
203.423;  -43.900; -434.000; -520.000
203.568;  -43.050; -462.000; -237.000
203.714;  -46.800; -535.000; -542.000
203.860;  -79.950; -682.000; -641.000
204.005;   18.175;  112.000;  167.000
204.151;   77.400;  561.000;  556.000
204.296;  -42.525; -354.000; -221.000
204.442;  -65.000; -600.000; -547.000
204.588;  -66.375; -592.000; -579.000
204.733;   15.650;  178.000;  168.000
204.879; -113.025;-1018.000; -822.000
205.025;   -3.925;  -99.000;  126.000
205.170;    3.325;  -17.000;   94.000
205.316;   89.250;  438.000;  661.000
205.461;  -77.100; -698.000; -554.000
205.607;   78.350;  609.000;  665.000
205.752;  -70.675; -626.000; -551.000
205.898;  -50.425; -501.000; -391.000
206.043;  -51.600; -578.000; -506.000
206.189;  -42.925; -243.000; -285.000
206.334;   91.625;  554.000;  606.000
206.480;   83.175;  409.000;  239.000
206.625;  -68.150; -529.000; -552.000
206.771;  -48.900; -451.000; -373.000
206.916;  -20.625; -210.000; -537.000
207.062;  -56.100; -545.000; -591.000
207.207;  -54.075; -546.000; -443.000
207.353;   42.350;  185.000;  460.000
207.498;    7.875;  196.000;   85.000
207.643;  -58.025; -501.000; -370.000
207.789; -122.025;-1069.000; -910.000
207.934;  -96.375; -665.000; -713.000
208.080;  -12.825; -154.000;   66.000
208.225;   -6.200;  -22.000;  -57.000
208.370;  -60.425; -727.000; -619.000
208.516;  -62.975; -741.000; -487.000
208.661;  -17.175; -127.000;  -69.000
208.806;  -16.375; -165.000; -171.000
208.952; -122.875;-1044.000; -731.000
209.097;   72.975;  378.000;  349.000
209.242;  -37.050; -307.000; -382.000
209.387;   66.750;  392.000;  350.000
209.533;  -32.650; -321.000; -350.000
209.678;   81.075;  472.000;  543.000
209.823;  -33.825; -408.000; -310.000
209.969;  -98.625; -860.000; -757.000
210.114;  -93.700; -907.000; -719.000
210.259; -106.400; -939.000; -889.000
210.404;  -10.975; -171.000;  103.000
210.549;    7.275;  108.000;    3.000
210.695;  -13.925;   -3.000;  -95.000
210.840;   40.500;   94.000;   67.000
210.985;  -61.525; -484.000; -303.000
211.130;   77.400;  268.000;  406.000
211.275;   35.200;  207.000;  199.000
211.420;  -52.575; -300.000; -289.000
211.566;  -65.600; -536.000; -489.000
211.711;   28.150;  218.000;  157.000
211.856;  -65.875; -545.000; -519.000
212.001;   12.450;  151.000;   44.000
212.146;   34.350;  153.000;   49.000
212.291;  -30.900; -210.000; -186.000
212.436;  -18.925; -280.000;   -6.000
212.581;  -69.475; -685.000; -653.000
212.726;  -72.025; -487.000; -538.000
212.871;  -48.275; -552.000; -217.000
213.016; -128.375;-1172.000;-1029.000
213.161;   54.825;  406.000;  291.000
213.306;  -64.475; -435.000; -577.000
213.451;  -91.275; -778.000; -689.000
213.596;  -38.650; -455.000; -347.000
213.741;  -52.125; -448.000; -538.000
213.886;  -57.025; -498.000; -517.000
214.031;  -22.675; -294.000; -124.000
214.176;  -48.700; -408.000; -341.000
214.321;  -13.975; -296.000; -157.000
214.466;   -9.750; -163.000;  -43.000
214.611;   -2.750;  -61.000;  -10.000
214.756; -106.850; -948.000; -858.000
214.901;  -20.250; -388.000; -226.000
215.046; -118.150; -797.000; -825.000
215.191;   12.450;  128.000;   35.000
215.336;  -17.200; -157.000;  -19.000
215.480;  -68.675; -684.000; -505.000
215.625;  -10.075; -175.000;  -19.000
215.770;  -86.075; -757.000; -662.000
215.915;    3.775;   -5.000;  -97.000
216.060;  -12.050; -113.000;  -21.000
216.205;  -82.650; -731.000; -779.000
216.349;  -60.400; -470.000; -533.000
216.494; -114.500; -939.000; -867.000
216.639; -105.650; -823.000; -888.000
216.784;  -78.875; -577.000; -525.000
216.929;   43.500;  392.000;  281.000
217.073;   -2.500; -244.000;  -31.000
217.218;   10.125;   78.000;  -47.000
217.363;  -78.275; -656.000; -618.000
217.507;  -80.050; -623.000; -588.000
217.652; -112.925; -845.000; -874.000
217.797;  -90.350; -708.000; -659.000
217.942;  -93.475; -856.000; -720.000
218.086;   66.950;  608.000;  539.000
218.231;  -14.450; -174.000;  -26.000
218.376;  -38.050; -337.000; -229.000
218.520;   10.800;  -41.000;   96.000
218.665;  -30.575; -338.000; -204.000
218.810;  -47.025; -275.000; -233.000
218.954;   22.175;  201.000;   35.000
219.099;  -98.650; -713.000; -963.000
219.243;  -64.025; -589.000; -554.000
219.388;  -14.725; -264.000; -136.000
219.532;    1.375; -116.000; -116.000
219.677;  -71.650; -564.000; -521.000
219.822;    0.400;   33.000;   89.000
219.966;    7.375;   17.000;  -99.000
220.111;  -28.950; -328.000;  -40.000
220.255;  -81.800; -797.000; -750.000
220.400;  -26.800; -180.000; -146.000
220.544;  -54.125; -516.000; -450.000
220.689;  -63.200; -422.000; -451.000
220.833;  -13.300; -123.000;  -58.000
220.978;  -48.875; -393.000; -563.000
221.122;   20.675;  319.000;  307.000
221.267; -112.775; -906.000; -837.000
221.411;  -53.450; -478.000; -394.000
221.555;  -13.475; -104.000;  -23.000
221.700;  -48.800; -329.000; -222.000
221.844;   38.725;  255.000;  272.000
221.989;  -33.025; -328.000; -311.000
222.133;  -40.525; -289.000; -307.000
222.277;  -16.325;    5.000;   78.000
222.422;   19.950;  227.000;  113.000
222.566;  -33.150; -381.000; -214.000
222.711;  -43.125; -414.000; -479.000
222.855;  -64.425; -643.000; -586.000
222.999;  -82.975; -642.000; -717.000
223.144;  -14.900; -195.000; -194.000
223.288;   58.900;  423.000;  251.000
223.432;   33.550;  184.000;  230.000
223.576;   18.625;  152.000;  -21.000
223.721;   39.075;  364.000;  273.000
223.865;  -50.250; -472.000; -475.000
224.009;  253.150; 1673.000; 1631.000
224.153;  -77.950; -660.000; -671.000
224.298;  -66.625; -531.000; -489.000
224.442;  -18.575;  -74.000;  -33.000
224.586;  -21.375; -169.000; -106.000
224.730;  -89.550; -858.000; -670.000
224.875;  -94.825; -739.000; -688.000
225.019;   12.625;  102.000;  188.000
225.163;   42.800;  208.000;  341.000
225.307;    8.625;   97.000;  -91.000
225.451;   52.100;  360.000;  481.000
225.595;   22.875;  264.000;  176.000
225.739;   -9.125; -170.000;  -94.000
225.884;    2.100;   86.000;    5.000
226.028;  -98.775; -760.000; -626.000
226.172;  -42.875; -260.000; -273.000
226.316; -117.775; -941.000; -902.000
226.460;  -59.975; -645.000; -493.000
226.604;  -46.625; -406.000; -400.000
226.748;  -95.325; -836.000; -733.000
226.892;  -20.275; -227.000; -181.000
227.036;  -51.700; -537.000; -447.000
227.180;  -42.225; -551.000; -375.000
227.324;  -67.125; -561.000; -580.000
227.468; -111.675; -819.000; -717.000
227.612;  -11.575;  242.000;  -28.000
227.756; -102.475; -845.000; -698.000
227.900;   52.975;  342.000;  441.000
228.044;  -58.800; -509.000; -290.000
228.188;   46.650;  448.000;  568.000
228.332;  -78.200; -546.000; -472.000
228.476;  -20.500; -223.000; -149.000
228.620;  -27.275; -210.000; -150.000
228.764;   60.675;  431.000;  349.000
228.908;  -21.600; -155.000;   30.000
229.052;  -66.400; -615.000; -528.000
229.195;   -9.150; -172.000;   13.000
229.339;  -23.800; -235.000; -305.000
229.483;   -6.375;    5.000; -162.000
229.627;   -1.600; -156.000;  139.000
229.771;  -34.400; -218.000; -294.000
229.915;    1.700;  230.000;   79.000
230.059;  -89.200; -648.000; -663.000
230.202;  -55.875; -370.000; -317.000
230.346;  -13.750; -107.000;  107.000
230.490;  -65.800; -489.000; -521.000
230.634;  -97.175; -736.000; -553.000
230.777;   77.050;  478.000;  509.000
230.921;  -51.850; -450.000; -359.000
231.065;  -36.650; -246.000; -286.000
231.209;   19.025;  261.000;  265.000
231.352;   20.775;   54.000;   40.000
231.496;   19.325;  568.000;  188.000
231.640;  -68.400; -693.000; -621.000
231.783;   79.675;  546.000;  525.000
231.927;  -46.175; -294.000; -365.000
232.071; -113.800; -962.000; -736.000
232.214;  -96.075; -980.000; -764.000
232.358;  -87.675; -683.000; -599.000
232.502;   17.300;  -19.000;    7.000
232.645; -125.725;-1090.000; -927.000
232.789;  -23.750; -257.000; -218.000
232.933;  -45.850; -407.000; -224.000
233.076; -116.725;-1038.000; -897.000
233.220;  -96.150; -752.000; -777.000
233.363;  -83.025; -669.000; -477.000
233.507;   70.400;  371.000;  129.000
233.650; -105.750; -764.000; -834.000
233.794;   53.900;  438.000;  461.000
233.938;  -58.600; -530.000; -362.000
234.081;  -20.300;  -93.000;   31.000
234.225;  -68.325; -631.000; -539.000
234.368; -109.475; -773.000; -723.000
234.512;  -36.225; -385.000; -299.000
234.655;  -83.275; -582.000; -555.000
234.798;  -66.925; -493.000; -466.000
234.942; -111.200; -884.000;-1002.000
235.085;  -63.700; -651.000; -443.000
235.229;  -65.450; -405.000; -410.000
235.372;  -36.950; -247.000; -191.000
235.516;  -62.400; -397.000; -321.000
235.659;    5.400;   92.000;  121.000
235.802;  -16.350;  -38.000;  -22.000
235.946;   31.275;  335.000;  215.000
236.089;   22.500;  126.000;  250.000
236.233;   55.300;  275.000;  298.000
236.376;  -37.100; -235.000; -378.000
236.519;  -45.125; -297.000; -319.000
236.663;  -11.275; -215.000; -117.000
236.806; -128.350;-1029.000; -999.000
236.949;   54.975;  543.000;  431.000
237.092;   58.900;  412.000;  391.000
237.236;  -87.600; -589.000; -502.000
237.379;   74.225;  352.000;  428.000
237.522;  -94.825; -879.000; -768.000
237.666;  -10.325; -271.000;   18.000
237.809; -112.750; -851.000; -823.000
237.952;   30.750;  469.000;  271.000
238.095;  -57.525; -447.000; -442.000
238.238;   98.725;  688.000;  700.000
238.382;    2.125;  166.000;  103.000
238.525;  -76.350; -598.000; -511.000
238.668; -128.900;-1060.000; -985.000
238.811;  -90.000; -638.000; -643.000
238.954;  -61.300; -483.000; -334.000
239.097;  110.175;  617.000;  664.000
239.241;   32.800;  394.000;  326.000
239.384;  -31.800; -254.000; -214.000
239.527;  -40.325; -424.000; -224.000
239.670; -135.175; -994.000;-1091.000
239.813;  -99.725; -696.000; -658.000
239.956;   68.100;  579.000;  473.000
240.099; -103.250; -778.000; -725.000
240.242;   49.775;  428.000;  432.000
240.385;   38.600;  466.000;  450.000
240.528;  -67.450; -706.000; -473.000
240.671;   17.875;  189.000;  134.000
240.814;  -44.425; -441.000; -158.000
240.957;  -91.625; -767.000; -578.000
241.100;  -97.375; -779.000; -755.000
241.243; -142.950;-1234.000; -893.000
241.386;  -66.025; -508.000; -379.000
241.529;  -80.925; -735.000; -547.000
241.672;  -60.475; -566.000; -495.000
241.815; -107.575; -832.000; -808.000
241.958;   -4.625; -125.000; -182.000
242.101;  -72.100; -545.000; -390.000
242.244;  -44.025; -270.000; -325.000
242.387;  -42.300; -304.000; -246.000
242.530;   46.600;  470.000;  134.000
242.673;  -32.850; -381.000; -309.000
242.815; -113.525; -925.000; -899.000
242.958;  -62.425; -482.000; -381.000
243.101;   21.075;  132.000;  187.000
243.244;  -76.475; -564.000; -521.000
243.387;  -46.150; -313.000; -316.000
243.530;  -88.900; -657.000; -674.000
243.672;   -4.500;   43.000;  -92.000
243.815;  -52.900; -355.000; -283.000
243.958;  -11.025;   98.000;  -26.000
244.101;    1.625;   59.000;  -16.000
244.243;   -7.500;  -47.000;  101.000
244.386; -106.975; -761.000; -630.000
244.529;  -28.850; -132.000; -139.000
244.672; -153.150;-1154.000; -951.000
244.814;  -87.975; -621.000; -794.000
244.957;  -53.800; -380.000; -304.000
245.100;  -67.550; -489.000; -489.000
245.242;  -48.575; -387.000; -374.000
245.385;  -14.500;  -59.000;  -39.000
245.528; -118.225; -871.000; -705.000
245.670;   91.400;  612.000;  634.000
245.813;  -86.225; -599.000; -547.000
245.956;  -41.775; -324.000; -275.000
246.098;  -70.525; -508.000; -650.000
246.241;   13.775;  194.000;   48.000
246.383;  -14.100; -119.000;  -73.000
246.526;  -82.075; -454.000; -525.000
246.669;  -97.325; -889.000; -780.000
246.811;   17.975;  172.000;   -1.000
246.954;  -56.400; -512.000; -426.000
247.096;  -20.225;  -84.000;   -6.000
247.239;  -63.975; -482.000; -445.000
247.381;  -64.450; -647.000; -488.000
247.524;   94.750;  645.000;  679.000
247.666;  -11.425;   58.000;   11.000
247.809; -112.700; -887.000; -691.000
247.951;   -2.000;  -75.000;  138.000
248.094;   25.000;  432.000;  308.000
248.236; -149.550;-1262.000;-1238.000
248.378;   18.150; -356.000;  -81.000
248.521;  -16.850; -334.000; -337.000
248.663;  -39.425; -236.000; -267.000
248.806;  -16.175; -300.000; -266.000
248.948;  -87.475; -886.000; -763.000
249.090;  -44.650; -428.000; -398.000
249.233;  -36.025; -344.000; -381.000
249.375;  -69.950; -474.000; -451.000
249.518;  -18.275;  -83.000; -133.000
249.660;  -23.050; -103.000;    3.000
249.802; -156.550;-1303.000;-1189.000
249.945;  -69.125; -612.000; -540.000
250.087; -101.925; -834.000; -768.000
250.229;  -51.850; -362.000; -480.000
250.371;  -69.150; -494.000; -439.000
250.514;  -50.550; -310.000; -244.000
250.656;  -39.675;   69.000;  102.000
250.798; -110.600; -849.000; -800.000
250.940;  -65.600; -322.000; -322.000
251.083;  -23.250; -335.000; -111.000
251.225;   47.475;  338.000;  310.000
251.367;  -43.750; -274.000; -373.000
251.509;  -47.750; -265.000; -210.000
251.651;  -90.000; -731.000; -671.000
251.794;   54.225;  538.000;  632.000
251.936; -103.925; -821.000; -747.000
252.078;  -64.925; -540.000; -461.000
252.220;  -67.725; -645.000; -477.000
252.362;   96.350;  344.000;  462.000
252.504;  -54.475; -677.000; -584.000
252.646; -102.875; -875.000; -722.000
252.788;    2.775;   14.000; -128.000
252.931;  -14.500; -257.000; -253.000
253.073;  -46.150; -376.000; -317.000
253.215;    2.125;  141.000;  122.000
253.357;  -13.400;   82.000; -153.000
253.499;  -48.875; -374.000; -234.000
253.641;  -80.175; -749.000; -594.000
253.783;  -85.225; -609.000; -527.000
253.925;  -76.000; -586.000; -591.000
254.067; -109.350; -744.000; -667.000
254.209;  -32.975; -391.000; -259.000
254.351; -121.125; -865.000; -883.000
254.493;  -60.500; -441.000; -417.000
254.635; -113.850; -936.000; -818.000
254.777;  -98.275; -752.000; -687.000
254.918;  -63.775; -512.000; -430.000
255.060;  -54.925; -551.000; -395.000
255.202;  -52.475; -473.000; -261.000
255.344;  -80.550; -658.000; -455.000
255.486;  -63.325; -471.000; -406.000
255.628;  -98.050; -780.000; -781.000
255.770;  -79.950; -676.000; -536.000
255.912;  -69.375; -559.000; -468.000
256.053;  -78.675; -730.000; -508.000
256.195;  160.575; 1008.000;  903.000
256.337;  -93.200; -861.000; -595.000
256.479;   54.050;  532.000;  416.000
256.621;  -51.025; -394.000; -212.000
256.762;  -85.800; -789.000; -742.000
256.904;   61.025;  485.000;  487.000
257.046;  -36.325; -381.000; -271.000
257.188;  -31.425; -351.000; -264.000
257.329;  -69.250; -525.000; -464.000
257.471; -108.025; -939.000; -807.000
257.613;  -62.850; -584.000; -498.000
257.755; -133.575;-1073.000; -982.000
257.896;   30.300;  286.000;  392.000
258.038;  -59.575; -403.000; -352.000
258.180;  -56.125; -354.000; -279.000
258.321;  -79.350; -581.000; -457.000
258.463;   -4.675;  -71.000;  133.000
258.605;  -70.650; -562.000; -570.000
258.746;  -95.975; -886.000; -772.000
258.888; -135.600;-1026.000;-1020.000
259.029;   11.050;  121.000;   -8.000
259.171;  -69.325; -614.000; -550.000
259.313;  -11.275;  -49.000;  -47.000
259.454;  -71.325; -536.000; -414.000
259.596;  -60.525; -483.000; -390.000
259.737;  -74.500; -590.000; -474.000
259.879;   39.800;  217.000;  311.000
260.020;   98.525;  901.000;  636.000
260.162;  -23.100; -146.000; -253.000
260.303; -102.475; -768.000; -687.000
260.445;  -84.125; -609.000; -613.000
260.586;   32.150;  392.000;  157.000
260.728;  -42.225; -360.000; -248.000
260.869;  -49.375; -350.000; -343.000
261.011;   78.375;  706.000;  537.000
261.152;  -43.175; -479.000; -319.000
261.293;  -83.900; -576.000; -595.000
261.435;  -28.000; -219.000; -184.000
261.576;  -52.500; -455.000; -325.000
261.718;   37.525;  420.000;  470.000
261.859; -117.525; -940.000; -949.000
262.000; -109.875; -951.000;-1016.000
262.142;  -28.850;  -52.000;  -60.000
262.283;  -99.200; -808.000; -691.000
262.424;  -90.125; -666.000; -625.000
262.566; -141.875;-1161.000; -983.000
262.707; -101.500; -840.000; -830.000
262.848; -105.325; -769.000; -726.000
262.990;  -53.775; -362.000; -345.000
263.131;   78.600;  650.000;  681.000
263.272;   -4.350;  -61.000;  -41.000
263.413;  -86.275; -589.000; -561.000
263.555;  -70.100; -669.000; -143.000
263.696;  -68.350; -550.000; -641.000
263.837;  -57.950; -449.000; -551.000
263.978;   -2.750;   -5.000;  -77.000
264.119;  -56.525; -283.000; -264.000
264.261;  -98.900; -847.000; -630.000
264.402;  -12.775;   33.000;   40.000
264.543;  -63.275; -509.000; -524.000
264.684;  -16.225;   61.000;  -50.000
264.825;  -66.425; -816.000; -538.000
264.966;   -2.425;  -84.000;  -67.000
265.107;  -94.575; -646.000; -670.000
265.248; -108.675; -825.000; -812.000
265.390;    1.075;  152.000;   -9.000
265.531;  -18.400; -238.000; -107.000
265.672;  -71.275; -557.000; -630.000
265.813;   58.900;  563.000;  439.000
265.954; -131.600; -959.000; -940.000
266.095;  -12.700; -372.000; -322.000
266.236;  -92.850; -686.000; -548.000
266.377;  -35.675; -243.000; -297.000
266.518;  -55.000; -619.000; -547.000
266.659;   38.650;  170.000;  268.000
266.800;   10.600;   83.000;   85.000
266.941;  -75.075; -487.000; -478.000
267.082;   14.150;  354.000;   99.000
267.223;  -54.375; -344.000; -273.000
267.364; -112.000; -892.000; -686.000
267.504;  -22.425;    3.000;  135.000
267.645;   -3.300;  160.000;   67.000
267.786;  -37.675; -147.000;  -86.000
267.927;  -58.600; -473.000; -379.000
268.068;  -22.650; -186.000;  -61.000
268.209;  -42.900; -175.000; -413.000
268.350;  -62.250; -388.000; -532.000
268.490;  -77.650; -648.000; -521.000
268.631;   39.575;  127.000;  225.000
268.772;  -98.800; -874.000; -647.000
268.913;  -42.575; -328.000; -476.000
269.054;   -6.100; -117.000;   12.000
269.194;  -45.575; -418.000; -402.000
269.335; -153.650;-1137.000;-1074.000
269.476;  -14.925;   33.000;  -35.000
269.617;  -52.550; -347.000; -392.000
269.757;  -85.250; -713.000; -646.000
269.898;  -92.525; -856.000; -613.000
270.039;  -66.975; -415.000; -405.000
270.180; -127.750; -952.000; -816.000
270.320;  -25.625; -190.000; -250.000
270.461;  -31.825; -277.000; -249.000
270.602;   -9.175; -186.000; -156.000
270.742; -118.225; -868.000; -943.000
270.883;  -44.025; -442.000; -390.000
271.023;  -55.725; -358.000; -357.000
271.164;  -73.000; -607.000; -528.000
271.305;  -84.875; -666.000; -654.000
271.445;  -91.400; -722.000; -683.000
271.586;  -43.600; -462.000; -283.000
271.726;  -56.925; -397.000; -322.000
271.867;  -37.100; -594.000; -534.000
272.008;  219.175; -473.000; -285.000
272.148;  153.025;  462.000;  468.000
272.289;    8.225; -113.000; -181.000
272.429;   25.225;   19.000;  185.000
272.570;  -91.025; -633.000; -737.000
272.710;  -86.575; -825.000; -775.000
272.851;   -7.350;  113.000; -130.000
272.991; -145.550;-1173.000;-1077.000
273.131;  -65.725; -419.000; -459.000
273.272;  -90.050; -683.000; -723.000
273.412;   21.250; -143.000;  -31.000
273.553;  -37.050; -488.000; -507.000
273.693;  129.825;  913.000;  858.000
273.834;  -73.500; -894.000; -692.000
273.974;  -63.000; -664.000; -615.000
274.114;  -85.350; -772.000; -560.000
274.255;   83.025;  414.000;  373.000
274.395;   12.150; -180.000; -125.000
274.535;   37.525;  199.000;  350.000
274.676;   31.450;  225.000;   94.000
274.816;    9.650;  110.000;   34.000
274.956;  -82.800; -624.000; -690.000
275.097;  -54.625;-1014.000; -922.000
275.237;  -91.250; -913.000; -803.000
275.377;  -99.925; -778.000; -689.000
275.517; -133.850; -878.000; -937.000
275.658;  -58.500; -590.000; -555.000
275.798;  -66.050; -606.000; -413.000
275.938;   34.375;  215.000;  323.000
276.078;  -74.875; -626.000; -395.000
276.218;    9.750;   99.000;  104.000
276.359; -101.150;-1026.000;-1024.000
276.499;  -55.450; -605.000; -446.000
276.639;  -16.825; -305.000; -151.000
276.779;  -53.825; -475.000; -357.000
276.919;  -84.850; -783.000; -624.000
277.059;  -20.050; -261.000; -212.000
277.199;  -36.275; -357.000; -259.000
277.340;   54.425;  287.000;  175.000
277.480;  -97.100; -840.000; -693.000
277.620;   26.725;  192.000;   16.000
277.760; -182.825;-1533.000;-1294.000
277.900;   22.600;  113.000;   33.000
278.040;   28.225;  137.000;  159.000
278.180;   36.875;  270.000;  170.000
278.320;  -10.300;   21.000;   56.000
278.460;  -67.025; -443.000; -469.000
278.600;  -81.925; -708.000; -598.000
278.740;   49.300;  448.000;  224.000
278.880;  -21.125; -768.000; -791.000
279.020;   11.775; -194.000; -144.000
279.160;  -80.725; -672.000; -595.000
279.300; -122.000; -926.000; -873.000
279.440;  -69.225; -709.000; -622.000
279.579;   -6.575;-1014.000; -929.000
279.719;  -37.275; -410.000; -394.000
279.859;   77.475;   -4.000;   41.000
279.999;   49.700; -208.000;  101.000
280.139;   -4.875; -435.000; -387.000
280.279;  -62.800; -708.000; -745.000
280.419;   -9.625; -229.000; -147.000
280.559;  -30.100; -259.000; -180.000
280.698;  -69.000; -790.000; -639.000
280.838;  -91.000; -778.000; -800.000
280.978;  -93.300; -846.000; -790.000
281.118;  -97.950; -811.000; -704.000
281.257;   17.500;   24.000;    6.000
281.397;  -84.700;-1094.000; -960.000
281.537;  -79.700; -599.000; -712.000
281.677;  -14.750; -150.000; -101.000
281.816;  -85.950; -700.000; -630.000
281.956;  -29.000; -193.000; -257.000
282.096;  -58.350; -539.000; -396.000
282.235;  -93.625; -672.000; -638.000
282.375;  -20.425; -243.000;  -98.000
282.515;  -94.700; -715.000; -707.000
282.654;   27.550;   29.000;  106.000
282.794;   37.775;  388.000;  244.000
282.934;  -48.550; -530.000; -491.000
283.073; -110.975;-1030.000; -857.000
283.213;  -59.350; -460.000; -467.000
283.353;  -12.125; -408.000; -349.000
283.492;  -24.375; -264.000; -296.000
283.632;  -37.525; -254.000; -168.000
283.771;  -86.450; -859.000; -730.000
283.911;  -44.975; -369.000; -260.000
284.050; -112.400; -794.000; -748.000
284.190; -144.700;-1229.000;-1096.000
284.329; -148.800;-1055.000; -964.000
284.469;  -32.350; -516.000; -591.000
284.608;  -39.450; -559.000; -598.000
284.748;  -65.900; -614.000; -570.000
284.887;   -9.450;  -87.000;  -20.000
285.027; -101.750; -844.000; -892.000
285.166;  -34.050; -192.000; -249.000
285.306;   21.375; -116.000;  -33.000
285.445;  -34.175; -229.000; -343.000
285.584;  -89.800; -630.000; -494.000
285.724;  -31.675; -282.000; -322.000
285.863;  -99.900; -857.000; -507.000
286.002;  -37.600; -366.000; -276.000
286.142;  -98.125; -715.000; -622.000
286.281;  -55.275; -525.000; -493.000
286.420;  -70.675; -554.000; -417.000
286.560;  102.900;  653.000;  623.000
286.699; -119.875; -958.000; -912.000
286.838;  -71.975; -590.000; -591.000
286.978;  -78.000; -533.000; -537.000
287.117; -124.625;-1085.000; -950.000
287.256;  -23.100; -228.000; -211.000
287.395;  -47.725; -197.000; -378.000
287.535;  -41.500; -370.000; -298.000
287.674;  -79.100; -509.000; -484.000
287.813;   55.250;  661.000;  533.000
287.952; -122.650;-1010.000; -871.000
288.091; -139.500;-1049.000; -915.000
288.231;   20.350;   13.000;   15.000
288.370; -155.275;-1217.000;-1200.000
288.509;  -89.975; -728.000; -645.000
288.648;  -80.050; -770.000; -548.000
288.787;  -46.300; -243.000;  -87.000
288.926;  -69.075; -454.000; -475.000
289.065;  113.300;  859.000;  672.000
289.204;  -39.000; -377.000; -217.000
289.344;  -82.525; -791.000; -690.000
289.483;   26.075;  416.000;  304.000
289.622;  -20.825; -291.000; -149.000
289.761;   -4.400; -309.000; -166.000
289.900; -111.850; -785.000; -626.000
290.039;  -15.550;  -12.000;  -95.000
290.178;  -28.200; -274.000; -180.000
290.317;  -72.775; -618.000; -479.000
290.456;  -58.725; -463.000; -451.000
290.595; -110.075; -961.000; -833.000
290.734; -126.700; -904.000; -891.000
290.873;  -60.525; -456.000; -420.000
291.011; -102.300; -833.000; -843.000
291.150;  -92.450; -770.000; -682.000
291.289;  -17.850; -343.000; -110.000
291.428;  -74.225; -599.000; -480.000
291.567;  -58.475; -370.000; -442.000
291.706;    3.550;  109.000;  154.000
291.845;  -85.025; -597.000; -505.000
291.984; -142.850;-1234.000;-1061.000
292.122;   81.550;  602.000;  582.000
292.261;   58.200;  620.000;  463.000
292.400;   13.300; -144.000;  211.000
292.539; -114.575; -959.000; -813.000
292.678;  -31.425; -325.000; -300.000
292.816; -148.325;-1136.000; -965.000
292.955;  -79.725; -844.000; -684.000
293.094;  -12.175; -173.000; -337.000
293.233;  -45.750; -556.000; -400.000
293.371;  -22.375; -225.000;  -84.000
293.510; -110.175; -866.000; -780.000
293.649; -116.175; -959.000; -924.000
293.787;  -43.175;-1083.000;-1012.000
293.926;   14.750; -113.000;  -32.000
294.065;  -42.275; -379.000; -290.000
294.203;   52.300;  298.000;  406.000
294.342;   38.175;   74.000;  156.000
294.481; 5822.525;51180.000; -836.000
294.619;  -19.275; -425.000; -582.000
294.758; -130.750;-1230.000;-1137.000
294.896;   90.900; -125.000;    5.000
295.035; -109.725;-1040.000;-1006.000
295.174; -103.650;-1082.000; -954.000
295.312;  -38.925; -323.000; -203.000
295.451;    7.250; -307.000; -428.000
295.589;  -39.275; -389.000; -518.000
295.728;   26.075; -292.000; -165.000
295.866;   16.325;  -36.000;  -51.000
296.005;  -54.250; -584.000; -341.000
296.143;  -35.000; -558.000; -596.000
296.282;  -97.875; -957.000; -881.000
296.420;  -84.100; -657.000; -557.000
296.559;  -70.650; -892.000; -633.000
296.697;   78.325; -847.000; -665.000
296.835;  135.850;-1141.000;-1002.000
296.974;   69.625;  -23.000;   39.000
297.112;   36.750; -443.000; -504.000
297.251;  -58.225; -815.000; -755.000
297.389;  131.075; -576.000; -438.000
297.527;   68.400; -145.000;  -83.000
297.666;  -54.875; -486.000; -438.000
297.804;  -39.625; -404.000; -264.000
297.942;   -5.125; -136.000; -161.000
298.081;   13.150; -183.000;   63.000
298.219;   99.400;  -17.000;  -19.000
298.357;   73.575; -144.000;  -71.000
298.495;   69.275; -810.000; -812.000
298.634;  103.825;  245.000;  219.000
298.772;   89.000; -220.000; -338.000
298.910;  -15.575; -309.000; -182.000
299.048;   -7.725; -130.000; -153.000
299.187;  -26.675; -350.000; -250.000
299.325;   27.000;   52.000;  122.000
299.463;  101.200; -389.000; -299.000
299.601;  140.000; -327.000; -271.000
299.739;  -81.350; -908.000; -883.000
299.877;  -76.950; -791.000; -703.000
300.016;   -3.225;-1095.000; -935.000
300.154;  207.825;  -19.000; -161.000
300.292;   95.775; -428.000; -348.000
300.430;   59.000; -408.000; -291.000
300.568;  -85.800; -940.000; -874.000
300.706;  -40.800; -366.000; -469.000
300.844;  -36.200;-1108.000; -979.000
300.982;  118.775;  246.000;  282.000
301.120;  -74.125; -965.000; -866.000
301.258;  -56.125; -812.000; -705.000
301.396;   56.000;  104.000;  -41.000
301.534;  125.875; -218.000; -293.000
301.672;   37.325; -664.000; -521.000
301.810;   75.325; -613.000; -545.000
301.948;  145.400;   53.000;  149.000
302.086;  797.500; -250.000;  -32.000
302.224; 1156.925; -610.000; -585.000
302.362;   75.575; -558.000; -622.000
302.500;   24.425; -923.000; -893.000
302.638;  129.425;  128.000;  245.000
302.776;   24.200; -352.000; -408.000
302.913;   37.100;  447.000;  236.000
303.051;   21.175;  -86.000;  -23.000
303.189;   75.225;   90.000;  118.000
303.327;  -25.675; -341.000; -256.000
303.465;  -59.575; -832.000; -588.000
303.603;  -75.875; -805.000; -604.000
303.740;  132.625;  417.000;  241.000
303.878;   70.650; -800.000; -759.000
304.016;  -75.525; -915.000; -790.000
304.154;  -85.125;-1123.000;-1152.000
304.291;  -25.775; -505.000; -554.000
304.429;   15.525;  102.000;   74.000
304.567; -116.300; -908.000; -893.000
304.705;  -57.550; -408.000; -515.000
304.842;  137.525; -616.000; -540.000
304.980;   66.775;  215.000;   35.000
305.118;   73.725; -367.000; -365.000
305.255;  -40.800; -945.000; -927.000
305.393;   67.725;  178.000;  239.000
305.531;  -77.125;-1173.000; -956.000
305.668;  -49.800; -663.000; -582.000
305.806;  136.475; -358.000; -439.000
305.943;  144.225; -629.000; -637.000
306.081;   90.600; -378.000; -267.000
306.219;  -96.025; -863.000; -748.000
306.356;   -1.225;  158.000;   27.000
306.494;  111.400;  981.000;  761.000
306.631;   11.100;  -11.000;  -55.000
306.769;   25.550; -613.000; -485.000
306.906;   -1.075; -284.000; -258.000
307.044;  -58.700; -473.000; -488.000
307.181;  -44.400; -410.000; -332.000
307.319;    9.075;  112.000;   87.000
307.456; -137.850;-1191.000;-1153.000
307.594;  -76.575; -980.000; -727.000
307.731;   19.725; -371.000; -164.000
307.868;   12.000;  -15.000;   20.000
308.006; -111.275; -961.000; -847.000
308.143;  -63.125; -618.000; -330.000
308.281;  246.125;  -37.000; -254.000
308.418;   28.850; -748.000; -640.000
308.555;  -54.150; -400.000; -250.000
308.693;  -65.650; -577.000; -573.000
308.830;  -99.650; -712.000; -657.000
308.967;  -12.500; -215.000;  -95.000
309.105;  -31.600; -507.000; -396.000
309.242;   64.900; -468.000; -367.000
309.379;  467.900; -577.000; -655.000
309.517;  -41.200; -936.000; -948.000
309.654;  -93.425; -910.000; -734.000
309.791;  -60.325; -662.000; -580.000
309.928;  -96.125; -977.000; -914.000
310.065;  206.150;  819.000;  697.000
310.203;   36.650; -825.000; -850.000
310.340;   17.050; -465.000; -321.000
310.477;  -72.400; -412.000; -516.000
310.614;  -57.075; -383.000; -473.000
310.751;  -67.150; -427.000; -518.000
310.889;  -10.000;    1.000;   11.000
311.026; -131.650;-1161.000; -939.000
311.163;  -38.500; -386.000; -380.000
311.300;  -62.025; -512.000; -479.000
311.437;  -62.975; -658.000; -619.000
311.574; -136.675;-1226.000; -985.000
311.711;  -51.825; -595.000; -433.000
311.848;  -34.950; -380.000; -388.000
311.985;   29.100;  270.000;   93.000
312.122; -105.250; -932.000; -762.000
312.259; -115.600; -941.000; -994.000
312.396;  -71.800; -508.000; -551.000
312.533;  -81.900; -812.000; -790.000
312.670; -111.825;-1070.000; -898.000
312.807;  -23.875; -352.000; -367.000
312.944;  -62.575; -513.000; -611.000
313.081;  -37.375; -150.000; -415.000
313.218;  -89.525;-1111.000; -867.000
313.355;   17.575; -531.000; -449.000
313.492;   34.350; -455.000; -292.000
313.629;  146.325;  815.000;  735.000
313.766; -140.850;-1176.000;-1008.000
313.902;  -19.150; -186.000;   21.000
314.039;  -34.525; -372.000; -289.000
314.176;   28.700;  286.000;  192.000
314.313;  -63.375; -569.000; -473.000
314.450;  -70.075; -788.000; -684.000
314.587;  -33.825; -468.000; -480.000
314.723;   -3.650;  -78.000;  130.000
314.860;   39.575;  318.000;  332.000
314.997;   31.675;  223.000;  142.000
315.134;  -30.125; -385.000; -368.000
315.270;  -17.050; -480.000; -496.000
315.407; -107.150;-1094.000; -967.000
315.544;  -45.400; -657.000; -538.000
315.681;  -45.075; -681.000; -565.000
315.817;   57.325; -133.000; -176.000
315.954;   47.625; -613.000; -392.000
316.091; -110.100;-1045.000;-1023.000
316.227;  -12.500;  -71.000; -179.000
316.364;   -5.350;   23.000;    6.000
316.500;  -41.625; -113.000; -300.000
316.637;  -28.900; -181.000; -302.000
316.774;  -75.275; -625.000; -358.000
316.910;  -78.300; -598.000; -629.000
317.047;  -48.400; -487.000; -351.000
317.183;  -35.750; -435.000; -566.000
317.320;  -11.675; -367.000; -321.000
317.456;  -62.950; -733.000; -805.000
317.593;  -66.975; -598.000; -641.000
317.729;   14.525;  168.000;  -67.000
317.866; -196.100;-1434.000;-1285.000
318.002;  -90.100; -708.000; -948.000
318.139;  -58.975; -883.000; -867.000
318.275;  -96.675;-1003.000; -738.000
318.412;  -62.775; -517.000; -336.000
318.548;   -2.325; -751.000; -720.000
318.685;  -73.375; -985.000; -888.000
318.821;  -75.325; -762.000; -735.000
318.957;   -8.975;   34.000;  -23.000
319.094;   57.175;  297.000;  154.000
319.230;  -22.625; -756.000; -742.000
319.367;  187.275; -471.000; -520.000
319.503;   99.725; -538.000; -436.000
319.639;  -73.100; -877.000; -793.000
319.775;  -34.475; -750.000; -685.000
319.912;  -42.375; -424.000; -519.000
320.048;  -63.000;-1184.000;-1184.000
320.184;   72.675;   59.000;   70.000
320.321;  -46.575; -497.000; -467.000
320.457;   52.850;  475.000;  662.000
320.593;  -56.975; -375.000; -382.000
320.729;  -98.750; -732.000; -734.000
320.866;  -73.450; -577.000; -635.000
321.002;  -53.075; -759.000; -809.000
321.138;    4.250; -135.000; -211.000
321.274;   80.525; -148.000; -115.000
321.410;   -1.675; -585.000; -353.000
321.546;   -0.050;-1011.000; -911.000
321.683;   56.750;  400.000;  185.000
321.819;   21.650;  -48.000; -117.000
321.955;  -74.750; -743.000; -722.000
322.091;  -43.650; -585.000; -540.000
322.227;    0.850; -382.000; -202.000
322.363;   -9.700; -320.000; -215.000
322.499;  -29.600; -343.000; -331.000
322.635;  185.525;  636.000;  443.000
322.771;   42.550; -139.000;   12.000
322.907;  105.200;  129.000;  327.000
323.043;    1.500; -115.000; -206.000
323.179;   -8.900; -394.000; -363.000
323.315;   51.400; -401.000; -371.000
323.451;  150.600; -328.000; -236.000
323.587;   77.050;  -60.000;  -77.000
323.723;   57.225; -682.000; -601.000
323.859;   -6.500; -258.000;  -76.000
323.995;  -21.700; -467.000; -409.000
324.131; -105.400; -967.000; -892.000
324.267;  -34.225; -254.000; -276.000
324.402; -116.300; -960.000; -983.000
324.538;    2.700; -279.000; -104.000
324.674;   42.225;  164.000;   77.000
324.810;  180.925;  226.000;  308.000
324.946;   43.500; -810.000; -658.000
325.082;  -62.800; -568.000; -475.000
325.217;   -2.850;  -62.000;   16.000
325.353;  -93.700; -764.000; -659.000
325.489;  -76.700; -540.000; -506.000
325.625;  -76.425; -579.000; -525.000
325.760;   66.250;  517.000;  376.000
325.896;  -32.750; -515.000; -702.000
326.032;  -34.425; -403.000; -352.000
326.168;  -54.100; -462.000; -369.000
326.303;  -42.900; -352.000; -461.000
326.439;   -8.500; -336.000; -276.000
326.575;   12.800; -190.000;  -29.000
326.710;    2.675; -156.000;  -30.000
326.846;   -3.350;  146.000;  103.000
326.982;  -88.650; -530.000; -548.000
327.117;  -58.925; -481.000; -442.000
327.253;  -93.925; -745.000; -742.000
327.388;  -95.050;-1137.000;-1153.000
327.524;  -18.700; -811.000; -578.000
327.659;  -11.650;  -58.000;  -22.000
327.795;  -12.875;   69.000;   45.000
327.931;  -65.200; -723.000; -499.000
328.066;  -19.375; -417.000; -276.000
328.202;   10.325;   12.000; -129.000
328.337;  105.450;  957.000;  713.000
328.473;   43.650;  -12.000;  -74.000
328.608;  -20.425; -256.000; -267.000
328.743;  -65.850; -799.000; -664.000
328.879;   37.150;  214.000;  114.000
329.014;  -23.750; -102.000; -122.000
329.150;  -78.850; -358.000; -483.000
329.285;  -72.100; -465.000; -466.000
329.421;  -56.025; -548.000; -246.000
329.556;  -16.700;  -36.000;   85.000
329.691;  -98.825; -633.000; -615.000
329.827;  -65.850; -626.000; -480.000
329.962;  -34.100;  131.000; -301.000
330.097;  -75.250; -673.000; -585.000
330.233;  -43.675; -410.000; -223.000
330.368; -115.050; -839.000; -628.000
330.503;  -12.075;    3.000;   98.000
330.638;    9.525;  -93.000; -125.000
330.774;  -41.075; -609.000; -530.000
330.909;  -25.500; -434.000; -244.000
331.044; -101.375; -714.000; -708.000
331.179; -163.250;-1217.000;-1109.000
331.315;    7.700;   77.000;   20.000
331.450;   18.375;  157.000;  285.000
331.585;  -71.550; -805.000; -706.000
331.720;  -74.550; -510.000; -460.000
331.855;   -7.400;  -35.000; -102.000
331.990;  224.975;   62.000;  138.000
332.126;  128.100; -110.000;   71.000
332.261;   -7.700; -379.000; -265.000
332.396;  -14.125; -135.000; -242.000
332.531; -101.700;-1074.000;-1031.000
332.666;   25.375; -519.000; -363.000
332.801;  -91.675; -726.000; -807.000
332.936;  -15.050; -192.000; -122.000
333.071; -139.025; -870.000; -817.000
333.206;   22.175;  307.000;  379.000
333.341;   30.450;  344.000;  418.000
333.476;  -76.025; -627.000; -623.000
333.611;  -27.600; -251.000; -173.000
333.746;  -36.425; -381.000; -464.000
333.881; -102.925; -973.000; -935.000
334.016; -125.400; -936.000; -917.000
334.151; -114.425; -746.000; -702.000
334.286;   36.600;  152.000;  186.000
334.421;    3.300; -125.000; -178.000
334.556;  -62.950; -611.000; -567.000
334.690;  -71.300; -631.000; -577.000
334.825;   49.475;  381.000;   83.000
334.960;  -39.025; -285.000; -413.000
335.095;    8.450;  135.000;  -91.000
335.230;  -80.600; -722.000; -738.000
335.365; -125.500;-1084.000; -990.000
335.499; -105.100;-1108.000;-1037.000
335.634;   40.825;    9.000;  534.000
335.769;  -70.350; -755.000; -720.000
335.904;  -40.200; -603.000; -561.000
336.038;  -45.650; -735.000; -657.000
336.173;  -88.950;-1206.000;-1194.000
336.308;   10.500; -116.000; -189.000
336.443;   29.250; -544.000; -634.000
336.577;  -50.125; -936.000; -787.000
336.712;   83.825;   -4.000;  -12.000
336.847;   -9.600; -724.000; -607.000
336.981;   98.750; -272.000; -208.000
337.116;  326.950;  615.000;  501.000
337.250;  203.575; -434.000; -421.000
337.385;  228.650; -297.000; -208.000
337.520;   75.775; -632.000; -603.000
337.654;  -31.800; -215.000; -126.000
337.789; -127.775; -989.000; -933.000
337.923;  -29.775; -104.000; -205.000
338.058;  -79.950; -673.000; -738.000
338.192;  -14.175; -611.000; -488.000
338.327;    0.575;  -18.000; -155.000
338.461;  -45.900; -299.000; -469.000
338.596;  -88.275; -780.000; -638.000
338.730;  -88.650; -767.000; -803.000
338.865;   80.900;  -46.000; -140.000
338.999;  -37.675; -846.000; -702.000
339.134;  -26.150; -634.000; -536.000
339.268;   48.850; -741.000; -603.000
339.403;  347.300; -740.000; -775.000
339.537;   96.175; -894.000; -820.000
339.671; -111.425; -829.000; -813.000
339.806;  -52.100; -556.000; -512.000
339.940;    4.325; -261.000; -235.000
340.074;  -95.125; -685.000; -510.000
340.209;  -49.525; -351.000; -230.000
340.343;  -80.800; -517.000; -573.000
340.477;  139.425;  998.000; 1036.000
340.612;  -40.825;-1033.000; -900.000
340.746;  123.175; -199.000; -243.000
340.880;  -51.350; -924.000; -785.000
341.014;  -11.750;  -45.000; -154.000
341.149; -108.150; -756.000; -718.000
341.283; -103.600; -839.000; -754.000
341.417;  -63.650;-1124.000; -938.000
341.551;  198.300; -768.000; -708.000
341.685;   -3.275; -633.000; -611.000
341.820;  -49.600; -562.000; -493.000
341.954;  -29.950; -218.000; -349.000
342.088; -144.550;-1102.000;-1019.000
342.222;   60.900;  565.000;  618.000
342.356;  -53.825; -395.000; -335.000
342.490;  -77.325; -880.000; -841.000
342.624;  -47.025; -339.000; -242.000
342.758;   22.700; -364.000; -312.000
342.892;  -42.450; -710.000; -585.000
343.026;  -22.300;  -58.000; -116.000
343.160;  -50.325; -426.000; -376.000
343.294;  -69.125; -474.000; -337.000
343.428;    7.650; -488.000; -448.000
343.562;   -6.500; -172.000;  -23.000
343.696;  -18.025; -385.000; -314.000
343.830;   11.325; -362.000; -356.000
343.964;   42.075; -231.000; -168.000
344.098; 1166.725;  199.000;   70.000
344.232;  937.700; -266.000; -127.000
344.366;  128.100; -567.000; -453.000
344.500;  108.100; -665.000; -744.000
344.634;   67.125; -324.000; -164.000
344.768;   10.750; -531.000; -341.000
344.902;   32.700;  278.000;  256.000
345.035;  -60.275; -556.000; -496.000
345.169; -118.500; -933.000; -656.000
345.303;  -10.125; -308.000; -482.000
345.437;  -46.225; -826.000; -717.000
345.571;  -59.925; -675.000; -594.000
345.704;  -59.775; -309.000; -532.000
345.838;   -5.325; -331.000; -284.000
345.972;  -18.125; -543.000; -495.000
346.106;  150.925; -179.000; -190.000
346.239;  460.075; -312.000; -243.000
346.373;   26.200; -343.000; -302.000
346.507; -125.675; -950.000; -962.000
346.640;  178.100;  -30.000;   13.000
346.774;  -12.625; -650.000; -797.000
346.908;  -16.825; -138.000;  -11.000
347.041;  -92.950; -646.000; -593.000
347.175;   24.975;  259.000;   27.000
347.309;  -60.425; -698.000; -628.000
347.442;  -76.825; -883.000; -732.000
347.576;  314.625;  670.000;  668.000
347.709;  252.950; -123.000;  -52.000
347.843;  -74.700; -933.000; -825.000
347.976;   25.200;  235.000;  294.000
348.110; -157.050;-1268.000;-1186.000
348.243;  -93.225; -679.000; -772.000
348.377;    4.100;  -26.000;   60.000
348.510;   63.575;  403.000;  540.000
348.644;   -9.750;  -37.000; -159.000
348.777;   -5.150;  180.000;  191.000
348.911;  -49.550; -142.000; -112.000
349.044;  204.750;  471.000;  448.000
349.178;  239.400;-1069.000;-1006.000
349.311;  141.525;  141.000;  255.000
349.444;    3.250; -927.000; -813.000
349.578;   -8.875; -347.000; -200.000
349.711;  -62.275; -959.000; -862.000
349.845;   28.700; -661.000; -591.000
349.978; -120.750;-1224.000;-1137.000
350.111;  -76.400; -546.000; -612.000
350.244;  -62.750; -596.000; -700.000
350.378;   23.375; -392.000; -393.000
350.511;  -61.450; -393.000; -426.000
350.644;  -99.225; -808.000; -806.000
350.778;   19.425;  168.000;  104.000
350.911;    4.975;  134.000;  140.000
351.044;  -70.300; -685.000; -615.000
351.177;  -14.975; -321.000; -281.000
351.310;  -24.450;    3.000; -131.000
351.444;  -65.925; -888.000; -788.000
351.577;  155.575;  140.000;   90.000
351.710;  102.850;  593.000;  417.000
351.843;  -17.975; -165.000;  -77.000
351.976;   15.400;  149.000;  -79.000
352.109;  -77.500; -621.000; -612.000
352.242;   -1.025; -464.000; -419.000
352.376;  -32.300; -580.000; -636.000
352.509;  260.775; -437.000; -356.000
352.642;   76.100; -654.000; -604.000
352.775;   93.100; -141.000;  -98.000
352.908;  -87.225; -933.000; -904.000
353.041;  -99.575; -814.000; -824.000
353.174;  -48.250; -551.000; -424.000
353.307;  -73.925; -753.000; -764.000
353.440;   87.200;  541.000;  453.000
353.573;  -99.625; -957.000;-1008.000
353.706;   -4.950; -384.000; -558.000
353.839;    1.325; -264.000; -220.000
353.971;  -66.725; -657.000; -512.000
354.104;  -71.350; -896.000; -835.000
354.237;   -5.275; -627.000; -662.000
354.370;  -80.025; -846.000; -879.000
354.503; -159.100;-1231.000;-1308.000
354.636;  -25.450; -529.000; -348.000
354.769; -109.650; -937.000; -860.000
354.902;    8.175; -230.000; -139.000
355.034;  -13.200; -164.000; -220.000
355.167;  -17.750; -262.000; -162.000
355.300;  -81.700;-1061.000; -880.000
355.433;  905.325;  -71.000;  -14.000
355.565; 1432.725; -402.000; -384.000
355.698;  357.850; -356.000; -296.000
355.831;   35.750; -882.000; -801.000
355.964;  120.075; -285.000; -170.000
356.096;  -61.400; -856.000; -843.000
356.229;   33.500; -523.000; -530.000
356.362;  296.775; -373.000; -266.000
356.494;  554.825; -229.000; -162.000
356.627;  562.225;  269.000;  377.000
356.760;  652.675;  120.000;   53.000
356.892;  881.200; -286.000; -601.000
357.025;  789.550;  403.000;  389.000
357.157;  769.150; -167.000; -179.000
357.290;  591.150; -856.000; -713.000
357.423;  195.450; -667.000; -556.000
357.555;  157.825; -217.000; -228.000
357.688;  172.975; -483.000; -364.000
357.820;  558.375; -870.000; -877.000
357.953; 4300.800; -563.000; -589.000
358.085; 1032.250; -632.000; -612.000
358.218; 1607.575;-1131.000; -932.000
358.350;  305.975;  -58.000;  312.000
358.483;  -86.275;-1300.000;-1187.000
358.615;   43.100;-1182.000;-1078.000
358.747;   -1.575;-1187.000;-1058.000
358.880;   76.950; -810.000; -744.000
359.012;   13.600; -376.000; -202.000
359.145;  -18.800; -480.000; -511.000
359.277;  105.250; -962.000; -913.000
359.409; 3534.775;  536.000;  231.000
359.542;  999.875; -738.000; -688.000
359.674;   99.900;   46.000;   13.000
359.806;  -51.675; -565.000; -438.000
359.939;  -43.875; -617.000; -516.000
360.071;    2.225; -583.000; -579.000
360.203;  -21.350; -411.000; -364.000
360.335;   81.300;  164.000;  -16.000
360.468;  232.125; -249.000; -307.000
360.600; 2746.625; -547.000; -454.000
360.732; 2600.725; -546.000; -423.000
360.864;  407.775;-1216.000;-1044.000
360.996;  406.025; -516.000; -554.000
361.129;   86.350; -389.000; -598.000
361.261;   41.175;  110.000; -113.000
361.393;   -8.125; -252.000; -214.000
361.525;   42.325;   94.000;  244.000
361.657;   -3.900; -821.000; -703.000
361.789;   24.375; -139.000; -155.000
361.921;  314.600; -642.000; -593.000
362.053;  312.425;  524.000;  541.000
362.185;   66.750;  288.000;   72.000
362.318;  -55.625; -709.000; -705.000
362.450;  179.925;  294.000;  444.000
362.582;  232.700; -913.000; -870.000
362.714;   -9.850; -353.000; -332.000
362.846;  -74.050; -606.000; -490.000
362.978; -128.175; -941.000; -811.000
363.109;   87.525; -161.000; -260.000
363.241;  602.025; -739.000; -749.000
363.373;  443.150; -649.000; -564.000
363.505;  610.925; -186.000;  -91.000
363.637;  159.325; -787.000; -601.000
363.769;  -98.850;-1067.000;-1080.000
363.901;  -58.700; -596.000; -654.000
364.033;  -87.075;-1103.000;-1062.000
364.165;   27.850; -283.000; -283.000
364.296;   85.000; -316.000; -177.000
364.428;   86.775;-1344.000;-1220.000
364.560;  -54.875; -679.000; -661.000
364.692;  -56.950; -738.000; -835.000
364.824;  391.425; -588.000; -456.000
364.955;  455.025; -402.000; -564.000
365.087;  793.775;-1097.000; -852.000
365.219;   17.675; -686.000; -816.000
365.351;  -32.900; -526.000; -572.000
365.482;   64.750;  300.000;  240.000
365.614;  -41.875; -402.000; -314.000
365.746;  -96.425; -729.000; -752.000
365.877;  -86.375; -706.000; -672.000
366.009;  234.775;  -35.000;  -62.000
366.141;  -74.275;-1249.000;-1134.000
366.272; -104.925; -803.000; -719.000
366.404; -100.450;-1005.000; -874.000
366.535;    1.300; -139.000;  -12.000
366.667;  -82.150; -644.000; -649.000
366.799;   35.775;  353.000;  203.000
366.930;  -94.200; -862.000; -996.000
367.062;  126.600; -639.000; -613.000
367.193;  141.000; -872.000; -842.000
367.325;  -52.300; -580.000; -684.000
367.456;  117.475; -246.000;   31.000
367.588;  163.250; -371.000; -318.000
367.719;   35.500;  -44.000;  -45.000
367.851;   14.150; -222.000; -241.000
367.982;  -23.125; -875.000; -732.000
368.113;  156.750; -475.000; -358.000
368.245;  -85.525; -960.000; -841.000
368.376;  -13.525; -254.000; -302.000
368.508;  -16.750; -188.000; -263.000
368.639; -122.675;-1166.000;-1034.000
368.770;   16.175; -670.000; -589.000
368.902;  -36.000; -836.000; -926.000
369.033;  -92.100; -906.000; -855.000
369.164;  -34.900; -720.000; -653.000
369.296;  -86.125; -452.000; -601.000
369.427;   22.775; -209.000; -144.000
369.558;  -23.725; -593.000; -377.000
369.689;  -84.575; -721.000; -569.000
369.821; -117.200; -951.000; -845.000
369.952;  -15.350;   42.000; -108.000
370.083;  -33.675; -229.000; -108.000
370.214;  -74.600; -735.000; -650.000
370.345;    0.825;   65.000;   81.000
370.477;  -68.700; -810.000; -790.000
370.608;  315.300; -328.000; -264.000
370.739;   -8.525;-1233.000;-1292.000
370.870;    5.025;-1102.000; -923.000
371.001;  139.050; -378.000; -467.000
371.132;  -44.925; -754.000; -735.000
371.263;  -18.300;  -42.000; -148.000
371.394; -124.300; -841.000; -748.000
371.525;   34.500;  345.000;  225.000
371.657;  -75.250; -808.000; -670.000
371.788;  102.900;  103.000;  199.000
371.919;  258.975; -384.000; -304.000
372.050; 4351.325;  -91.000; -156.000
372.181; 1386.025; -188.000; -294.000
372.311;  484.125;   42.000; -127.000
372.442;   76.725; -457.000; -451.000
372.573;    1.250; -444.000; -340.000
372.704;  -91.675;-1008.000; -980.000
372.835;  123.875; -228.000; -289.000
372.966;  -29.850; -646.000; -554.000
373.097;  -51.600; -575.000; -711.000
373.228;   -5.475; -717.000; -542.000
373.359;  215.525; -824.000; -536.000
373.490; 1200.550; -881.000; -727.000
373.620; 1554.350;-1001.000; -803.000
373.751; 2268.925; -332.000; -396.000
373.882; 1067.100; -663.000; -733.000
374.013;  112.100; -449.000; -262.000
374.143;  -15.725; -581.000; -659.000
374.274;  -70.950; -987.000; -908.000
374.405;  228.425; -388.000; -276.000
374.536;  584.300; -526.000; -387.000
374.666; 1474.600; -759.000; -807.000
374.797;  336.575; -817.000; -868.000
374.928; 1152.925; -710.000; -560.000
375.058; 1177.725; -535.000; -500.000
375.189;  126.950;  -59.000;  -93.000
375.320;  -76.400; -928.000;-1034.000
375.450;  -12.475; -625.000; -616.000
375.581;  -31.200; -526.000; -436.000
375.712;  -21.050; -574.000; -250.000
375.842;  426.650; -438.000; -415.000
375.973;  327.225; -554.000; -513.000
376.103;   15.350; -665.000; -648.000
376.234;  -64.175; -531.000; -552.000
376.364;   -4.600; -944.000; -867.000
376.495;  387.125;  925.000;  529.000
376.625;   42.200; -472.000; -485.000
376.756;  117.250; -709.000; -678.000
376.886;  -24.200;-1178.000;-1026.000
377.017;   59.350;-1048.000;-1061.000
377.147;  327.400; -786.000; -782.000
377.278;   67.975;  174.000;  228.000
377.408; -122.225; -801.000; -815.000
377.538;  -88.100; -707.000; -693.000
377.669;  -75.350; -537.000; -613.000
377.799;  -60.075; -645.000; -635.000
377.929;  -35.525; -610.000; -428.000
378.060; -111.075; -781.000; -847.000
378.190;  -46.675; -726.000; -531.000
378.320;  -35.650; -401.000; -406.000
378.451;    9.700; -131.000;  -22.000
378.581;   14.800;  -67.000; -110.000
378.711;  173.325; 1035.000;  866.000
378.841;    3.225; -533.000; -675.000
378.972;  -51.800; -871.000; -751.000
379.102;   26.975; -652.000; -579.000
379.232;    1.675; -126.000;  -73.000
379.362;  -93.475;-1001.000; -885.000
379.492;   59.075; -373.000; -424.000
379.623;  162.200;    0.000;  111.000
379.753;  -78.325;-1107.000; -974.000
379.883;  249.550;   59.000;  156.000
380.013;   69.800;-1081.000;-1017.000
380.143;  -65.525;-1097.000;-1056.000
380.273;  -69.725; -985.000; -861.000
380.403;   17.350; -344.000; -257.000
380.533;    2.975; -651.000; -664.000
380.663;   95.700;  173.000;  128.000
380.793;  -48.575;-1027.000;-1074.000
380.923;  -15.625; -103.000;  -34.000
381.053;  -75.650; -613.000; -623.000
381.183;  -31.725; -106.000; -248.000
381.313;   76.275; -656.000; -470.000
381.443;   83.225; -692.000; -473.000
381.573;  302.925; -402.000; -409.000
381.703;  442.825;-1249.000;-1095.000
381.833;  -92.800;-1454.000;-1336.000
381.963;  131.550; -134.000;  -87.000
382.093; 1718.050; -925.000; -909.000
382.223;  586.675; -713.000; -602.000
382.353;   23.450; -801.000; -608.000
382.482;  526.825;-1091.000; -964.000
382.612;  982.650; -872.000; -644.000
382.742;  576.925; -695.000; -622.000
382.872;  402.750; -565.000; -551.000
383.002;   92.400;  347.000; -132.000
383.131;    4.225; -226.000; -160.000
383.261;  -25.150; -706.000; -768.000
383.391;  301.900; -552.000; -377.000
383.521; 2838.425;  451.000;  263.000
383.650;  684.525; -947.000; -904.000
383.780;    3.550; -783.000; -656.000
383.910;  119.200;  880.000;  802.000
384.039;   70.000; -794.000; -656.000
384.169;  339.100;-1205.000;-1017.000
384.299;   30.275; -650.000; -662.000
384.428;  -63.600; -764.000; -680.000
384.558;  -29.250; -308.000; -275.000
384.687;   -0.125; -414.000; -334.000
384.817;   29.975;   75.000;   -2.000
384.947;   45.025; -234.000; -141.000
385.076;  319.075;  982.000;  912.000
385.206;  134.000;  369.000;  480.000
385.335;  -17.225; -549.000; -417.000
385.465;  -55.725; -655.000; -663.000
385.594;  167.175;  -53.000;  -44.000
385.724;  595.775; -868.000; -838.000
385.853;  180.200; -296.000; -270.000
385.982; 1674.550; -743.000; -787.000
386.112; 2795.800;-1052.000; -871.000
386.241;  215.400; -307.000; -312.000
386.371;   37.650; -174.000;  -87.000
386.500;   50.625; -825.000; -789.000
386.629;   36.450; -874.000; -817.000
386.759;   88.975;  -43.000;   68.000
386.888;   30.425; -170.000; -250.000
387.017;  -50.200; -648.000; -620.000
387.147;  -56.875; -771.000; -798.000
387.276;   27.050; -410.000; -397.000
387.405;   48.100; -398.000; -342.000
387.535;  -21.200; -452.000; -361.000
387.664;  -57.675; -692.000; -620.000
387.793;   90.175; -198.000; -113.000
387.922;  676.550;  255.000;  200.000
388.052;   84.275; -576.000; -423.000
388.181;   54.150; -342.000; -472.000
388.310;   88.450; -889.000; -710.000
388.439;   -0.475; -749.000; -742.000
388.568;  244.150;  365.000;  244.000
388.697; 1389.425; -756.000; -653.000
388.826;  348.375; -768.000; -666.000
388.956;  102.475; -285.000; -307.000
389.085;   -4.300; -347.000; -287.000
389.214;  -92.150; -842.000; -872.000
389.343;  -51.225; -645.000; -413.000
389.472;  360.200;  126.000;  149.000
389.601;  542.225;   91.000;    0.000
389.730;   49.000; -568.000; -687.000
389.859;   87.650;  226.000;   46.000
389.988;  239.600; -423.000; -408.000
390.117;  221.075; -168.000; -146.000
390.246;    9.900; -331.000; -320.000
390.375;  165.725; -673.000; -626.000
390.504;  -42.675; -703.000; -621.000
390.633;  -83.725; -672.000; -726.000
390.761;  -50.550; -732.000; -645.000
390.890;   41.350;   -4.000; -130.000
391.019;   -8.725; -421.000; -441.000
391.148; -121.800; -826.000; -855.000
391.277;  -48.250; -576.000; -493.000
391.406;  -45.350; -821.000; -805.000
391.534;   28.175;  574.000; -301.000
391.663;  -49.700; -583.000; -645.000
391.792;  -67.775; -673.000; -701.000
391.921;  166.975;   -3.000;   15.000
392.050;  272.625; -287.000; -228.000
392.178;   21.450;-1206.000;-1061.000
392.307;  202.250; -758.000; -712.000
392.436;  153.625; -427.000; -641.000
392.564;   34.325;  166.000;   -6.000
392.693;  -67.350; -860.000; -682.000
392.822;  292.025; -529.000; -534.000
392.950;  168.425; -880.000; -714.000
393.079;  434.350; -188.000; -328.000
393.208;   80.825; -488.000; -511.000
393.336;   -6.000; -170.000; -145.000
393.465;  -32.825; -317.000; -199.000
393.593;    7.075;   62.000;   79.000
393.722; -131.475;-1121.000; -916.000
393.850;  -23.650; -188.000;  -61.000
393.979; -132.450; -926.000; -805.000
394.107;  -47.050; -517.000; -537.000
394.236;    8.625; -570.000; -507.000
394.364;  253.425;  383.000;  206.000
394.493;  526.050; -911.000; -767.000
394.621;   13.925; -955.000; -916.000
394.750;  651.050; -873.000; -923.000
394.878; 2705.975; -247.000; -149.000
395.007; 3815.125; -721.000; -807.000
395.135;  303.625; -790.000; -721.000
395.263;  -79.350;-1038.000;-1040.000
395.392;   -6.025;  -25.000; -107.000
395.520; -115.050; -818.000; -679.000
395.648;  -53.850; -865.000; -915.000
395.777;   20.300; -366.000; -405.000
395.905;  -27.000; -449.000; -564.000
396.033;   19.700;  217.000;  172.000
396.162;  767.375; -399.000; -453.000
396.290;  734.575;  -17.000;   -2.000
396.418;  161.200; -555.000; -514.000
396.546;  -43.325; -571.000; -466.000
396.674;  -89.625; -850.000; -878.000
396.803;   35.425;  -72.000;  -23.000
396.931;  141.425; -179.000; -199.000
397.059;  152.125;-1026.000; -989.000
397.187;  -93.975;-1026.000; -975.000
397.315; -121.350; -884.000; -649.000
397.443;  -77.950; -592.000; -443.000
397.572;  -73.075; -578.000; -424.000
397.700;   12.875; -607.000; -614.000
397.828;   35.950;  120.000;  -90.000
397.956;  -41.525; -508.000; -478.000
398.084;  -47.425; -767.000; -626.000
398.212;   53.600;  137.000;  124.000
398.340;   40.525;  -56.000;  159.000
398.468;   66.400; -390.000; -169.000
398.596; -117.625; -993.000; -953.000
398.724; -118.000; -762.000; -767.000
398.852; -148.600;-1024.000; -976.000
398.980;  -51.825; -560.000; -560.000
399.108;  -32.075; -982.000; -735.000
399.236;   70.150;   13.000;    8.000
399.363;   19.050;  222.000;  196.000
399.491;  -56.150; -404.000; -398.000
399.619; -111.825; -829.000; -800.000
399.747;  -86.050; -859.000; -771.000
399.875;   96.250;  220.000;  234.000
400.003;  -24.850; -359.000; -284.000
400.130;  -89.275; -421.000; -341.000
400.258;  -15.675;  -83.000;   38.000
400.386;  -47.300; -352.000; -168.000
400.514;  -20.325; -526.000; -587.000
400.641;  -52.850; -928.000; -802.000
400.769; -131.600; -979.000; -888.000
400.897;  -90.800; -838.000; -793.000
401.025;   -5.500; -166.000; -152.000
401.152;    5.450;  220.000;   38.000
401.280;  -71.375; -430.000; -429.000
401.408; -105.625; -712.000; -576.000
401.535;  -91.725; -735.000; -758.000
401.663; -169.550;-1134.000;-1054.000
401.790;  -71.250; -514.000; -525.000
401.918;   40.175;  436.000;  405.000
402.046;  -13.250;  134.000;  122.000
402.173;  -23.975;  -18.000;    7.000
402.301;  -57.575; -519.000; -397.000
402.428;   55.275;  528.000;  383.000
402.556; -132.100;-1188.000; -913.000
402.683;  -21.050;  -20.000;   -1.000
402.811;  -26.425;  -37.000; -206.000
402.938;   -6.675;   20.000;   27.000
403.066;  269.175; -574.000; -558.000
403.193;  433.450;  299.000;  239.000
403.321;  326.550; -396.000; -574.000
403.448;  406.475;   83.000;   27.000
403.575;  192.700;  -90.000;  -46.000
403.703;  -80.725; -732.000; -557.000
403.830;  -59.500; -531.000; -496.000
403.957; -125.650;-1117.000;-1023.000
404.085;   18.125;  -61.000; -172.000
404.212;  131.075;  -50.000;   63.000
404.339;  237.275; -566.000; -306.000
404.467; 5216.475; -612.000; -524.000
404.594; 3992.475; -287.000; -227.000
404.721; 1086.300; -869.000; -764.000
404.848;  104.100; -113.000; -202.000
404.976;  -75.025; -856.000; -783.000
405.103;  -11.550;  -14.000;  -82.000
405.230;   13.275;  190.000;  226.000
405.357;   22.025;  117.000;   44.000
405.484;  237.575;  -49.000;    5.000
405.612;   66.800; -548.000; -563.000
405.739;  -47.125; -488.000; -243.000
405.866;   80.475;  669.000;  385.000
405.993;  -32.275; -398.000; -102.000
406.120; -130.875; -801.000; -887.000
406.247;  -47.500; -323.000; -342.000
406.374;  543.450;  540.000;  629.000
406.501;  233.975; -632.000; -702.000
406.628;  -56.075; -621.000; -589.000
406.755;  -85.650; -803.000; -620.000
406.882;  -16.200; -228.000; -277.000
407.009;  -90.475; -719.000; -628.000
407.136;   82.125; -480.000; -401.000
407.263;  259.950; -939.000; -829.000
407.390;  -55.550; -692.000; -614.000
407.517; -137.025;-1139.000;-1187.000
407.644;  -58.675; -332.000; -256.000
407.771;  -52.700; -249.000; -287.000
407.898;   12.950;  168.000;  328.000
408.025;  -50.175; -421.000; -313.000
408.151;   -5.650;   82.000;  153.000
408.278;  -59.925; -267.000; -216.000
408.405;  -85.925; -931.000; -899.000
408.532;  -60.800; -549.000; -542.000
408.659; -118.550; -677.000; -648.000
408.785; -189.525;-1298.000;-1170.000
408.912;  -51.800; -412.000; -296.000
409.039;  -94.375; -610.000; -686.000
409.166; -101.425; -591.000; -555.000
409.292; -103.650; -571.000; -534.000
409.419; -126.225; -665.000; -649.000
409.546;  -69.750; -431.000; -192.000
409.672; -106.175; -713.000; -545.000
409.799;  -10.550;  -36.000;   34.000
409.926;  -42.525; -180.000; -179.000
410.052; -159.400;-1127.000;-1091.000
410.179;  -59.525; -368.000; -392.000
410.305;  -79.800; -375.000; -493.000
410.432;  -35.875; -220.000; -333.000
410.558;  -81.600; -305.000; -380.000
410.685;  -99.625; -688.000; -431.000
410.812;  -95.750; -409.000; -588.000
410.938; -140.900; -964.000; -808.000
411.065;  -74.175; -671.000; -645.000
411.191;  -18.950; -189.000; -174.000
411.317; -101.900; -823.000; -742.000
411.444;  -57.525; -317.000; -246.000
411.570;  -58.500; -339.000; -294.000
411.697; -114.450; -758.000; -752.000
411.823; -149.675; -989.000; -999.000
411.949;  -32.800;  -56.000;   17.000
412.076; -105.350; -539.000; -519.000
412.202; -106.550; -758.000; -757.000
412.329;  -96.575; -798.000; -752.000
412.455; -112.325; -821.000; -657.000
412.581;  -13.475;  -15.000;  172.000
412.707;  -55.575; -540.000; -457.000
412.834;   29.225;  156.000;  219.000
412.960;  -70.175; -785.000; -784.000
413.086; -100.925; -743.000; -701.000
413.212;  174.775;  604.000;  578.000
413.339;  -34.875; -685.000; -701.000
413.465;   35.425; -364.000; -310.000
413.591;  -71.075; -757.000; -474.000
413.717;  -64.800; -358.000; -366.000
413.843; -133.050; -839.000; -861.000
413.969;  -52.550;  -47.000; -292.000
414.096;  -87.700; -679.000; -679.000
414.222;   -6.900;  -33.000;   85.000
414.348;    8.900; -652.000; -385.000
414.474;  139.100;   38.000;  -52.000
414.600;   13.500; -126.000; -144.000
414.726;  -19.350;  -96.000;  -55.000
414.852;  -55.450; -365.000; -342.000
414.978;   42.625;  104.000;  -18.000
415.104;   46.075;   38.000;   80.000
415.230;   24.575; -329.000; -330.000
415.356;   48.775; -409.000; -514.000
415.482;  219.800;   13.000;  -35.000
415.608;  283.500; -247.000; -323.000
415.734;  908.250;   67.000;   38.000
415.860;18649.250; -875.000; -767.000
415.986;14939.700; -685.000; -607.000
416.111; 1346.250; -798.000; -652.000
416.237;  261.950; -424.000; -571.000
416.363;  973.550; -765.000; -733.000
416.489; 3915.875; -324.000; -251.000
416.615;  475.025; -707.000; -742.000
416.741;  -27.675; -677.000; -784.000
416.866;  -86.450; -673.000; -736.000
416.992; -124.000; -801.000; -818.000
417.118;  -20.500;  -41.000;  -80.000
417.244;  -53.300; -798.000; -531.000
417.369;  -61.200; -801.000; -612.000
417.495;    9.600; -325.000; -254.000
417.621;  -50.450;-1015.000; -803.000
417.746;   -0.775; -579.000; -572.000
417.872;   49.875; -254.000; -144.000
417.998;   51.025; -515.000; -530.000
418.123;  900.050;-1073.000; -845.000
418.249; 5085.825; -512.000; -601.000
418.374;  793.725; -916.000; -824.000
418.500;  130.825; -383.000; -482.000
418.626;  121.600;   70.000;  -59.000
418.751;  127.850; -549.000; -448.000
418.877;  217.700; -637.000; -643.000
419.002; 1560.450; -688.000; -560.000
419.128;11747.900; -930.000; -721.000
419.253; 3154.675; -967.000; -837.000
419.379;  417.775; -391.000; -338.000
419.504;  375.925;  325.000;  415.000
419.629;  498.175; -393.000; -212.000
419.755; 2973.975; -317.000; -254.000
419.880;18980.225;  -98.000;   67.000
420.006;10629.300; -280.000; -221.000
420.131;28411.750; -662.000; -775.000
420.256; 4530.150; -315.000; -316.000
420.382;  591.300; -665.000; -687.000
420.507;   79.525; -649.000; -778.000
420.632;  173.775; -337.000; -339.000
420.758;  372.625; -251.000; -425.000
420.883;  -68.425; -876.000; -672.000
421.008;  -96.750; -775.000; -619.000
421.133;  -74.950; -509.000; -467.000
421.259;  -40.025; -325.000; -259.000
421.384;  -93.525; -834.000; -693.000
421.509;    2.725;-1052.000; -862.000
421.634; 1546.775; -936.000; -820.000
421.759;  761.100; -359.000; -327.000
421.885;   -7.700; -717.000; -656.000
422.010;  -63.175; -673.000; -542.000
422.135; -132.475; -695.000; -727.000
422.260;   27.375;  340.000;  280.000
422.385;  -21.250;   12.000;  -98.000
422.510;   16.650;  151.000;  -26.000
422.635;   41.350;  -87.000;  -43.000
422.760;  136.325; -766.000; -791.000
422.885;   72.625;  -57.000;  -80.000
423.010;  -33.975; -112.000; -169.000
423.135;  -75.550; -481.000; -561.000
423.260;   -1.575; -150.000; -245.000
423.385;   84.275;  476.000;  222.000
423.510;   41.125;   71.000;  -22.000
423.635;  107.400;  133.000;   45.000
423.760;   58.175;  383.000;  328.000
423.885;   82.275;  336.000;  391.000
424.010;   27.050;  -68.000;  -13.000
424.135;  -13.775;    5.000;  -33.000
424.259;  -87.125; -654.000; -457.000
424.384;  -60.650; -279.000; -272.000
424.509;  -23.125; -260.000; -186.000
424.634;  -92.075; -761.000; -623.000
424.759;  -20.050; -688.000; -544.000
424.883;    9.625; -506.000; -527.000
425.008;  165.975; -502.000; -410.000
425.133; 1892.525; -679.000; -653.000
425.258;  964.975; -517.000; -381.000
425.382; 1160.925; -867.000; -774.000
425.507; 3215.475; -487.000; -543.000
425.632;  538.025; -802.000; -663.000
425.756;  432.675; -256.000; -146.000
425.881; 5380.325; -831.000; -857.000
426.006;15799.100; -604.000; -355.000
426.130; 2803.450; -696.000; -508.000
426.255;  357.125; -611.000; -491.000
426.379;  176.725; -189.000; -577.000
426.504;  350.700;  660.000;  544.000
426.629; 3786.800; -519.000; -466.000
426.753; 2891.800;   64.000;  -46.000
426.878;  346.850; -252.000; -288.000
427.002;  197.050; -651.000; -668.000
427.127; 1431.200;  -35.000; -158.000
427.251;10566.650;  372.000;  401.000
427.375; 3399.050; -191.000; -173.000
427.500; 2670.950; -616.000; -610.000
427.624; 1025.350; -234.000; -400.000
427.749;  136.500; -216.000; -225.000
427.873;  -21.125; -499.000; -412.000
427.997;  -34.650; -222.000; -230.000
428.122;   73.400;  795.000;  703.000
428.246;   80.900;  433.000;  434.000
428.371; -108.400; -869.000; -773.000
428.495;  -92.200; -624.000; -646.000
428.619;  -24.350; -186.000; -117.000
428.743;   33.675;   65.000;  132.000
428.868;   41.175; -732.000; -643.000
428.992; 1669.250; -219.000; -326.000
429.116;  786.475; -329.000; -357.000
429.240;  366.800;  419.000;  426.000
429.365;   14.825; -454.000; -574.000
429.489;  -10.675; -638.000; -647.000
429.613;   42.500; -236.000; -177.000
429.737;   50.500; -563.000; -432.000
429.861;  262.450; -247.000; -133.000
429.985; 5030.850; -425.000; -305.000
430.109; 6077.350; -770.000; -908.000
430.234;  758.150;   76.000;  -50.000
430.358;   85.000; -250.000; -160.000
430.482;  -65.050; -672.000; -564.000
430.606;  -37.475; -655.000; -375.000
430.730;   43.600; -437.000; -388.000
430.854;  243.450; -909.000; -835.000
430.978;  -33.875; -795.000; -764.000
431.102;  -74.950; -499.000; -422.000
431.226; -101.950; -874.000; -815.000
431.350;   51.350;  345.000;  422.000
431.474;  -70.575; -661.000; -373.000
431.597; -138.125;-1060.000; -848.000
431.721;  -71.550; -276.000; -267.000
431.845; -130.850; -704.000; -472.000
431.969;  -71.725; -304.000; -349.000
432.093;  -69.575; -395.000; -317.000
432.217;  -18.950;   32.000;   82.000
432.341;  -90.100; -523.000; -518.000
432.464;   24.775;   96.000;   40.000
432.588;  282.125; -401.000; -329.000
432.712;  157.600;  -52.000;  -52.000
432.836;   56.450;  213.000;  263.000
432.959;  -20.400; -372.000; -311.000
433.083;   78.800;   11.000;    2.000
433.207;  362.600;  285.000;  930.000
433.330; 4440.025; -391.000; -200.000
433.454; 6017.300; -654.000; -638.000
433.578; 3435.650;  583.000;  278.000
433.701;  752.950; -623.000; -675.000
433.825;  207.200; -292.000; -299.000
433.949;  263.100;   28.000;  -72.000
434.072;  132.025; -410.000; -323.000
434.196;   14.575; -309.000; -117.000
434.319; 3566.325;25482.000;25124.000
434.443;  696.250; -656.000; -603.000
434.566; 2541.525;  281.000;   62.000
434.690;  509.500; -637.000; -383.000
434.813;   66.925; -251.000; -173.000
434.937;  -55.850; -569.000; -696.000
435.060;  -13.475; -423.000; -332.000
435.184;  448.600; -492.000; -217.000
435.307;  283.025;  159.000;  102.000
435.431;    4.250;  -40.000;   24.000
435.554;  -90.075; -399.000; -240.000
435.677;  -72.325; -350.000; -258.000
435.801;  -20.750;  -25.000;   49.000
435.924;   -2.750;    1.000;  -67.000
436.048;  -70.325;-1019.000; -732.000
436.171;  -55.900; -240.000;  -66.000
436.294;  -18.000; -248.000; -229.000
436.417;   82.425; -963.000; -849.000
436.541;  -70.650; -814.000; -840.000
436.664;  -38.950; -242.000; -316.000
436.787;  -19.275;   13.000;  113.000
436.910;  -95.375; -792.000; -422.000
437.034;   20.325;  142.000;  143.000
437.157;   82.425;  -11.000;    0.000
437.280;  -10.350; -392.000; -292.000
437.403;  -60.225; -982.000; -869.000
437.526;  813.675; -903.000; -865.000
437.649; 3169.625; -505.000; -332.000
437.772;  587.025; -692.000; -540.000
437.896;  152.375;  700.000;  544.000
438.019;  -75.825; -758.000; -503.000
438.142;  -81.325; -596.000; -506.000
438.265;   29.175; -639.000; -670.000
438.388;  770.850; -520.000; -410.000
438.511;  199.250; -597.000; -394.000
438.634;  -20.925; -247.000; -125.000
438.757; -123.900; -693.000; -619.000
438.880;  -17.900;  -34.000;  -57.000
439.003;  -60.650; -417.000; -437.000
439.126;  -51.900; -287.000; -167.000
439.248;  -56.050;  -98.000; -139.000
439.371;  -46.950;    9.000;  -53.000
439.494;   21.950;  510.000;  439.000
439.617;  -51.575;   65.000;  -88.000
439.740; -171.225; -968.000; -816.000
439.863; -144.150; -755.000; -595.000
439.986; -116.675; -476.000; -431.000
440.108;  -34.800; -161.000; -112.000
440.231; -154.850; -950.000; -836.000
440.354;  -18.175;  -64.000; -150.000
440.477;   82.700; -566.000; -542.000
440.599;   41.900; -200.000; -225.000
440.722;  -90.500; -709.000; -586.000
440.845;   60.950;  751.000;  928.000
440.968;  -98.900; -415.000; -311.000
441.090;  -57.025; -199.000;  -33.000
441.213; -150.675;-1021.000; -825.000
441.336;  -47.700; -159.000;   -5.000
441.458;  -75.550; -549.000; -396.000
441.581;  -66.200; -628.000; -629.000
441.703;  -54.425; -152.000;   13.000
441.826; -110.400; -557.000; -400.000
441.948;  -61.050;   56.000;   51.000
442.071;   26.900;  555.000;  424.000
442.193; -105.200; -531.000; -485.000
442.316;   20.025;  152.000;   97.000
442.438;   49.125; -233.000;  -10.000
442.561;   94.500;  272.000;  262.000
442.683;  711.950; -809.000; -522.000
442.806; 1594.275;   -8.000;   74.000
442.928;  135.500; -859.000; -604.000
443.051;  -55.300; -577.000; -373.000
443.173;  -77.600; -341.000; -339.000
443.295;  -79.500; -263.000; -371.000
443.418;  -64.075; -321.000;  -29.000
443.540;   -8.400; -106.000;   -4.000
443.662;  -86.200; -563.000; -465.000
443.785;  -19.475;  335.000;  199.000
443.907;  -82.825; -362.000; -208.000
444.029; -134.250; -767.000; -494.000
444.152; -137.125; -644.000; -554.000
444.274;  -33.975;  -18.000;  -24.000
444.396; -108.625; -461.000; -221.000
444.518; -131.000; -691.000; -454.000
444.640;  -88.550; -268.000; -111.000
444.763;   -5.325;  388.000;  249.000
444.885; -100.350; -432.000; -392.000
445.007;  -42.075;   35.000;   86.000
445.129; -104.325; -610.000; -515.000
445.251;  -92.400; -372.000; -439.000
445.373; -123.725; -537.000; -386.000
445.495;   -5.250;  242.000;  350.000
445.617;   57.600;  853.000;  753.000
445.739;  -61.400; -215.000;  -97.000
445.861;  -21.875; -245.000; -112.000
445.984;  -13.150; -267.000; -101.000
446.105;  252.025; -418.000; -251.000
446.227;  817.200; -176.000;  -19.000
446.349;   62.650; -358.000; -249.000
446.471;  -81.700; -615.000; -448.000
446.593;  -37.425; -316.000;   19.000
446.715;    2.400;  -67.000;   41.000
446.837;   70.550;  697.000;  832.000
446.959;  -86.900; -457.000; -478.000
447.081; -119.975; -628.000; -518.000
447.203;   40.375;  862.000;  834.000
447.325;  -87.675; -270.000;   42.000
447.446;   -9.950;  286.000;  530.000
447.568; -147.250; -921.000; -803.000
447.690;  -70.575; -236.000; -245.000
447.812; -143.950; -798.000; -519.000
447.933;  -40.350;  155.000;  127.000
448.055;  -64.000; -306.000; -261.000
448.177;  177.375;   31.000;   79.000
448.299;  164.500; -935.000; -727.000
448.420;   43.975;  -25.000;  159.000
448.542;  -41.525;   -3.000;   33.000
448.664;  -22.650;  109.000;  322.000
448.785;  -27.475;  265.000;   83.000
448.907;  -80.675; -614.000; -353.000
449.028;    5.100; -771.000; -471.000
449.150;   63.925;  492.000;  589.000
449.272; -155.225;-1044.000; -913.000
449.393;   14.850;  612.000;  694.000
449.515; -134.550; -634.000; -581.000
449.636;  -53.175; -264.000; -155.000
449.758;   78.475;  763.000;  622.000
449.879;  -90.025; -498.000; -396.000
450.001;  -64.225; -149.000;  -49.000
450.122;  -48.725;  -95.000;  162.000
450.244;  -18.375;   37.000;  364.000
450.365;  -94.300; -495.000; -301.000
450.486;  -44.550;   80.000;  268.000
450.608;   25.450;  393.000;  326.000
450.729;   69.825;  578.000;  645.000
450.850;   -7.875; -574.000; -466.000
450.972;  608.500; -552.000; -389.000
451.093; 4345.725;  190.000;  588.000
451.214; 2098.050; -516.000; -337.000
451.336;  389.850;  773.000;  579.000
451.457;   57.950;  264.000;  393.000
451.578;  -36.850; -118.000;  -74.000
451.699; -112.500; -546.000; -540.000
451.821;  -60.900; -284.000;  -50.000
451.942;   -3.250;  278.000;  285.000
452.063;   31.400;  228.000;  419.000
452.184;  479.325;  -54.000;  -49.000
452.305; 1041.500;  103.000;  170.000
452.427;  150.075; -549.000; -301.000
452.548;  -19.825;   23.000;   79.000
452.669;  -26.300; -257.000;  -89.000
452.790;  -35.400;    3.000;  -18.000
452.911;   11.500;  195.000;  259.000
453.032;  -51.475; -289.000;  -60.000
453.153;  -30.175;  -29.000;   81.000
453.274;   56.375;  737.000;  868.000
453.395;  -35.475;  -51.000;  175.000
453.516;   36.475; 1317.000; 1388.000
453.637;  -52.100; -205.000; -150.000
453.758;  -41.300;   15.000;   69.000
453.879; -109.825; -462.000; -250.000
454.000;   72.450; 1086.000;  948.000
454.121; -104.925; -554.000; -326.000
454.242; -116.300; -599.000; -383.000
454.362;  -54.850;  -99.000;  114.000
454.483;  -40.550; -309.000; -229.000
454.604;   69.950;  512.000;  580.000
454.725; -117.200; -627.000; -555.000
454.846; -114.675; -474.000; -406.000
454.967;  -30.450;  230.000;  539.000
455.087;  -34.025;  179.000;  153.000
455.208;    6.550;  554.000;  856.000
455.329;  -67.350;  -22.000;   82.000
455.450;   26.375;  473.000;  633.000
455.570;  -65.125; -234.000; -211.000
455.691;  -33.475;  201.000;  407.000
455.812;  -94.225; -270.000;  -92.000
455.932;  -71.075;  107.000;  -97.000
456.053;  -81.050;   36.000;   24.000
456.173; -106.900; -433.000; -355.000
456.294; -115.275; -476.000; -303.000
456.415;  -59.575;  -73.000;   70.000
456.535;  -38.000;  297.000;  273.000
456.656;  -49.050;  132.000;  240.000
456.776;  -66.825;    3.000;  298.000
456.897;  -10.175;  308.000;  513.000
457.017;  -64.200; -153.000;   -3.000
457.138; -107.725; -402.000; -249.000
457.258;  -16.700;  263.000;  224.000
457.379;  -14.650;  509.000;  521.000
457.499;  -13.575;  443.000;  432.000
457.620; -119.300; -407.000; -231.000
457.740;  -83.575; -132.000;  -11.000
457.860;  -53.375;   87.000;   44.000
457.981;  -36.200;  132.000;  124.000
458.101;  -63.000;  -89.000;   40.000
458.221;  -13.775;  336.000;  402.000
458.342;  -48.425;   -4.000;  -37.000
458.462;    4.100;  617.000;  352.000
458.582;  -50.250; -302.000; -294.000
458.703;   -2.825;  303.000;  154.000
458.823;  -29.725;   22.000;  163.000
458.943;   20.950;  341.000;  467.000
459.063;  -12.325; 1124.000;  192.000
459.183;  -13.000;  328.000;  313.000
459.304;    6.175;  315.000;  517.000
459.424;  -53.200; -246.000;  -89.000
459.544;  304.825;  388.000;  764.000
459.664;  773.150;  499.000;  506.000
459.784;  324.350; 1004.000; 1175.000
459.904;   61.375;  867.000;  744.000
460.024;   66.000;  867.000;  684.000
460.144;   27.150;  449.000;  554.000
460.264;   -0.150;  515.000;  327.000
460.385;  -83.075; -145.000; -119.000
460.505;   28.650;  905.000;  858.000
460.625;  -86.250;  -17.000;  -68.000
460.745;  -27.825;  396.000;  541.000
460.864;  -40.250;  153.000;  469.000
460.984;   18.975;  499.000;  573.000
461.104;  154.200; 1656.000; 1775.000
461.224;   19.175;  657.000;  650.000
461.344;  -20.250;  431.000;  360.000
461.464;  -19.375;  258.000;  513.000
461.584;   -6.000;  283.000;  466.000
461.704;  -33.750;   58.000;  108.000
461.824;  -43.275;  238.000;  259.000
461.943;  -40.925;  191.000;  130.000
462.063;  -59.875;    2.000;  324.000
462.183;   34.725;  639.000;  717.000
462.303;   96.075; 1678.000; 1230.000
462.422;   22.450;  781.000;  840.000
462.542;  -20.350;  271.000;  391.000
462.662;   35.300;  353.000;  380.000
462.782;  218.800;  833.000;  572.000
462.901;  443.925;  545.000;  717.000
463.021;  293.725; 1702.000; 1638.000
463.141;  -14.650;  337.000;  770.000
463.260;   -5.200;  614.000;  474.000
463.380;    3.850;  902.000;  884.000
463.499;  -22.600;  342.000;  332.000
463.619;  -31.025;  581.000;  559.000
463.738;  117.775; 1644.000;  903.000
463.858;   11.775;  657.000;  811.000
463.978;  -17.425;  542.000;  396.000
464.097;   40.325;  921.000; 1114.000
464.217;   94.925; 1196.000; 1143.000
464.336;   99.500; 1068.000; 1130.000
464.455;  -26.050;  328.000;  659.000
464.575;   66.225;  597.000;  602.000
464.694;  194.525; 1204.000; 1179.000
464.814;  123.250; 1190.000; 1138.000
464.933;   96.700; 1095.000; 1027.000
465.052;  102.225; 1412.000; 1054.000
465.172;   92.375;  922.000;  799.000
465.291;  137.275; 1376.000; 1320.000
465.410;   26.750;  462.000;  735.000
465.530;   93.325; 1355.000; 1310.000
465.649;   84.925; 1209.000; 1273.000
465.768;  153.900; 1673.000; 1508.000
465.888;   77.275;  941.000; 1174.000
466.007;   95.275; 1335.000; 1440.000
466.126;  -10.000;  721.000;  641.000
466.245;   48.375; 1176.000; 1187.000
466.364;   36.675;  950.000; 1060.000
466.484;   68.625; 1024.000; 1213.000
466.603;   44.300; 1101.000; 1222.000
466.722;  119.150; 1490.000; 1769.000
466.841;   92.650; 1151.000; 1401.000
466.960;   41.275; 1069.000;  972.000
467.079;  137.375; 1971.000; 1786.000
467.198;   48.850; 1238.000; 1181.000
467.317;   95.125; 1768.000; 1162.000
467.436;   69.800; 1709.000; 1261.000
467.555;  122.125; 1796.000; 1746.000
467.674;   67.300; 1227.000; 1329.000
467.793;   58.175; 1376.000; 1374.000
467.912;   85.375; 1658.000; 1539.000
468.031;  131.775; 2038.000; 1930.000
468.150;  155.150; 1842.000; 1837.000
468.269;  214.600; 2313.000; 2090.000
468.388;  185.100; 2168.000; 2339.000
468.507;  247.950; 2884.000; 2903.000
468.626;  274.850; 2555.000; 2541.000
468.744;  153.100; 2018.000; 2174.000
468.863;  190.200; 2312.000; 2523.000
468.982;  103.250; 1503.000; 1555.000
469.101;  209.175; 2788.000; 2692.000
469.220;  153.425; 2333.000; 2176.000
469.338;  235.925; 2935.000; 3051.000
469.457;  198.975; 2719.000; 2545.000
469.576;  344.875; 3953.000; 3784.000
469.695;  256.825; 2877.000; 3066.000
469.813;  421.500; 4148.000; 4192.000
469.932;  398.350; 4255.000; 4485.000
470.051;  415.325; 4075.000; 4161.000
470.169;  799.575; 4470.000; 4338.000
470.288; 1385.375; 4700.000; 4809.000
470.406;  881.825; 5059.000; 5194.000
470.525;  628.950; 6101.000; 5787.000
470.644;  652.425; 6847.000; 6794.000
470.762;  788.925; 8397.000; 7873.000
470.881;  892.775; 8651.000; 8464.000
470.999; 1025.625; 9685.000; 9151.000
471.118; 1096.950;11174.000;10711.000

