
Integration time [ms]: 100.000
Averaging Nr. [scans]: 40
Smoothing Nr. [pixels]: 0
Data measured with spectrometer [name]: 2101012U2
Wave   ;Sample   ;Dark     ;Reference
[nm]   ;[counts] ;[counts] ;[counts] 

197.733;   64.225;  516.000;  404.000
197.879;  -71.750; -610.000; -634.000
198.025;  -40.875; -475.000; -420.000
198.171;  -74.725; -602.000; -612.000
198.317;  -21.950; -401.000; -316.000
198.463;  -68.125; -655.000; -404.000
198.609;   15.950;  181.000; -137.000
198.755;  -76.550; -644.000; -410.000
198.901;  -42.400; -505.000; -424.000
199.047;  -56.050; -615.000; -488.000
199.193;  -29.975; -230.000; -468.000
199.339;  -46.750; -222.000; -369.000
199.485;   51.925;  330.000;  271.000
199.631;   21.650;  227.000;  310.000
199.777;  -40.950; -466.000; -398.000
199.923;  -50.050; -610.000; -424.000
200.069;   -0.550; -141.000;  -58.000
200.215;   57.650;  128.000;  453.000
200.361;   44.900;  243.000;  477.000
200.507;  -40.725; -600.000; -373.000
200.653;  -24.000; -371.000; -194.000
200.798;  -41.675; -215.000; -125.000
200.944;    4.775; -146.000;  -41.000
201.090;   34.375;   61.000;  222.000
201.236;    3.325; -116.000; -158.000
201.382;  107.775;  874.000;  903.000
201.528;    4.125;  -58.000;  -48.000
201.674;  -53.475; -386.000; -293.000
201.819;  -61.800; -540.000; -439.000
201.965;  -76.325; -699.000; -447.000
202.111;  -25.750; -273.000; -226.000
202.257;  -30.075; -250.000; -238.000
202.402;   13.900;   13.000;  -36.000
202.548;  -18.425; -169.000; -116.000
202.694;   79.550;  410.000; -183.000
202.840;  -70.300; -603.000; -531.000
202.985;  -68.075; -681.000; -639.000
203.131; -109.300; -832.000; -666.000
203.277;  -19.425; -199.000; -262.000
203.423;  -40.075; -434.000; -520.000
203.568;  -27.975; -462.000; -237.000
203.714;  -57.250; -535.000; -542.000
203.860;  -79.825; -682.000; -641.000
204.005;   12.550;  112.000;  167.000
204.151;   66.425;  561.000;  556.000
204.296;  -41.350; -354.000; -221.000
204.442;  -60.025; -600.000; -547.000
204.588;  -79.125; -592.000; -579.000
204.733;   15.625;  178.000;  168.000
204.879; -111.425;-1018.000; -822.000
205.025;   22.300;  -99.000;  126.000
205.170;    3.775;  -17.000;   94.000
205.316;   72.650;  438.000;  661.000
205.461;  -77.750; -698.000; -554.000
205.607;   84.350;  609.000;  665.000
205.752;  -79.200; -626.000; -551.000
205.898;  -54.700; -501.000; -391.000
206.043;  -63.875; -578.000; -506.000
206.189;  -26.675; -243.000; -285.000
206.334;   73.825;  554.000;  606.000
206.480;   81.350;  409.000;  239.000
206.625;  -74.275; -529.000; -552.000
206.771;  -40.050; -451.000; -373.000
206.916;  -34.100; -210.000; -537.000
207.062;  -65.125; -545.000; -591.000
207.207;  -62.150; -546.000; -443.000
207.353;   58.500;  185.000;  460.000
207.498;   12.150;  196.000;   85.000
207.643;  -42.050; -501.000; -370.000
207.789; -126.025;-1069.000; -910.000
207.934;  -89.800; -665.000; -713.000
208.080;  -24.125; -154.000;   66.000
208.225;    5.250;  -22.000;  -57.000
208.370;  -85.075; -727.000; -619.000
208.516;  -73.150; -741.000; -487.000
208.661;  -18.125; -127.000;  -69.000
208.806;  -16.550; -165.000; -171.000
208.952; -117.525;-1044.000; -731.000
209.097;   70.275;  378.000;  349.000
209.242;  -40.050; -307.000; -382.000
209.387;   59.700;  392.000;  350.000
209.533;  -42.850; -321.000; -350.000
209.678;   74.600;  472.000;  543.000
209.823;  -52.075; -408.000; -310.000
209.969;  -93.200; -860.000; -757.000
210.114;  -98.475; -907.000; -719.000
210.259; -103.775; -939.000; -889.000
210.404;    1.025; -171.000;  103.000
210.549;   12.725;  108.000;    3.000
210.695;  -15.650;   -3.000;  -95.000
210.840;   25.325;   94.000;   67.000
210.985;  -61.450; -484.000; -303.000
211.130;   76.625;  268.000;  406.000
211.275;    8.450;  207.000;  199.000
211.420;  -45.250; -300.000; -289.000
211.566;  -69.800; -536.000; -489.000
211.711;   36.100;  218.000;  157.000
211.856;  -63.800; -545.000; -519.000
212.001;   26.100;  151.000;   44.000
212.146;   22.600;  153.000;   49.000
212.291;  -21.875; -210.000; -186.000
212.436;  -16.575; -280.000;   -6.000
212.581;  -84.400; -685.000; -653.000
212.726;  -69.300; -487.000; -538.000
212.871;  -54.875; -552.000; -217.000
213.016; -134.600;-1172.000;-1029.000
213.161;   51.875;  406.000;  291.000
213.306;  -69.050; -435.000; -577.000
213.451;  -83.825; -778.000; -689.000
213.596;  -42.300; -455.000; -347.000
213.741;  -47.425; -448.000; -538.000
213.886;  -76.850; -498.000; -517.000
214.031;  -15.325; -294.000; -124.000
214.176;  -46.750; -408.000; -341.000
214.321;  -22.350; -296.000; -157.000
214.466;  -18.400; -163.000;  -43.000
214.611;   -3.275;  -61.000;  -10.000
214.756; -108.700; -948.000; -858.000
214.901;  -22.875; -388.000; -226.000
215.046; -123.725; -797.000; -825.000
215.191;   15.725;  128.000;   35.000
215.336;  -17.075; -157.000;  -19.000
215.480;  -61.600; -684.000; -505.000
215.625;   -0.800; -175.000;  -19.000
215.770;  -81.175; -757.000; -662.000
215.915;  -10.250;   -5.000;  -97.000
216.060;   -2.275; -113.000;  -21.000
216.205; -100.525; -731.000; -779.000
216.349;  -64.000; -470.000; -533.000
216.494; -128.900; -939.000; -867.000
216.639; -105.450; -823.000; -888.000
216.784;  -82.000; -577.000; -525.000
216.929;   52.150;  392.000;  281.000
217.073;   -6.050; -244.000;  -31.000
217.218;   19.200;   78.000;  -47.000
217.363;  -77.400; -656.000; -618.000
217.507;  -75.875; -623.000; -588.000
217.652; -123.600; -845.000; -874.000
217.797;  -83.800; -708.000; -659.000
217.942; -107.075; -856.000; -720.000
218.086;   73.600;  608.000;  539.000
218.231;   -3.425; -174.000;  -26.000
218.376;  -28.250; -337.000; -229.000
218.520;   -4.175;  -41.000;   96.000
218.665;  -25.350; -338.000; -204.000
218.810;  -42.500; -275.000; -233.000
218.954;   18.575;  201.000;   35.000
219.099; -111.625; -713.000; -963.000
219.243;  -59.900; -589.000; -554.000
219.388;  -25.975; -264.000; -136.000
219.532;    1.025; -116.000; -116.000
219.677;  -75.700; -564.000; -521.000
219.822;   11.550;   33.000;   89.000
219.966;    9.975;   17.000;  -99.000
220.111;  -25.075; -328.000;  -40.000
220.255;  -91.125; -797.000; -750.000
220.400;  -26.775; -180.000; -146.000
220.544;  -64.425; -516.000; -450.000
220.689;  -48.250; -422.000; -451.000
220.833;  -28.325; -123.000;  -58.000
220.978;  -44.075; -393.000; -563.000
221.122;   11.975;  319.000;  307.000
221.267; -108.625; -906.000; -837.000
221.411;  -64.000; -478.000; -394.000
221.555;   -6.650; -104.000;  -23.000
221.700;  -46.950; -329.000; -222.000
221.844;   37.600;  255.000;  272.000
221.989;  -48.525; -328.000; -311.000
222.133;  -25.425; -289.000; -307.000
222.277;   -8.600;    5.000;   78.000
222.422;   14.675;  227.000;  113.000
222.566;  -26.575; -381.000; -214.000
222.711;  -51.925; -414.000; -479.000
222.855;  -76.525; -643.000; -586.000
222.999;  -75.150; -642.000; -717.000
223.144;  -40.375; -195.000; -194.000
223.288;   56.900;  423.000;  251.000
223.432;   32.700;  184.000;  230.000
223.576;   19.475;  152.000;  -21.000
223.721;   30.825;  364.000;  273.000
223.865;  -62.500; -472.000; -475.000
224.009;  232.075; 1673.000; 1631.000
224.153;  -72.675; -660.000; -671.000
224.298;  -73.300; -531.000; -489.000
224.442;   -2.175;  -74.000;  -33.000
224.586;   -5.300; -169.000; -106.000
224.730;  -82.900; -858.000; -670.000
224.875; -101.750; -739.000; -688.000
225.019;   13.075;  102.000;  188.000
225.163;   62.850;  208.000;  341.000
225.307;   16.500;   97.000;  -91.000
225.451;   50.775;  360.000;  481.000
225.595;   50.575;  264.000;  176.000
225.739;  -13.225; -170.000;  -94.000
225.884;   15.900;   86.000;    5.000
226.028;  -73.725; -760.000; -626.000
226.172;  -41.250; -260.000; -273.000
226.316; -120.675; -941.000; -902.000
226.460;  -61.700; -645.000; -493.000
226.604;  -56.275; -406.000; -400.000
226.748;  -95.475; -836.000; -733.000
226.892;  -21.700; -227.000; -181.000
227.036;  -53.225; -537.000; -447.000
227.180;  -59.825; -551.000; -375.000
227.324;  -75.475; -561.000; -580.000
227.468; -117.325; -819.000; -717.000
227.612;   15.425;  242.000;  -28.000
227.756;  -99.050; -845.000; -698.000
227.900;   47.275;  342.000;  441.000
228.044;  -50.200; -509.000; -290.000
228.188;   52.950;  448.000;  568.000
228.332;  -81.825; -546.000; -472.000
228.476;  -26.175; -223.000; -149.000
228.620;  -22.875; -210.000; -150.000
228.764;   51.900;  431.000;  349.000
228.908;  -20.750; -155.000;   30.000
229.052;  -68.950; -615.000; -528.000
229.195;   -5.975; -172.000;   13.000
229.339;  -32.450; -235.000; -305.000
229.483;  -15.900;    5.000; -162.000
229.627;   -0.550; -156.000;  139.000
229.771;  -40.300; -218.000; -294.000
229.915;   11.475;  230.000;   79.000
230.059;  -85.275; -648.000; -663.000
230.202;  -30.125; -370.000; -317.000
230.346;  -23.325; -107.000;  107.000
230.490;  -46.350; -489.000; -521.000
230.634; -100.225; -736.000; -553.000
230.777;   69.375;  478.000;  509.000
230.921;  -42.600; -450.000; -359.000
231.065;  -27.575; -246.000; -286.000
231.209;   47.000;  261.000;  265.000
231.352;   15.925;   54.000;   40.000
231.496;   19.375;  568.000;  188.000
231.640;  -85.150; -693.000; -621.000
231.783;   63.400;  546.000;  525.000
231.927;  -43.800; -294.000; -365.000
232.071; -115.700; -962.000; -736.000
232.214; -104.950; -980.000; -764.000
232.358;  -89.500; -683.000; -599.000
232.502;   10.075;  -19.000;    7.000
232.645; -126.875;-1090.000; -927.000
232.789;  -29.850; -257.000; -218.000
232.933;  -45.475; -407.000; -224.000
233.076; -122.800;-1038.000; -897.000
233.220;  -99.700; -752.000; -777.000
233.363;  -75.450; -669.000; -477.000
233.507;   46.525;  371.000;  129.000
233.650;  -88.700; -764.000; -834.000
233.794;   50.875;  438.000;  461.000
233.938;  -61.675; -530.000; -362.000
234.081;  -19.375;  -93.000;   31.000
234.225;  -58.175; -631.000; -539.000
234.368; -115.950; -773.000; -723.000
234.512;  -41.000; -385.000; -299.000
234.655;  -76.375; -582.000; -555.000
234.798;  -50.775; -493.000; -466.000
234.942; -129.400; -884.000;-1002.000
235.085;  -68.850; -651.000; -443.000
235.229;  -68.775; -405.000; -410.000
235.372;  -39.975; -247.000; -191.000
235.516;  -45.925; -397.000; -321.000
235.659;   18.200;   92.000;  121.000
235.802;   -4.550;  -38.000;  -22.000
235.946;   24.275;  335.000;  215.000
236.089;   24.225;  126.000;  250.000
236.233;   50.600;  275.000;  298.000
236.376;  -37.275; -235.000; -378.000
236.519;  -47.850; -297.000; -319.000
236.663;  -15.150; -215.000; -117.000
236.806; -123.075;-1029.000; -999.000
236.949;   54.200;  543.000;  431.000
237.092;   64.375;  412.000;  391.000
237.236;  -77.150; -589.000; -502.000
237.379;   70.725;  352.000;  428.000
237.522; -106.300; -879.000; -768.000
237.666;  -17.250; -271.000;   18.000
237.809; -114.575; -851.000; -823.000
237.952;   47.050;  469.000;  271.000
238.095;  -55.675; -447.000; -442.000
238.238;   80.100;  688.000;  700.000
238.382;   -3.325;  166.000;  103.000
238.525;  -73.850; -598.000; -511.000
238.668; -136.600;-1060.000; -985.000
238.811;  -61.600; -638.000; -643.000
238.954;  -57.150; -483.000; -334.000
239.097;   88.125;  617.000;  664.000
239.241;   23.700;  394.000;  326.000
239.384;  -34.375; -254.000; -214.000
239.527;  -50.325; -424.000; -224.000
239.670; -133.600; -994.000;-1091.000
239.813; -108.775; -696.000; -658.000
239.956;   78.975;  579.000;  473.000
240.099; -102.125; -778.000; -725.000
240.242;   59.600;  428.000;  432.000
240.385;   46.600;  466.000;  450.000
240.528;  -72.350; -706.000; -473.000
240.671;    2.350;  189.000;  134.000
240.814;  -37.925; -441.000; -158.000
240.957;  -85.675; -767.000; -578.000
241.100;  -88.125; -779.000; -755.000
241.243; -135.400;-1234.000; -893.000
241.386;  -54.650; -508.000; -379.000
241.529;  -99.700; -735.000; -547.000
241.672;  -51.150; -566.000; -495.000
241.815; -104.025; -832.000; -808.000
241.958;  -32.800; -125.000; -182.000
242.101;  -84.075; -545.000; -390.000
242.244;  -38.650; -270.000; -325.000
242.387;  -38.725; -304.000; -246.000
242.530;   55.600;  470.000;  134.000
242.673;  -42.675; -381.000; -309.000
242.815; -116.975; -925.000; -899.000
242.958;  -76.575; -482.000; -381.000
243.101;   15.375;  132.000;  187.000
243.244;  -73.550; -564.000; -521.000
243.387;  -45.750; -313.000; -316.000
243.530;  -91.100; -657.000; -674.000
243.672;   -2.650;   43.000;  -92.000
243.815;  -47.025; -355.000; -283.000
243.958;    9.850;   98.000;  -26.000
244.101;  -15.450;   59.000;  -16.000
244.243;   -8.600;  -47.000;  101.000
244.386; -106.700; -761.000; -630.000
244.529;  -23.100; -132.000; -139.000
244.672; -151.000;-1154.000; -951.000
244.814;  -80.075; -621.000; -794.000
244.957;  -35.000; -380.000; -304.000
245.100;  -67.025; -489.000; -489.000
245.242;  -52.550; -387.000; -374.000
245.385;  -13.150;  -59.000;  -39.000
245.528; -100.700; -871.000; -705.000
245.670;   83.900;  612.000;  634.000
245.813;  -85.450; -599.000; -547.000
245.956;  -33.975; -324.000; -275.000
246.098;  -60.000; -508.000; -650.000
246.241;    9.025;  194.000;   48.000
246.383;   -7.050; -119.000;  -73.000
246.526;  -70.950; -454.000; -525.000
246.669; -116.250; -889.000; -780.000
246.811;   14.825;  172.000;   -1.000
246.954;  -65.700; -512.000; -426.000
247.096;  -28.225;  -84.000;   -6.000
247.239;  -70.825; -482.000; -445.000
247.381;  -80.000; -647.000; -488.000
247.524;   79.675;  645.000;  679.000
247.666;   -7.375;   58.000;   11.000
247.809; -108.525; -887.000; -691.000
247.951;   -9.700;  -75.000;  138.000
248.094;   27.975;  432.000;  308.000
248.236; -161.150;-1262.000;-1238.000
248.378;   -9.500; -356.000;  -81.000
248.521;  -41.325; -334.000; -337.000
248.663;  -44.200; -236.000; -267.000
248.806;  -24.725; -300.000; -266.000
248.948; -117.625; -886.000; -763.000
249.090;  -62.500; -428.000; -398.000
249.233;  -55.725; -344.000; -381.000
249.375;  -62.850; -474.000; -451.000
249.518;  -21.800;  -83.000; -133.000
249.660;  -13.025; -103.000;    3.000
249.802; -167.600;-1303.000;-1189.000
249.945;  -64.750; -612.000; -540.000
250.087; -100.275; -834.000; -768.000
250.229;  -60.300; -362.000; -480.000
250.371;  -81.475; -494.000; -439.000
250.514;  -43.325; -310.000; -244.000
250.656;  -65.825;   69.000;  102.000
250.798; -105.375; -849.000; -800.000
250.940;  -51.000; -322.000; -322.000
251.083;  -18.050; -335.000; -111.000
251.225;   57.975;  338.000;  310.000
251.367;  -34.000; -274.000; -373.000
251.509;  -44.825; -265.000; -210.000
251.651;  -94.575; -731.000; -671.000
251.794;   37.475;  538.000;  632.000
251.936; -102.550; -821.000; -747.000
252.078;  -58.525; -540.000; -461.000
252.220;  -69.075; -645.000; -477.000
252.362;   68.075;  344.000;  462.000
252.504;  -75.100; -677.000; -584.000
252.646; -108.725; -875.000; -722.000
252.788;   -5.925;   14.000; -128.000
252.931;  -43.675; -257.000; -253.000
253.073;  -48.925; -376.000; -317.000
253.215;   -4.825;  141.000;  122.000
253.357;   -5.375;   82.000; -153.000
253.499;  -52.150; -374.000; -234.000
253.641;  -83.675; -749.000; -594.000
253.783; -108.850; -609.000; -527.000
253.925;  -72.475; -586.000; -591.000
254.067; -108.300; -744.000; -667.000
254.209;  -35.000; -391.000; -259.000
254.351; -138.425; -865.000; -883.000
254.493;  -63.275; -441.000; -417.000
254.635; -128.650; -936.000; -818.000
254.777;  -85.475; -752.000; -687.000
254.918;  -65.950; -512.000; -430.000
255.060;  -69.050; -551.000; -395.000
255.202;  -59.475; -473.000; -261.000
255.344;  -68.975; -658.000; -455.000
255.486;  -71.800; -471.000; -406.000
255.628;  -96.200; -780.000; -781.000
255.770;  -93.675; -676.000; -536.000
255.912;  -57.625; -559.000; -468.000
256.053;  -99.850; -730.000; -508.000
256.195;  153.625; 1008.000;  903.000
256.337;  -86.475; -861.000; -595.000
256.479;   58.175;  532.000;  416.000
256.621;  -54.050; -394.000; -212.000
256.762;  -88.475; -789.000; -742.000
256.904;   41.200;  485.000;  487.000
257.046;  -34.650; -381.000; -271.000
257.188;  -34.850; -351.000; -264.000
257.329;  -68.775; -525.000; -464.000
257.471; -110.675; -939.000; -807.000
257.613;  -72.850; -584.000; -498.000
257.755; -141.325;-1073.000; -982.000
257.896;   28.375;  286.000;  392.000
258.038;  -77.900; -403.000; -352.000
258.180;  -27.375; -354.000; -279.000
258.321;  -84.625; -581.000; -457.000
258.463;   -7.150;  -71.000;  133.000
258.605;  -88.575; -562.000; -570.000
258.746;  -91.250; -886.000; -772.000
258.888; -142.175;-1026.000;-1020.000
259.029;   22.650;  121.000;   -8.000
259.171;  -86.825; -614.000; -550.000
259.313;   -4.775;  -49.000;  -47.000
259.454;  -80.075; -536.000; -414.000
259.596;  -50.650; -483.000; -390.000
259.737;  -61.500; -590.000; -474.000
259.879;   30.675;  217.000;  311.000
260.020;   86.550;  901.000;  636.000
260.162;  -25.775; -146.000; -253.000
260.303; -110.450; -768.000; -687.000
260.445;  -75.000; -609.000; -613.000
260.586;   23.550;  392.000;  157.000
260.728;  -41.275; -360.000; -248.000
260.869;  -75.525; -350.000; -343.000
261.011;   73.075;  706.000;  537.000
261.152;  -56.575; -479.000; -319.000
261.293;  -81.775; -576.000; -595.000
261.435;  -35.325; -219.000; -184.000
261.576;  -54.875; -455.000; -325.000
261.718;   57.675;  420.000;  470.000
261.859; -129.100; -940.000; -949.000
262.000; -126.300; -951.000;-1016.000
262.142;  -14.800;  -52.000;  -60.000
262.283;  -99.000; -808.000; -691.000
262.424;  -74.625; -666.000; -625.000
262.566; -138.700;-1161.000; -983.000
262.707; -110.700; -840.000; -830.000
262.848; -112.400; -769.000; -726.000
262.990;  -40.125; -362.000; -345.000
263.131;   74.725;  650.000;  681.000
263.272;   -6.300;  -61.000;  -41.000
263.413;  -89.700; -589.000; -561.000
263.555;  -54.775; -669.000; -143.000
263.696;  -82.100; -550.000; -641.000
263.837;  -52.750; -449.000; -551.000
263.978;   -0.500;   -5.000;  -77.000
264.119;  -47.000; -283.000; -264.000
264.261; -105.325; -847.000; -630.000
264.402;   -2.475;   33.000;   40.000
264.543;  -69.675; -509.000; -524.000
264.684;  -10.275;   61.000;  -50.000
264.825;  -80.425; -816.000; -538.000
264.966;  -18.900;  -84.000;  -67.000
265.107; -111.100; -646.000; -670.000
265.248; -110.700; -825.000; -812.000
265.390;   -8.375;  152.000;   -9.000
265.531;  -12.000; -238.000; -107.000
265.672;  -81.825; -557.000; -630.000
265.813;   67.425;  563.000;  439.000
265.954; -137.400; -959.000; -940.000
266.095;   -7.600; -372.000; -322.000
266.236; -113.500; -686.000; -548.000
266.377;  -36.925; -243.000; -297.000
266.518;  -68.300; -619.000; -547.000
266.659;   22.125;  170.000;  268.000
266.800;   -2.725;   83.000;   85.000
266.941;  -80.675; -487.000; -478.000
267.082;    0.050;  354.000;   99.000
267.223;  -61.575; -344.000; -273.000
267.364; -111.550; -892.000; -686.000
267.504;  -14.900;    3.000;  135.000
267.645;   -4.250;  160.000;   67.000
267.786;  -40.325; -147.000;  -86.000
267.927;  -84.975; -473.000; -379.000
268.068;  -30.050; -186.000;  -61.000
268.209;  -44.650; -175.000; -413.000
268.350;  -55.650; -388.000; -532.000
268.490;  -86.100; -648.000; -521.000
268.631;   31.375;  127.000;  225.000
268.772; -117.150; -874.000; -647.000
268.913;  -51.425; -328.000; -476.000
269.054;  -24.675; -117.000;   12.000
269.194;  -38.850; -418.000; -402.000
269.335; -149.150;-1137.000;-1074.000
269.476;  -18.250;   33.000;  -35.000
269.617;  -49.375; -347.000; -392.000
269.757;  -99.100; -713.000; -646.000
269.898; -106.225; -856.000; -613.000
270.039;  -58.300; -415.000; -405.000
270.180; -131.200; -952.000; -816.000
270.320;  -22.175; -190.000; -250.000
270.461;  -39.700; -277.000; -249.000
270.602;  -31.775; -186.000; -156.000
270.742; -124.600; -868.000; -943.000
270.883;  -54.850; -442.000; -390.000
271.023;  -54.150; -358.000; -357.000
271.164;  -83.225; -607.000; -528.000
271.305; -103.650; -666.000; -654.000
271.445;  -98.950; -722.000; -683.000
271.586;  -66.475; -462.000; -283.000
271.726;  -55.550; -397.000; -322.000
271.867;  -86.075; -594.000; -534.000
272.008;   60.400; -473.000; -285.000
272.148;   79.925;  462.000;  468.000
272.289;  -18.325; -113.000; -181.000
272.429;    2.850;   19.000;  185.000
272.570; -102.500; -633.000; -737.000
272.710; -106.700; -825.000; -775.000
272.851;  -37.925;  113.000; -130.000
272.991; -153.500;-1173.000;-1077.000
273.131;  -72.300; -419.000; -459.000
273.272;  -98.725; -683.000; -723.000
273.412;  -18.175; -143.000;  -31.000
273.553;  -78.525; -488.000; -507.000
273.693;  119.000;  913.000;  858.000
273.834; -107.300; -894.000; -692.000
273.974;  -80.375; -664.000; -615.000
274.114;  -91.300; -772.000; -560.000
274.255;   44.750;  414.000;  373.000
274.395;  -27.875; -180.000; -125.000
274.535;   26.775;  199.000;  350.000
274.676;    7.325;  225.000;   94.000
274.816;   -8.075;  110.000;   34.000
274.956;  -96.450; -624.000; -690.000
275.097;  -90.950;-1014.000; -922.000
275.237; -117.700; -913.000; -803.000
275.377; -107.475; -778.000; -689.000
275.517; -147.275; -878.000; -937.000
275.658;  -66.200; -590.000; -555.000
275.798;  -69.800; -606.000; -413.000
275.938;   13.000;  215.000;  323.000
276.078;  -91.025; -626.000; -395.000
276.218;    7.275;   99.000;  104.000
276.359; -133.925;-1026.000;-1024.000
276.499;  -71.800; -605.000; -446.000
276.639;  -34.800; -305.000; -151.000
276.779;  -50.350; -475.000; -357.000
276.919; -102.550; -783.000; -624.000
277.059;  -27.225; -261.000; -212.000
277.199;  -46.775; -357.000; -259.000
277.340;   39.425;  287.000;  175.000
277.480; -109.325; -840.000; -693.000
277.620;   27.000;  192.000;   16.000
277.760; -187.700;-1533.000;-1294.000
277.900;   -1.325;  113.000;   33.000
278.040;    7.600;  137.000;  159.000
278.180;   17.600;  270.000;  170.000
278.320;    1.450;   21.000;   56.000
278.460;  -61.750; -443.000; -469.000
278.600;  -88.200; -708.000; -598.000
278.740;   44.575;  448.000;  224.000
278.880; -113.100; -768.000; -791.000
279.020;  -30.950; -194.000; -144.000
279.160;  -99.700; -672.000; -595.000
279.300; -127.500; -926.000; -873.000
279.440;  -92.550; -709.000; -622.000
279.579;  -77.100;-1014.000; -929.000
279.719;  -48.200; -410.000; -394.000
279.859;   28.150;   -4.000;   41.000
279.999;   -4.575; -208.000;  101.000
280.139;  -27.200; -435.000; -387.000
280.279;  -85.300; -708.000; -745.000
280.419;  -28.900; -229.000; -147.000
280.559;  -39.925; -259.000; -180.000
280.698;  -84.200; -790.000; -639.000
280.838; -103.650; -778.000; -800.000
280.978; -101.375; -846.000; -790.000
281.118; -120.675; -811.000; -704.000
281.257;   -0.075;   24.000;    6.000
281.397; -137.500;-1094.000; -960.000
281.537; -104.225; -599.000; -712.000
281.677;  -24.225; -150.000; -101.000
281.816;  -94.350; -700.000; -630.000
281.956;  -40.475; -193.000; -257.000
282.096;  -60.525; -539.000; -396.000
282.235; -102.000; -672.000; -638.000
282.375;  -33.725; -243.000;  -98.000
282.515; -107.325; -715.000; -707.000
282.654;    3.625;   29.000;  106.000
282.794;   23.925;  388.000;  244.000
282.934;  -56.625; -530.000; -491.000
283.073; -148.100;-1030.000; -857.000
283.213;  -58.075; -460.000; -467.000
283.353;  -53.925; -408.000; -349.000
283.492;  -42.100; -264.000; -296.000
283.632;  -38.700; -254.000; -168.000
283.771;  -98.375; -859.000; -730.000
283.911;  -53.825; -369.000; -260.000
284.050; -108.325; -794.000; -748.000
284.190; -156.350;-1229.000;-1096.000
284.329; -141.300;-1055.000; -964.000
284.469;  -81.000; -516.000; -591.000
284.608;  -65.175; -559.000; -598.000
284.748;  -87.375; -614.000; -570.000
284.887;   -2.325;  -87.000;  -20.000
285.027; -121.875; -844.000; -892.000
285.166;  -31.925; -192.000; -249.000
285.306;  -23.325; -116.000;  -33.000
285.445;  -42.975; -229.000; -343.000
285.584;  -99.125; -630.000; -494.000
285.724;  -40.400; -282.000; -322.000
285.863; -103.325; -857.000; -507.000
286.002;  -48.875; -366.000; -276.000
286.142;  -99.300; -715.000; -622.000
286.281;  -70.675; -525.000; -493.000
286.420;  -91.775; -554.000; -417.000
286.560;   88.525;  653.000;  623.000
286.699; -144.050; -958.000; -912.000
286.838;  -80.725; -590.000; -591.000
286.978;  -91.450; -533.000; -537.000
287.117; -127.750;-1085.000; -950.000
287.256;  -34.900; -228.000; -211.000
287.395;  -57.100; -197.000; -378.000
287.535;  -60.550; -370.000; -298.000
287.674;  -73.350; -509.000; -484.000
287.813;   44.100;  661.000;  533.000
287.952; -128.600;-1010.000; -871.000
288.091; -151.325;-1049.000; -915.000
288.231;  -17.175;   13.000;   15.000
288.370; -170.875;-1217.000;-1200.000
288.509;  -89.075; -728.000; -645.000
288.648;  -82.825; -770.000; -548.000
288.787;  -37.600; -243.000;  -87.000
288.926;  -77.925; -454.000; -475.000
289.065;   97.025;  859.000;  672.000
289.204;  -63.275; -377.000; -217.000
289.344; -106.225; -791.000; -690.000
289.483;   20.325;  416.000;  304.000
289.622;  -27.600; -291.000; -149.000
289.761;  -17.050; -309.000; -166.000
289.900;  -98.875; -785.000; -626.000
290.039;  -20.350;  -12.000;  -95.000
290.178;  -31.225; -274.000; -180.000
290.317;  -93.050; -618.000; -479.000
290.456;  -66.975; -463.000; -451.000
290.595; -135.425; -961.000; -833.000
290.734; -136.325; -904.000; -891.000
290.873;  -67.025; -456.000; -420.000
291.011; -117.475; -833.000; -843.000
291.150; -101.000; -770.000; -682.000
291.289;  -25.100; -343.000; -110.000
291.428;  -96.900; -599.000; -480.000
291.567;  -47.525; -370.000; -442.000
291.706;   -5.525;  109.000;  154.000
291.845;  -84.800; -597.000; -505.000
291.984; -163.525;-1234.000;-1061.000
292.122;   61.475;  602.000;  582.000
292.261;   40.450;  620.000;  463.000
292.400;   -8.325; -144.000;  211.000
292.539; -122.625; -959.000; -813.000
292.678;  -46.050; -325.000; -300.000
292.816; -162.000;-1136.000; -965.000
292.955; -101.475; -844.000; -684.000
293.094;  -31.225; -173.000; -337.000
293.233;  -59.050; -556.000; -400.000
293.371;  -37.750; -225.000;  -84.000
293.510; -108.450; -866.000; -780.000
293.649; -127.025; -959.000; -924.000
293.787; -117.350;-1083.000;-1012.000
293.926;  -26.625; -113.000;  -32.000
294.065;  -49.875; -379.000; -290.000
294.203;   35.550;  298.000;  406.000
294.342;   15.650;   74.000;  156.000
294.481; 6012.050;51180.000; -836.000
294.619;  -34.850; -425.000; -582.000
294.758; -148.700;-1230.000;-1137.000
294.896;   13.675; -125.000;    5.000
295.035; -141.575;-1040.000;-1006.000
295.174; -138.425;-1082.000; -954.000
295.312;  -57.825; -323.000; -203.000
295.451;  -36.125; -307.000; -428.000
295.589;  -69.375; -389.000; -518.000
295.728;   15.625; -292.000; -165.000
295.866;  -29.150;  -36.000;  -51.000
296.005;  -63.025; -584.000; -341.000
296.143;  -83.550; -558.000; -596.000
296.282; -123.275; -957.000; -881.000
296.420;  -95.050; -657.000; -557.000
296.559;  -82.000; -892.000; -633.000
296.697;  -55.350; -847.000; -665.000
296.835;  -80.725;-1141.000;-1002.000
296.974;   14.800;  -23.000;   39.000
297.112;  -41.025; -443.000; -504.000
297.251;  -99.225; -815.000; -755.000
297.389;  -18.600; -576.000; -438.000
297.527;    7.600; -145.000;  -83.000
297.666;  -73.375; -486.000; -438.000
297.804;  -50.975; -404.000; -264.000
297.942;   -8.150; -136.000; -161.000
298.081;   -0.350; -183.000;   63.000
298.219;   13.900;  -17.000;  -19.000
298.357;  -14.675; -144.000;  -71.000
298.495;  -65.575; -810.000; -812.000
298.634;    1.525;  245.000;  219.000
298.772;  -19.675; -220.000; -338.000
298.910;  -50.900; -309.000; -182.000
299.048;  -24.875; -130.000; -153.000
299.187;  -40.550; -350.000; -250.000
299.325;    8.600;   52.000;  122.000
299.463;  -42.050; -389.000; -299.000
299.601;   -3.025; -327.000; -271.000
299.739; -108.550; -908.000; -883.000
299.877;  -84.900; -791.000; -703.000
300.016; -115.075;-1095.000; -935.000
300.154;   42.950;  -19.000; -161.000
300.292;  -42.425; -428.000; -348.000
300.430;  -21.275; -408.000; -291.000
300.568; -110.600; -940.000; -874.000
300.706;  -63.725; -366.000; -469.000
300.844; -138.550;-1108.000; -979.000
300.982;   64.125;  246.000;  282.000
301.120; -131.400; -965.000; -866.000
301.258;  -91.750; -812.000; -705.000
301.396;    5.200;  104.000;  -41.000
301.534;  -30.600; -218.000; -293.000
301.672;  -76.700; -664.000; -521.000
301.810;  -62.425; -613.000; -545.000
301.948;   15.150;   53.000;  149.000
302.086;  211.025; -250.000;  -32.000
302.224;  256.550; -610.000; -585.000
302.362;  -48.925; -558.000; -622.000
302.500;  -98.500; -923.000; -893.000
302.638;   25.600;  128.000;  245.000
302.776;  -49.775; -352.000; -408.000
302.913;   30.675;  447.000;  236.000
303.051;  -23.125;  -86.000;  -23.000
303.189;   -4.975;   90.000;  118.000
303.327;  -44.200; -341.000; -256.000
303.465;  -95.275; -832.000; -588.000
303.603; -111.425; -805.000; -604.000
303.740;   43.375;  417.000;  241.000
303.878;  -77.550; -800.000; -759.000
304.016; -113.400; -915.000; -790.000
304.154; -145.650;-1123.000;-1152.000
304.291;  -71.625; -505.000; -554.000
304.429;   -4.500;  102.000;   74.000
304.567; -138.175; -908.000; -893.000
304.705;  -69.625; -408.000; -515.000
304.842;  -37.000; -616.000; -540.000
304.980;    7.275;  215.000;   35.000
305.118;   -3.750; -367.000; -365.000
305.255; -126.650; -945.000; -927.000
305.393;   29.000;  178.000;  239.000
305.531; -140.300;-1173.000; -956.000
305.668;  -73.775; -663.000; -582.000
305.806;   10.125; -358.000; -439.000
305.943;  -15.550; -629.000; -637.000
306.081;  -16.950; -378.000; -267.000
306.219; -101.625; -863.000; -748.000
306.356;    5.250;  158.000;   27.000
306.494;  116.925;  981.000;  761.000
306.631;   -6.525;  -11.000;  -55.000
306.769;  -19.900; -613.000; -485.000
306.906;  -41.800; -284.000; -258.000
307.044;  -65.700; -473.000; -488.000
307.181;  -66.900; -410.000; -332.000
307.319;    8.350;  112.000;   87.000
307.456; -154.575;-1191.000;-1153.000
307.594; -128.600; -980.000; -727.000
307.731;  -34.525; -371.000; -164.000
307.868;   -9.675;  -15.000;   20.000
308.006; -127.275; -961.000; -847.000
308.143;  -73.700; -618.000; -330.000
308.281;   40.475;  -37.000; -254.000
308.418;  -58.200; -748.000; -640.000
308.555;  -83.425; -400.000; -250.000
308.693;  -76.200; -577.000; -573.000
308.830; -103.450; -712.000; -657.000
308.967;   -7.975; -215.000;  -95.000
309.105;  -56.300; -507.000; -396.000
309.242;  -13.925; -468.000; -367.000
309.379;   43.975; -577.000; -655.000
309.517; -100.600; -936.000; -948.000
309.654; -109.625; -910.000; -734.000
309.791;  -67.975; -662.000; -580.000
309.928; -119.500; -977.000; -914.000
310.065;  126.350;  819.000;  697.000
310.203;  -67.175; -825.000; -850.000
310.340;  -32.825; -465.000; -321.000
310.477;  -81.350; -412.000; -516.000
310.614;  -54.175; -383.000; -473.000
310.751;  -68.750; -427.000; -518.000
310.889;  -14.375;    1.000;   11.000
311.026; -145.800;-1161.000; -939.000
311.163;  -43.700; -386.000; -380.000
311.300;  -84.525; -512.000; -479.000
311.437;  -77.750; -658.000; -619.000
311.574; -147.100;-1226.000; -985.000
311.711;  -67.200; -595.000; -433.000
311.848;  -33.575; -380.000; -388.000
311.985;    5.125;  270.000;   93.000
312.122; -125.975; -932.000; -762.000
312.259; -125.600; -941.000; -994.000
312.396;  -73.025; -508.000; -551.000
312.533;  -82.875; -812.000; -790.000
312.670; -132.325;-1070.000; -898.000
312.807;  -32.375; -352.000; -367.000
312.944;  -79.175; -513.000; -611.000
313.081;  -20.850; -150.000; -415.000
313.218;  -94.625;-1111.000; -867.000
313.355;  -13.200; -531.000; -449.000
313.492;  -19.075; -455.000; -292.000
313.629;  117.725;  815.000;  735.000
313.766; -145.750;-1176.000;-1008.000
313.902;  -21.650; -186.000;   21.000
314.039;  -50.250; -372.000; -289.000
314.176;   25.925;  286.000;  192.000
314.313;  -62.775; -569.000; -473.000
314.450;  -84.825; -788.000; -684.000
314.587;  -64.125; -468.000; -480.000
314.723;    5.350;  -78.000;  130.000
314.860;   41.000;  318.000;  332.000
314.997;   36.900;  223.000;  142.000
315.134;  -33.300; -385.000; -368.000
315.270;  -33.650; -480.000; -496.000
315.407; -120.825;-1094.000; -967.000
315.544;  -34.675; -657.000; -538.000
315.681;  -54.400; -681.000; -565.000
315.817;   36.125; -133.000; -176.000
315.954;   46.625; -613.000; -392.000
316.091; -121.100;-1045.000;-1023.000
316.227;  -24.975;  -71.000; -179.000
316.364;    5.100;   23.000;    6.000
316.500;  -41.200; -113.000; -300.000
316.637;  -35.875; -181.000; -302.000
316.774;  -91.575; -625.000; -358.000
316.910;  -86.100; -598.000; -629.000
317.047;  -74.500; -487.000; -351.000
317.183;  -43.550; -435.000; -566.000
317.320;   28.250; -367.000; -321.000
317.456;  -31.500; -733.000; -805.000
317.593;  -84.625; -598.000; -641.000
317.729;   -9.700;  168.000;  -67.000
317.866; -189.600;-1434.000;-1285.000
318.002;  -99.500; -708.000; -948.000
318.139; -115.775; -883.000; -867.000
318.275; -106.625;-1003.000; -738.000
318.412;  -77.800; -517.000; -336.000
318.548;  -82.050; -751.000; -720.000
318.685; -107.075; -985.000; -888.000
318.821;  -97.025; -762.000; -735.000
318.957;  -24.525;   34.000;  -23.000
319.094;   25.025;  297.000;  154.000
319.230;  -91.125; -756.000; -742.000
319.367;   -3.750; -471.000; -520.000
319.503;  -19.925; -538.000; -436.000
319.639;  -98.875; -877.000; -793.000
319.775;  -79.550; -750.000; -685.000
319.912;  -52.775; -424.000; -519.000
320.048; -102.850;-1184.000;-1184.000
320.184;  100.450;   59.000;   70.000
320.321;  -47.525; -497.000; -467.000
320.457;   80.725;  475.000;  662.000
320.593;  -67.050; -375.000; -382.000
320.729;  -98.425; -732.000; -734.000
320.866;  -73.525; -577.000; -635.000
321.002; -106.150; -759.000; -809.000
321.138;  -36.350; -135.000; -211.000
321.274;    9.700; -148.000; -115.000
321.410;  -56.675; -585.000; -353.000
321.546;  -97.550;-1011.000; -911.000
321.683;   14.425;  400.000;  185.000
321.819;  -22.400;  -48.000; -117.000
321.955; -104.950; -743.000; -722.000
322.091;  -60.575; -585.000; -540.000
322.227;  -41.825; -382.000; -202.000
322.363;  -50.100; -320.000; -215.000
322.499;  -61.325; -343.000; -331.000
322.635;   95.175;  636.000;  443.000
322.771;  -26.525; -139.000;   12.000
322.907;   47.575;  129.000;  327.000
323.043;  -41.800; -115.000; -206.000
323.179;  -63.275; -394.000; -363.000
323.315;  -52.325; -401.000; -371.000
323.451;   26.450; -328.000; -236.000
323.587;   48.175;  -60.000;  -77.000
323.723;  -48.175; -682.000; -601.000
323.859;  -37.125; -258.000;  -76.000
323.995;  -60.975; -467.000; -409.000
324.131; -120.500; -967.000; -892.000
324.267;  -48.100; -254.000; -276.000
324.402; -136.500; -960.000; -983.000
324.538;  -27.725; -279.000; -104.000
324.674;    1.200;  164.000;   77.000
324.810;   50.800;  226.000;  308.000
324.946;  -48.475; -810.000; -658.000
325.082;  -77.925; -568.000; -475.000
325.217;  -22.950;  -62.000;   16.000
325.353; -101.575; -764.000; -659.000
325.489;  -98.325; -540.000; -506.000
325.625;  -78.725; -579.000; -525.000
325.760;   83.650;  517.000;  376.000
325.896;   17.425; -515.000; -702.000
326.032;  -46.350; -403.000; -352.000
326.168;  -68.325; -462.000; -369.000
326.303;  -69.275; -352.000; -461.000
326.439;  -13.775; -336.000; -276.000
326.575;  -15.325; -190.000;  -29.000
326.710;   -7.225; -156.000;  -30.000
326.846;  -20.000;  146.000;  103.000
326.982;  -92.175; -530.000; -548.000
327.117;  -78.350; -481.000; -442.000
327.253;  -77.900; -745.000; -742.000
327.388; -177.500;-1137.000;-1153.000
327.524;  -80.000; -811.000; -578.000
327.659;  -20.975;  -58.000;  -22.000
327.795;  -19.975;   69.000;   45.000
327.931;  -77.625; -723.000; -499.000
328.066;  -29.300; -417.000; -276.000
328.202;  -48.925;   12.000; -129.000
328.337;   76.675;  957.000;  713.000
328.473;   32.775;  -12.000;  -74.000
328.608;  -31.250; -256.000; -267.000
328.743; -116.400; -799.000; -664.000
328.879;   -9.475;  214.000;  114.000
329.014;  -30.000; -102.000; -122.000
329.150;  -90.500; -358.000; -483.000
329.285;  -75.875; -465.000; -466.000
329.421;  -57.450; -548.000; -246.000
329.556;  -17.275;  -36.000;   85.000
329.691;  -98.475; -633.000; -615.000
329.827;  -79.850; -626.000; -480.000
329.962;  -49.825;  131.000; -301.000
330.097;  -74.700; -673.000; -585.000
330.233;  -48.425; -410.000; -223.000
330.368; -115.650; -839.000; -628.000
330.503;  -27.625;    3.000;   98.000
330.638;  -19.100;  -93.000; -125.000
330.774;  -80.800; -609.000; -530.000
330.909;  -46.600; -434.000; -244.000
331.044; -100.100; -714.000; -708.000
331.179; -168.075;-1217.000;-1109.000
331.315;  -10.175;   77.000;   20.000
331.450;   12.950;  157.000;  285.000
331.585;  -82.250; -805.000; -706.000
331.720;  -93.550; -510.000; -460.000
331.855;   -5.675;  -35.000; -102.000
331.990;  425.275;   62.000;  138.000
332.126;  223.175; -110.000;   71.000
332.261;   -7.475; -379.000; -265.000
332.396;   15.625; -135.000; -242.000
332.531;  -46.800;-1074.000;-1031.000
332.666;   96.575; -519.000; -363.000
332.801;  -92.975; -726.000; -807.000
332.936;  -34.975; -192.000; -122.000
333.071; -123.600; -870.000; -817.000
333.206;    9.850;  307.000;  379.000
333.341;   24.500;  344.000;  418.000
333.476;  -88.850; -627.000; -623.000
333.611;  -55.400; -251.000; -173.000
333.746;  -39.325; -381.000; -464.000
333.881; -126.400; -973.000; -935.000
334.016; -123.225; -936.000; -917.000
334.151; -121.850; -746.000; -702.000
334.286;    9.750;  152.000;  186.000
334.421;   -8.525; -125.000; -178.000
334.556;  -74.450; -611.000; -567.000
334.690;  -81.100; -631.000; -577.000
334.825;   59.200;  381.000;   83.000
334.960;  -53.400; -285.000; -413.000
335.095;    5.900;  135.000;  -91.000
335.230;  -85.975; -722.000; -738.000
335.365; -125.775;-1084.000; -990.000
335.499; -125.400;-1108.000;-1037.000
335.634;   12.025;    9.000;  534.000
335.769;  -94.825; -755.000; -720.000
335.904;  -64.600; -603.000; -561.000
336.038;  -26.700; -735.000; -657.000
336.173; -110.550;-1206.000;-1194.000
336.308;   23.450; -116.000; -189.000
336.443;   52.575; -544.000; -634.000
336.577;  -27.325; -936.000; -787.000
336.712;   84.550;   -4.000;  -12.000
336.847;  -13.875; -724.000; -607.000
336.981;   72.800; -272.000; -208.000
337.116;  328.400;  615.000;  501.000
337.250;  136.725; -434.000; -421.000
337.385;  464.675; -297.000; -208.000
337.520;  230.925; -632.000; -603.000
337.654;  -28.225; -215.000; -126.000
337.789; -125.650; -989.000; -933.000
337.923;  -42.425; -104.000; -205.000
338.058; -108.575; -673.000; -738.000
338.192;  -60.150; -611.000; -488.000
338.327;  -11.400;  -18.000; -155.000
338.461;  -54.025; -299.000; -469.000
338.596;  -95.325; -780.000; -638.000
338.730;  -69.675; -767.000; -803.000
338.865;  158.525;  -46.000; -140.000
338.999;   10.250; -846.000; -702.000
339.134;   -9.450; -634.000; -536.000
339.268;   38.475; -741.000; -603.000
339.403;  552.750; -740.000; -775.000
339.537;  274.350; -894.000; -820.000
339.671;  -86.725; -829.000; -813.000
339.806;  -34.125; -556.000; -512.000
339.940;   39.500; -261.000; -235.000
340.074;  -85.575; -685.000; -510.000
340.209;  -66.575; -351.000; -230.000
340.343;  -93.950; -517.000; -573.000
340.477;  139.800;  998.000; 1036.000
340.612;    6.375;-1033.000; -900.000
340.746;  245.350; -199.000; -243.000
340.880;  -98.325; -924.000; -785.000
341.014;  -20.975;  -45.000; -154.000
341.149; -109.225; -756.000; -718.000
341.283; -119.900; -839.000; -754.000
341.417; -136.325;-1124.000; -938.000
341.551;  -22.100; -768.000; -708.000
341.685;  -56.550; -633.000; -611.000
341.820;  -53.825; -562.000; -493.000
341.954;  -58.050; -218.000; -349.000
342.088; -153.950;-1102.000;-1019.000
342.222;   46.525;  565.000;  618.000
342.356;  -78.575; -395.000; -335.000
342.490; -118.975; -880.000; -841.000
342.624;  -52.375; -339.000; -242.000
342.758;  -54.500; -364.000; -312.000
342.892;  -99.975; -710.000; -585.000
343.026;  -49.375;  -58.000; -116.000
343.160;  -55.375; -426.000; -376.000
343.294;  -80.475; -474.000; -337.000
343.428;  -74.350; -488.000; -448.000
343.562;  -31.975; -172.000;  -23.000
343.696;  -55.025; -385.000; -314.000
343.830;  -59.050; -362.000; -356.000
343.964;  -20.225; -231.000; -168.000
344.098;  305.300;  199.000;   70.000
344.232;  256.600; -266.000; -127.000
344.366;   58.925; -567.000; -453.000
344.500;  -44.000; -665.000; -744.000
344.634;  -34.825; -324.000; -164.000
344.768;  -56.325; -531.000; -341.000
344.902;    1.625;  278.000;  256.000
345.035;  -70.625; -556.000; -496.000
345.169; -139.975; -933.000; -656.000
345.303;  -55.000; -308.000; -482.000
345.437; -104.500; -826.000; -717.000
345.571;  -69.025; -675.000; -594.000
345.704;  -73.100; -309.000; -532.000
345.838;  -30.425; -331.000; -284.000
345.972;  -54.875; -543.000; -495.000
346.106;  245.350; -179.000; -190.000
346.239;  483.775; -312.000; -243.000
346.373;    0.900; -343.000; -302.000
346.507; -137.975; -950.000; -962.000
346.640;   41.025;  -30.000;   13.000
346.774;  -93.125; -650.000; -797.000
346.908;  -31.575; -138.000;  -11.000
347.041;  -95.500; -646.000; -593.000
347.175;   -7.375;  259.000;   27.000
347.309; -114.075; -698.000; -628.000
347.442; -124.825; -883.000; -732.000
347.576;  130.400;  670.000;  668.000
347.709;   54.875; -123.000;  -52.000
347.843; -131.900; -933.000; -825.000
347.976;   28.725;  235.000;  294.000
348.110; -188.675;-1268.000;-1186.000
348.243; -111.000; -679.000; -772.000
348.377;    0.950;  -26.000;   60.000
348.510;   41.575;  403.000;  540.000
348.644;  -43.225;  -37.000; -159.000
348.777;   -3.250;  180.000;  191.000
348.911;  -64.775; -142.000; -112.000
349.044;   74.075;  471.000;  448.000
349.178;  -32.075;-1069.000;-1006.000
349.311;  106.350;  141.000;  255.000
349.444;   35.050; -927.000; -813.000
349.578;  -25.325; -347.000; -200.000
349.711; -130.850; -959.000; -862.000
349.845;  -71.025; -661.000; -591.000
349.978; -160.900;-1224.000;-1137.000
350.111;  -92.525; -546.000; -612.000
350.244; -115.875; -596.000; -700.000
350.378;  -55.750; -392.000; -393.000
350.511;  -77.650; -393.000; -426.000
350.644;  -99.075; -808.000; -806.000
350.778;    8.350;  168.000;  104.000
350.911;  -10.200;  134.000;  140.000
351.044; -116.225; -685.000; -615.000
351.177;  -46.325; -321.000; -281.000
351.310;  -24.950;    3.000; -131.000
351.444; -119.275; -888.000; -788.000
351.577;   43.850;  140.000;   90.000
351.710;   69.825;  593.000;  417.000
351.843;  -34.425; -165.000;  -77.000
351.976;  -12.075;  149.000;  -79.000
352.109;  -99.150; -621.000; -612.000
352.242;  -48.800; -464.000; -419.000
352.376;  -95.500; -580.000; -636.000
352.509;   17.675; -437.000; -356.000
352.642;  -79.875; -654.000; -604.000
352.775;   13.500; -141.000;  -98.000
352.908; -130.350; -933.000; -904.000
353.041; -104.250; -814.000; -824.000
353.174;  -66.575; -551.000; -424.000
353.307;  -99.275; -753.000; -764.000
353.440;   59.050;  541.000;  453.000
353.573;  -96.325; -957.000;-1008.000
353.706;  -52.925; -384.000; -558.000
353.839;  -23.025; -264.000; -220.000
353.971;  -88.225; -657.000; -512.000
354.104;  -99.100; -896.000; -835.000
354.237;  -78.025; -627.000; -662.000
354.370;  -98.175; -846.000; -879.000
354.503; -178.250;-1231.000;-1308.000
354.636;  -16.500; -529.000; -348.000
354.769; -126.975; -937.000; -860.000
354.902;  -26.450; -230.000; -139.000
355.034;  -18.000; -164.000; -220.000
355.167;  -12.350; -262.000; -162.000
355.300;  -76.700;-1061.000; -880.000
355.433; 1433.000;  -71.000;  -14.000
355.565; 2263.050; -402.000; -384.000
355.698;  578.825; -356.000; -296.000
355.831;   -4.750; -882.000; -801.000
355.964;   23.900; -285.000; -170.000
356.096;  -78.150; -856.000; -843.000
356.229;   -5.750; -523.000; -530.000
356.362;  537.775; -373.000; -266.000
356.494;  902.675; -229.000; -162.000
356.627;  352.175;  269.000;  377.000
356.760;  915.000;  120.000;   53.000
356.892; 1499.675; -286.000; -601.000
357.025;  359.000;  403.000;  389.000
357.157;  259.175; -167.000; -179.000
357.290; 1216.825; -856.000; -713.000
357.423;  375.275; -667.000; -556.000
357.555;  115.200; -217.000; -228.000
357.688;  140.275; -483.000; -364.000
357.820;  189.125; -870.000; -877.000
357.953; 1633.475; -563.000; -589.000
358.085;  267.450; -632.000; -612.000
358.218;  126.825;-1131.000; -932.000
358.350;   59.425;  -58.000;  312.000
358.483; -156.925;-1300.000;-1187.000
358.615; -135.350;-1182.000;-1078.000
358.747; -160.275;-1187.000;-1058.000
358.880;  -58.825; -810.000; -744.000
359.012;  -28.450; -376.000; -202.000
359.145;  -67.325; -480.000; -511.000
359.277;  -46.650; -962.000; -913.000
359.409; 1359.850;  536.000;  231.000
359.542;  290.450; -738.000; -688.000
359.674;   18.850;   46.000;   13.000
359.806;  -75.675; -565.000; -438.000
359.939;  -34.550; -617.000; -516.000
360.071;   21.050; -583.000; -579.000
360.203;  -16.075; -411.000; -364.000
360.335;   16.150;  164.000;  -16.000
360.468;   97.300; -249.000; -307.000
360.600; 1401.175; -547.000; -454.000
360.732; 4241.525; -546.000; -423.000
360.864;  666.500;-1216.000;-1044.000
360.996;   78.300; -516.000; -554.000
361.129;  -36.125; -389.000; -598.000
361.261;  -10.575;  110.000; -113.000
361.393;  -48.950; -252.000; -214.000
361.525;    6.400;   94.000;  244.000
361.657;  -99.475; -821.000; -703.000
361.789;  -40.275; -139.000; -155.000
361.921;  -52.825; -642.000; -593.000
362.053;   82.975;  524.000;  541.000
362.185;    1.450;  288.000;   72.000
362.318; -116.675; -709.000; -705.000
362.450;   34.850;  294.000;  444.000
362.582;  -76.325; -913.000; -870.000
362.714;  -56.350; -353.000; -332.000
362.846; -101.225; -606.000; -490.000
362.978; -138.875; -941.000; -811.000
363.109;  -34.025; -161.000; -260.000
363.241;  142.225; -739.000; -749.000
363.373;  601.175; -649.000; -564.000
363.505; 1029.025; -186.000;  -91.000
363.637;  223.550; -787.000; -601.000
363.769; -132.775;-1067.000;-1080.000
363.901;  -76.600; -596.000; -654.000
364.033; -155.675;-1103.000;-1062.000
364.165;  -18.450; -283.000; -283.000
364.296;   87.925; -316.000; -177.000
364.428;  178.550;-1344.000;-1220.000
364.560;  -54.925; -679.000; -661.000
364.692;  -93.700; -738.000; -835.000
364.824;    6.350; -588.000; -456.000
364.955;  503.125; -402.000; -564.000
365.087; 1692.800;-1097.000; -852.000
365.219;  114.975; -686.000; -816.000
365.351;  -70.050; -526.000; -572.000
365.482;   21.650;  300.000;  240.000
365.614;  -68.900; -402.000; -314.000
365.746;  -96.200; -729.000; -752.000
365.877;  -97.375; -706.000; -672.000
366.009;  415.350;  -35.000;  -62.000
366.141;  -44.225;-1249.000;-1134.000
366.272; -107.725; -803.000; -719.000
366.404; -112.325;-1005.000; -874.000
366.535;  -14.450; -139.000;  -12.000
366.667;  -96.725; -644.000; -649.000
366.799;   15.800;  353.000;  203.000
366.930; -133.350; -862.000; -996.000
367.062;  202.650; -639.000; -613.000
367.193;  359.500; -872.000; -842.000
367.325;  -45.800; -580.000; -684.000
367.456;   -3.350; -246.000;   31.000
367.588;  264.400; -371.000; -318.000
367.719;   37.725;  -44.000;  -45.000
367.851;  -45.275; -222.000; -241.000
367.982; -111.525; -875.000; -732.000
368.113;  -14.050; -475.000; -358.000
368.245; -151.400; -960.000; -841.000
368.376;  -41.475; -254.000; -302.000
368.508;  -76.350; -188.000; -263.000
368.639; -152.775;-1166.000;-1034.000
368.770;  -90.300; -670.000; -589.000
368.902; -109.875; -836.000; -926.000
369.033; -112.250; -906.000; -855.000
369.164;  -35.625; -720.000; -653.000
369.296; -109.750; -452.000; -601.000
369.427;  -28.000; -209.000; -144.000
369.558;  -73.425; -593.000; -377.000
369.689;  -79.200; -721.000; -569.000
369.821; -133.225; -951.000; -845.000
369.952;  -35.850;   42.000; -108.000
370.083;  -65.775; -229.000; -108.000
370.214;  -97.125; -735.000; -650.000
370.345;  -20.425;   65.000;   81.000
370.477; -115.125; -810.000; -790.000
370.608;   26.950; -328.000; -264.000
370.739; -126.000;-1233.000;-1292.000
370.870; -119.500;-1102.000; -923.000
371.001;  -25.700; -378.000; -467.000
371.132;  -96.950; -754.000; -735.000
371.263;  -40.375;  -42.000; -148.000
371.394; -139.025; -841.000; -748.000
371.525;    4.700;  345.000;  225.000
371.657; -106.800; -808.000; -670.000
371.788;   19.300;  103.000;  199.000
371.919;   28.600; -384.000; -304.000
372.050; 1377.750;  -91.000; -156.000
372.181;  423.550; -188.000; -294.000
372.311;  106.025;   42.000; -127.000
372.442;  -45.325; -457.000; -451.000
372.573;  -55.675; -444.000; -340.000
372.704; -147.150;-1008.000; -980.000
372.835;  -16.700; -228.000; -289.000
372.966;  -91.550; -646.000; -554.000
373.097;  -95.575; -575.000; -711.000
373.228;  -97.200; -717.000; -542.000
373.359;  -42.875; -824.000; -536.000
373.490;  174.900; -881.000; -727.000
373.620;  279.450;-1001.000; -803.000
373.751;  581.850; -332.000; -396.000
373.882;  243.375; -663.000; -733.000
374.013;  -19.475; -449.000; -262.000
374.143;  -68.750; -581.000; -659.000
374.274; -137.700; -987.000; -908.000
374.405;   47.475; -388.000; -276.000
374.536;  126.000; -526.000; -387.000
374.666;  300.500; -759.000; -807.000
374.797;    0.025; -817.000; -868.000
374.928;  195.125; -710.000; -560.000
375.058;  205.125; -535.000; -500.000
375.189;    1.750;  -59.000;  -93.000
375.320; -117.100; -928.000;-1034.000
375.450;  -52.350; -625.000; -616.000
375.581;  -41.400; -526.000; -436.000
375.712;  -55.150; -574.000; -250.000
375.842;   29.700; -438.000; -415.000
375.973;  -12.900; -554.000; -513.000
376.103; -107.925; -665.000; -648.000
376.234;  -98.550; -531.000; -552.000
376.364; -124.600; -944.000; -867.000
376.495;  146.825;  925.000;  529.000
376.625;  -80.350; -472.000; -485.000
376.756;  -59.000; -709.000; -678.000
376.886; -133.200;-1178.000;-1026.000
377.017;  155.175;-1048.000;-1061.000
377.147;  637.450; -786.000; -782.000
377.278;   89.975;  174.000;  228.000
377.408; -123.375; -801.000; -815.000
377.538; -101.625; -707.000; -693.000
377.669;  -82.375; -537.000; -613.000
377.799; -103.300; -645.000; -635.000
377.929;  -87.100; -610.000; -428.000
378.060; -131.400; -781.000; -847.000
378.190;  -53.800; -726.000; -531.000
378.320;  -53.150; -401.000; -406.000
378.451;  -14.025; -131.000;  -22.000
378.581;  -29.725;  -67.000; -110.000
378.711;  104.075; 1035.000;  866.000
378.841;  -78.025; -533.000; -675.000
378.972; -110.100; -871.000; -751.000
379.102;  -65.175; -652.000; -579.000
379.232;  -47.475; -126.000;  -73.000
379.362; -136.125;-1001.000; -885.000
379.492;  -71.175; -373.000; -424.000
379.623;   39.275;    0.000;  111.000
379.753; -137.800;-1107.000; -974.000
379.883;   84.150;   59.000;  156.000
380.013;  -82.525;-1081.000;-1017.000
380.143; -121.350;-1097.000;-1056.000
380.273; -116.975; -985.000; -861.000
380.403;    9.800; -344.000; -257.000
380.533;  -36.275; -651.000; -664.000
380.663;   30.200;  173.000;  128.000
380.793; -151.200;-1027.000;-1074.000
380.923;  -46.600; -103.000;  -34.000
381.053; -112.125; -613.000; -623.000
381.183;  -46.875; -106.000; -248.000
381.313;  -61.600; -656.000; -470.000
381.443;  -51.700; -692.000; -473.000
381.573;  -39.850; -402.000; -409.000
381.703;  -81.225;-1249.000;-1095.000
381.833; -195.950;-1454.000;-1336.000
381.963;   28.825; -134.000;  -87.000
382.093;  429.775; -925.000; -909.000
382.223;   90.250; -713.000; -602.000
382.353;  -85.725; -801.000; -608.000
382.482;   10.525;-1091.000; -964.000
382.612;  207.400; -872.000; -644.000
382.742;   72.650; -695.000; -622.000
382.872;  -16.475; -565.000; -551.000
383.002;   33.175;  347.000; -132.000
383.131;  -28.950; -226.000; -160.000
383.261;  -62.800; -706.000; -768.000
383.391;  319.300; -552.000; -377.000
383.521; 5049.150;  451.000;  263.000
383.650; 1486.825; -947.000; -904.000
383.780;   31.050; -783.000; -656.000
383.910;   93.400;  880.000;  802.000
384.039;  -80.300; -794.000; -656.000
384.169;  -89.575;-1205.000;-1017.000
384.299;  -87.250; -650.000; -662.000
384.428; -118.950; -764.000; -680.000
384.558;  -70.900; -308.000; -275.000
384.687;  -82.775; -414.000; -334.000
384.817;  -10.050;   75.000;   -2.000
384.947;  -37.375; -234.000; -141.000
385.076;  165.775;  982.000;  912.000
385.206;   45.875;  369.000;  480.000
385.335;  -70.075; -549.000; -417.000
385.465; -107.525; -655.000; -663.000
385.594;   21.700;  -53.000;  -44.000
385.724;   54.925; -868.000; -838.000
385.853;   -3.500; -296.000; -270.000
385.982;  384.825; -743.000; -787.000
386.112;  694.350;-1052.000; -871.000
386.241;    3.200; -307.000; -312.000
386.371;  -31.125; -174.000;  -87.000
386.500;  -46.650; -825.000; -789.000
386.629;   -6.975; -874.000; -817.000
386.759;   75.325;  -43.000;   68.000
386.888;  -18.800; -170.000; -250.000
387.017;  -95.900; -648.000; -620.000
387.147; -108.325; -771.000; -798.000
387.276;  -67.075; -410.000; -397.000
387.405;  -45.050; -398.000; -342.000
387.535;  -78.600; -452.000; -361.000
387.664;  -68.825; -692.000; -620.000
387.793;  -28.650; -198.000; -113.000
387.922;  160.575;  255.000;  200.000
388.052;  -61.900; -576.000; -423.000
388.181;  -57.975; -342.000; -472.000
388.310;  -91.125; -889.000; -710.000
388.439; -107.450; -749.000; -742.000
388.568;   49.325;  365.000;  244.000
388.697;  272.200; -756.000; -653.000
388.826;   -9.650; -768.000; -666.000
388.956;  -44.700; -285.000; -307.000
389.085;  -61.325; -347.000; -287.000
389.214; -124.375; -842.000; -872.000
389.343;  -61.875; -645.000; -413.000
389.472;  552.250;  126.000;  149.000
389.601;  615.225;   91.000;    0.000
389.730;  -24.375; -568.000; -687.000
389.859;   19.400;  226.000;   46.000
389.988;   38.375; -423.000; -408.000
390.117;   27.400; -168.000; -146.000
390.246;  -50.125; -331.000; -320.000
390.375;  -57.450; -673.000; -626.000
390.504; -109.675; -703.000; -621.000
390.633; -135.075; -672.000; -726.000
390.761; -109.000; -732.000; -645.000
390.890;  -34.200;   -4.000; -130.000
391.019;  -75.750; -421.000; -441.000
391.148; -133.825; -826.000; -855.000
391.277;  -98.975; -576.000; -493.000
391.406; -121.275; -821.000; -805.000
391.534;  -14.300;  574.000; -301.000
391.663;  -97.125; -583.000; -645.000
391.792; -107.650; -673.000; -701.000
391.921;   -1.950;   -3.000;   15.000
392.050;    8.850; -287.000; -228.000
392.178; -144.100;-1206.000;-1061.000
392.307;  -29.400; -758.000; -712.000
392.436;  -48.975; -427.000; -641.000
392.564;    5.725;  166.000;   -6.000
392.693; -110.175; -860.000; -682.000
392.822;    4.175; -529.000; -534.000
392.950;  -48.200; -880.000; -714.000
393.079;   62.150; -188.000; -328.000
393.208;  -51.000; -488.000; -511.000
393.336;  -35.450; -170.000; -145.000
393.465;  -48.375; -317.000; -199.000
393.593;   -7.075;   62.000;   79.000
393.722; -155.650;-1121.000; -916.000
393.850;  -21.700; -188.000;  -61.000
393.979; -155.050; -926.000; -805.000
394.107;  -66.100; -517.000; -537.000
394.236;  -64.150; -570.000; -507.000
394.364;   95.700;  383.000;  206.000
394.493;   80.975; -911.000; -767.000
394.621;  -10.800; -955.000; -916.000
394.750; 1135.575; -873.000; -923.000
394.878; 4444.850; -247.000; -149.000
395.007; 6437.025; -721.000; -807.000
395.135;  574.675; -790.000; -721.000
395.263;  -70.200;-1038.000;-1040.000
395.392;    7.750;  -25.000; -107.000
395.520; -138.750; -818.000; -679.000
395.648; -130.325; -865.000; -915.000
395.777;  -71.800; -366.000; -405.000
395.905;  -80.450; -449.000; -564.000
396.033;   -6.950;  217.000;  172.000
396.162;  133.475; -399.000; -453.000
396.290;  123.950;  -17.000;   -2.000
396.418;  -46.350; -555.000; -514.000
396.546; -128.875; -571.000; -466.000
396.674; -124.450; -850.000; -878.000
396.803;  -35.050;  -72.000;  -23.000
396.931;  -19.275; -179.000; -199.000
397.059; -145.225;-1026.000; -989.000
397.187; -140.975;-1026.000; -975.000
397.315; -148.450; -884.000; -649.000
397.443; -116.275; -592.000; -443.000
397.572; -110.000; -578.000; -424.000
397.700;  -91.300; -607.000; -614.000
397.828;  -32.950;  120.000;  -90.000
397.956;  -25.625; -508.000; -478.000
398.084;  -32.225; -767.000; -626.000
398.212;   -0.150;  137.000;  124.000
398.340;  -26.350;  -56.000;  159.000
398.468;  -55.600; -390.000; -169.000
398.596; -159.025; -993.000; -953.000
398.724; -123.775; -762.000; -767.000
398.852; -162.700;-1024.000; -976.000
398.980;  -87.450; -560.000; -560.000
399.108; -105.825; -982.000; -735.000
399.236;  -22.425;   13.000;    8.000
399.363;   -1.575;  222.000;  196.000
399.491;  -68.175; -404.000; -398.000
399.619; -120.975; -829.000; -800.000
399.747; -113.325; -859.000; -771.000
399.875;   36.000;  220.000;  234.000
400.003;  -53.350; -359.000; -284.000
400.130;  -87.100; -421.000; -341.000
400.258;  -34.675;  -83.000;   38.000
400.386;  -70.500; -352.000; -168.000
400.514;  -89.825; -526.000; -587.000
400.641; -149.400; -928.000; -802.000
400.769; -158.900; -979.000; -888.000
400.897; -128.950; -838.000; -793.000
401.025;  -37.125; -166.000; -152.000
401.152;  -13.200;  220.000;   38.000
401.280;  -83.950; -430.000; -429.000
401.408; -123.550; -712.000; -576.000
401.535; -120.900; -735.000; -758.000
401.663; -192.275;-1134.000;-1054.000
401.790;  -91.600; -514.000; -525.000
401.918;   25.625;  436.000;  405.000
402.046;  -23.000;  134.000;  122.000
402.173;  -33.650;  -18.000;    7.000
402.301;  -74.375; -519.000; -397.000
402.428;   39.525;  528.000;  383.000
402.556; -150.175;-1188.000; -913.000
402.683;  -45.650;  -20.000;   -1.000
402.811;  -33.850;  -37.000; -206.000
402.938;  -20.700;   20.000;   27.000
403.066;    4.850; -574.000; -558.000
403.193;  113.025;  299.000;  239.000
403.321;   53.150; -396.000; -574.000
403.448;  116.100;   83.000;   27.000
403.575;   34.525;  -90.000;  -46.000
403.703;  -94.900; -732.000; -557.000
403.830;  -68.350; -531.000; -496.000
403.957; -132.425;-1117.000;-1023.000
404.085;   24.025;  -61.000; -172.000
404.212;  112.500;  -50.000;   63.000
404.339;  429.775; -566.000; -306.000
404.467; 8945.000; -612.000; -524.000
404.594; 5367.925; -287.000; -227.000
404.721;  935.100; -869.000; -764.000
404.848;  112.950; -113.000; -202.000
404.976;  -98.875; -856.000; -783.000
405.103;  -16.175;  -14.000;  -82.000
405.230;   -0.450;  190.000;  226.000
405.357;   40.850;  117.000;   44.000
405.484;  431.400;  -49.000;    5.000
405.612;  104.550; -548.000; -563.000
405.739;  -55.350; -488.000; -243.000
405.866;   83.875;  669.000;  385.000
405.993;  -51.450; -398.000; -102.000
406.120; -141.625; -801.000; -887.000
406.247;  -92.725; -323.000; -342.000
406.374;  106.625;  540.000;  629.000
406.501;  -78.075; -632.000; -702.000
406.628; -113.325; -621.000; -589.000
406.755; -122.275; -803.000; -620.000
406.882;  -58.800; -228.000; -277.000
407.009; -119.475; -719.000; -628.000
407.136;  -44.825; -480.000; -401.000
407.263;  -49.250; -939.000; -829.000
407.390; -113.150; -692.000; -614.000
407.517; -186.000;-1139.000;-1187.000
407.644;  -81.225; -332.000; -256.000
407.771;  -90.225; -249.000; -287.000
407.898;  -15.900;  168.000;  328.000
408.025;  -90.375; -421.000; -313.000
408.151;  -11.750;   82.000;  153.000
408.278;  -79.000; -267.000; -216.000
408.405; -143.375; -931.000; -899.000
408.532;  -97.725; -549.000; -542.000
408.659; -122.350; -677.000; -648.000
408.785; -195.125;-1298.000;-1170.000
408.912;  -54.400; -412.000; -296.000
409.039; -104.275; -610.000; -686.000
409.166; -107.950; -591.000; -555.000
409.292; -113.175; -571.000; -534.000
409.419; -126.825; -665.000; -649.000
409.546;  -78.325; -431.000; -192.000
409.672; -115.850; -713.000; -545.000
409.799;  -32.625;  -36.000;   34.000
409.926;  -47.825; -180.000; -179.000
410.052; -184.825;-1127.000;-1091.000
410.179;  -71.750; -368.000; -392.000
410.305;  -79.950; -375.000; -493.000
410.432;  -50.600; -220.000; -333.000
410.558;  -96.100; -305.000; -380.000
410.685; -108.375; -688.000; -431.000
410.812; -112.725; -409.000; -588.000
410.938; -138.700; -964.000; -808.000
411.065; -114.475; -671.000; -645.000
411.191;  -28.475; -189.000; -174.000
411.317; -142.600; -823.000; -742.000
411.444;  -76.075; -317.000; -246.000
411.570;  -68.425; -339.000; -294.000
411.697; -132.050; -758.000; -752.000
411.823; -170.250; -989.000; -999.000
411.949;  -58.900;  -56.000;   17.000
412.076; -115.150; -539.000; -519.000
412.202; -124.725; -758.000; -757.000
412.329; -140.400; -798.000; -752.000
412.455; -114.400; -821.000; -657.000
412.581;  -30.225;  -15.000;  172.000
412.707;  -88.525; -540.000; -457.000
412.834;   -2.900;  156.000;  219.000
412.960; -100.200; -785.000; -784.000
413.086; -111.200; -743.000; -701.000
413.212;  105.600;  604.000;  578.000
413.339; -108.125; -685.000; -701.000
413.465;  -52.800; -364.000; -310.000
413.591; -102.800; -757.000; -474.000
413.717;  -46.175; -358.000; -366.000
413.843; -132.325; -839.000; -861.000
413.969;  -59.125;  -47.000; -292.000
414.096; -108.675; -679.000; -679.000
414.222;  -14.575;  -33.000;   85.000
414.348;  -86.375; -652.000; -385.000
414.474;   -1.625;   38.000;  -52.000
414.600;  -23.750; -126.000; -144.000
414.726;  -16.750;  -96.000;  -55.000
414.852;  -54.225; -365.000; -342.000
414.978;   35.800;  104.000;  -18.000
415.104;   56.725;   38.000;   80.000
415.230;   54.325; -329.000; -330.000
415.356;   63.025; -409.000; -514.000
415.482;  228.250;   13.000;  -35.000
415.608;  384.525; -247.000; -323.000
415.734; 1325.800;   67.000;   38.000
415.860;27573.200; -875.000; -767.000
415.986;22230.475; -685.000; -607.000
416.111; 2006.550; -798.000; -652.000
416.237;  443.175; -424.000; -571.000
416.363; 1683.775; -765.000; -733.000
416.489; 6663.525; -324.000; -251.000
416.615;  897.250; -707.000; -742.000
416.741;   53.750; -677.000; -784.000
416.866;  -67.925; -673.000; -736.000
416.992; -110.925; -801.000; -818.000
417.118;  -23.075;  -41.000;  -80.000
417.244;  -62.125; -798.000; -531.000
417.369;  -84.550; -801.000; -612.000
417.495;  -17.400; -325.000; -254.000
417.621;  -87.325;-1015.000; -803.000
417.746;    5.725; -579.000; -572.000
417.872;   76.200; -254.000; -144.000
417.998;  121.225; -515.000; -530.000
418.123; 1565.950;-1073.000; -845.000
418.249; 8471.300; -512.000; -601.000
418.374; 1429.225; -916.000; -824.000
418.500;  205.900; -383.000; -482.000
418.626;  156.175;   70.000;  -59.000
418.751;  149.675; -549.000; -448.000
418.877;  307.975; -637.000; -643.000
419.002; 2577.650; -688.000; -560.000
419.128;19313.725; -930.000; -721.000
419.253; 5343.250; -967.000; -837.000
419.379;  745.500; -391.000; -338.000
419.504;  574.450;  325.000;  415.000
419.629;  812.875; -393.000; -212.000
419.755; 5376.750; -317.000; -254.000
419.880;34556.450;  -98.000;   67.000
420.006;17381.575; -280.000; -221.000
420.131;43053.200; -662.000; -775.000
420.256; 6819.700; -315.000; -316.000
420.382;  915.375; -665.000; -687.000
420.507;  165.850; -649.000; -778.000
420.632;   39.025; -337.000; -339.000
420.758;   43.575; -251.000; -425.000
420.883;  -94.600; -876.000; -672.000
421.008; -111.275; -775.000; -619.000
421.133;  -96.025; -509.000; -467.000
421.259;  -54.675; -325.000; -259.000
421.384; -131.800; -834.000; -693.000
421.509; -117.375;-1052.000; -862.000
421.634;  163.150; -936.000; -820.000
421.759;   78.850; -359.000; -327.000
421.885; -108.325; -717.000; -656.000
422.010;  -98.000; -673.000; -542.000
422.135; -149.375; -695.000; -727.000
422.260;    8.450;  340.000;  280.000
422.385;  -40.300;   12.000;  -98.000
422.510;   -6.675;  151.000;  -26.000
422.635;  -21.225;  -87.000;  -43.000
422.760;  -14.375; -766.000; -791.000
422.885;   24.075;  -57.000;  -80.000
423.010;  -35.125; -112.000; -169.000
423.135;  -99.125; -481.000; -561.000
423.260;  -47.125; -150.000; -245.000
423.385;   23.150;  476.000;  222.000
423.510;   -1.925;   71.000;  -22.000
423.635;    0.175;  133.000;   45.000
423.760;   41.125;  383.000;  328.000
423.885;   34.775;  336.000;  391.000
424.010;    3.600;  -68.000;  -13.000
424.135;  -30.150;    5.000;  -33.000
424.259;  -80.925; -654.000; -457.000
424.384;  -48.650; -279.000; -272.000
424.509;  -22.275; -260.000; -186.000
424.634;  -77.975; -761.000; -623.000
424.759;  -34.075; -688.000; -544.000
424.883;   -3.250; -506.000; -527.000
425.008;  197.450; -502.000; -410.000
425.133; 2887.425; -679.000; -653.000
425.258; 1509.425; -517.000; -381.000
425.382;  526.350; -867.000; -774.000
425.507; 1217.900; -487.000; -543.000
425.632;  387.075; -802.000; -663.000
425.756;  697.125; -256.000; -146.000
425.881;10209.475; -831.000; -857.000
426.006;30695.775; -604.000; -355.000
426.130; 4933.800; -696.000; -508.000
426.255;  677.825; -611.000; -491.000
426.379;  274.575; -189.000; -577.000
426.504;  503.950;  660.000;  544.000
426.629; 5666.675; -519.000; -466.000
426.753; 4362.350;   64.000;  -46.000
426.878;  531.000; -252.000; -288.000
427.002;  314.175; -651.000; -668.000
427.127; 2108.875;  -35.000; -158.000
427.251;17181.150;  372.000;  401.000
427.375; 5492.975; -191.000; -173.000
427.500; 1342.000; -616.000; -610.000
427.624;  417.100; -234.000; -400.000
427.749;   71.350; -216.000; -225.000
427.873;  -19.925; -499.000; -412.000
427.997;  -39.750; -222.000; -230.000
428.122;   71.175;  795.000;  703.000
428.246;   37.800;  433.000;  434.000
428.371; -144.775; -869.000; -773.000
428.495; -111.200; -624.000; -646.000
428.619;  -35.600; -186.000; -117.000
428.743;   11.525;   65.000;  132.000
428.868;  -72.100; -732.000; -643.000
428.992;  537.175; -219.000; -326.000
429.116;  202.125; -329.000; -357.000
429.240;   96.975;  419.000;  426.000
429.365;  -57.675; -454.000; -574.000
429.489;  -59.500; -638.000; -647.000
429.613;   28.975; -236.000; -177.000
429.737;   93.725; -563.000; -432.000
429.861;  369.150; -247.000; -133.000
429.985; 7921.475; -425.000; -305.000
430.109; 9918.275; -770.000; -908.000
430.234; 1213.550;   76.000;  -50.000
430.358;  147.075; -250.000; -160.000
430.482;  -49.050; -672.000; -564.000
430.606;  -81.550; -655.000; -375.000
430.730;  -73.125; -437.000; -388.000
430.854;  -98.100; -909.000; -835.000
430.978;  -97.950; -795.000; -764.000
431.102;  -96.300; -499.000; -422.000
431.226; -124.000; -874.000; -815.000
431.350;   -0.575;  345.000;  422.000
431.474;  -89.225; -661.000; -373.000
431.597; -157.225;-1060.000; -848.000
431.721;  -74.900; -276.000; -267.000
431.845; -135.475; -704.000; -472.000
431.969;  -74.750; -304.000; -349.000
432.093;  -92.275; -395.000; -317.000
432.217;  -19.700;   32.000;   82.000
432.341;  -92.975; -523.000; -518.000
432.464;  -14.725;   96.000;   40.000
432.588;  -27.325; -401.000; -329.000
432.712;   34.175;  -52.000;  -52.000
432.836;   68.275;  213.000;  263.000
432.959;   21.325; -372.000; -311.000
433.083;  155.725;   11.000;    2.000
433.207;  557.900;  285.000;  930.000
433.330; 7633.575; -391.000; -200.000
433.454;10407.525; -654.000; -638.000
433.578; 5780.175;  583.000;  278.000
433.701; 1207.225; -623.000; -675.000
433.825;  149.850; -292.000; -299.000
433.949;   44.125;   28.000;  -72.000
434.072;  -25.500; -410.000; -323.000
434.196;   -8.950; -309.000; -117.000
434.319; 3573.250;25482.000;25124.000
434.443;  868.450; -656.000; -603.000
434.566; 4063.825;  281.000;   62.000
434.690;  870.400; -637.000; -383.000
434.813;  150.450; -251.000; -173.000
434.937;  -42.250; -569.000; -696.000
435.060;  -85.150; -423.000; -332.000
435.184;  -16.075; -492.000; -217.000
435.307;   11.050;  159.000;  102.000
435.431;  -33.875;  -40.000;   24.000
435.554;  -88.175; -399.000; -240.000
435.677;  -89.175; -350.000; -258.000
435.801;  -38.525;  -25.000;   49.000
435.924;  -34.700;    1.000;  -67.000
436.048; -145.775;-1019.000; -732.000
436.171;  -72.175; -240.000;  -66.000
436.294;   -6.900; -248.000; -229.000
436.417;  216.175; -963.000; -849.000
436.541;  -29.500; -814.000; -840.000
436.664;  -56.725; -242.000; -316.000
436.787;  -30.750;   13.000;  113.000
436.910; -118.875; -792.000; -422.000
437.034;  -19.400;  142.000;  143.000
437.157;    0.825;  -11.000;    0.000
437.280;  -93.800; -392.000; -292.000
437.403; -141.625; -982.000; -869.000
437.526;   23.175; -903.000; -865.000
437.649;  502.050; -505.000; -332.000
437.772;   -0.125; -692.000; -540.000
437.896;   50.850;  700.000;  544.000
438.019; -101.425; -758.000; -503.000
438.142; -106.950; -596.000; -506.000
438.265; -119.125; -639.000; -670.000
438.388;   13.150; -520.000; -410.000
438.511;  -65.325; -597.000; -394.000
438.634;  -76.300; -247.000; -125.000
438.757; -144.725; -693.000; -619.000
438.880;  -42.725;  -34.000;  -57.000
439.003; -104.025; -417.000; -437.000
439.126;  -74.575; -287.000; -167.000
439.248;  -77.500;  -98.000; -139.000
439.371;  -48.000;    9.000;  -53.000
439.494;   10.350;  510.000;  439.000
439.617;  -55.750;   65.000;  -88.000
439.740; -176.350; -968.000; -816.000
439.863; -138.600; -755.000; -595.000
439.986; -128.350; -476.000; -431.000
440.108;  -45.500; -161.000; -112.000
440.231; -172.975; -950.000; -836.000
440.354;  -63.125;  -64.000; -150.000
440.477; -108.675; -566.000; -542.000
440.599;  -98.000; -200.000; -225.000
440.722; -132.500; -709.000; -586.000
440.845;   41.100;  751.000;  928.000
440.968; -116.900; -415.000; -311.000
441.090;  -78.450; -199.000;  -33.000
441.213; -161.000;-1021.000; -825.000
441.336;  -76.950; -159.000;   -5.000
441.458;  -93.800; -549.000; -396.000
441.581; -130.775; -628.000; -629.000
441.703;  -72.450; -152.000;   13.000
441.826; -122.275; -557.000; -400.000
441.948;  -49.750;   56.000;   51.000
442.071;   34.150;  555.000;  424.000
442.193; -123.600; -531.000; -485.000
442.316;   10.575;  152.000;   97.000
442.438;   73.975; -233.000;  -10.000
442.561;   60.975;  272.000;  262.000
442.683;   54.425; -809.000; -522.000
442.806;  257.425;   -8.000;   74.000
442.928;  -90.250; -859.000; -604.000
443.051;  -89.650; -577.000; -373.000
443.173; -106.500; -341.000; -339.000
443.295; -109.400; -263.000; -371.000
443.418;  -99.500; -321.000;  -29.000
443.540;  -45.350; -106.000;   -4.000
443.662; -131.925; -563.000; -465.000
443.785;  -27.125;  335.000;  199.000
443.907; -110.525; -362.000; -208.000
444.029; -127.325; -767.000; -494.000
444.152; -130.825; -644.000; -554.000
444.274;  -47.700;  -18.000;  -24.000
444.396; -114.125; -461.000; -221.000
444.518; -138.200; -691.000; -454.000
444.640; -100.750; -268.000; -111.000
444.763;  -24.175;  388.000;  249.000
444.885; -114.800; -432.000; -392.000
445.007;  -24.650;   35.000;   86.000
445.129; -135.500; -610.000; -515.000
445.251; -103.950; -372.000; -439.000
445.373; -147.375; -537.000; -386.000
445.495;   -4.025;  242.000;  350.000
445.617;   43.950;  853.000;  753.000
445.739;  -84.950; -215.000;  -97.000
445.861;  -68.600; -245.000; -112.000
445.984;  -74.175; -267.000; -101.000
446.105;  -30.175; -418.000; -251.000
446.227;   99.575; -176.000;  -19.000
446.349;  -73.500; -358.000; -249.000
446.471; -124.250; -615.000; -448.000
446.593;  -85.350; -316.000;   19.000
446.715;  -57.325;  -67.000;   41.000
446.837;   46.575;  697.000;  832.000
446.959; -103.550; -457.000; -478.000
447.081; -145.075; -628.000; -518.000
447.203;   24.950;  862.000;  834.000
447.325;  -89.625; -270.000;   42.000
447.446;  -10.825;  286.000;  530.000
447.568; -164.975; -921.000; -803.000
447.690;  -95.275; -236.000; -245.000
447.812; -158.800; -798.000; -519.000
447.933;  -22.225;  155.000;  127.000
448.055;  -64.200; -306.000; -261.000
448.177;   29.350;   31.000;   79.000
448.299;  -95.275; -935.000; -727.000
448.420;  -17.900;  -25.000;  159.000
448.542;  -62.800;   -3.000;   33.000
448.664;  -27.600;  109.000;  322.000
448.785;  -28.700;  265.000;   83.000
448.907;  -96.700; -614.000; -353.000
449.028; -115.400; -771.000; -471.000
449.150;   44.050;  492.000;  589.000
449.272; -183.150;-1044.000; -913.000
449.393;   36.050;  612.000;  694.000
449.515; -160.650; -634.000; -581.000
449.636;  -81.775; -264.000; -155.000
449.758;   36.425;  763.000;  622.000
449.879;  -93.500; -498.000; -396.000
450.001;  -87.500; -149.000;  -49.000
450.122;  -31.675;  -95.000;  162.000
450.244;  -10.000;   37.000;  364.000
450.365;  -65.275; -495.000; -301.000
450.486;  -15.000;   80.000;  268.000
450.608;   43.575;  393.000;  326.000
450.729;  112.750;  578.000;  645.000
450.850;   86.875; -574.000; -466.000
450.972; 1210.275; -552.000; -389.000
451.093; 7960.325;  190.000;  588.000
451.214; 4019.925; -516.000; -337.000
451.336;  682.000;  773.000;  579.000
451.457;   92.575;  264.000;  393.000
451.578;  -27.975; -118.000;  -74.000
451.699; -113.475; -546.000; -540.000
451.821;  -55.575; -284.000;  -50.000
451.942;    4.475;  278.000;  285.000
452.063;   72.125;  228.000;  419.000
452.184;  807.675;  -54.000;  -49.000
452.305; 1712.850;  103.000;  170.000
452.427;  317.750; -549.000; -301.000
452.548;   10.525;   23.000;   79.000
452.669;  -75.200; -257.000;  -89.000
452.790;  -57.725;    3.000;  -18.000
452.911;  -20.425;  195.000;  259.000
453.032;  -77.150; -289.000;  -60.000
453.153;  -51.450;  -29.000;   81.000
453.274;   52.800;  737.000;  868.000
453.395;  -73.000;  -51.000;  175.000
453.516;   96.550; 1317.000; 1388.000
453.637; -101.225; -205.000; -150.000
453.758;  -69.850;   15.000;   69.000
453.879; -116.575; -462.000; -250.000
454.000;   55.550; 1086.000;  948.000
454.121; -134.475; -554.000; -326.000
454.242; -105.675; -599.000; -383.000
454.362;  -51.250;  -99.000;  114.000
454.483;  -19.875; -309.000; -229.000
454.604;   46.825;  512.000;  580.000
454.725; -123.775; -627.000; -555.000
454.846; -117.775; -474.000; -406.000
454.967;  -13.100;  230.000;  539.000
455.087;  -49.650;  179.000;  153.000
455.208;    7.875;  554.000;  856.000
455.329;  -47.225;  -22.000;   82.000
455.450;   61.100;  473.000;  633.000
455.570;  -67.325; -234.000; -211.000
455.691;  -32.725;  201.000;  407.000
455.812; -109.750; -270.000;  -92.000
455.932;  -68.050;  107.000;  -97.000
456.053;  -72.325;   36.000;   24.000
456.173; -118.025; -433.000; -355.000
456.294; -133.100; -476.000; -303.000
456.415;  -54.175;  -73.000;   70.000
456.535;  -47.900;  297.000;  273.000
456.656;  -41.850;  132.000;  240.000
456.776;  -80.400;    3.000;  298.000
456.897;   -6.975;  308.000;  513.000
457.017;  -76.675; -153.000;   -3.000
457.138; -105.875; -402.000; -249.000
457.258;  -44.125;  263.000;  224.000
457.379;  -17.050;  509.000;  521.000
457.499;  -38.175;  443.000;  432.000
457.620; -123.850; -407.000; -231.000
457.740;  -87.850; -132.000;  -11.000
457.860;  -55.175;   87.000;   44.000
457.981;  -31.700;  132.000;  124.000
458.101;  -76.875;  -89.000;   40.000
458.221;  -15.025;  336.000;  402.000
458.342;  -49.975;   -4.000;  -37.000
458.462;   39.025;  617.000;  352.000
458.582;   15.700; -302.000; -294.000
458.703;   57.825;  303.000;  154.000
458.823;    6.800;   22.000;  163.000
458.943;   51.125;  341.000;  467.000
459.063;    2.125; 1124.000;  192.000
459.183;  -23.900;  328.000;  313.000
459.304;    8.425;  315.000;  517.000
459.424;  -45.450; -246.000;  -89.000
459.544;  467.900;  388.000;  764.000
459.664; 1305.100;  499.000;  506.000
459.784;  502.600; 1004.000; 1175.000
459.904;   88.475;  867.000;  744.000
460.024;   40.600;  867.000;  684.000
460.144;  -18.475;  449.000;  554.000
460.264;  -13.550;  515.000;  327.000
460.385;  -90.875; -145.000; -119.000
460.505;   38.475;  905.000;  858.000
460.625;  -92.175;  -17.000;  -68.000
460.745;  -22.250;  396.000;  541.000
460.864;  -48.325;  153.000;  469.000
460.984;   28.700;  499.000;  573.000
461.104;  120.525; 1656.000; 1775.000
461.224;   37.050;  657.000;  650.000
461.344;  -36.825;  431.000;  360.000
461.464;  -43.050;  258.000;  513.000
461.584;  -43.450;  283.000;  466.000
461.704;  -59.325;   58.000;  108.000
461.824;  -52.675;  238.000;  259.000
461.943;  -62.025;  191.000;  130.000
462.063;  -79.250;    2.000;  324.000
462.183;   14.525;  639.000;  717.000
462.303;   84.450; 1678.000; 1230.000
462.422;   34.375;  781.000;  840.000
462.542;  -26.500;  271.000;  391.000
462.662;   31.675;  353.000;  380.000
462.782;  343.950;  833.000;  572.000
462.901;  779.100;  545.000;  717.000
463.021;  391.100; 1702.000; 1638.000
463.141;    0.575;  337.000;  770.000
463.260;  -10.950;  614.000;  474.000
463.380;    3.800;  902.000;  884.000
463.499;  -33.825;  342.000;  332.000
463.619;  -39.600;  581.000;  559.000
463.738;   96.750; 1644.000;  903.000
463.858;    3.900;  657.000;  811.000
463.978;  -23.800;  542.000;  396.000
464.097;   62.250;  921.000; 1114.000
464.217;  157.975; 1196.000; 1143.000
464.336;  160.075; 1068.000; 1130.000
464.455;  -36.800;  328.000;  659.000
464.575;   14.100;  597.000;  602.000
464.694;  135.500; 1204.000; 1179.000
464.814;  162.925; 1190.000; 1138.000
464.933;   83.850; 1095.000; 1027.000
465.052;   96.700; 1412.000; 1054.000
465.172;   58.000;  922.000;  799.000
465.291;  118.550; 1376.000; 1320.000
465.410;   -4.300;  462.000;  735.000
465.530;   74.925; 1355.000; 1310.000
465.649;   56.250; 1209.000; 1273.000
465.768;  134.500; 1673.000; 1508.000
465.888;   46.225;  941.000; 1174.000
466.007;   91.075; 1335.000; 1440.000
466.126;   -9.975;  721.000;  641.000
466.245;   41.825; 1176.000; 1187.000
466.364;   20.275;  950.000; 1060.000
466.484;   38.500; 1024.000; 1213.000
466.603;   35.825; 1101.000; 1222.000
466.722;  101.575; 1490.000; 1769.000
466.841;   45.600; 1151.000; 1401.000
466.960;   39.600; 1069.000;  972.000
467.079;  126.275; 1971.000; 1786.000
467.198;   48.550; 1238.000; 1181.000
467.317;   96.300; 1768.000; 1162.000
467.436;   64.150; 1709.000; 1261.000
467.555;  119.875; 1796.000; 1746.000
467.674;   59.875; 1227.000; 1329.000
467.793;   51.450; 1376.000; 1374.000
467.912;   88.875; 1658.000; 1539.000
468.031;  123.975; 2038.000; 1930.000
468.150;  129.200; 1842.000; 1837.000
468.269;  176.975; 2313.000; 2090.000
468.388;  183.425; 2168.000; 2339.000
468.507;  239.175; 2884.000; 2903.000
468.626;  275.050; 2555.000; 2541.000
468.744;  143.400; 2018.000; 2174.000
468.863;  199.625; 2312.000; 2523.000
468.982;  103.725; 1503.000; 1555.000
469.101;  226.250; 2788.000; 2692.000
469.220;  154.225; 2333.000; 2176.000
469.338;  254.475; 2935.000; 3051.000
469.457;  196.875; 2719.000; 2545.000
469.576;  337.100; 3953.000; 3784.000
469.695;  246.475; 2877.000; 3066.000
469.813;  420.975; 4148.000; 4192.000
469.932;  400.975; 4255.000; 4485.000
470.051;  454.000; 4075.000; 4161.000
470.169; 1023.900; 4470.000; 4338.000
470.288; 2033.000; 4700.000; 4809.000
470.406; 1152.925; 5059.000; 5194.000
470.525;  677.975; 6101.000; 5787.000
470.644;  647.725; 6847.000; 6794.000
470.762;  797.875; 8397.000; 7873.000
470.881;  916.925; 8651.000; 8464.000
470.999; 1085.225; 9685.000; 9151.000
471.118; 1130.350;11174.000;10711.000

