
Integration time [ms]: 200.000
Averaging Nr. [scans]: 10
Smoothing Nr. [pixels]: 0
Data measured with spectrometer [name]: 2101012U2
Wave   ;Sample   ;Dark     ;Reference
[nm]   ;[counts] ;[counts] ;[counts] 

197.733;  136.800;  516.000;  404.000
197.879; -168.200; -610.000; -634.000
198.025; -115.300; -475.000; -420.000
198.171; -138.000; -602.000; -612.000
198.317;  -62.300; -401.000; -316.000
198.463; -100.100; -655.000; -404.000
198.609;   83.100;  181.000; -137.000
198.755; -161.500; -644.000; -410.000
198.901; -124.300; -505.000; -424.000
199.047; -141.900; -615.000; -488.000
199.193;  -49.300; -230.000; -468.000
199.339; -125.400; -222.000; -369.000
199.485;  118.100;  330.000;  271.000
199.631;   61.300;  227.000;  310.000
199.777;  -95.100; -466.000; -398.000
199.923; -107.200; -610.000; -424.000
200.069;   15.800; -141.000;  -58.000
200.215;  112.400;  128.000;  453.000
200.361;  103.500;  243.000;  477.000
200.507; -123.900; -600.000; -373.000
200.653;  -65.500; -371.000; -194.000
200.798;  -99.100; -215.000; -125.000
200.944;   26.300; -146.000;  -41.000
201.090;  104.800;   61.000;  222.000
201.236;  -17.700; -116.000; -158.000
201.382;  281.900;  874.000;  903.000
201.528;   43.200;  -58.000;  -48.000
201.674;  -69.900; -386.000; -293.000
201.819;  -99.600; -540.000; -439.000
201.965; -142.700; -699.000; -447.000
202.111;  -28.500; -273.000; -226.000
202.257;  -86.300; -250.000; -238.000
202.402;   49.700;   13.000;  -36.000
202.548;  -48.600; -169.000; -116.000
202.694;  192.500;  410.000; -183.000
202.840; -127.900; -603.000; -531.000
202.985; -154.600; -681.000; -639.000
203.131; -281.000; -832.000; -666.000
203.277;  -47.000; -199.000; -262.000
203.423; -142.000; -434.000; -520.000
203.568;  -59.000; -462.000; -237.000
203.714; -101.400; -535.000; -542.000
203.860; -168.800; -682.000; -641.000
204.005;   40.500;  112.000;  167.000
204.151;  160.900;  561.000;  556.000
204.296;  -99.200; -354.000; -221.000
204.442; -149.900; -600.000; -547.000
204.588; -163.900; -592.000; -579.000
204.733;   27.700;  178.000;  168.000
204.879; -299.300;-1018.000; -822.000
205.025;   44.600;  -99.000;  126.000
205.170;   17.600;  -17.000;   94.000
205.316;  189.300;  438.000;  661.000
205.461; -153.600; -698.000; -554.000
205.607;  169.900;  609.000;  665.000
205.752; -152.600; -626.000; -551.000
205.898; -105.700; -501.000; -391.000
206.043; -126.700; -578.000; -506.000
206.189;  -65.500; -243.000; -285.000
206.334;  180.200;  554.000;  606.000
206.480;  159.200;  409.000;  239.000
206.625; -169.700; -529.000; -552.000
206.771;  -74.300; -451.000; -373.000
206.916;  -85.100; -210.000; -537.000
207.062; -124.900; -545.000; -591.000
207.207; -122.800; -546.000; -443.000
207.353;  121.200;  185.000;  460.000
207.498;   21.700;  196.000;   85.000
207.643;  -85.900; -501.000; -370.000
207.789; -247.300;-1069.000; -910.000
207.934; -169.400; -665.000; -713.000
208.080;  -29.700; -154.000;   66.000
208.225;   10.800;  -22.000;  -57.000
208.370; -168.000; -727.000; -619.000
208.516; -116.900; -741.000; -487.000
208.661;  -63.500; -127.000;  -69.000
208.806;  -61.200; -165.000; -171.000
208.952; -231.600;-1044.000; -731.000
209.097;  163.800;  378.000;  349.000
209.242; -126.900; -307.000; -382.000
209.387;  121.800;  392.000;  350.000
209.533;  -74.800; -321.000; -350.000
209.678;  168.200;  472.000;  543.000
209.823; -110.300; -408.000; -310.000
209.969; -204.200; -860.000; -757.000
210.114; -206.800; -907.000; -719.000
210.259; -234.900; -939.000; -889.000
210.404;  -13.000; -171.000;  103.000
210.549;   37.000;  108.000;    3.000
210.695;  -40.500;   -3.000;  -95.000
210.840;   80.000;   94.000;   67.000
210.985;  -96.200; -484.000; -303.000
211.130;  131.400;  268.000;  406.000
211.275;   63.300;  207.000;  199.000
211.420;  -81.000; -300.000; -289.000
211.566; -142.500; -536.000; -489.000
211.711;   41.500;  218.000;  157.000
211.856; -118.800; -545.000; -519.000
212.001;   34.500;  151.000;   44.000
212.146;   -2.400;  153.000;   49.000
212.291;  -38.000; -210.000; -186.000
212.436;  -63.800; -280.000;   -6.000
212.581; -163.300; -685.000; -653.000
212.726; -160.900; -487.000; -538.000
212.871;  -94.200; -552.000; -217.000
213.016; -268.200;-1172.000;-1029.000
213.161;  132.500;  406.000;  291.000
213.306; -138.700; -435.000; -577.000
213.451; -170.100; -778.000; -689.000
213.596;  -66.500; -455.000; -347.000
213.741;  -97.700; -448.000; -538.000
213.886; -142.300; -498.000; -517.000
214.031;  -53.500; -294.000; -124.000
214.176; -132.100; -408.000; -341.000
214.321;  -33.800; -296.000; -157.000
214.466;  -56.800; -163.000;  -43.000
214.611;   31.900;  -61.000;  -10.000
214.756; -227.800; -948.000; -858.000
214.901;  -13.100; -388.000; -226.000
215.046; -258.500; -797.000; -825.000
215.191;   48.900;  128.000;   35.000
215.336;  -17.000; -157.000;  -19.000
215.480; -143.100; -684.000; -505.000
215.625;  -34.000; -175.000;  -19.000
215.770; -158.600; -757.000; -662.000
215.915;    4.400;   -5.000;  -97.000
216.060;   26.700; -113.000;  -21.000
216.205; -231.000; -731.000; -779.000
216.349; -119.300; -470.000; -533.000
216.494; -235.800; -939.000; -867.000
216.639; -201.200; -823.000; -888.000
216.784; -153.100; -577.000; -525.000
216.929;  103.300;  392.000;  281.000
217.073;  -17.500; -244.000;  -31.000
217.218;   24.900;   78.000;  -47.000
217.363; -156.700; -656.000; -618.000
217.507; -128.000; -623.000; -588.000
217.652; -224.600; -845.000; -874.000
217.797; -159.500; -708.000; -659.000
217.942; -222.500; -856.000; -720.000
218.086;  161.200;  608.000;  539.000
218.231;  -33.500; -174.000;  -26.000
218.376;  -39.000; -337.000; -229.000
218.520;  -10.800;  -41.000;   96.000
218.665;  -41.300; -338.000; -204.000
218.810;  -85.000; -275.000; -233.000
218.954;   53.700;  201.000;   35.000
219.099; -224.200; -713.000; -963.000
219.243; -109.800; -589.000; -554.000
219.388;  -19.500; -264.000; -136.000
219.532;    1.600; -116.000; -116.000
219.677; -153.000; -564.000; -521.000
219.822;   44.900;   33.000;   89.000
219.966;   28.300;   17.000;  -99.000
220.111;  -36.200; -328.000;  -40.000
220.255; -179.400; -797.000; -750.000
220.400;  -44.700; -180.000; -146.000
220.544; -143.500; -516.000; -450.000
220.689; -106.600; -422.000; -451.000
220.833;  -28.600; -123.000;  -58.000
220.978; -101.700; -393.000; -563.000
221.122;   43.600;  319.000;  307.000
221.267; -227.100; -906.000; -837.000
221.411; -144.700; -478.000; -394.000
221.555;    5.400; -104.000;  -23.000
221.700;  -73.100; -329.000; -222.000
221.844;   83.500;  255.000;  272.000
221.989;  -97.300; -328.000; -311.000
222.133; -108.800; -289.000; -307.000
222.277;  -20.600;    5.000;   78.000
222.422;   62.300;  227.000;  113.000
222.566;  -80.700; -381.000; -214.000
222.711; -106.300; -414.000; -479.000
222.855; -181.300; -643.000; -586.000
222.999; -185.500; -642.000; -717.000
223.144;  -32.000; -195.000; -194.000
223.288;  155.500;  423.000;  251.000
223.432;    9.000;  184.000;  230.000
223.576;   90.500;  152.000;  -21.000
223.721;   89.600;  364.000;  273.000
223.865;  -76.300; -472.000; -475.000
224.009;  525.200; 1673.000; 1631.000
224.153; -171.300; -660.000; -671.000
224.298; -108.100; -531.000; -489.000
224.442;  -38.600;  -74.000;  -33.000
224.586;  -11.900; -169.000; -106.000
224.730; -175.100; -858.000; -670.000
224.875; -193.300; -739.000; -688.000
225.019;  -15.300;  102.000;  188.000
225.163;  138.600;  208.000;  341.000
225.307;   62.400;   97.000;  -91.000
225.451;   89.000;  360.000;  481.000
225.595;   58.900;  264.000;  176.000
225.739;   -6.200; -170.000;  -94.000
225.884;   18.600;   86.000;    5.000
226.028; -184.700; -760.000; -626.000
226.172;  -54.500; -260.000; -273.000
226.316; -230.800; -941.000; -902.000
226.460; -121.500; -645.000; -493.000
226.604;  -98.200; -406.000; -400.000
226.748; -192.400; -836.000; -733.000
226.892;  -68.800; -227.000; -181.000
227.036;  -96.400; -537.000; -447.000
227.180; -112.200; -551.000; -375.000
227.324; -114.400; -561.000; -580.000
227.468; -229.700; -819.000; -717.000
227.612;   48.900;  242.000;  -28.000
227.756; -213.300; -845.000; -698.000
227.900;  113.700;  342.000;  441.000
228.044; -128.000; -509.000; -290.000
228.188;  114.700;  448.000;  568.000
228.332; -161.600; -546.000; -472.000
228.476;  -39.000; -223.000; -149.000
228.620;  -40.600; -210.000; -150.000
228.764;  169.600;  431.000;  349.000
228.908;  -23.100; -155.000;   30.000
229.052; -130.100; -615.000; -528.000
229.195;  -14.100; -172.000;   13.000
229.339;  -15.000; -235.000; -305.000
229.483;  -40.500;    5.000; -162.000
229.627;   25.500; -156.000;  139.000
229.771;  -73.800; -218.000; -294.000
229.915;   62.700;  230.000;   79.000
230.059; -167.600; -648.000; -663.000
230.202;  -46.900; -370.000; -317.000
230.346;  -14.700; -107.000;  107.000
230.490; -110.300; -489.000; -521.000
230.634; -208.600; -736.000; -553.000
230.777;  182.400;  478.000;  509.000
230.921; -132.000; -450.000; -359.000
231.065;  -64.900; -246.000; -286.000
231.209;   61.400;  261.000;  265.000
231.352;   36.500;   54.000;   40.000
231.496;   51.400;  568.000;  188.000
231.640; -133.700; -693.000; -621.000
231.783;  151.200;  546.000;  525.000
231.927;  -87.900; -294.000; -365.000
232.071; -219.400; -962.000; -736.000
232.214; -206.000; -980.000; -764.000
232.358; -187.600; -683.000; -599.000
232.502;   40.000;  -19.000;    7.000
232.645; -281.500;-1090.000; -927.000
232.789;  -17.100; -257.000; -218.000
232.933;  -83.300; -407.000; -224.000
233.076; -249.300;-1038.000; -897.000
233.220; -224.600; -752.000; -777.000
233.363; -158.000; -669.000; -477.000
233.507;  154.900;  371.000;  129.000
233.650; -150.200; -764.000; -834.000
233.794;  109.600;  438.000;  461.000
233.938; -120.800; -530.000; -362.000
234.081;  -65.800;  -93.000;   31.000
234.225; -147.000; -631.000; -539.000
234.368; -212.900; -773.000; -723.000
234.512;  -44.000; -385.000; -299.000
234.655; -155.800; -582.000; -555.000
234.798; -135.800; -493.000; -466.000
234.942; -237.000; -884.000;-1002.000
235.085; -145.000; -651.000; -443.000
235.229; -138.200; -405.000; -410.000
235.372;  -98.100; -247.000; -191.000
235.516; -104.400; -397.000; -321.000
235.659;   73.900;   92.000;  121.000
235.802;    7.000;  -38.000;  -22.000
235.946;   61.000;  335.000;  215.000
236.089;   74.400;  126.000;  250.000
236.233;  143.700;  275.000;  298.000
236.376;  -70.400; -235.000; -378.000
236.519; -112.000; -297.000; -319.000
236.663;   -3.700; -215.000; -117.000
236.806; -287.300;-1029.000; -999.000
236.949;  165.500;  543.000;  431.000
237.092;  159.400;  412.000;  391.000
237.236; -144.300; -589.000; -502.000
237.379;  176.900;  352.000;  428.000
237.522; -226.000; -879.000; -768.000
237.666;   22.300; -271.000;   18.000
237.809; -254.900; -851.000; -823.000
237.952;  127.000;  469.000;  271.000
238.095; -115.500; -447.000; -442.000
238.238;  204.100;  688.000;  700.000
238.382;  -12.100;  166.000;  103.000
238.525; -132.600; -598.000; -511.000
238.668; -263.100;-1060.000; -985.000
238.811; -163.600; -638.000; -643.000
238.954;  -87.200; -483.000; -334.000
239.097;  179.100;  617.000;  664.000
239.241;   88.400;  394.000;  326.000
239.384;  -51.400; -254.000; -214.000
239.527;  -77.900; -424.000; -224.000
239.670; -275.500; -994.000;-1091.000
239.813; -193.900; -696.000; -658.000
239.956;  219.000;  579.000;  473.000
240.099; -214.800; -778.000; -725.000
240.242;  162.600;  428.000;  432.000
240.385;  113.700;  466.000;  450.000
240.528; -124.100; -706.000; -473.000
240.671;   38.300;  189.000;  134.000
240.814;  -89.300; -441.000; -158.000
240.957; -190.900; -767.000; -578.000
241.100; -162.900; -779.000; -755.000
241.243; -287.300;-1234.000; -893.000
241.386; -103.500; -508.000; -379.000
241.529; -175.400; -735.000; -547.000
241.672; -107.200; -566.000; -495.000
241.815; -249.300; -832.000; -808.000
241.958;  -43.800; -125.000; -182.000
242.101; -122.100; -545.000; -390.000
242.244;  -51.500; -270.000; -325.000
242.387;  -81.100; -304.000; -246.000
242.530;  151.300;  470.000;  134.000
242.673;  -64.300; -381.000; -309.000
242.815; -242.000; -925.000; -899.000
242.958; -146.800; -482.000; -381.000
243.101;   56.000;  132.000;  187.000
243.244; -120.200; -564.000; -521.000
243.387;  -79.800; -313.000; -316.000
243.530; -167.000; -657.000; -674.000
243.672;  -27.000;   43.000;  -92.000
243.815;  -96.200; -355.000; -283.000
243.958;   30.900;   98.000;  -26.000
244.101;   33.900;   59.000;  -16.000
244.243;    9.500;  -47.000;  101.000
244.386; -223.900; -761.000; -630.000
244.529;  -15.500; -132.000; -139.000
244.672; -299.400;-1154.000; -951.000
244.814; -208.800; -621.000; -794.000
244.957;  -66.100; -380.000; -304.000
245.100; -140.900; -489.000; -489.000
245.242; -119.600; -387.000; -374.000
245.385;   13.900;  -59.000;  -39.000
245.528; -228.200; -871.000; -705.000
245.670;  232.100;  612.000;  634.000
245.813; -149.900; -599.000; -547.000
245.956;  -23.600; -324.000; -275.000
246.098; -121.000; -508.000; -650.000
246.241;   27.200;  194.000;   48.000
246.383;  -24.100; -119.000;  -73.000
246.526; -138.300; -454.000; -525.000
246.669; -233.900; -889.000; -780.000
246.811;   67.100;  172.000;   -1.000
246.954; -121.100; -512.000; -426.000
247.096;  -36.200;  -84.000;   -6.000
247.239; -124.200; -482.000; -445.000
247.381; -127.400; -647.000; -488.000
247.524;  200.500;  645.000;  679.000
247.666;   -8.700;   58.000;   11.000
247.809; -215.200; -887.000; -691.000
247.951;   37.200;  -75.000;  138.000
248.094;   85.300;  432.000;  308.000
248.236; -304.400;-1262.000;-1238.000
248.378;   -0.900; -356.000;  -81.000
248.521;  -22.700; -334.000; -337.000
248.663;  -22.400; -236.000; -267.000
248.806;    5.000; -300.000; -266.000
248.948; -204.900; -886.000; -763.000
249.090;  -50.100; -428.000; -398.000
249.233; -103.400; -344.000; -381.000
249.375; -104.600; -474.000; -451.000
249.518;  -28.000;  -83.000; -133.000
249.660;   -1.200; -103.000;    3.000
249.802; -345.600;-1303.000;-1189.000
249.945; -118.500; -612.000; -540.000
250.087; -216.500; -834.000; -768.000
250.229;  -75.400; -362.000; -480.000
250.371; -132.200; -494.000; -439.000
250.514;  -82.600; -310.000; -244.000
250.656; -121.000;   69.000;  102.000
250.798; -228.800; -849.000; -800.000
250.940;  -99.700; -322.000; -322.000
251.083;  -28.000; -335.000; -111.000
251.225;  145.100;  338.000;  310.000
251.367; -101.700; -274.000; -373.000
251.509;  -54.400; -265.000; -210.000
251.651; -180.100; -731.000; -671.000
251.794;  149.900;  538.000;  632.000
251.936; -189.800; -821.000; -747.000
252.078; -140.900; -540.000; -461.000
252.220; -144.800; -645.000; -477.000
252.362;  178.900;  344.000;  462.000
252.504; -134.600; -677.000; -584.000
252.646; -245.800; -875.000; -722.000
252.788;   17.100;   14.000; -128.000
252.931;  -67.500; -257.000; -253.000
253.073;  -51.000; -376.000; -317.000
253.215;   24.400;  141.000;  122.000
253.357;   -4.700;   82.000; -153.000
253.499;  -94.000; -374.000; -234.000
253.641; -150.000; -749.000; -594.000
253.783; -166.300; -609.000; -527.000
253.925; -143.500; -586.000; -591.000
254.067; -217.000; -744.000; -667.000
254.209;  -68.700; -391.000; -259.000
254.351; -270.200; -865.000; -883.000
254.493;  -67.100; -441.000; -417.000
254.635; -221.300; -936.000; -818.000
254.777; -163.900; -752.000; -687.000
254.918; -137.300; -512.000; -430.000
255.060;  -81.500; -551.000; -395.000
255.202; -101.500; -473.000; -261.000
255.344; -141.200; -658.000; -455.000
255.486; -125.000; -471.000; -406.000
255.628; -204.800; -780.000; -781.000
255.770; -161.300; -676.000; -536.000
255.912; -106.700; -559.000; -468.000
256.053; -156.400; -730.000; -508.000
256.195;  347.100; 1008.000;  903.000
256.337; -174.400; -861.000; -595.000
256.479;  164.300;  532.000;  416.000
256.621;  -65.100; -394.000; -212.000
256.762; -177.900; -789.000; -742.000
256.904;  168.500;  485.000;  487.000
257.046;  -57.800; -381.000; -271.000
257.188;  -62.900; -351.000; -264.000
257.329; -151.700; -525.000; -464.000
257.471; -225.800; -939.000; -807.000
257.613; -107.400; -584.000; -498.000
257.755; -289.900;-1073.000; -982.000
257.896;  116.600;  286.000;  392.000
258.038; -142.100; -403.000; -352.000
258.180;  -73.900; -354.000; -279.000
258.321; -146.900; -581.000; -457.000
258.463;   46.000;  -71.000;  133.000
258.605; -186.200; -562.000; -570.000
258.746; -183.000; -886.000; -772.000
258.888; -298.200;-1026.000;-1020.000
259.029;   52.400;  121.000;   -8.000
259.171; -167.700; -614.000; -550.000
259.313;    4.300;  -49.000;  -47.000
259.454; -144.800; -536.000; -414.000
259.596;  -65.800; -483.000; -390.000
259.737; -162.500; -590.000; -474.000
259.879;   85.000;  217.000;  311.000
260.020;  224.100;  901.000;  636.000
260.162;  -15.600; -146.000; -253.000
260.303; -222.500; -768.000; -687.000
260.445; -146.300; -609.000; -613.000
260.586;   76.700;  392.000;  157.000
260.728;  -53.400; -360.000; -248.000
260.869;  -99.500; -350.000; -343.000
261.011;  191.500;  706.000;  537.000
261.152;  -71.000; -479.000; -319.000
261.293; -139.700; -576.000; -595.000
261.435;  -53.200; -219.000; -184.000
261.576;  -44.000; -455.000; -325.000
261.718;  162.000;  420.000;  470.000
261.859; -235.200; -940.000; -949.000
262.000; -272.100; -951.000;-1016.000
262.142;  -21.100;  -52.000;  -60.000
262.283; -229.200; -808.000; -691.000
262.424; -196.600; -666.000; -625.000
262.566; -292.900;-1161.000; -983.000
262.707; -218.000; -840.000; -830.000
262.848; -222.500; -769.000; -726.000
262.990;  -55.500; -362.000; -345.000
263.131;  191.000;  650.000;  681.000
263.272;   15.400;  -61.000;  -41.000
263.413; -168.400; -589.000; -561.000
263.555; -124.300; -669.000; -143.000
263.696; -142.000; -550.000; -641.000
263.837;  -98.600; -449.000; -551.000
263.978;   21.700;   -5.000;  -77.000
264.119;  -52.500; -283.000; -264.000
264.261; -206.500; -847.000; -630.000
264.402;   46.700;   33.000;   40.000
264.543; -146.600; -509.000; -524.000
264.684;    4.100;   61.000;  -50.000
264.825; -138.000; -816.000; -538.000
264.966;   31.100;  -84.000;  -67.000
265.107; -198.200; -646.000; -670.000
265.248; -189.800; -825.000; -812.000
265.390;   11.900;  152.000;   -9.000
265.531;   -6.000; -238.000; -107.000
265.672; -125.100; -557.000; -630.000
265.813;  177.900;  563.000;  439.000
265.954; -279.600; -959.000; -940.000
266.095;   10.700; -372.000; -322.000
266.236; -179.100; -686.000; -548.000
266.377;  -84.400; -243.000; -297.000
266.518; -125.200; -619.000; -547.000
266.659;   57.200;  170.000;  268.000
266.800;   29.300;   83.000;   85.000
266.941; -127.100; -487.000; -478.000
267.082;   42.300;  354.000;   99.000
267.223;  -69.400; -344.000; -273.000
267.364; -232.200; -892.000; -686.000
267.504;   -0.700;    3.000;  135.000
267.645;    0.200;  160.000;   67.000
267.786;  -18.100; -147.000;  -86.000
267.927; -128.600; -473.000; -379.000
268.068;    1.000; -186.000;  -61.000
268.209; -100.800; -175.000; -413.000
268.350;  -91.700; -388.000; -532.000
268.490; -147.700; -648.000; -521.000
268.631;   72.300;  127.000;  225.000
268.772; -189.800; -874.000; -647.000
268.913;  -81.500; -328.000; -476.000
269.054;  -18.500; -117.000;   12.000
269.194;  -88.900; -418.000; -402.000
269.335; -280.700;-1137.000;-1074.000
269.476;    0.700;   33.000;  -35.000
269.617;  -69.800; -347.000; -392.000
269.757; -176.600; -713.000; -646.000
269.898; -205.000; -856.000; -613.000
270.039;  -99.600; -415.000; -405.000
270.180; -240.200; -952.000; -816.000
270.320;  -10.800; -190.000; -250.000
270.461;  -48.800; -277.000; -249.000
270.602;   -2.300; -186.000; -156.000
270.742; -205.500; -868.000; -943.000
270.883; -124.800; -442.000; -390.000
271.023;  -97.200; -358.000; -357.000
271.164; -120.500; -607.000; -528.000
271.305; -163.600; -666.000; -654.000
271.445; -181.200; -722.000; -683.000
271.586; -123.800; -462.000; -283.000
271.726;  -71.000; -397.000; -322.000
271.867; -120.400; -594.000; -534.000
272.008;  303.900; -473.000; -285.000
272.148;  234.100;  462.000;  468.000
272.289;   45.000; -113.000; -181.000
272.429;   44.300;   19.000;  185.000
272.570; -170.500; -633.000; -737.000
272.710; -180.200; -825.000; -775.000
272.851;  -19.200;  113.000; -130.000
272.991; -307.200;-1173.000;-1077.000
273.131; -108.900; -419.000; -459.000
273.272; -166.500; -683.000; -723.000
273.412;   48.500; -143.000;  -31.000
273.553;  -55.700; -488.000; -507.000
273.693;  333.200;  913.000;  858.000
273.834; -180.200; -894.000; -692.000
273.974; -162.900; -664.000; -615.000
274.114; -186.000; -772.000; -560.000
274.255;  186.900;  414.000;  373.000
274.395;    6.900; -180.000; -125.000
274.535;   94.500;  199.000;  350.000
274.676;   68.400;  225.000;   94.000
274.816;   34.900;  110.000;   34.000
274.956; -146.500; -624.000; -690.000
275.097; -161.200;-1014.000; -922.000
275.237; -208.400; -913.000; -803.000
275.377; -182.900; -778.000; -689.000
275.517; -289.700; -878.000; -937.000
275.658;  -84.700; -590.000; -555.000
275.798; -117.500; -606.000; -413.000
275.938;   78.400;  215.000;  323.000
276.078; -154.200; -626.000; -395.000
276.218;   37.800;   99.000;  104.000
276.359; -232.600;-1026.000;-1024.000
276.499;  -99.800; -605.000; -446.000
276.639;  -53.900; -305.000; -151.000
276.779;  -85.800; -475.000; -357.000
276.919; -214.000; -783.000; -624.000
277.059;  -29.500; -261.000; -212.000
277.199;  -82.900; -357.000; -259.000
277.340;  107.800;  287.000;  175.000
277.480; -187.300; -840.000; -693.000
277.620;   83.000;  192.000;   16.000
277.760; -381.400;-1533.000;-1294.000
277.900;   20.100;  113.000;   33.000
278.040;   73.700;  137.000;  159.000
278.180;  102.100;  270.000;  170.000
278.320;   18.200;   21.000;   56.000
278.460;  -99.300; -443.000; -469.000
278.600; -147.000; -708.000; -598.000
278.740;  146.400;  448.000;  224.000
278.880; -133.100; -768.000; -791.000
279.020;   40.800; -194.000; -144.000
279.160; -134.400; -672.000; -595.000
279.300; -196.000; -926.000; -873.000
279.440; -173.100; -709.000; -622.000
279.579;  -79.100;-1014.000; -929.000
279.719;  -64.200; -410.000; -394.000
279.859;  159.900;   -4.000;   41.000
279.999;   48.300; -208.000;  101.000
280.139;  -21.700; -435.000; -387.000
280.279; -150.400; -708.000; -745.000
280.419;   14.300; -229.000; -147.000
280.559;  -11.700; -259.000; -180.000
280.698; -144.600; -790.000; -639.000
280.838; -183.700; -778.000; -800.000
280.978; -154.300; -846.000; -790.000
281.118; -189.600; -811.000; -704.000
281.257;   58.000;   24.000;    6.000
281.397; -257.200;-1094.000; -960.000
281.537; -187.300; -599.000; -712.000
281.677;  -36.600; -150.000; -101.000
281.816; -163.500; -700.000; -630.000
281.956;  -53.700; -193.000; -257.000
282.096;  -98.300; -539.000; -396.000
282.235; -162.900; -672.000; -638.000
282.375;    5.200; -243.000;  -98.000
282.515; -167.400; -715.000; -707.000
282.654;   73.400;   29.000;  106.000
282.794;   77.900;  388.000;  244.000
282.934; -105.500; -530.000; -491.000
283.073; -230.500;-1030.000; -857.000
283.213;  -71.400; -460.000; -467.000
283.353;  -33.600; -408.000; -349.000
283.492;  -27.300; -264.000; -296.000
283.632;  -56.500; -254.000; -168.000
283.771; -179.100; -859.000; -730.000
283.911;  -98.500; -369.000; -260.000
284.050; -182.300; -794.000; -748.000
284.190; -323.100;-1229.000;-1096.000
284.329; -255.600;-1055.000; -964.000
284.469; -116.800; -516.000; -591.000
284.608;  -93.400; -559.000; -598.000
284.748; -144.700; -614.000; -570.000
284.887;  -14.000;  -87.000;  -20.000
285.027; -230.500; -844.000; -892.000
285.166;  -42.600; -192.000; -249.000
285.306;   29.500; -116.000;  -33.000
285.445;  -52.000; -229.000; -343.000
285.584; -160.000; -630.000; -494.000
285.724;  -91.800; -282.000; -322.000
285.863; -186.200; -857.000; -507.000
286.002;  -90.000; -366.000; -276.000
286.142; -208.200; -715.000; -622.000
286.281; -136.600; -525.000; -493.000
286.420; -123.000; -554.000; -417.000
286.560;  249.500;  653.000;  623.000
286.699; -256.000; -958.000; -912.000
286.838; -116.200; -590.000; -591.000
286.978; -162.100; -533.000; -537.000
287.117; -262.300;-1085.000; -950.000
287.256;  -31.900; -228.000; -211.000
287.395;  -63.400; -197.000; -378.000
287.535;  -75.600; -370.000; -298.000
287.674; -148.200; -509.000; -484.000
287.813;  165.000;  661.000;  533.000
287.952; -202.300;-1010.000; -871.000
288.091; -276.200;-1049.000; -915.000
288.231;   75.800;   13.000;   15.000
288.370; -332.800;-1217.000;-1200.000
288.509; -154.200; -728.000; -645.000
288.648; -129.900; -770.000; -548.000
288.787;  -26.800; -243.000;  -87.000
288.926; -103.100; -454.000; -475.000
289.065;  269.300;  859.000;  672.000
289.204;  -64.100; -377.000; -217.000
289.344; -157.700; -791.000; -690.000
289.483;   60.700;  416.000;  304.000
289.622;   -8.200; -291.000; -149.000
289.761;   -3.500; -309.000; -166.000
289.900; -205.300; -785.000; -626.000
290.039;   11.300;  -12.000;  -95.000
290.178;  -48.400; -274.000; -180.000
290.317; -151.400; -618.000; -479.000
290.456;  -79.800; -463.000; -451.000
290.595; -261.800; -961.000; -833.000
290.734; -236.400; -904.000; -891.000
290.873; -114.500; -456.000; -420.000
291.011; -176.200; -833.000; -843.000
291.150; -187.700; -770.000; -682.000
291.289;  -29.500; -343.000; -110.000
291.428; -148.200; -599.000; -480.000
291.567;  -66.100; -370.000; -442.000
291.706;   13.600;  109.000;  154.000
291.845; -148.300; -597.000; -505.000
291.984; -312.200;-1234.000;-1061.000
292.122;  197.900;  602.000;  582.000
292.261;  130.800;  620.000;  463.000
292.400;   28.100; -144.000;  211.000
292.539; -234.500; -959.000; -813.000
292.678;  -25.600; -325.000; -300.000
292.816; -284.100;-1136.000; -965.000
292.955; -155.700; -844.000; -684.000
293.094;   -7.000; -173.000; -337.000
293.233;  -77.800; -556.000; -400.000
293.371;  -49.800; -225.000;  -84.000
293.510; -169.400; -866.000; -780.000
293.649; -247.700; -959.000; -924.000
293.787; -138.500;-1083.000;-1012.000
293.926;    8.600; -113.000;  -32.000
294.065;  -51.100; -379.000; -290.000
294.203;  136.800;  298.000;  406.000
294.342;   71.700;   74.000;  156.000
294.481;11234.100;51180.000; -836.000
294.619;  -38.100; -425.000; -582.000
294.758; -281.600;-1230.000;-1137.000
294.896;  166.000; -125.000;    5.000
295.035; -226.200;-1040.000;-1006.000
295.174; -232.400;-1082.000; -954.000
295.312;  -21.000; -323.000; -203.000
295.451;   -9.600; -307.000; -428.000
295.589;  -83.100; -389.000; -518.000
295.728;   93.100; -292.000; -165.000
295.866;   33.500;  -36.000;  -51.000
296.005; -112.300; -584.000; -341.000
296.143;  -85.500; -558.000; -596.000
296.282; -211.600; -957.000; -881.000
296.420; -146.600; -657.000; -557.000
296.559; -144.500; -892.000; -633.000
296.697;   -0.400; -847.000; -665.000
296.835;   82.800;-1141.000;-1002.000
296.974;  134.700;  -23.000;   39.000
297.112;   76.100; -443.000; -504.000
297.251;  -85.000; -815.000; -755.000
297.389;  167.200; -576.000; -438.000
297.527;  131.100; -145.000;  -83.000
297.666;  -81.800; -486.000; -438.000
297.804;  -51.200; -404.000; -264.000
297.942;   36.000; -136.000; -161.000
298.081;  -10.800; -183.000;   63.000
298.219;  158.300;  -17.000;  -19.000
298.357;   86.500; -144.000;  -71.000
298.495;   54.500; -810.000; -812.000
298.634;  182.400;  245.000;  219.000
298.772;   98.000; -220.000; -338.000
298.910;  -34.200; -309.000; -182.000
299.048;   27.500; -130.000; -153.000
299.187;  -39.100; -350.000; -250.000
299.325;   87.800;   52.000;  122.000
299.463;  119.000; -389.000; -299.000
299.601;  211.100; -327.000; -271.000
299.739; -186.100; -908.000; -883.000
299.877; -122.300; -791.000; -703.000
300.016; -138.300;-1095.000; -935.000
300.154;  290.400;  -19.000; -161.000
300.292;   88.900; -428.000; -348.000
300.430;   80.000; -408.000; -291.000
300.568; -191.900; -940.000; -874.000
300.706;  -67.500; -366.000; -469.000
300.844; -179.900;-1108.000; -979.000
300.982;  257.600;  246.000;  282.000
301.120; -215.300; -965.000; -866.000
301.258; -113.400; -812.000; -705.000
301.396;   83.400;  104.000;  -41.000
301.534;  151.800; -218.000; -293.000
301.672;   -1.600; -664.000; -521.000
301.810;   32.800; -613.000; -545.000
301.948;  236.000;   53.000;  149.000
302.086;  983.800; -250.000;  -32.000
302.224; 1571.600; -610.000; -585.000
302.362;   94.300; -558.000; -622.000
302.500;  -63.800; -923.000; -893.000
302.638;  222.900;  128.000;  245.000
302.776;   31.000; -352.000; -408.000
302.913;  159.600;  447.000;  236.000
303.051;   -2.500;  -86.000;  -23.000
303.189;  140.600;   90.000;  118.000
303.327;  -29.300; -341.000; -256.000
303.465; -112.200; -832.000; -588.000
303.603; -170.400; -805.000; -604.000
303.740;  233.900;  417.000;  241.000
303.878;   25.400; -800.000; -759.000
304.016; -143.400; -915.000; -790.000
304.154; -238.700;-1123.000;-1152.000
304.291;  -59.400; -505.000; -554.000
304.429;   55.500;  102.000;   74.000
304.567; -210.800; -908.000; -893.000
304.705;  -70.300; -408.000; -515.000
304.842;  152.900; -616.000; -540.000
304.980;  143.700;  215.000;   35.000
305.118;   99.500; -367.000; -365.000
305.255; -139.100; -945.000; -927.000
305.393;  129.000;  178.000;  239.000
305.531; -210.500;-1173.000; -956.000
305.668; -112.000; -663.000; -582.000
305.806;  195.800; -358.000; -439.000
305.943;  223.700; -629.000; -637.000
306.081;  111.700; -378.000; -267.000
306.219; -171.700; -863.000; -748.000
306.356;   84.800;  158.000;   27.000
306.494;  284.600;  981.000;  761.000
306.631;    6.300;  -11.000;  -55.000
306.769;   33.700; -613.000; -485.000
306.906;   49.500; -284.000; -258.000
307.044;  -88.100; -473.000; -488.000
307.181;  -83.700; -410.000; -332.000
307.319;   65.700;  112.000;   87.000
307.456; -306.200;-1191.000;-1153.000
307.594; -165.200; -980.000; -727.000
307.731;   22.600; -371.000; -164.000
307.868;   36.900;  -15.000;   20.000
308.006; -258.200; -961.000; -847.000
308.143;  -76.700; -618.000; -330.000
308.281;  408.700;  -37.000; -254.000
308.418;   33.000; -748.000; -640.000
308.555;  -92.900; -400.000; -250.000
308.693;  -81.600; -577.000; -573.000
308.830; -169.700; -712.000; -657.000
308.967;   58.500; -215.000;  -95.000
309.105;    4.400; -507.000; -396.000
309.242;  125.400; -468.000; -367.000
309.379;  735.600; -577.000; -655.000
309.517; -126.000; -936.000; -948.000
309.654; -169.100; -910.000; -734.000
309.791;  -92.800; -662.000; -580.000
309.928; -213.200; -977.000; -914.000
310.065;  379.100;  819.000;  697.000
310.203;   -5.900; -825.000; -850.000
310.340;   20.900; -465.000; -321.000
310.477;  -88.600; -412.000; -516.000
310.614;  -68.000; -383.000; -473.000
310.751; -119.000; -427.000; -518.000
310.889;   22.000;    1.000;   11.000
311.026; -257.300;-1161.000; -939.000
311.163;  -13.800; -386.000; -380.000
311.300;  -94.700; -512.000; -479.000
311.437; -123.300; -658.000; -619.000
311.574; -264.500;-1226.000; -985.000
311.711;  -97.200; -595.000; -433.000
311.848;  -36.600; -380.000; -388.000
311.985;   74.700;  270.000;   93.000
312.122; -176.700; -932.000; -762.000
312.259; -215.800; -941.000; -994.000
312.396; -132.400; -508.000; -551.000
312.533; -102.100; -812.000; -790.000
312.670; -228.000;-1070.000; -898.000
312.807;    2.300; -352.000; -367.000
312.944;  -99.700; -513.000; -611.000
313.081;  -27.500; -150.000; -415.000
313.218; -172.400;-1111.000; -867.000
313.355;   72.200; -531.000; -449.000
313.492;   41.400; -455.000; -292.000
313.629;  309.800;  815.000;  735.000
313.766; -273.800;-1176.000;-1008.000
313.902;   38.900; -186.000;   21.000
314.039;  -35.200; -372.000; -289.000
314.176;  105.700;  286.000;  192.000
314.313; -105.200; -569.000; -473.000
314.450; -120.100; -788.000; -684.000
314.587; -107.200; -468.000; -480.000
314.723;   72.800;  -78.000;  130.000
314.860;  128.600;  318.000;  332.000
314.997;  112.700;  223.000;  142.000
315.134;  -24.000; -385.000; -368.000
315.270;  -23.100; -480.000; -496.000
315.407; -222.400;-1094.000; -967.000
315.544;  -83.700; -657.000; -538.000
315.681; -111.500; -681.000; -565.000
315.817;   88.000; -133.000; -176.000
315.954;   63.500; -613.000; -392.000
316.091; -205.400;-1045.000;-1023.000
316.227;   27.000;  -71.000; -179.000
316.364;   62.800;   23.000;    6.000
316.500;  -45.600; -113.000; -300.000
316.637;  -23.700; -181.000; -302.000
316.774; -162.500; -625.000; -358.000
316.910; -130.400; -598.000; -629.000
317.047;  -86.100; -487.000; -351.000
317.183;  -38.000; -435.000; -566.000
317.320;   19.000; -367.000; -321.000
317.456; -118.000; -733.000; -805.000
317.593; -133.200; -598.000; -641.000
317.729;   59.300;  168.000;  -67.000
317.866; -391.200;-1434.000;-1285.000
318.002; -131.400; -708.000; -948.000
318.139; -204.900; -883.000; -867.000
318.275; -172.800;-1003.000; -738.000
318.412;  -83.200; -517.000; -336.000
318.548;  -54.600; -751.000; -720.000
318.685; -170.300; -985.000; -888.000
318.821; -151.900; -762.000; -735.000
318.957;  -25.100;   34.000;  -23.000
319.094;  155.000;  297.000;  154.000
319.230;  -96.700; -756.000; -742.000
319.367;  243.200; -471.000; -520.000
319.503;  136.100; -538.000; -436.000
319.639; -141.200; -877.000; -793.000
319.775; -116.800; -750.000; -685.000
319.912;  -56.900; -424.000; -519.000
320.048; -181.900;-1184.000;-1184.000
320.184;  187.400;   59.000;   70.000
320.321;  -68.700; -497.000; -467.000
320.457;  158.800;  475.000;  662.000
320.593;  -70.500; -375.000; -382.000
320.729; -178.600; -732.000; -734.000
320.866; -127.300; -577.000; -635.000
321.002; -132.900; -759.000; -809.000
321.138;   -2.900; -135.000; -211.000
321.274;  198.700; -148.000; -115.000
321.410;  -26.500; -585.000; -353.000
321.546;  -60.000;-1011.000; -911.000
321.683;  144.400;  400.000;  185.000
321.819;   76.800;  -48.000; -117.000
321.955; -161.200; -743.000; -722.000
322.091;  -46.800; -585.000; -540.000
322.227;   15.300; -382.000; -202.000
322.363;   12.600; -320.000; -215.000
322.499;  -58.000; -343.000; -331.000
322.635;  356.800;  636.000;  443.000
322.771;   83.900; -139.000;   12.000
322.907;  176.300;  129.000;  327.000
323.043;  -30.200; -115.000; -206.000
323.179;  -22.300; -394.000; -363.000
323.315;   35.300; -401.000; -371.000
323.451;  198.600; -328.000; -236.000
323.587;  160.000;  -60.000;  -77.000
323.723;   -6.400; -682.000; -601.000
323.859;   -8.200; -258.000;  -76.000
323.995;  -20.100; -467.000; -409.000
324.131; -229.000; -967.000; -892.000
324.267;  -47.700; -254.000; -276.000
324.402; -221.300; -960.000; -983.000
324.538;   19.200; -279.000; -104.000
324.674;   61.800;  164.000;   77.000
324.810;  347.400;  226.000;  308.000
324.946;   49.700; -810.000; -658.000
325.082;  -82.900; -568.000; -475.000
325.217;   13.600;  -62.000;   16.000
325.353; -140.100; -764.000; -659.000
325.489; -154.500; -540.000; -506.000
325.625; -145.000; -579.000; -525.000
325.760;  126.200;  517.000;  376.000
325.896;    1.800; -515.000; -702.000
326.032;  -58.900; -403.000; -352.000
326.168;  -99.300; -462.000; -369.000
326.303;  -66.100; -352.000; -461.000
326.439;  -44.900; -336.000; -276.000
326.575;   39.400; -190.000;  -29.000
326.710;   31.200; -156.000;  -30.000
326.846;   21.300;  146.000;  103.000
326.982; -113.800; -530.000; -548.000
327.117;  -98.900; -481.000; -442.000
327.253; -118.000; -745.000; -742.000
327.388; -216.300;-1137.000;-1153.000
327.524;  -63.700; -811.000; -578.000
327.659;   -6.000;  -58.000;  -22.000
327.795;   31.200;   69.000;   45.000
327.931; -132.000; -723.000; -499.000
328.066;   18.600; -417.000; -276.000
328.202;   41.100;   12.000; -129.000
328.337;  241.500;  957.000;  713.000
328.473;   -3.900;  -12.000;  -74.000
328.608;   31.700; -256.000; -267.000
328.743; -152.000; -799.000; -664.000
328.879;   93.200;  214.000;  114.000
329.014;  -73.600; -102.000; -122.000
329.150; -155.800; -358.000; -483.000
329.285; -130.200; -465.000; -466.000
329.421;  -43.900; -548.000; -246.000
329.556;    1.000;  -36.000;   85.000
329.691; -175.000; -633.000; -615.000
329.827; -140.100; -626.000; -480.000
329.962;  -28.100;  131.000; -301.000
330.097; -152.000; -673.000; -585.000
330.233;  -80.800; -410.000; -223.000
330.368; -210.000; -839.000; -628.000
330.503;   27.100;    3.000;   98.000
330.638;   39.300;  -93.000; -125.000
330.774;  -89.400; -609.000; -530.000
330.909;  -45.200; -434.000; -244.000
331.044; -141.700; -714.000; -708.000
331.179; -297.400;-1217.000;-1109.000
331.315;   55.000;   77.000;   20.000
331.450;   56.000;  157.000;  285.000
331.585; -135.100; -805.000; -706.000
331.720; -119.600; -510.000; -460.000
331.855;   33.000;  -35.000; -102.000
331.990;  485.200;   62.000;  138.000
332.126;  322.700; -110.000;   71.000
332.261;  -11.100; -379.000; -265.000
332.396;   35.000; -135.000; -242.000
332.531; -169.500;-1074.000;-1031.000
332.666;  120.500; -519.000; -363.000
332.801; -171.300; -726.000; -807.000
332.936;  -28.600; -192.000; -122.000
333.071; -219.100; -870.000; -817.000
333.206;  117.600;  307.000;  379.000
333.341;  105.800;  344.000;  418.000
333.476; -136.400; -627.000; -623.000
333.611;  -36.600; -251.000; -173.000
333.746;  -34.700; -381.000; -464.000
333.881; -209.800; -973.000; -935.000
334.016; -210.500; -936.000; -917.000
334.151; -207.700; -746.000; -702.000
334.286;   90.700;  152.000;  186.000
334.421;  -27.200; -125.000; -178.000
334.556; -121.800; -611.000; -567.000
334.690; -123.500; -631.000; -577.000
334.825;  176.900;  381.000;   83.000
334.960;  -70.000; -285.000; -413.000
335.095;   55.400;  135.000;  -91.000
335.230; -173.200; -722.000; -738.000
335.365; -241.300;-1084.000; -990.000
335.499; -244.300;-1108.000;-1037.000
335.634;   84.500;    9.000;  534.000
335.769; -160.400; -755.000; -720.000
335.904;  -88.800; -603.000; -561.000
336.038;  -66.500; -735.000; -657.000
336.173; -203.200;-1206.000;-1194.000
336.308;   45.300; -116.000; -189.000
336.443;   49.600; -544.000; -634.000
336.577; -130.700; -936.000; -787.000
336.712;  146.400;   -4.000;  -12.000
336.847;  -92.900; -724.000; -607.000
336.981;  162.000; -272.000; -208.000
337.116;  516.900;  615.000;  501.000
337.250;  282.800; -434.000; -421.000
337.385;  499.000; -297.000; -208.000
337.520;  221.600; -632.000; -603.000
337.654;  -35.500; -215.000; -126.000
337.789; -186.600; -989.000; -933.000
337.923;  -19.300; -104.000; -205.000
338.058; -157.200; -673.000; -738.000
338.192;  -50.800; -611.000; -488.000
338.327;   57.600;  -18.000; -155.000
338.461; -106.200; -299.000; -469.000
338.596; -120.200; -780.000; -638.000
338.730; -187.200; -767.000; -803.000
338.865;  232.200;  -46.000; -140.000
338.999;  -78.700; -846.000; -702.000
339.134;  -32.500; -634.000; -536.000
339.268;   30.000; -741.000; -603.000
339.403;  710.800; -740.000; -775.000
339.537;  265.600; -894.000; -820.000
339.671; -200.600; -829.000; -813.000
339.806;  -55.800; -556.000; -512.000
339.940;   76.400; -261.000; -235.000
340.074; -190.800; -685.000; -510.000
340.209;  -62.200; -351.000; -230.000
340.343; -111.300; -517.000; -573.000
340.477;  362.200;  998.000; 1036.000
340.612;  -64.600;-1033.000; -900.000
340.746;  281.900; -199.000; -243.000
340.880; -136.200; -924.000; -785.000
341.014;   -4.000;  -45.000; -154.000
341.149; -173.100; -756.000; -718.000
341.283; -198.200; -839.000; -754.000
341.417; -166.700;-1124.000; -938.000
341.551;  251.300; -768.000; -708.000
341.685;  -37.900; -633.000; -611.000
341.820;  -62.900; -562.000; -493.000
341.954;  -35.600; -218.000; -349.000
342.088; -250.400;-1102.000;-1019.000
342.222;  114.700;  565.000;  618.000
342.356;  -93.000; -395.000; -335.000
342.490; -157.000; -880.000; -841.000
342.624;  -37.300; -339.000; -242.000
342.758;   12.100; -364.000; -312.000
342.892;  -88.900; -710.000; -585.000
343.026;  -56.500;  -58.000; -116.000
343.160;  -47.100; -426.000; -376.000
343.294;  -93.200; -474.000; -337.000
343.428;    5.900; -488.000; -448.000
343.562;   -3.300; -172.000;  -23.000
343.696;  -23.300; -385.000; -314.000
343.830;   -2.100; -362.000; -356.000
343.964;  101.500; -231.000; -168.000
344.098; 1470.500;  199.000;   70.000
344.232; 1300.700; -266.000; -127.000
344.366;  154.400; -567.000; -453.000
344.500;  118.500; -665.000; -744.000
344.634;   57.200; -324.000; -164.000
344.768;   15.100; -531.000; -341.000
344.902;   76.400;  278.000;  256.000
345.035;  -81.600; -556.000; -496.000
345.169; -209.500; -933.000; -656.000
345.303;    3.300; -308.000; -482.000
345.437; -146.900; -826.000; -717.000
345.571; -101.900; -675.000; -594.000
345.704;  -73.800; -309.000; -532.000
345.838;   21.600; -331.000; -284.000
345.972;  -11.500; -543.000; -495.000
346.106;  364.900; -179.000; -190.000
346.239;  734.400; -312.000; -243.000
346.373;   23.700; -343.000; -302.000
346.507; -231.300; -950.000; -962.000
346.640;  291.600;  -30.000;   13.000
346.774;  -55.100; -650.000; -797.000
346.908;  -10.700; -138.000;  -11.000
347.041; -136.700; -646.000; -593.000
347.175;   47.300;  259.000;   27.000
347.309; -125.000; -698.000; -628.000
347.442; -154.500; -883.000; -732.000
347.576;  550.800;  670.000;  668.000
347.709;  349.600; -123.000;  -52.000
347.843; -139.600; -933.000; -825.000
347.976;  130.100;  235.000;  294.000
348.110; -336.500;-1268.000;-1186.000
348.243; -167.600; -679.000; -772.000
348.377;   56.600;  -26.000;   60.000
348.510;  159.700;  403.000;  540.000
348.644;    2.800;  -37.000; -159.000
348.777;   61.400;  180.000;  191.000
348.911;  -36.900; -142.000; -112.000
349.044;  347.200;  471.000;  448.000
349.178;  246.100;-1069.000;-1006.000
349.311;  256.100;  141.000;  255.000
349.444;   -2.100; -927.000; -813.000
349.578;    9.900; -347.000; -200.000
349.711; -179.700; -959.000; -862.000
349.845;   24.900; -661.000; -591.000
349.978; -243.600;-1224.000;-1137.000
350.111; -108.900; -546.000; -612.000
350.244; -137.600; -596.000; -700.000
350.378;   56.700; -392.000; -393.000
350.511;  -73.000; -393.000; -426.000
350.644; -172.300; -808.000; -806.000
350.778;   56.800;  168.000;  104.000
350.911;   41.000;  134.000;  140.000
351.044; -121.200; -685.000; -615.000
351.177;   -7.100; -321.000; -281.000
351.310;   31.000;    3.000; -131.000
351.444; -134.500; -888.000; -788.000
351.577;  268.700;  140.000;   90.000
351.710;  250.500;  593.000;  417.000
351.843;   25.300; -165.000;  -77.000
351.976;   45.900;  149.000;  -79.000
352.109; -138.000; -621.000; -612.000
352.242;  -25.300; -464.000; -419.000
352.376; -109.000; -580.000; -636.000
352.509;  272.300; -437.000; -356.000
352.642;   28.300; -654.000; -604.000
352.775;  151.500; -141.000;  -98.000
352.908; -155.000; -933.000; -904.000
353.041; -179.900; -814.000; -824.000
353.174;  -53.200; -551.000; -424.000
353.307; -120.600; -753.000; -764.000
353.440;  182.000;  541.000;  453.000
353.573; -187.000; -957.000;-1008.000
353.706;  -34.200; -384.000; -558.000
353.839;   21.900; -264.000; -220.000
353.971; -148.800; -657.000; -512.000
354.104; -155.000; -896.000; -835.000
354.237;  -52.500; -627.000; -662.000
354.370; -131.800; -846.000; -879.000
354.503; -327.300;-1231.000;-1308.000
354.636;  -22.400; -529.000; -348.000
354.769; -232.900; -937.000; -860.000
354.902;    8.500; -230.000; -139.000
355.034;    5.600; -164.000; -220.000
355.167;   14.700; -262.000; -162.000
355.300; -139.000;-1061.000; -880.000
355.433; 1937.000;  -71.000;  -14.000
355.565; 2920.500; -402.000; -384.000
355.698;  815.800; -356.000; -296.000
355.831;    6.000; -882.000; -801.000
355.964;  187.900; -285.000; -170.000
356.096; -136.600; -856.000; -843.000
356.229;    4.900; -523.000; -530.000
356.362;  616.800; -373.000; -266.000
356.494; 1145.500; -229.000; -162.000
356.627;  917.700;  269.000;  377.000
356.760; 1374.000;  120.000;   53.000
356.892; 1862.900; -286.000; -601.000
357.025; 1168.300;  403.000;  389.000
357.157; 1000.100; -167.000; -179.000
357.290; 1311.500; -856.000; -713.000
357.423;  403.600; -667.000; -556.000
357.555;  221.400; -217.000; -228.000
357.688;  233.600; -483.000; -364.000
357.820;  724.500; -870.000; -877.000
357.953; 6051.500; -563.000; -589.000
358.085; 1315.500; -632.000; -612.000
358.218; 1890.400;-1131.000; -932.000
358.350;  402.300;  -58.000;  312.000
358.483; -236.300;-1300.000;-1187.000
358.615;   -3.700;-1182.000;-1078.000
358.747; -117.900;-1187.000;-1058.000
358.880;   45.500; -810.000; -744.000
359.012;   22.700; -376.000; -202.000
359.145;  -55.600; -480.000; -511.000
359.277;   87.600; -962.000; -913.000
359.409; 5149.600;  536.000;  231.000
359.542; 1237.700; -738.000; -688.000
359.674;  180.700;   46.000;   13.000
359.806;  -84.700; -565.000; -438.000
359.939;  -22.300; -617.000; -516.000
360.071;   31.200; -583.000; -579.000
360.203;   31.300; -411.000; -364.000
360.335;  140.800;  164.000;  -16.000
360.468;  343.000; -249.000; -307.000
360.600; 4064.800; -547.000; -454.000
360.732; 5383.000; -546.000; -423.000
360.864;  676.600;-1216.000;-1044.000
360.996;  492.600; -516.000; -554.000
361.129;  102.200; -389.000; -598.000
361.261;   88.300;  110.000; -113.000
361.393;  -17.700; -252.000; -214.000
361.525;   85.600;   94.000;  244.000
361.657;  -66.100; -821.000; -703.000
361.789;   74.100; -139.000; -155.000
361.921;  415.900; -642.000; -593.000
362.053;  508.400;  524.000;  541.000
362.185;  127.200;  288.000;   72.000
362.318; -110.400; -709.000; -705.000
362.450;  255.400;  294.000;  444.000
362.582;  141.800; -913.000; -870.000
362.714;  -19.600; -353.000; -332.000
362.846; -126.700; -606.000; -490.000
362.978; -233.600; -941.000; -811.000
363.109;  151.500; -161.000; -260.000
363.241;  762.400; -739.000; -749.000
363.373;  880.100; -649.000; -564.000
363.505; 1345.000; -186.000;  -91.000
363.637;  290.100; -787.000; -601.000
363.769; -233.100;-1067.000;-1080.000
363.901; -102.700; -596.000; -654.000
364.033; -226.300;-1103.000;-1062.000
364.165;   46.200; -283.000; -283.000
364.296;  183.800; -316.000; -177.000
364.428;  138.500;-1344.000;-1220.000
364.560;  -84.900; -679.000; -661.000
364.692;  -83.500; -738.000; -835.000
364.824;  457.400; -588.000; -456.000
364.955;  843.800; -402.000; -564.000
365.087; 1808.400;-1097.000; -852.000
365.219;   59.200; -686.000; -816.000
365.351;  -87.500; -526.000; -572.000
365.482;  145.900;  300.000;  240.000
365.614;  -52.700; -402.000; -314.000
365.746; -146.200; -729.000; -752.000
365.877; -151.700; -706.000; -672.000
366.009;  573.400;  -35.000;  -62.000
366.141; -125.400;-1249.000;-1134.000
366.272; -187.000; -803.000; -719.000
366.404; -189.800;-1005.000; -874.000
366.535;   28.200; -139.000;  -12.000
366.667; -131.700; -644.000; -649.000
366.799;  149.400;  353.000;  203.000
366.930; -187.700; -862.000; -996.000
367.062;  324.600; -639.000; -613.000
367.193;  328.400; -872.000; -842.000
367.325;  -82.100; -580.000; -684.000
367.456;  123.800; -246.000;   31.000
367.588;  345.400; -371.000; -318.000
367.719;   94.600;  -44.000;  -45.000
367.851;   29.800; -222.000; -241.000
367.982;  -94.200; -875.000; -732.000
368.113;  161.500; -475.000; -358.000
368.245; -175.000; -960.000; -841.000
368.376;  -25.400; -254.000; -302.000
368.508;  -30.400; -188.000; -263.000
368.639; -232.600;-1166.000;-1034.000
368.770;  -19.300; -670.000; -589.000
368.902;  -78.800; -836.000; -926.000
369.033; -188.100; -906.000; -855.000
369.164;  -28.200; -720.000; -653.000
369.296; -166.500; -452.000; -601.000
369.427;   37.700; -209.000; -144.000
369.558;  -63.800; -593.000; -377.000
369.689; -104.300; -721.000; -569.000
369.821; -198.800; -951.000; -845.000
369.952;   35.200;   42.000; -108.000
370.083;  -61.300; -229.000; -108.000
370.214; -125.300; -735.000; -650.000
370.345;    6.300;   65.000;   81.000
370.477; -126.300; -810.000; -790.000
370.608;  420.000; -328.000; -264.000
370.739;  -97.500;-1233.000;-1292.000
370.870;  -75.100;-1102.000; -923.000
371.001;  188.600; -378.000; -467.000
371.132; -120.700; -754.000; -735.000
371.263;    5.300;  -42.000; -148.000
371.394; -212.800; -841.000; -748.000
371.525;  149.700;  345.000;  225.000
371.657; -127.600; -808.000; -670.000
371.788;  210.700;  103.000;  199.000
371.919;  323.800; -384.000; -304.000
372.050; 5894.400;  -91.000; -156.000
372.181; 1761.600; -188.000; -294.000
372.311;  658.100;   42.000; -127.000
372.442;   71.900; -457.000; -451.000
372.573;  -16.100; -444.000; -340.000
372.704; -200.000;-1008.000; -980.000
372.835;  164.700; -228.000; -289.000
372.966;  -92.300; -646.000; -554.000
373.097;  -89.000; -575.000; -711.000
373.228;  -49.800; -717.000; -542.000
373.359;  224.500; -824.000; -536.000
373.490; 1528.400; -881.000; -727.000
373.620; 1886.900;-1001.000; -803.000
373.751; 2921.500; -332.000; -396.000
373.882; 1251.100; -663.000; -733.000
374.013;   87.100; -449.000; -262.000
374.143;  -48.100; -581.000; -659.000
374.274; -151.900; -987.000; -908.000
374.405;  337.900; -388.000; -276.000
374.536;  761.800; -526.000; -387.000
374.666; 1804.600; -759.000; -807.000
374.797;  346.200; -817.000; -868.000
374.928; 1452.900; -710.000; -560.000
375.058; 1452.600; -535.000; -500.000
375.189;  162.400;  -59.000;  -93.000
375.320; -169.000; -928.000;-1034.000
375.450;  -41.200; -625.000; -616.000
375.581;  -99.800; -526.000; -436.000
375.712;  -12.700; -574.000; -250.000
375.842;  526.300; -438.000; -415.000
375.973;  353.300; -554.000; -513.000
376.103;  -48.400; -665.000; -648.000
376.234;  -97.500; -531.000; -552.000
376.364;  -29.300; -944.000; -867.000
376.495;  631.000;  925.000;  529.000
376.625;   18.900; -472.000; -485.000
376.756;  147.200; -709.000; -678.000
376.886; -132.900;-1178.000;-1026.000
377.017;  101.300;-1048.000;-1061.000
377.147;  715.900; -786.000; -782.000
377.278;  175.500;  174.000;  228.000
377.408; -207.800; -801.000; -815.000
377.538; -149.800; -707.000; -693.000
377.669; -131.200; -537.000; -613.000
377.799; -151.600; -645.000; -635.000
377.929;  -32.700; -610.000; -428.000
378.060; -203.700; -781.000; -847.000
378.190;  -59.800; -726.000; -531.000
378.320;  -35.700; -401.000; -406.000
378.451;    7.300; -131.000;  -22.000
378.581;   46.600;  -67.000; -110.000
378.711;  355.800; 1035.000;  866.000
378.841;   41.200; -533.000; -675.000
378.972; -120.000; -871.000; -751.000
379.102;    3.500; -652.000; -579.000
379.232;   27.700; -126.000;  -73.000
379.362; -178.100;-1001.000; -885.000
379.492;   50.900; -373.000; -424.000
379.623;  269.400;    0.000;  111.000
379.753; -189.400;-1107.000; -974.000
379.883;  436.300;   59.000;  156.000
380.013;    4.400;-1081.000;-1017.000
380.143; -184.700;-1097.000;-1056.000
380.273; -187.600; -985.000; -861.000
380.403;   45.200; -344.000; -257.000
380.533;  -58.000; -651.000; -664.000
380.663;  212.500;  173.000;  128.000
380.793; -156.800;-1027.000;-1074.000
380.923;   -5.200; -103.000;  -34.000
381.053; -142.500; -613.000; -623.000
381.183;   -3.500; -106.000; -248.000
381.313;  100.900; -656.000; -470.000
381.443;   91.500; -692.000; -473.000
381.573;  356.000; -402.000; -409.000
381.703;  469.200;-1249.000;-1095.000
381.833; -237.900;-1454.000;-1336.000
381.963;  237.000; -134.000;  -87.000
382.093; 2288.200; -925.000; -909.000
382.223;  655.400; -713.000; -602.000
382.353;  -22.300; -801.000; -608.000
382.482;  593.000;-1091.000; -964.000
382.612; 1298.000; -872.000; -644.000
382.742;  735.500; -695.000; -622.000
382.872;  482.100; -565.000; -551.000
383.002;  188.200;  347.000; -132.000
383.131;  -27.800; -226.000; -160.000
383.261;  -56.300; -706.000; -768.000
383.391;  544.400; -552.000; -377.000
383.521; 6254.600;  451.000;  263.000
383.650; 1452.100; -947.000; -904.000
383.780;   18.300; -783.000; -656.000
383.910;  271.300;  880.000;  802.000
384.039;   73.400; -794.000; -656.000
384.169;  346.000;-1205.000;-1017.000
384.299;    0.700; -650.000; -662.000
384.428; -133.800; -764.000; -680.000
384.558;  -22.800; -308.000; -275.000
384.687;  -66.500; -414.000; -334.000
384.817;  117.700;   75.000;   -2.000
384.947;  101.500; -234.000; -141.000
385.076;  589.000;  982.000;  912.000
385.206;  217.800;  369.000;  480.000
385.335;  -12.900; -549.000; -417.000
385.465; -102.300; -655.000; -663.000
385.594;  297.300;  -53.000;  -44.000
385.724;  677.600; -868.000; -838.000
385.853;  275.700; -296.000; -270.000
385.982; 2280.200; -743.000; -787.000
386.112; 3399.100;-1052.000; -871.000
386.241;  236.900; -307.000; -312.000
386.371;   71.700; -174.000;  -87.000
386.500;   39.900; -825.000; -789.000
386.629;   66.600; -874.000; -817.000
386.759;  237.400;  -43.000;   68.000
386.888;   26.200; -170.000; -250.000
387.017; -113.600; -648.000; -620.000
387.147; -118.500; -771.000; -798.000
387.276;   13.900; -410.000; -397.000
387.405;   49.900; -398.000; -342.000
387.535;  -29.300; -452.000; -361.000
387.664;  -88.200; -692.000; -620.000
387.793;  162.600; -198.000; -113.000
387.922;  896.200;  255.000;  200.000
388.052;   23.400; -576.000; -423.000
388.181;   90.100; -342.000; -472.000
388.310;   26.200; -889.000; -710.000
388.439;  -70.800; -749.000; -742.000
388.568;  396.400;  365.000;  244.000
388.697; 1768.900; -756.000; -653.000
388.826;  303.000; -768.000; -666.000
388.956;  109.000; -285.000; -307.000
389.085;  -25.300; -347.000; -287.000
389.214; -155.200; -842.000; -872.000
389.343;  -55.300; -645.000; -413.000
389.472;  808.400;  126.000;  149.000
389.601; 1040.800;   91.000;    0.000
389.730;   70.800; -568.000; -687.000
389.859;  164.300;  226.000;   46.000
389.988;  350.600; -423.000; -408.000
390.117;  281.200; -168.000; -146.000
390.246;   16.000; -331.000; -320.000
390.375;  190.900; -673.000; -626.000
390.504;  -78.200; -703.000; -621.000
390.633; -119.000; -672.000; -726.000
390.761;  -76.200; -732.000; -645.000
390.890;   90.500;   -4.000; -130.000
391.019;  -32.600; -421.000; -441.000
391.148; -178.300; -826.000; -855.000
391.277;  -75.100; -576.000; -493.000
391.406;  -86.000; -821.000; -805.000
391.534;   70.400;  574.000; -301.000
391.663;  -69.100; -583.000; -645.000
391.792; -116.500; -673.000; -701.000
391.921;  213.900;   -3.000;   15.000
392.050;  364.100; -287.000; -228.000
392.178; -114.000;-1206.000;-1061.000
392.307;  255.400; -758.000; -712.000
392.436;  124.300; -427.000; -641.000
392.564;  145.600;  166.000;   -6.000
392.693; -147.400; -860.000; -682.000
392.822;  391.300; -529.000; -534.000
392.950;  152.700; -880.000; -714.000
393.079;  573.000; -188.000; -328.000
393.208;   46.200; -488.000; -511.000
393.336;   26.100; -170.000; -145.000
393.465;  -16.700; -317.000; -199.000
393.593;   86.200;   62.000;   79.000
393.722; -245.800;-1121.000; -916.000
393.850;   15.700; -188.000;  -61.000
393.979; -246.800; -926.000; -805.000
394.107;  -51.500; -517.000; -537.000
394.236;   23.700; -570.000; -507.000
394.364;  553.400;  383.000;  206.000
394.493;  797.500; -911.000; -767.000
394.621;   21.800; -955.000; -916.000
394.750; 1502.400; -873.000; -923.000
394.878; 6023.300; -247.000; -149.000
395.007; 7724.400; -721.000; -807.000
395.135;  605.800; -790.000; -721.000
395.263; -124.500;-1038.000;-1040.000
395.392;   55.700;  -25.000; -107.000
395.520; -144.100; -818.000; -679.000
395.648; -133.100; -865.000; -915.000
395.777;   31.200; -366.000; -405.000
395.905;  -73.500; -449.000; -564.000
396.033;   69.000;  217.000;  172.000
396.162; 1334.100; -399.000; -453.000
396.290; 1090.400;  -17.000;   -2.000
396.418;  231.100; -555.000; -514.000
396.546; -132.200; -571.000; -466.000
396.674; -163.500; -850.000; -878.000
396.803;   35.500;  -72.000;  -23.000
396.931;  227.400; -179.000; -199.000
397.059;   89.700;-1026.000; -989.000
397.187; -176.100;-1026.000; -975.000
397.315; -215.100; -884.000; -649.000
397.443; -158.000; -592.000; -443.000
397.572; -157.300; -578.000; -424.000
397.700;    5.700; -607.000; -614.000
397.828;   89.300;  120.000;  -90.000
397.956;  -26.700; -508.000; -478.000
398.084;  -54.500; -767.000; -626.000
398.212;  123.400;  137.000;  124.000
398.340;   82.000;  -56.000;  159.000
398.468;   61.500; -390.000; -169.000
398.596; -225.600; -993.000; -953.000
398.724; -177.300; -762.000; -767.000
398.852; -313.200;-1024.000; -976.000
398.980;  -54.000; -560.000; -560.000
399.108;  -58.600; -982.000; -735.000
399.236;  112.200;   13.000;    8.000
399.363;   82.000;  222.000;  196.000
399.491;  -86.600; -404.000; -398.000
399.619; -202.900; -829.000; -800.000
399.747; -176.700; -859.000; -771.000
399.875;  237.300;  220.000;  234.000
400.003;  -47.300; -359.000; -284.000
400.130; -126.600; -421.000; -341.000
400.258;    6.200;  -83.000;   38.000
400.386; -107.900; -352.000; -168.000
400.514;  -10.300; -526.000; -587.000
400.641; -165.400; -928.000; -802.000
400.769; -220.700; -979.000; -888.000
400.897; -145.300; -838.000; -793.000
401.025;   55.800; -166.000; -152.000
401.152;   64.400;  220.000;   38.000
401.280;  -96.700; -430.000; -429.000
401.408; -176.100; -712.000; -576.000
401.535; -170.000; -735.000; -758.000
401.663; -338.600;-1134.000;-1054.000
401.790; -107.500; -514.000; -525.000
401.918;  157.000;  436.000;  405.000
402.046;   15.100;  134.000;  122.000
402.173;  -20.500;  -18.000;    7.000
402.301;  -74.700; -519.000; -397.000
402.428;  155.200;  528.000;  383.000
402.556; -229.600;-1188.000; -913.000
402.683;  -12.800;  -20.000;   -1.000
402.811;   28.100;  -37.000; -206.000
402.938;   55.800;   20.000;   27.000
403.066;  335.400; -574.000; -558.000
403.193;  556.700;  299.000;  239.000
403.321;  441.000; -396.000; -574.000
403.448;  553.300;   83.000;   27.000
403.575;  256.700;  -90.000;  -46.000
403.703; -138.700; -732.000; -557.000
403.830;  -56.100; -531.000; -496.000
403.957; -214.400;-1117.000;-1023.000
404.085;  109.500;  -61.000; -172.000
404.212;  247.800;  -50.000;   63.000
404.339;  606.500; -566.000; -306.000
404.467;11884.600; -612.000; -524.000
404.594; 7138.300; -287.000; -227.000
404.721; 1633.500; -869.000; -764.000
404.848;  207.200; -113.000; -202.000
404.976; -148.900; -856.000; -783.000
405.103;   32.600;  -14.000;  -82.000
405.230;   74.200;  190.000;  226.000
405.357;  121.600;  117.000;   44.000
405.484;  621.600;  -49.000;    5.000
405.612;  137.600; -548.000; -563.000
405.739;  -56.500; -488.000; -243.000
405.866;  265.100;  669.000;  385.000
405.993;  -41.500; -398.000; -102.000
406.120; -188.500; -801.000; -887.000
406.247;  -63.000; -323.000; -342.000
406.374;  810.700;  540.000;  629.000
406.501;  179.400; -632.000; -702.000
406.628;  -98.900; -621.000; -589.000
406.755; -151.000; -803.000; -620.000
406.882;    8.100; -228.000; -277.000
407.009; -135.600; -719.000; -628.000
407.136;  171.800; -480.000; -401.000
407.263;  232.000; -939.000; -829.000
407.390;  -97.800; -692.000; -614.000
407.517; -286.100;-1139.000;-1187.000
407.644;  -32.900; -332.000; -256.000
407.771;  -76.100; -249.000; -287.000
407.898;   78.000;  168.000;  328.000
408.025;  -72.300; -421.000; -313.000
408.151;   57.000;   82.000;  153.000
408.278;  -78.100; -267.000; -216.000
408.405; -166.700; -931.000; -899.000
408.532;  -95.200; -549.000; -542.000
408.659; -183.800; -677.000; -648.000
408.785; -344.600;-1298.000;-1170.000
408.912;  -57.700; -412.000; -296.000
409.039; -148.000; -610.000; -686.000
409.166; -153.900; -591.000; -555.000
409.292; -160.400; -571.000; -534.000
409.419; -158.800; -665.000; -649.000
409.546; -104.000; -431.000; -192.000
409.672; -153.400; -713.000; -545.000
409.799;    3.800;  -36.000;   34.000
409.926;  -20.500; -180.000; -179.000
410.052; -306.800;-1127.000;-1091.000
410.179;  -70.500; -368.000; -392.000
410.305;  -84.400; -375.000; -493.000
410.432;  -13.400; -220.000; -333.000
410.558; -104.400; -305.000; -380.000
410.685; -142.200; -688.000; -431.000
410.812; -144.300; -409.000; -588.000
410.938; -200.000; -964.000; -808.000
411.065; -163.000; -671.000; -645.000
411.191;   37.900; -189.000; -174.000
411.317; -140.500; -823.000; -742.000
411.444;  -59.800; -317.000; -246.000
411.570;  -69.600; -339.000; -294.000
411.697; -155.200; -758.000; -752.000
411.823; -286.900; -989.000; -999.000
411.949;  -29.200;  -56.000;   17.000
412.076; -164.600; -539.000; -519.000
412.202; -186.100; -758.000; -757.000
412.329; -184.200; -798.000; -752.000
412.455; -153.700; -821.000; -657.000
412.581;   29.300;  -15.000;  172.000
412.707;  -78.800; -540.000; -457.000
412.834;   83.100;  156.000;  219.000
412.960; -138.000; -785.000; -784.000
413.086; -161.000; -743.000; -701.000
413.212;  355.500;  604.000;  578.000
413.339; -119.400; -685.000; -701.000
413.465;   30.100; -364.000; -310.000
413.591; -149.000; -757.000; -474.000
413.717;  -27.500; -358.000; -366.000
413.843; -245.300; -839.000; -861.000
413.969;  -47.900;  -47.000; -292.000
414.096; -142.400; -679.000; -679.000
414.222;   55.700;  -33.000;   85.000
414.348;  -21.600; -652.000; -385.000
414.474;  201.200;   38.000;  -52.000
414.600;   53.400; -126.000; -144.000
414.726;   62.300;  -96.000;  -55.000
414.852;  -46.500; -365.000; -342.000
414.978;  155.300;  104.000;  -18.000
415.104;  123.900;   38.000;   80.000
415.230;  113.200; -329.000; -330.000
415.356;  123.500; -409.000; -514.000
415.482;  431.500;   13.000;  -35.000
415.608;  615.500; -247.000; -323.000
415.734; 1997.000;   67.000;   38.000
415.860;41024.300; -875.000; -767.000
415.986;27015.300; -685.000; -607.000
416.111; 2306.900; -798.000; -652.000
416.237;  529.800; -424.000; -571.000
416.363; 2477.200; -765.000; -733.000
416.489; 8134.600; -324.000; -251.000
416.615;  854.500; -707.000; -742.000
416.741;   24.200; -677.000; -784.000
416.866; -135.200; -673.000; -736.000
416.992; -145.700; -801.000; -818.000
417.118;   36.800;  -41.000;  -80.000
417.244;  -81.300; -798.000; -531.000
417.369; -108.400; -801.000; -612.000
417.495;   51.800; -325.000; -254.000
417.621; -147.600;-1015.000; -803.000
417.746;   63.800; -579.000; -572.000
417.872;  152.100; -254.000; -144.000
417.998;  138.200; -515.000; -530.000
418.123; 2358.100;-1073.000; -845.000
418.249;10653.300; -512.000; -601.000
418.374; 1349.800; -916.000; -824.000
418.500;  267.800; -383.000; -482.000
418.626;  292.900;   70.000;  -59.000
418.751;  284.700; -549.000; -448.000
418.877;  390.400; -637.000; -643.000
419.002; 4053.800; -688.000; -560.000
419.128;25145.000; -930.000; -721.000
419.253; 5563.200; -967.000; -837.000
419.379;  800.600; -391.000; -338.000
419.504;  849.500;  325.000;  415.000
419.629; 1090.900; -393.000; -212.000
419.755; 7804.100; -317.000; -254.000
419.880;41701.500;  -98.000;   67.000
420.006;23144.800; -280.000; -221.000
420.131;55919.800; -662.000; -775.000
420.256; 7360.300; -315.000; -316.000
420.382; 1024.600; -665.000; -687.000
420.507;  162.100; -649.000; -778.000
420.632;  259.800; -337.000; -339.000
420.758;  447.100; -251.000; -425.000
420.883; -122.400; -876.000; -672.000
421.008; -144.100; -775.000; -619.000
421.133;  -79.300; -509.000; -467.000
421.259;  -28.000; -325.000; -259.000
421.384; -188.900; -834.000; -693.000
421.509;  -11.600;-1052.000; -862.000
421.634; 1892.500; -936.000; -820.000
421.759;  746.600; -359.000; -327.000
421.885;  -93.800; -717.000; -656.000
422.010;  -74.900; -673.000; -542.000
422.135; -255.900; -695.000; -727.000
422.260;  151.200;  340.000;  280.000
422.385;  -11.200;   12.000;  -98.000
422.510;   77.600;  151.000;  -26.000
422.635;  131.300;  -87.000;  -43.000
422.760;  215.200; -766.000; -791.000
422.885;  150.800;  -57.000;  -80.000
423.010;   -7.700; -112.000; -169.000
423.135; -105.100; -481.000; -561.000
423.260;   -1.200; -150.000; -245.000
423.385;  209.000;  476.000;  222.000
423.510;  137.800;   71.000;  -22.000
423.635;  200.000;  133.000;   45.000
423.760;  183.600;  383.000;  328.000
423.885;  148.100;  336.000;  391.000
424.010;  113.300;  -68.000;  -13.000
424.135;   49.300;    5.000;  -33.000
424.259;  -87.400; -654.000; -457.000
424.384;  -38.400; -279.000; -272.000
424.509;   27.200; -260.000; -186.000
424.634; -117.500; -761.000; -623.000
424.759;   26.100; -688.000; -544.000
424.883;   18.800; -506.000; -527.000
425.008;  411.900; -502.000; -410.000
425.133; 4154.200; -679.000; -653.000
425.258; 1690.600; -517.000; -381.000
425.382; 1839.400; -867.000; -774.000
425.507; 4206.500; -487.000; -543.000
425.632;  702.900; -802.000; -663.000
425.756;  913.700; -256.000; -146.000
425.881;14160.000; -831.000; -857.000
426.006;34380.100; -604.000; -355.000
426.130; 4824.200; -696.000; -508.000
426.255;  675.400; -611.000; -491.000
426.379;  356.500; -189.000; -577.000
426.504;  882.300;  660.000;  544.000
426.629; 8389.000; -519.000; -466.000
426.753; 5248.000;   64.000;  -46.000
426.878;  646.800; -252.000; -288.000
427.002;  427.600; -651.000; -668.000
427.127; 3497.800;  -35.000; -158.000
427.251;23081.200;  372.000;  401.000
427.375; 5744.200; -191.000; -173.000
427.500; 3947.200; -616.000; -610.000
427.624; 1178.100; -234.000; -400.000
427.749;  197.300; -216.000; -225.000
427.873;  -23.400; -499.000; -412.000
427.997;    9.900; -222.000; -230.000
428.122;  203.200;  795.000;  703.000
428.246;  196.600;  433.000;  434.000
428.371; -169.400; -869.000; -773.000
428.495; -130.000; -624.000; -646.000
428.619;   -3.000; -186.000; -117.000
428.743;  110.700;   65.000;  132.000
428.868;   42.000; -732.000; -643.000
428.992; 2358.100; -219.000; -326.000
429.116;  851.700; -329.000; -357.000
429.240;  508.800;  419.000;  426.000
429.365;   10.100; -454.000; -574.000
429.489;  -17.600; -638.000; -647.000
429.613;   94.400; -236.000; -177.000
429.737;  169.700; -563.000; -432.000
429.861;  593.700; -247.000; -133.000
429.985;11748.900; -425.000; -305.000
430.109;11665.100; -770.000; -908.000
430.234; 1339.300;   76.000;  -50.000
430.358;  221.600; -250.000; -160.000
430.482;  -60.000; -672.000; -564.000
430.606;  -51.500; -655.000; -375.000
430.730;   84.900; -437.000; -388.000
430.854;  235.400; -909.000; -835.000
430.978;  -81.700; -795.000; -764.000
431.102;  -92.000; -499.000; -422.000
431.226; -139.500; -874.000; -815.000
431.350;  153.500;  345.000;  422.000
431.474;  -93.600; -661.000; -373.000
431.597; -270.700;-1060.000; -848.000
431.721;  -79.000; -276.000; -267.000
431.845; -192.500; -704.000; -472.000
431.969;  -66.500; -304.000; -349.000
432.093; -107.300; -395.000; -317.000
432.217;   53.600;   32.000;   82.000
432.341; -120.900; -523.000; -518.000
432.464;   79.700;   96.000;   40.000
432.588;  424.400; -401.000; -329.000
432.712;  235.600;  -52.000;  -52.000
432.836;  174.500;  213.000;  263.000
432.959;   12.900; -372.000; -311.000
433.083;  230.400;   11.000;    2.000
433.207;  840.800;  285.000;  930.000
433.330;10819.700; -391.000; -200.000
433.454;11985.200; -654.000; -638.000
433.578; 7179.300;  583.000;  278.000
433.701; 1262.300; -623.000; -675.000
433.825;  297.600; -292.000; -299.000
433.949;  352.600;   28.000;  -72.000
434.072;   98.100; -410.000; -323.000
434.196;   36.100; -309.000; -117.000
434.319; 7900.900;25482.000;25124.000
434.443; 1565.400; -656.000; -603.000
434.566; 5272.800;  281.000;   62.000
434.690;  826.100; -637.000; -383.000
434.813;  174.200; -251.000; -173.000
434.937;  -46.600; -569.000; -696.000
435.060;  -20.100; -423.000; -332.000
435.184;  566.900; -492.000; -217.000
435.307;  308.700;  159.000;  102.000
435.431;   59.800;  -40.000;   24.000
435.554;  -88.700; -399.000; -240.000
435.677; -106.400; -350.000; -258.000
435.801;   11.900;  -25.000;   49.000
435.924;   54.200;    1.000;  -67.000
436.048; -158.300;-1019.000; -732.000
436.171;  -72.100; -240.000;  -66.000
436.294;   48.000; -248.000; -229.000
436.417;  225.100; -963.000; -849.000
436.541; -104.700; -814.000; -840.000
436.664;  -19.600; -242.000; -316.000
436.787;   23.100;   13.000;  113.000
436.910; -159.400; -792.000; -422.000
437.034;   76.600;  142.000;  143.000
437.157;  170.800;  -11.000;    0.000
437.280;  -35.800; -392.000; -292.000
437.403; -141.300; -982.000; -869.000
437.526; 1098.100; -903.000; -865.000
437.649; 3444.500; -505.000; -332.000
437.772;  437.300; -692.000; -540.000
437.896;  302.200;  700.000;  544.000
438.019; -128.600; -758.000; -503.000
438.142;  -96.000; -596.000; -506.000
438.265;   29.900; -639.000; -670.000
438.388;  997.400; -520.000; -410.000
438.511;  191.800; -597.000; -394.000
438.634;  -44.600; -247.000; -125.000
438.757; -213.200; -693.000; -619.000
438.880;   50.900;  -34.000;  -57.000
439.003; -141.700; -417.000; -437.000
439.126;  -62.700; -287.000; -167.000
439.248;  -34.700;  -98.000; -139.000
439.371;  -10.100;    9.000;  -53.000
439.494;  152.500;  510.000;  439.000
439.617;  -56.800;   65.000;  -88.000
439.740; -295.100; -968.000; -816.000
439.863; -218.400; -755.000; -595.000
439.986; -183.300; -476.000; -431.000
440.108;  -30.200; -161.000; -112.000
440.231; -273.800; -950.000; -836.000
440.354;  -24.800;  -64.000; -150.000
440.477;  105.500; -566.000; -542.000
440.599;   81.600; -200.000; -225.000
440.722; -190.400; -709.000; -586.000
440.845;  243.000;  751.000;  928.000
440.968; -161.000; -415.000; -311.000
441.090;  -65.700; -199.000;  -33.000
441.213; -285.300;-1021.000; -825.000
441.336;   -5.600; -159.000;   -5.000
441.458; -100.500; -549.000; -396.000
441.581; -100.000; -628.000; -629.000
441.703;  -64.000; -152.000;   13.000
441.826; -150.200; -557.000; -400.000
441.948;  -38.300;   56.000;   51.000
442.071;  105.300;  555.000;  424.000
442.193; -165.100; -531.000; -485.000
442.316;   96.400;  152.000;   97.000
442.438;  139.100; -233.000;  -10.000
442.561;  203.800;  272.000;  262.000
442.683;  931.600; -809.000; -522.000
442.806; 1805.600;   -8.000;   74.000
442.928;  -45.300; -859.000; -604.000
443.051;  -73.600; -577.000; -373.000
443.173; -136.000; -341.000; -339.000
443.295;  -79.700; -263.000; -371.000
443.418; -105.500; -321.000;  -29.000
443.540;   48.400; -106.000;   -4.000
443.662; -159.700; -563.000; -465.000
443.785;   45.000;  335.000;  199.000
443.907; -166.600; -362.000; -208.000
444.029; -180.700; -767.000; -494.000
444.152; -207.300; -644.000; -554.000
444.274;   10.800;  -18.000;  -24.000
444.396; -161.500; -461.000; -221.000
444.518; -212.200; -691.000; -454.000
444.640; -142.400; -268.000; -111.000
444.763;   74.600;  388.000;  249.000
444.885; -194.200; -432.000; -392.000
445.007;   18.400;   35.000;   86.000
445.129; -145.900; -610.000; -515.000
445.251; -135.200; -372.000; -439.000
445.373; -196.100; -537.000; -386.000
445.495;   77.000;  242.000;  350.000
445.617;  156.400;  853.000;  753.000
445.739;  -47.700; -215.000;  -97.000
445.861;   -6.500; -245.000; -112.000
445.984;  -19.700; -267.000; -101.000
446.105;  377.600; -418.000; -251.000
446.227;  991.100; -176.000;  -19.000
446.349;    5.900; -358.000; -249.000
446.471; -149.000; -615.000; -448.000
446.593;  -80.500; -316.000;   19.000
446.715;   60.900;  -67.000;   41.000
446.837;  208.800;  697.000;  832.000
446.959; -124.300; -457.000; -478.000
447.081; -220.300; -628.000; -518.000
447.203;  218.400;  862.000;  834.000
447.325; -112.900; -270.000;   42.000
447.446;   32.400;  286.000;  530.000
447.568; -220.300; -921.000; -803.000
447.690; -101.700; -236.000; -245.000
447.812; -241.000; -798.000; -519.000
447.933;   23.500;  155.000;  127.000
448.055;  -67.000; -306.000; -261.000
448.177;  306.600;   31.000;   79.000
448.299;   76.900; -935.000; -727.000
448.420;  123.700;  -25.000;  159.000
448.542;  -40.600;   -3.000;   33.000
448.664;   12.000;  109.000;  322.000
448.785;   12.000;  265.000;   83.000
448.907;  -99.500; -614.000; -353.000
449.028;  -15.500; -771.000; -471.000
449.150;  190.500;  492.000;  589.000
449.272; -230.100;-1044.000; -913.000
449.393;  152.100;  612.000;  694.000
449.515; -198.300; -634.000; -581.000
449.636;  -26.300; -264.000; -155.000
449.758;  239.700;  763.000;  622.000
449.879;  -96.300; -498.000; -396.000
450.001;  -70.700; -149.000;  -49.000
450.122;    5.600;  -95.000;  162.000
450.244;   38.800;   37.000;  364.000
450.365;  -79.300; -495.000; -301.000
450.486;    2.300;   80.000;  268.000
450.608;  123.100;  393.000;  326.000
450.729;  228.400;  578.000;  645.000
450.850;   64.900; -574.000; -466.000
450.972; 1681.700; -552.000; -389.000
451.093;10230.800;  190.000;  588.000
451.214; 3870.300; -516.000; -337.000
451.336;  836.000;  773.000;  579.000
451.457;  208.400;  264.000;  393.000
451.578;  -13.800; -118.000;  -74.000
451.699; -165.000; -546.000; -540.000
451.821;  -53.800; -284.000;  -50.000
451.942;   74.500;  278.000;  285.000
452.063;  156.100;  228.000;  419.000
452.184; 1305.700;  -54.000;  -49.000
452.305; 2270.300;  103.000;  170.000
452.427;  286.700; -549.000; -301.000
452.548;    1.300;   23.000;   79.000
452.669;  -40.100; -257.000;  -89.000
452.790;  -16.800;    3.000;  -18.000
452.911;   66.400;  195.000;  259.000
453.032;  -32.100; -289.000;  -60.000
453.153;  -31.200;  -29.000;   81.000
453.274;  203.600;  737.000;  868.000
453.395;  -38.400;  -51.000;  175.000
453.516;  369.100; 1317.000; 1388.000
453.637;  -67.500; -205.000; -150.000
453.758;  -37.300;   15.000;   69.000
453.879; -152.900; -462.000; -250.000
454.000;  243.600; 1086.000;  948.000
454.121; -176.100; -554.000; -326.000
454.242; -156.200; -599.000; -383.000
454.362;  -28.100;  -99.000;  114.000
454.483;  -11.900; -309.000; -229.000
454.604;  170.800;  512.000;  580.000
454.725; -206.400; -627.000; -555.000
454.846; -148.800; -474.000; -406.000
454.967;   33.100;  230.000;  539.000
455.087;  -11.300;  179.000;  153.000
455.208;  147.500;  554.000;  856.000
455.329;  -16.100;  -22.000;   82.000
455.450;  170.800;  473.000;  633.000
455.570;  -98.000; -234.000; -211.000
455.691;    1.700;  201.000;  407.000
455.812; -153.700; -270.000;  -92.000
455.932;  -62.900;  107.000;  -97.000
456.053;  -64.600;   36.000;   24.000
456.173; -150.400; -433.000; -355.000
456.294; -195.200; -476.000; -303.000
456.415;  -39.800;  -73.000;   70.000
456.535;    3.700;  297.000;  273.000
456.656;   -6.800;  132.000;  240.000
456.776;  -30.700;    3.000;  298.000
456.897;   87.200;  308.000;  513.000
457.017;  -84.200; -153.000;   -3.000
457.138; -126.100; -402.000; -249.000
457.258;   22.500;  263.000;  224.000
457.379;   72.800;  509.000;  521.000
457.499;    0.800;  443.000;  432.000
457.620; -180.800; -407.000; -231.000
457.740; -140.400; -132.000;  -11.000
457.860;  -36.000;   87.000;   44.000
457.981;   -4.700;  132.000;  124.000
458.101;  -76.000;  -89.000;   40.000
458.221;   78.000;  336.000;  402.000
458.342;  -25.700;   -4.000;  -37.000
458.462;  130.400;  617.000;  352.000
458.582;  -34.400; -302.000; -294.000
458.703;  104.000;  303.000;  154.000
458.823;   22.200;   22.000;  163.000
458.943;  117.800;  341.000;  467.000
459.063;   38.300; 1124.000;  192.000
459.183;  -10.000;  328.000;  313.000
459.304;  108.100;  315.000;  517.000
459.424;  -59.200; -246.000;  -89.000
459.544;  806.600;  388.000;  764.000
459.664; 1715.100;  499.000;  506.000
459.784;  625.500; 1004.000; 1175.000
459.904;  212.800;  867.000;  744.000
460.024;  234.900;  867.000;  684.000
460.144;  109.000;  449.000;  554.000
460.264;   82.600;  515.000;  327.000
460.385; -110.100; -145.000; -119.000
460.505;  169.500;  905.000;  858.000
460.625; -122.200;  -17.000;  -68.000
460.745;   22.700;  396.000;  541.000
460.864;  -40.100;  153.000;  469.000
460.984;  101.100;  499.000;  573.000
461.104;  369.100; 1656.000; 1775.000
461.224;  140.500;  657.000;  650.000
461.344;   10.600;  431.000;  360.000
461.464;   24.900;  258.000;  513.000
461.584;   21.700;  283.000;  466.000
461.704;  -52.400;   58.000;  108.000
461.824;  -45.900;  238.000;  259.000
461.943;    9.800;  191.000;  130.000
462.063; -100.400;    2.000;  324.000
462.183;  141.700;  639.000;  717.000
462.303;  326.300; 1678.000; 1230.000
462.422;  170.400;  781.000;  840.000
462.542;   11.100;  271.000;  391.000
462.662;  142.300;  353.000;  380.000
462.782;  589.600;  833.000;  572.000
462.901; 1070.300;  545.000;  717.000
463.021;  627.100; 1702.000; 1638.000
463.141;   78.200;  337.000;  770.000
463.260;   42.300;  614.000;  474.000
463.380;  135.500;  902.000;  884.000
463.499;    6.700;  342.000;  332.000
463.619;   19.200;  581.000;  559.000
463.738;  350.700; 1644.000;  903.000
463.858;   82.300;  657.000;  811.000
463.978;   46.400;  542.000;  396.000
464.097;  182.100;  921.000; 1114.000
464.217;  311.500; 1196.000; 1143.000
464.336;  314.700; 1068.000; 1130.000
464.455;   17.700;  328.000;  659.000
464.575;  137.600;  597.000;  602.000
464.694;  399.100; 1204.000; 1179.000
464.814;  333.900; 1190.000; 1138.000
464.933;  219.800; 1095.000; 1027.000
465.052;  287.500; 1412.000; 1054.000
465.172;  263.300;  922.000;  799.000
465.291;  334.100; 1376.000; 1320.000
465.410;  106.500;  462.000;  735.000
465.530;  270.900; 1355.000; 1310.000
465.649;  230.700; 1209.000; 1273.000
465.768;  351.300; 1673.000; 1508.000
465.888;  169.500;  941.000; 1174.000
466.007;  294.900; 1335.000; 1440.000
466.126;   86.400;  721.000;  641.000
466.245;  174.800; 1176.000; 1187.000
466.364;  106.300;  950.000; 1060.000
466.484;  176.100; 1024.000; 1213.000
466.603;  157.700; 1101.000; 1222.000
466.722;  353.100; 1490.000; 1769.000
466.841;  206.700; 1151.000; 1401.000
466.960;  185.000; 1069.000;  972.000
467.079;  360.900; 1971.000; 1786.000
467.198;  182.200; 1238.000; 1181.000
467.317;  287.300; 1768.000; 1162.000
467.436;  201.300; 1709.000; 1261.000
467.555;  325.500; 1796.000; 1746.000
467.674;  209.500; 1227.000; 1329.000
467.793;  181.300; 1376.000; 1374.000
467.912;  277.200; 1658.000; 1539.000
468.031;  342.500; 2038.000; 1930.000
468.150;  376.300; 1842.000; 1837.000
468.269;  476.900; 2313.000; 2090.000
468.388;  475.700; 2168.000; 2339.000
468.507;  629.100; 2884.000; 2903.000
468.626;  652.900; 2555.000; 2541.000
468.744;  356.600; 2018.000; 2174.000
468.863;  506.800; 2312.000; 2523.000
468.982;  266.900; 1503.000; 1555.000
469.101;  530.400; 2788.000; 2692.000
469.220;  419.400; 2333.000; 2176.000
469.338;  635.100; 2935.000; 3051.000
469.457;  455.700; 2719.000; 2545.000
469.576;  846.200; 3953.000; 3784.000
469.695;  552.700; 2877.000; 3066.000
469.813;  951.600; 4148.000; 4192.000
469.932;  836.800; 4255.000; 4485.000
470.051;  950.300; 4075.000; 4161.000
470.169; 1894.000; 4470.000; 4338.000
470.288; 3041.300; 4700.000; 4809.000
470.406; 1782.100; 5059.000; 5194.000
470.525; 1378.800; 6101.000; 5787.000
470.644; 1403.700; 6847.000; 6794.000
470.762; 1776.700; 8397.000; 7873.000
470.881; 1904.200; 8651.000; 8464.000
470.999; 2194.700; 9685.000; 9151.000
471.118; 2352.900;11174.000;10711.000

