
Integration time [ms]: 100.000
Averaging Nr. [scans]: 40
Smoothing Nr. [pixels]: 0
Data measured with spectrometer [name]: 2101012U2
Wave   ;Sample   ;Dark     ;Reference
[nm]   ;[counts] ;[counts] ;[counts] 

197.733;   59.525;  516.000;  404.000
197.879;  -84.850; -610.000; -634.000
198.025;  -57.450; -475.000; -420.000
198.171;  -58.100; -602.000; -612.000
198.317;  -42.650; -401.000; -316.000
198.463;  -53.500; -655.000; -404.000
198.609;   11.875;  181.000; -137.000
198.755;  -60.125; -644.000; -410.000
198.901;  -65.575; -505.000; -424.000
199.047;  -61.450; -615.000; -488.000
199.193;  -40.250; -230.000; -468.000
199.339;  -35.275; -222.000; -369.000
199.485;   37.475;  330.000;  271.000
199.631;   16.050;  227.000;  310.000
199.777;  -56.900; -466.000; -398.000
199.923;  -55.375; -610.000; -424.000
200.069;  -12.675; -141.000;  -58.000
200.215;   73.550;  128.000;  453.000
200.361;   28.950;  243.000;  477.000
200.507;  -57.750; -600.000; -373.000
200.653;  -20.825; -371.000; -194.000
200.798;  -21.850; -215.000; -125.000
200.944;   -8.575; -146.000;  -41.000
201.090;   44.550;   61.000;  222.000
201.236;  -10.875; -116.000; -158.000
201.382;  131.875;  874.000;  903.000
201.528;  -12.350;  -58.000;  -48.000
201.674;  -31.850; -386.000; -293.000
201.819;  -65.125; -540.000; -439.000
201.965;  -91.525; -699.000; -447.000
202.111;  -33.275; -273.000; -226.000
202.257;  -28.925; -250.000; -238.000
202.402;    2.975;   13.000;  -36.000
202.548;  -20.350; -169.000; -116.000
202.694;   83.225;  410.000; -183.000
202.840;  -75.000; -603.000; -531.000
202.985;  -78.625; -681.000; -639.000
203.131;  -99.950; -832.000; -666.000
203.277;  -22.425; -199.000; -262.000
203.423;  -46.800; -434.000; -520.000
203.568;  -33.675; -462.000; -237.000
203.714;  -70.725; -535.000; -542.000
203.860;  -78.225; -682.000; -641.000
204.005;   14.600;  112.000;  167.000
204.151;   76.525;  561.000;  556.000
204.296;  -54.175; -354.000; -221.000
204.442;  -74.125; -600.000; -547.000
204.588;  -76.300; -592.000; -579.000
204.733;   18.600;  178.000;  168.000
204.879; -127.175;-1018.000; -822.000
205.025;   15.400;  -99.000;  126.000
205.170;    0.175;  -17.000;   94.000
205.316;   86.575;  438.000;  661.000
205.461;  -83.050; -698.000; -554.000
205.607;   77.550;  609.000;  665.000
205.752;  -79.325; -626.000; -551.000
205.898;  -55.450; -501.000; -391.000
206.043;  -59.675; -578.000; -506.000
206.189;  -41.475; -243.000; -285.000
206.334;   75.325;  554.000;  606.000
206.480;   83.775;  409.000;  239.000
206.625; -101.575; -529.000; -552.000
206.771;  -43.775; -451.000; -373.000
206.916;  -35.550; -210.000; -537.000
207.062;  -84.675; -545.000; -591.000
207.207;  -63.175; -546.000; -443.000
207.353;   54.250;  185.000;  460.000
207.498;   13.550;  196.000;   85.000
207.643;  -62.175; -501.000; -370.000
207.789; -140.875;-1069.000; -910.000
207.934;  -94.025; -665.000; -713.000
208.080;  -19.750; -154.000;   66.000
208.225;  -15.900;  -22.000;  -57.000
208.370;  -80.075; -727.000; -619.000
208.516;  -88.100; -741.000; -487.000
208.661;  -22.900; -127.000;  -69.000
208.806;  -33.925; -165.000; -171.000
208.952; -132.600;-1044.000; -731.000
209.097;   69.100;  378.000;  349.000
209.242;  -48.575; -307.000; -382.000
209.387;   48.150;  392.000;  350.000
209.533;  -55.975; -321.000; -350.000
209.678;   64.650;  472.000;  543.000
209.823;  -48.450; -408.000; -310.000
209.969; -104.250; -860.000; -757.000
210.114; -105.875; -907.000; -719.000
210.259; -127.650; -939.000; -889.000
210.404;   -6.900; -171.000;  103.000
210.549;   10.100;  108.000;    3.000
210.695;  -29.575;   -3.000;  -95.000
210.840;   33.550;   94.000;   67.000
210.985;  -62.175; -484.000; -303.000
211.130;   67.425;  268.000;  406.000
211.275;   20.175;  207.000;  199.000
211.420;  -50.325; -300.000; -289.000
211.566;  -64.000; -536.000; -489.000
211.711;   24.350;  218.000;  157.000
211.856;  -60.600; -545.000; -519.000
212.001;   -3.950;  151.000;   44.000
212.146;   23.250;  153.000;   49.000
212.291;  -31.400; -210.000; -186.000
212.436;  -25.550; -280.000;   -6.000
212.581;  -88.150; -685.000; -653.000
212.726;  -72.925; -487.000; -538.000
212.871;  -58.575; -552.000; -217.000
213.016; -146.650;-1172.000;-1029.000
213.161;   59.925;  406.000;  291.000
213.306;  -81.275; -435.000; -577.000
213.451; -103.450; -778.000; -689.000
213.596;  -49.650; -455.000; -347.000
213.741;  -56.125; -448.000; -538.000
213.886;  -76.625; -498.000; -517.000
214.031;  -27.300; -294.000; -124.000
214.176;  -65.425; -408.000; -341.000
214.321;  -25.200; -296.000; -157.000
214.466;  -22.575; -163.000;  -43.000
214.611;  -22.800;  -61.000;  -10.000
214.756; -123.525; -948.000; -858.000
214.901;  -28.025; -388.000; -226.000
215.046; -116.225; -797.000; -825.000
215.191;   20.900;  128.000;   35.000
215.336;  -16.750; -157.000;  -19.000
215.480;  -84.100; -684.000; -505.000
215.625;  -16.950; -175.000;  -19.000
215.770;  -90.800; -757.000; -662.000
215.915;   -0.625;   -5.000;  -97.000
216.060;   -3.225; -113.000;  -21.000
216.205; -104.800; -731.000; -779.000
216.349;  -83.150; -470.000; -533.000
216.494; -123.600; -939.000; -867.000
216.639; -132.650; -823.000; -888.000
216.784;  -97.725; -577.000; -525.000
216.929;   37.800;  392.000;  281.000
217.073;  -12.375; -244.000;  -31.000
217.218;    8.900;   78.000;  -47.000
217.363;  -80.200; -656.000; -618.000
217.507;  -79.325; -623.000; -588.000
217.652; -112.725; -845.000; -874.000
217.797;  -88.825; -708.000; -659.000
217.942; -118.025; -856.000; -720.000
218.086;   60.300;  608.000;  539.000
218.231;  -13.875; -174.000;  -26.000
218.376;  -43.425; -337.000; -229.000
218.520;   10.675;  -41.000;   96.000
218.665;  -37.575; -338.000; -204.000
218.810;  -43.100; -275.000; -233.000
218.954;    8.300;  201.000;   35.000
219.099; -109.775; -713.000; -963.000
219.243;  -76.525; -589.000; -554.000
219.388;  -20.600; -264.000; -136.000
219.532;  -15.375; -116.000; -116.000
219.677;  -71.575; -564.000; -521.000
219.822;   -2.850;   33.000;   89.000
219.966;   14.925;   17.000;  -99.000
220.111;  -42.000; -328.000;  -40.000
220.255;  -83.775; -797.000; -750.000
220.400;  -19.825; -180.000; -146.000
220.544;  -70.600; -516.000; -450.000
220.689;  -51.150; -422.000; -451.000
220.833;  -10.975; -123.000;  -58.000
220.978;  -44.975; -393.000; -563.000
221.122;   25.300;  319.000;  307.000
221.267; -127.425; -906.000; -837.000
221.411;  -70.200; -478.000; -394.000
221.555;  -14.550; -104.000;  -23.000
221.700;  -38.275; -329.000; -222.000
221.844;   22.300;  255.000;  272.000
221.989;  -38.225; -328.000; -311.000
222.133;  -42.225; -289.000; -307.000
222.277;    0.450;    5.000;   78.000
222.422;   19.825;  227.000;  113.000
222.566;  -46.150; -381.000; -214.000
222.711;  -64.300; -414.000; -479.000
222.855;  -84.350; -643.000; -586.000
222.999;  -90.450; -642.000; -717.000
223.144;  -31.900; -195.000; -194.000
223.288;   30.225;  423.000;  251.000
223.432;   27.975;  184.000;  230.000
223.576;   26.600;  152.000;  -21.000
223.721;   30.850;  364.000;  273.000
223.865;  -62.975; -472.000; -475.000
224.009;  262.350; 1673.000; 1631.000
224.153;  -96.275; -660.000; -671.000
224.298;  -71.550; -531.000; -489.000
224.442;  -22.700;  -74.000;  -33.000
224.586;   -5.325; -169.000; -106.000
224.730; -103.800; -858.000; -670.000
224.875; -112.700; -739.000; -688.000
225.019;   15.300;  102.000;  188.000
225.163;   58.675;  208.000;  341.000
225.307;    5.000;   97.000;  -91.000
225.451;   48.450;  360.000;  481.000
225.595;   25.450;  264.000;  176.000
225.739;  -16.475; -170.000;  -94.000
225.884;    8.400;   86.000;    5.000
226.028;  -92.825; -760.000; -626.000
226.172;  -48.650; -260.000; -273.000
226.316; -134.300; -941.000; -902.000
226.460;  -57.475; -645.000; -493.000
226.604;  -54.425; -406.000; -400.000
226.748; -103.450; -836.000; -733.000
226.892;  -38.525; -227.000; -181.000
227.036;  -62.400; -537.000; -447.000
227.180;  -49.950; -551.000; -375.000
227.324;  -68.975; -561.000; -580.000
227.468; -119.125; -819.000; -717.000
227.612;    8.750;  242.000;  -28.000
227.756; -101.000; -845.000; -698.000
227.900;   49.000;  342.000;  441.000
228.044;  -70.150; -509.000; -290.000
228.188;   55.975;  448.000;  568.000
228.332;  -73.025; -546.000; -472.000
228.476;  -28.500; -223.000; -149.000
228.620;  -40.100; -210.000; -150.000
228.764;   49.125;  431.000;  349.000
228.908;  -14.075; -155.000;   30.000
229.052;  -75.050; -615.000; -528.000
229.195;  -24.175; -172.000;   13.000
229.339;  -31.275; -235.000; -305.000
229.483;  -18.650;    5.000; -162.000
229.627;  -10.750; -156.000;  139.000
229.771;  -42.625; -218.000; -294.000
229.915;   11.450;  230.000;   79.000
230.059;  -86.100; -648.000; -663.000
230.202;  -54.175; -370.000; -317.000
230.346;  -14.050; -107.000;  107.000
230.490;  -71.300; -489.000; -521.000
230.634; -106.975; -736.000; -553.000
230.777;   70.150;  478.000;  509.000
230.921;  -66.825; -450.000; -359.000
231.065;  -64.325; -246.000; -286.000
231.209;   33.800;  261.000;  265.000
231.352;   15.825;   54.000;   40.000
231.496;   18.025;  568.000;  188.000
231.640;  -87.350; -693.000; -621.000
231.783;   62.775;  546.000;  525.000
231.927;  -40.500; -294.000; -365.000
232.071; -128.525; -962.000; -736.000
232.214; -116.500; -980.000; -764.000
232.358;  -96.250; -683.000; -599.000
232.502;    4.950;  -19.000;    7.000
232.645; -129.200;-1090.000; -927.000
232.789;  -35.475; -257.000; -218.000
232.933;  -41.400; -407.000; -224.000
233.076; -124.250;-1038.000; -897.000
233.220; -100.450; -752.000; -777.000
233.363;  -86.550; -669.000; -477.000
233.507;   52.700;  371.000;  129.000
233.650; -109.550; -764.000; -834.000
233.794;   39.900;  438.000;  461.000
233.938;  -55.900; -530.000; -362.000
234.081;   -7.325;  -93.000;   31.000
234.225;  -80.650; -631.000; -539.000
234.368;  -97.650; -773.000; -723.000
234.512;  -47.750; -385.000; -299.000
234.655;  -99.400; -582.000; -555.000
234.798;  -68.150; -493.000; -466.000
234.942; -114.150; -884.000;-1002.000
235.085;  -83.225; -651.000; -443.000
235.229;  -76.325; -405.000; -410.000
235.372;  -42.625; -247.000; -191.000
235.516;  -65.250; -397.000; -321.000
235.659;    8.325;   92.000;  121.000
235.802;  -11.700;  -38.000;  -22.000
235.946;   20.575;  335.000;  215.000
236.089;   23.700;  126.000;  250.000
236.233;   36.750;  275.000;  298.000
236.376;  -39.475; -235.000; -378.000
236.519;  -50.850; -297.000; -319.000
236.663;  -28.150; -215.000; -117.000
236.806; -141.600;-1029.000; -999.000
236.949;   61.750;  543.000;  431.000
237.092;   45.800;  412.000;  391.000
237.236;  -71.075; -589.000; -502.000
237.379;   57.850;  352.000;  428.000
237.522; -121.500; -879.000; -768.000
237.666;  -22.575; -271.000;   18.000
237.809; -121.200; -851.000; -823.000
237.952;   30.600;  469.000;  271.000
238.095;  -62.150; -447.000; -442.000
238.238;   62.275;  688.000;  700.000
238.382;  -12.025;  166.000;  103.000
238.525;  -73.075; -598.000; -511.000
238.668; -132.925;-1060.000; -985.000
238.811;  -82.350; -638.000; -643.000
238.954;  -60.525; -483.000; -334.000
239.097;   88.825;  617.000;  664.000
239.241;   36.575;  394.000;  326.000
239.384;  -41.300; -254.000; -214.000
239.527;  -52.050; -424.000; -224.000
239.670; -152.400; -994.000;-1091.000
239.813; -117.200; -696.000; -658.000
239.956;   63.875;  579.000;  473.000
240.099; -111.450; -778.000; -725.000
240.242;   44.300;  428.000;  432.000
240.385;   43.575;  466.000;  450.000
240.528;  -79.700; -706.000; -473.000
240.671;    6.600;  189.000;  134.000
240.814;  -41.250; -441.000; -158.000
240.957;  -98.800; -767.000; -578.000
241.100;  -91.000; -779.000; -755.000
241.243; -154.325;-1234.000; -893.000
241.386;  -57.025; -508.000; -379.000
241.529;  -79.775; -735.000; -547.000
241.672;  -77.025; -566.000; -495.000
241.815; -109.700; -832.000; -808.000
241.958;  -35.375; -125.000; -182.000
242.101;  -81.300; -545.000; -390.000
242.244;  -53.200; -270.000; -325.000
242.387;  -44.475; -304.000; -246.000
242.530;   49.325;  470.000;  134.000
242.673;  -56.925; -381.000; -309.000
242.815; -124.575; -925.000; -899.000
242.958;  -72.050; -482.000; -381.000
243.101;   -5.475;  132.000;  187.000
243.244;  -80.300; -564.000; -521.000
243.387;  -51.800; -313.000; -316.000
243.530; -103.750; -657.000; -674.000
243.672;   -1.250;   43.000;  -92.000
243.815;  -41.950; -355.000; -283.000
243.958;   -2.825;   98.000;  -26.000
244.101;   -3.200;   59.000;  -16.000
244.243;   -9.500;  -47.000;  101.000
244.386; -120.675; -761.000; -630.000
244.529;  -23.825; -132.000; -139.000
244.672; -160.725;-1154.000; -951.000
244.814;  -91.300; -621.000; -794.000
244.957;  -44.775; -380.000; -304.000
245.100;  -80.400; -489.000; -489.000
245.242;  -53.675; -387.000; -374.000
245.385;   -6.100;  -59.000;  -39.000
245.528; -115.050; -871.000; -705.000
245.670;   80.225;  612.000;  634.000
245.813;  -75.425; -599.000; -547.000
245.956;  -26.650; -324.000; -275.000
246.098;  -63.625; -508.000; -650.000
246.241;   -5.650;  194.000;   48.000
246.383;  -11.725; -119.000;  -73.000
246.526;  -75.250; -454.000; -525.000
246.669; -110.475; -889.000; -780.000
246.811;   14.550;  172.000;   -1.000
246.954;  -60.850; -512.000; -426.000
247.096;  -36.075;  -84.000;   -6.000
247.239;  -72.100; -482.000; -445.000
247.381;  -75.950; -647.000; -488.000
247.524;   93.450;  645.000;  679.000
247.666;  -12.575;   58.000;   11.000
247.809; -122.575; -887.000; -691.000
247.951;  -18.325;  -75.000;  138.000
248.094;   31.250;  432.000;  308.000
248.236; -170.825;-1262.000;-1238.000
248.378;   11.875; -356.000;  -81.000
248.521;  -29.925; -334.000; -337.000
248.663;  -49.500; -236.000; -267.000
248.806;  -34.100; -300.000; -266.000
248.948;  -85.325; -886.000; -763.000
249.090;  -52.800; -428.000; -398.000
249.233;  -49.250; -344.000; -381.000
249.375;  -81.725; -474.000; -451.000
249.518;  -26.175;  -83.000; -133.000
249.660;  -27.475; -103.000;    3.000
249.802; -163.175;-1303.000;-1189.000
249.945;  -85.125; -612.000; -540.000
250.087; -107.300; -834.000; -768.000
250.229;  -58.000; -362.000; -480.000
250.371;  -85.200; -494.000; -439.000
250.514;  -47.050; -310.000; -244.000
250.656;  -64.375;   69.000;  102.000
250.798; -122.625; -849.000; -800.000
250.940;  -68.475; -322.000; -322.000
251.083;  -31.375; -335.000; -111.000
251.225;   40.325;  338.000;  310.000
251.367;  -55.200; -274.000; -373.000
251.509;  -24.800; -265.000; -210.000
251.651; -102.575; -731.000; -671.000
251.794;   89.425;  538.000;  632.000
251.936; -117.675; -821.000; -747.000
252.078;  -79.450; -540.000; -461.000
252.220;  -80.350; -645.000; -477.000
252.362;   78.700;  344.000;  462.000
252.504;  -80.500; -677.000; -584.000
252.646; -108.875; -875.000; -722.000
252.788;   -5.725;   14.000; -128.000
252.931;  -32.100; -257.000; -253.000
253.073;  -56.350; -376.000; -317.000
253.215;    0.825;  141.000;  122.000
253.357;  -27.875;   82.000; -153.000
253.499;  -50.425; -374.000; -234.000
253.641;  -87.150; -749.000; -594.000
253.783;  -82.125; -609.000; -527.000
253.925;  -96.725; -586.000; -591.000
254.067; -114.825; -744.000; -667.000
254.209;  -32.750; -391.000; -259.000
254.351; -142.450; -865.000; -883.000
254.493;  -55.925; -441.000; -417.000
254.635; -127.825; -936.000; -818.000
254.777; -103.450; -752.000; -687.000
254.918;  -59.275; -512.000; -430.000
255.060;  -66.325; -551.000; -395.000
255.202;  -58.875; -473.000; -261.000
255.344;  -84.775; -658.000; -455.000
255.486;  -77.975; -471.000; -406.000
255.628; -115.550; -780.000; -781.000
255.770;  -83.625; -676.000; -536.000
255.912;  -68.675; -559.000; -468.000
256.053; -101.750; -730.000; -508.000
256.195;  151.525; 1008.000;  903.000
256.337;  -99.300; -861.000; -595.000
256.479;   50.875;  532.000;  416.000
256.621;  -54.575; -394.000; -212.000
256.762; -101.725; -789.000; -742.000
256.904;   41.400;  485.000;  487.000
257.046;  -46.450; -381.000; -271.000
257.188;  -47.625; -351.000; -264.000
257.329;  -63.875; -525.000; -464.000
257.471; -113.475; -939.000; -807.000
257.613;  -71.700; -584.000; -498.000
257.755; -145.725;-1073.000; -982.000
257.896;   40.800;  286.000;  392.000
258.038;  -68.900; -403.000; -352.000
258.180;  -43.200; -354.000; -279.000
258.321;  -79.625; -581.000; -457.000
258.463;  -14.900;  -71.000;  133.000
258.605;  -98.950; -562.000; -570.000
258.746; -104.175; -886.000; -772.000
258.888; -140.650;-1026.000;-1020.000
259.029;   31.750;  121.000;   -8.000
259.171;  -87.150; -614.000; -550.000
259.313;  -16.100;  -49.000;  -47.000
259.454;  -72.975; -536.000; -414.000
259.596;  -66.025; -483.000; -390.000
259.737;  -69.650; -590.000; -474.000
259.879;   19.125;  217.000;  311.000
260.020;   96.025;  901.000;  636.000
260.162;  -34.175; -146.000; -253.000
260.303; -110.950; -768.000; -687.000
260.445; -102.425; -609.000; -613.000
260.586;   29.975;  392.000;  157.000
260.728;  -53.775; -360.000; -248.000
260.869; -105.850; -350.000; -343.000
261.011;   89.225;  706.000;  537.000
261.152;  -63.800; -479.000; -319.000
261.293;  -86.625; -576.000; -595.000
261.435;  -37.175; -219.000; -184.000
261.576;  -60.550; -455.000; -325.000
261.718;   54.350;  420.000;  470.000
261.859; -133.450; -940.000; -949.000
262.000; -130.750; -951.000;-1016.000
262.142;  -31.250;  -52.000;  -60.000
262.283; -117.675; -808.000; -691.000
262.424;  -96.700; -666.000; -625.000
262.566; -141.125;-1161.000; -983.000
262.707; -116.875; -840.000; -830.000
262.848; -126.550; -769.000; -726.000
262.990;  -57.450; -362.000; -345.000
263.131;   83.400;  650.000;  681.000
263.272;  -22.275;  -61.000;  -41.000
263.413;  -89.475; -589.000; -561.000
263.555;  -73.050; -669.000; -143.000
263.696;  -95.600; -550.000; -641.000
263.837;  -70.675; -449.000; -551.000
263.978;    5.325;   -5.000;  -77.000
264.119;  -53.100; -283.000; -264.000
264.261; -114.625; -847.000; -630.000
264.402;   -3.975;   33.000;   40.000
264.543;  -87.150; -509.000; -524.000
264.684;  -17.550;   61.000;  -50.000
264.825;  -80.775; -816.000; -538.000
264.966;  -13.625;  -84.000;  -67.000
265.107; -112.000; -646.000; -670.000
265.248; -127.550; -825.000; -812.000
265.390;   -6.625;  152.000;   -9.000
265.531;  -28.300; -238.000; -107.000
265.672;  -91.725; -557.000; -630.000
265.813;   49.350;  563.000;  439.000
265.954; -142.450; -959.000; -940.000
266.095;  -24.875; -372.000; -322.000
266.236;  -93.225; -686.000; -548.000
266.377;  -51.275; -243.000; -297.000
266.518;  -72.175; -619.000; -547.000
266.659;   23.900;  170.000;  268.000
266.800;    6.825;   83.000;   85.000
266.941;  -98.200; -487.000; -478.000
267.082;   20.875;  354.000;   99.000
267.223;  -49.000; -344.000; -273.000
267.364; -124.100; -892.000; -686.000
267.504;  -20.800;    3.000;  135.000
267.645;    4.000;  160.000;   67.000
267.786;  -51.075; -147.000;  -86.000
267.927;  -76.950; -473.000; -379.000
268.068;  -16.175; -186.000;  -61.000
268.209;  -48.600; -175.000; -413.000
268.350;  -65.525; -388.000; -532.000
268.490;  -80.400; -648.000; -521.000
268.631;   31.050;  127.000;  225.000
268.772; -108.325; -874.000; -647.000
268.913;  -55.425; -328.000; -476.000
269.054;   -7.300; -117.000;   12.000
269.194;  -54.150; -418.000; -402.000
269.335; -153.875;-1137.000;-1074.000
269.476;  -40.525;   33.000;  -35.000
269.617;  -48.950; -347.000; -392.000
269.757; -116.625; -713.000; -646.000
269.898; -105.750; -856.000; -613.000
270.039;  -71.325; -415.000; -405.000
270.180; -134.725; -952.000; -816.000
270.320;  -37.725; -190.000; -250.000
270.461;  -45.150; -277.000; -249.000
270.602;  -18.875; -186.000; -156.000
270.742; -128.350; -868.000; -943.000
270.883;  -71.125; -442.000; -390.000
271.023;  -54.750; -358.000; -357.000
271.164;  -89.575; -607.000; -528.000
271.305; -103.425; -666.000; -654.000
271.445; -105.825; -722.000; -683.000
271.586;  -63.325; -462.000; -283.000
271.726;  -54.000; -397.000; -322.000
271.867;  -55.400; -594.000; -534.000
272.008;  171.775; -473.000; -285.000
272.148;  113.100;  462.000;  468.000
272.289;   -6.875; -113.000; -181.000
272.429;   17.900;   19.000;  185.000
272.570;  -91.775; -633.000; -737.000
272.710; -111.350; -825.000; -775.000
272.851;  -38.700;  113.000; -130.000
272.991; -163.675;-1173.000;-1077.000
273.131;  -72.425; -419.000; -459.000
273.272; -101.650; -683.000; -723.000
273.412;    1.675; -143.000;  -31.000
273.553;  -65.975; -488.000; -507.000
273.693;  147.500;  913.000;  858.000
273.834;  -91.475; -894.000; -692.000
273.974;  -76.875; -664.000; -615.000
274.114;  -95.325; -772.000; -560.000
274.255;   64.375;  414.000;  373.000
274.395;    5.050; -180.000; -125.000
274.535;   32.375;  199.000;  350.000
274.676;    4.050;  225.000;   94.000
274.816;   -8.925;  110.000;   34.000
274.956;  -78.525; -624.000; -690.000
275.097;  -67.650;-1014.000; -922.000
275.237; -106.200; -913.000; -803.000
275.377; -103.175; -778.000; -689.000
275.517; -142.525; -878.000; -937.000
275.658;  -83.975; -590.000; -555.000
275.798;  -79.775; -606.000; -413.000
275.938;    7.550;  215.000;  323.000
276.078; -100.800; -626.000; -395.000
276.218;   -0.025;   99.000;  104.000
276.359; -140.850;-1026.000;-1024.000
276.499;  -77.600; -605.000; -446.000
276.639;  -44.850; -305.000; -151.000
276.779;  -63.350; -475.000; -357.000
276.919; -101.750; -783.000; -624.000
277.059;  -31.000; -261.000; -212.000
277.199;  -46.175; -357.000; -259.000
277.340;   38.700;  287.000;  175.000
277.480; -109.725; -840.000; -693.000
277.620;   30.700;  192.000;   16.000
277.760; -211.375;-1533.000;-1294.000
277.900;   16.075;  113.000;   33.000
278.040;   20.500;  137.000;  159.000
278.180;   23.250;  270.000;  170.000
278.320;   -1.375;   21.000;   56.000
278.460;  -79.050; -443.000; -469.000
278.600;  -94.425; -708.000; -598.000
278.740;   42.525;  448.000;  224.000
278.880;  -57.550; -768.000; -791.000
279.020;  -15.775; -194.000; -144.000
279.160;  -96.675; -672.000; -595.000
279.300; -124.500; -926.000; -873.000
279.440;  -86.100; -709.000; -622.000
279.579;  -22.100;-1014.000; -929.000
279.719;  -42.075; -410.000; -394.000
279.859;   66.050;   -4.000;   41.000
279.999;   36.150; -208.000;  101.000
280.139;  -30.050; -435.000; -387.000
280.279;  -64.575; -708.000; -745.000
280.419;  -31.650; -229.000; -147.000
280.559;  -35.625; -259.000; -180.000
280.698;  -99.525; -790.000; -639.000
280.838;  -86.825; -778.000; -800.000
280.978; -104.000; -846.000; -790.000
281.118; -107.300; -811.000; -704.000
281.257;   -9.225;   24.000;    6.000
281.397; -128.450;-1094.000; -960.000
281.537;  -94.600; -599.000; -712.000
281.677;  -24.125; -150.000; -101.000
281.816; -104.750; -700.000; -630.000
281.956;  -44.650; -193.000; -257.000
282.096;  -75.050; -539.000; -396.000
282.235; -109.050; -672.000; -638.000
282.375;  -42.700; -243.000;  -98.000
282.515; -113.425; -715.000; -707.000
282.654;   17.125;   29.000;  106.000
282.794;   37.925;  388.000;  244.000
282.934;  -64.400; -530.000; -491.000
283.073; -130.000;-1030.000; -857.000
283.213;  -70.275; -460.000; -467.000
283.353;  -30.925; -408.000; -349.000
283.492;  -34.650; -264.000; -296.000
283.632;  -50.225; -254.000; -168.000
283.771; -110.100; -859.000; -730.000
283.911;  -51.025; -369.000; -260.000
284.050; -119.725; -794.000; -748.000
284.190; -155.825;-1229.000;-1096.000
284.329; -144.550;-1055.000; -964.000
284.469;  -78.900; -516.000; -591.000
284.608;  -67.600; -559.000; -598.000
284.748;  -76.650; -614.000; -570.000
284.887;  -22.050;  -87.000;  -20.000
285.027; -125.900; -844.000; -892.000
285.166;  -32.425; -192.000; -249.000
285.306;    3.200; -116.000;  -33.000
285.445;  -48.000; -229.000; -343.000
285.584;  -89.275; -630.000; -494.000
285.724;  -54.875; -282.000; -322.000
285.863; -119.625; -857.000; -507.000
286.002;  -58.275; -366.000; -276.000
286.142; -106.925; -715.000; -622.000
286.281;  -82.150; -525.000; -493.000
286.420;  -74.575; -554.000; -417.000
286.560;   93.450;  653.000;  623.000
286.699; -139.700; -958.000; -912.000
286.838; -101.575; -590.000; -591.000
286.978;  -91.675; -533.000; -537.000
287.117; -139.800;-1085.000; -950.000
287.256;  -43.775; -228.000; -211.000
287.395;  -67.125; -197.000; -378.000
287.535;  -51.975; -370.000; -298.000
287.674;  -89.525; -509.000; -484.000
287.813;   60.450;  661.000;  533.000
287.952; -125.100;-1010.000; -871.000
288.091; -147.400;-1049.000; -915.000
288.231;    1.475;   13.000;   15.000
288.370; -176.100;-1217.000;-1200.000
288.509;  -95.050; -728.000; -645.000
288.648;  -96.650; -770.000; -548.000
288.787;  -47.275; -243.000;  -87.000
288.926;  -54.725; -454.000; -475.000
289.065;  108.450;  859.000;  672.000
289.204;  -52.500; -377.000; -217.000
289.344;  -98.475; -791.000; -690.000
289.483;   24.300;  416.000;  304.000
289.622;  -21.775; -291.000; -149.000
289.761;  -21.050; -309.000; -166.000
289.900; -114.550; -785.000; -626.000
290.039;  -21.375;  -12.000;  -95.000
290.178;  -59.700; -274.000; -180.000
290.317;  -82.250; -618.000; -479.000
290.456;  -73.350; -463.000; -451.000
290.595; -139.525; -961.000; -833.000
290.734; -151.050; -904.000; -891.000
290.873;  -78.125; -456.000; -420.000
291.011; -110.425; -833.000; -843.000
291.150; -104.275; -770.000; -682.000
291.289;  -40.525; -343.000; -110.000
291.428;  -88.700; -599.000; -480.000
291.567;  -57.550; -370.000; -442.000
291.706;    3.375;  109.000;  154.000
291.845;  -90.375; -597.000; -505.000
291.984; -184.175;-1234.000;-1061.000
292.122;   56.850;  602.000;  582.000
292.261;   38.825;  620.000;  463.000
292.400;    7.850; -144.000;  211.000
292.539; -128.550; -959.000; -813.000
292.678;  -49.775; -325.000; -300.000
292.816; -166.625;-1136.000; -965.000
292.955;  -95.600; -844.000; -684.000
293.094;  -32.400; -173.000; -337.000
293.233;  -60.500; -556.000; -400.000
293.371;  -43.750; -225.000;  -84.000
293.510; -123.725; -866.000; -780.000
293.649; -132.325; -959.000; -924.000
293.787;  -77.000;-1083.000;-1012.000
293.926;  -11.375; -113.000;  -32.000
294.065;  -47.050; -379.000; -290.000
294.203;   36.625;  298.000;  406.000
294.342;   25.150;   74.000;  156.000
294.481; 5638.075;51180.000; -836.000
294.619;  -42.725; -425.000; -582.000
294.758; -150.350;-1230.000;-1137.000
294.896;   43.375; -125.000;    5.000
295.035; -125.475;-1040.000;-1006.000
295.174; -134.875;-1082.000; -954.000
295.312;  -38.550; -323.000; -203.000
295.451;  -31.125; -307.000; -428.000
295.589;  -59.350; -389.000; -518.000
295.728;    6.050; -292.000; -165.000
295.866;    7.525;  -36.000;  -51.000
296.005;  -79.350; -584.000; -341.000
296.143;  -78.825; -558.000; -596.000
296.282; -120.425; -957.000; -881.000
296.420;  -79.000; -657.000; -557.000
296.559; -101.875; -892.000; -633.000
296.697;    9.975; -847.000; -665.000
296.835;   20.750;-1141.000;-1002.000
296.974;   43.750;  -23.000;   39.000
297.112;  -11.925; -443.000; -504.000
297.251;  -80.675; -815.000; -755.000
297.389;   55.875; -576.000; -438.000
297.527;   37.125; -145.000;  -83.000
297.666;  -77.750; -486.000; -438.000
297.804;  -53.500; -404.000; -264.000
297.942;  -17.050; -136.000; -161.000
298.081;    1.600; -183.000;   63.000
298.219;   65.525;  -17.000;  -19.000
298.357;   40.825; -144.000;  -71.000
298.495;    3.300; -810.000; -812.000
298.634;   62.725;  245.000;  219.000
298.772;    6.250; -220.000; -338.000
298.910;  -34.500; -309.000; -182.000
299.048;  -12.900; -130.000; -153.000
299.187;  -34.075; -350.000; -250.000
299.325;   31.050;   52.000;  122.000
299.463;   34.750; -389.000; -299.000
299.601;   83.950; -327.000; -271.000
299.739; -110.350; -908.000; -883.000
299.877;  -81.100; -791.000; -703.000
300.016;  -40.625;-1095.000; -935.000
300.154;  136.400;  -19.000; -161.000
300.292;   56.925; -428.000; -348.000
300.430;    9.925; -408.000; -291.000
300.568; -101.750; -940.000; -874.000
300.706;  -59.025; -366.000; -469.000
300.844;  -82.425;-1108.000; -979.000
300.982;   91.325;  246.000;  282.000
301.120; -101.450; -965.000; -866.000
301.258;  -74.075; -812.000; -705.000
301.396;   29.375;  104.000;  -41.000
301.534;   61.350; -218.000; -293.000
301.672;  -20.850; -664.000; -521.000
301.810;   10.075; -613.000; -545.000
301.948;  100.700;   53.000;  149.000
302.086;  579.025; -250.000;  -32.000
302.224;  844.325; -610.000; -585.000
302.362;   12.950; -558.000; -622.000
302.500;  -30.950; -923.000; -893.000
302.638;   73.075;  128.000;  245.000
302.776;  -14.650; -352.000; -408.000
302.913;   35.850;  447.000;  236.000
303.051;  -19.625;  -86.000;  -23.000
303.189;   39.350;   90.000;  118.000
303.327;  -39.575; -341.000; -256.000
303.465;  -94.050; -832.000; -588.000
303.603;  -89.900; -805.000; -604.000
303.740;   66.650;  417.000;  241.000
303.878;   -2.950; -800.000; -759.000
304.016; -105.625; -915.000; -790.000
304.154; -124.025;-1123.000;-1152.000
304.291;  -45.800; -505.000; -554.000
304.429;    9.300;  102.000;   74.000
304.567; -128.700; -908.000; -893.000
304.705;  -57.625; -408.000; -515.000
304.842;   65.900; -616.000; -540.000
304.980;   44.550;  215.000;   35.000
305.118;   17.775; -367.000; -365.000
305.255;  -70.900; -945.000; -927.000
305.393;   51.450;  178.000;  239.000
305.531; -111.075;-1173.000; -956.000
305.668;  -82.200; -663.000; -582.000
305.806;   81.800; -358.000; -439.000
305.943;   84.650; -629.000; -637.000
306.081;   35.350; -378.000; -267.000
306.219; -103.100; -863.000; -748.000
306.356;   -9.075;  158.000;   27.000
306.494;   90.425;  981.000;  761.000
306.631;  -10.000;  -11.000;  -55.000
306.769;   -5.025; -613.000; -485.000
306.906;  -19.750; -284.000; -258.000
307.044;  -65.975; -473.000; -488.000
307.181;  -50.175; -410.000; -332.000
307.319;   -0.600;  112.000;   87.000
307.456; -177.975;-1191.000;-1153.000
307.594; -110.625; -980.000; -727.000
307.731;  -21.775; -371.000; -164.000
307.868;   -8.600;  -15.000;   20.000
308.006; -134.500; -961.000; -847.000
308.143;  -77.900; -618.000; -330.000
308.281;  133.800;  -37.000; -254.000
308.418;  -33.950; -748.000; -640.000
308.555;  -72.200; -400.000; -250.000
308.693;  -83.000; -577.000; -573.000
308.830; -113.550; -712.000; -657.000
308.967;  -29.775; -215.000;  -95.000
309.105;  -49.800; -507.000; -396.000
309.242;   14.950; -468.000; -367.000
309.379;  245.825; -577.000; -655.000
309.517;  -96.125; -936.000; -948.000
309.654;  -99.550; -910.000; -734.000
309.791;  -81.600; -662.000; -580.000
309.928; -129.975; -977.000; -914.000
310.065;  172.625;  819.000;  697.000
310.203;  -15.300; -825.000; -850.000
310.340;  -19.700; -465.000; -321.000
310.477;  -83.200; -412.000; -516.000
310.614;  -77.450; -383.000; -473.000
310.751;  -80.425; -427.000; -518.000
310.889;  -41.725;    1.000;   11.000
311.026; -161.725;-1161.000; -939.000
311.163;  -55.875; -386.000; -380.000
311.300;  -79.050; -512.000; -479.000
311.437;  -89.700; -658.000; -619.000
311.574; -158.600;-1226.000; -985.000
311.711;  -66.600; -595.000; -433.000
311.848;  -41.850; -380.000; -388.000
311.985;   -5.275;  270.000;   93.000
312.122; -110.100; -932.000; -762.000
312.259; -129.200; -941.000; -994.000
312.396;  -85.750; -508.000; -551.000
312.533; -111.725; -812.000; -790.000
312.670; -133.750;-1070.000; -898.000
312.807;  -46.975; -352.000; -367.000
312.944;  -72.300; -513.000; -611.000
313.081;  -42.975; -150.000; -415.000
313.218; -100.050;-1111.000; -867.000
313.355;  -14.575; -531.000; -449.000
313.492;  -11.375; -455.000; -292.000
313.629;  114.850;  815.000;  735.000
313.766; -159.475;-1176.000;-1008.000
313.902;  -27.325; -186.000;   21.000
314.039;  -43.775; -372.000; -289.000
314.176;   12.700;  286.000;  192.000
314.313;  -78.675; -569.000; -473.000
314.450;  -83.825; -788.000; -684.000
314.587;  -61.125; -468.000; -480.000
314.723;   -9.050;  -78.000;  130.000
314.860;   27.700;  318.000;  332.000
314.997;   17.675;  223.000;  142.000
315.134;  -50.600; -385.000; -368.000
315.270;  -51.150; -480.000; -496.000
315.407; -122.775;-1094.000; -967.000
315.544;  -48.075; -657.000; -538.000
315.681;  -79.300; -681.000; -565.000
315.817;   27.925; -133.000; -176.000
315.954;   15.825; -613.000; -392.000
316.091; -132.025;-1045.000;-1023.000
316.227;  -27.675;  -71.000; -179.000
316.364;  -22.075;   23.000;    6.000
316.500;  -34.200; -113.000; -300.000
316.637;  -56.800; -181.000; -302.000
316.774;  -82.200; -625.000; -358.000
316.910; -102.050; -598.000; -629.000
317.047;  -80.625; -487.000; -351.000
317.183;  -57.425; -435.000; -566.000
317.320;   -7.800; -367.000; -321.000
317.456;  -82.700; -733.000; -805.000
317.593;  -93.875; -598.000; -641.000
317.729;    2.025;  168.000;  -67.000
317.866; -203.525;-1434.000;-1285.000
318.002; -112.350; -708.000; -948.000
318.139; -103.750; -883.000; -867.000
318.275; -122.550;-1003.000; -738.000
318.412;  -67.450; -517.000; -336.000
318.548;  -37.325; -751.000; -720.000
318.685; -110.600; -985.000; -888.000
318.821;  -95.300; -762.000; -735.000
318.957;  -13.950;   34.000;  -23.000
319.094;   30.325;  297.000;  154.000
319.230;  -65.950; -756.000; -742.000
319.367;   93.150; -471.000; -520.000
319.503;   39.175; -538.000; -436.000
319.639; -102.575; -877.000; -793.000
319.775;  -69.125; -750.000; -685.000
319.912;  -59.950; -424.000; -519.000
320.048;  -88.875;-1184.000;-1184.000
320.184;   62.475;   59.000;   70.000
320.321;  -58.050; -497.000; -467.000
320.457;   62.025;  475.000;  662.000
320.593;  -65.350; -375.000; -382.000
320.729; -120.475; -732.000; -734.000
320.866;  -63.625; -577.000; -635.000
321.002;  -87.125; -759.000; -809.000
321.138;  -14.225; -135.000; -211.000
321.274;   65.625; -148.000; -115.000
321.410;  -29.800; -585.000; -353.000
321.546;  -57.925;-1011.000; -911.000
321.683;   41.350;  400.000;  185.000
321.819;   -7.050;  -48.000; -117.000
321.955; -126.525; -743.000; -722.000
322.091;  -68.025; -585.000; -540.000
322.227;  -24.950; -382.000; -202.000
322.363;  -29.550; -320.000; -215.000
322.499;  -51.400; -343.000; -331.000
322.635;  148.975;  636.000;  443.000
322.771;   22.975; -139.000;   12.000
322.907;   68.625;  129.000;  327.000
323.043;  -24.900; -115.000; -206.000
323.179;  -50.450; -394.000; -363.000
323.315;   -0.900; -401.000; -371.000
323.451;   75.100; -328.000; -236.000
323.587;   41.525;  -60.000;  -77.000
323.723;    6.025; -682.000; -601.000
323.859;  -25.500; -258.000;  -76.000
323.995;  -51.925; -467.000; -409.000
324.131; -130.500; -967.000; -892.000
324.267;  -53.100; -254.000; -276.000
324.402; -123.975; -960.000; -983.000
324.538;  -25.600; -279.000; -104.000
324.674;   12.575;  164.000;   77.000
324.810;   94.400;  226.000;  308.000
324.946;   -5.400; -810.000; -658.000
325.082;  -87.825; -568.000; -475.000
325.217;  -16.450;  -62.000;   16.000
325.353; -109.725; -764.000; -659.000
325.489; -100.025; -540.000; -506.000
325.625;  -72.375; -579.000; -525.000
325.760;   45.375;  517.000;  376.000
325.896;  -25.875; -515.000; -702.000
326.032;  -56.225; -403.000; -352.000
326.168;  -67.075; -462.000; -369.000
326.303;  -56.225; -352.000; -461.000
326.439;  -38.500; -336.000; -276.000
326.575;   -1.675; -190.000;  -29.000
326.710;   -7.625; -156.000;  -30.000
326.846;  -13.600;  146.000;  103.000
326.982; -101.300; -530.000; -548.000
327.117;  -73.125; -481.000; -442.000
327.253;  -96.100; -745.000; -742.000
327.388; -123.550;-1137.000;-1153.000
327.524;  -77.800; -811.000; -578.000
327.659;  -28.325;  -58.000;  -22.000
327.795;  -29.775;   69.000;   45.000
327.931;  -88.050; -723.000; -499.000
328.066;  -34.950; -417.000; -276.000
328.202;  -28.050;   12.000; -129.000
328.337;   97.175;  957.000;  713.000
328.473;   25.350;  -12.000;  -74.000
328.608;  -31.075; -256.000; -267.000
328.743;  -75.250; -799.000; -664.000
328.879;   18.050;  214.000;  114.000
329.014;  -47.300; -102.000; -122.000
329.150;  -98.850; -358.000; -483.000
329.285;  -92.250; -465.000; -466.000
329.421;  -58.075; -548.000; -246.000
329.556;  -35.500;  -36.000;   85.000
329.691; -109.750; -633.000; -615.000
329.827;  -93.250; -626.000; -480.000
329.962;  -45.225;  131.000; -301.000
330.097;  -96.950; -673.000; -585.000
330.233;  -64.400; -410.000; -223.000
330.368; -136.100; -839.000; -628.000
330.503;  -28.025;    3.000;   98.000
330.638;    1.775;  -93.000; -125.000
330.774;  -71.275; -609.000; -530.000
330.909;  -48.000; -434.000; -244.000
331.044; -104.075; -714.000; -708.000
331.179; -185.625;-1217.000;-1109.000
331.315;  -12.225;   77.000;   20.000
331.450;   18.650;  157.000;  285.000
331.585; -104.775; -805.000; -706.000
331.720;  -76.375; -510.000; -460.000
331.855;  -24.000;  -35.000; -102.000
331.990;  259.875;   62.000;  138.000
332.126;  107.800; -110.000;   71.000
332.261;  -24.700; -379.000; -265.000
332.396;  -13.975; -135.000; -242.000
332.531; -106.100;-1074.000;-1031.000
332.666;   12.850; -519.000; -363.000
332.801;  -95.775; -726.000; -807.000
332.936;  -23.975; -192.000; -122.000
333.071; -138.950; -870.000; -817.000
333.206;    5.700;  307.000;  379.000
333.341;   23.925;  344.000;  418.000
333.476; -110.075; -627.000; -623.000
333.611;  -52.675; -251.000; -173.000
333.746;  -59.425; -381.000; -464.000
333.881; -122.575; -973.000; -935.000
334.016; -142.350; -936.000; -917.000
334.151; -131.200; -746.000; -702.000
334.286;    2.675;  152.000;  186.000
334.421;  -24.475; -125.000; -178.000
334.556;  -92.350; -611.000; -567.000
334.690;  -82.350; -631.000; -577.000
334.825;   36.150;  381.000;   83.000
334.960;  -59.900; -285.000; -413.000
335.095;   -0.275;  135.000;  -91.000
335.230;  -99.600; -722.000; -738.000
335.365; -147.850;-1084.000; -990.000
335.499; -137.800;-1108.000;-1037.000
335.634;    9.100;    9.000;  534.000
335.769; -110.050; -755.000; -720.000
335.904;  -70.875; -603.000; -561.000
336.038;  -64.750; -735.000; -657.000
336.173; -133.625;-1206.000;-1194.000
336.308;    0.000; -116.000; -189.000
336.443;    1.675; -544.000; -634.000
336.577;  -64.925; -936.000; -787.000
336.712;   54.300;   -4.000;  -12.000
336.847;  -46.900; -724.000; -607.000
336.981;   49.575; -272.000; -208.000
337.116;  256.075;  615.000;  501.000
337.250;  125.200; -434.000; -421.000
337.385;  269.275; -297.000; -208.000
337.520;   89.500; -632.000; -603.000
337.654;  -36.825; -215.000; -126.000
337.789; -140.075; -989.000; -933.000
337.923;  -42.750; -104.000; -205.000
338.058;  -98.325; -673.000; -738.000
338.192;  -31.850; -611.000; -488.000
338.327;  -25.200;  -18.000; -155.000
338.461;  -82.425; -299.000; -469.000
338.596; -104.500; -780.000; -638.000
338.730;  -96.250; -767.000; -803.000
338.865;   84.975;  -46.000; -140.000
338.999;  -42.800; -846.000; -702.000
339.134;  -31.525; -634.000; -536.000
339.268;   11.475; -741.000; -603.000
339.403;  361.525; -740.000; -775.000
339.537;  131.000; -894.000; -820.000
339.671; -110.500; -829.000; -813.000
339.806;  -43.475; -556.000; -512.000
339.940;    1.900; -261.000; -235.000
340.074; -106.375; -685.000; -510.000
340.209;  -56.100; -351.000; -230.000
340.343;  -90.900; -517.000; -573.000
340.477;  124.825;  998.000; 1036.000
340.612;  -45.275;-1033.000; -900.000
340.746;  127.500; -199.000; -243.000
340.880;  -69.550; -924.000; -785.000
341.014;  -32.700;  -45.000; -154.000
341.149; -119.575; -756.000; -718.000
341.283; -124.300; -839.000; -754.000
341.417; -110.800;-1124.000; -938.000
341.551;   88.800; -768.000; -708.000
341.685;  -47.550; -633.000; -611.000
341.820;  -55.550; -562.000; -493.000
341.954;  -54.000; -218.000; -349.000
342.088; -162.025;-1102.000;-1019.000
342.222;   51.050;  565.000;  618.000
342.356;  -68.775; -395.000; -335.000
342.490; -100.925; -880.000; -841.000
342.624;  -53.625; -339.000; -242.000
342.758;  -11.500; -364.000; -312.000
342.892;  -77.300; -710.000; -585.000
343.026;  -35.125;  -58.000; -116.000
343.160;  -60.275; -426.000; -376.000
343.294;  -90.600; -474.000; -337.000
343.428;  -34.800; -488.000; -448.000
343.562;  -17.975; -172.000;  -23.000
343.696;  -25.550; -385.000; -314.000
343.830;  -35.575; -362.000; -356.000
343.964;   -8.275; -231.000; -168.000
344.098;  804.425;  199.000;   70.000
344.232;  670.950; -266.000; -127.000
344.366;   76.350; -567.000; -453.000
344.500;   24.775; -665.000; -744.000
344.634;   21.650; -324.000; -164.000
344.768;  -27.150; -531.000; -341.000
344.902;   23.900;  278.000;  256.000
345.035;  -73.525; -556.000; -496.000
345.169; -133.950; -933.000; -656.000
345.303;  -29.125; -308.000; -482.000
345.437;  -79.150; -826.000; -717.000
345.571;  -94.975; -675.000; -594.000
345.704;  -70.775; -309.000; -532.000
345.838;  -20.125; -331.000; -284.000
345.972;  -40.100; -543.000; -495.000
346.106;  165.825; -179.000; -190.000
346.239;  395.200; -312.000; -243.000
346.373;   -6.125; -343.000; -302.000
346.507; -147.150; -950.000; -962.000
346.640;  112.000;  -30.000;   13.000
346.774;  -61.725; -650.000; -797.000
346.908;  -19.900; -138.000;  -11.000
347.041; -102.225; -646.000; -593.000
347.175;   -5.725;  259.000;   27.000
347.309;  -85.925; -698.000; -628.000
347.442; -122.750; -883.000; -732.000
347.576;  256.450;  670.000;  668.000
347.709;  158.300; -123.000;  -52.000
347.843;  -98.725; -933.000; -825.000
347.976;   15.675;  235.000;  294.000
348.110; -180.950;-1268.000;-1186.000
348.243; -116.825; -679.000; -772.000
348.377;   11.175;  -26.000;   60.000
348.510;   38.875;  403.000;  540.000
348.644;  -36.950;  -37.000; -159.000
348.777;  -11.475;  180.000;  191.000
348.911;  -52.325; -142.000; -112.000
349.044;  135.250;  471.000;  448.000
349.178;  129.075;-1069.000;-1006.000
349.311;   93.575;  141.000;  255.000
349.444;  -13.325; -927.000; -813.000
349.578;  -32.950; -347.000; -200.000
349.711; -104.150; -959.000; -862.000
349.845;  -25.350; -661.000; -591.000
349.978; -150.475;-1224.000;-1137.000
350.111;  -93.900; -546.000; -612.000
350.244;  -79.975; -596.000; -700.000
350.378;  -22.975; -392.000; -393.000
350.511;  -75.525; -393.000; -426.000
350.644; -112.475; -808.000; -806.000
350.778;   -0.875;  168.000;  104.000
350.911;  -16.825;  134.000;  140.000
351.044;  -86.050; -685.000; -615.000
351.177;  -44.850; -321.000; -281.000
351.310;  -20.850;    3.000; -131.000
351.444;  -92.325; -888.000; -788.000
351.577;  101.525;  140.000;   90.000
351.710;   86.000;  593.000;  417.000
351.843;  -39.750; -165.000;  -77.000
351.976;  -16.750;  149.000;  -79.000
352.109;  -93.050; -621.000; -612.000
352.242;  -35.450; -464.000; -419.000
352.376;  -62.225; -580.000; -636.000
352.509;  130.325; -437.000; -356.000
352.642;   -8.175; -654.000; -604.000
352.775;   43.125; -141.000;  -98.000
352.908; -134.075; -933.000; -904.000
353.041; -118.300; -814.000; -824.000
353.174;  -55.775; -551.000; -424.000
353.307; -107.550; -753.000; -764.000
353.440;   73.025;  541.000;  453.000
353.573; -130.050; -957.000;-1008.000
353.706;  -33.150; -384.000; -558.000
353.839;  -30.550; -264.000; -220.000
353.971;  -88.175; -657.000; -512.000
354.104;  -94.075; -896.000; -835.000
354.237;  -42.075; -627.000; -662.000
354.370;  -93.375; -846.000; -879.000
354.503; -186.825;-1231.000;-1308.000
354.636;  -56.200; -529.000; -348.000
354.769; -132.675; -937.000; -860.000
354.902;  -37.375; -230.000; -139.000
355.034;  -32.100; -164.000; -220.000
355.167;  -24.100; -262.000; -162.000
355.300; -104.575;-1061.000; -880.000
355.433;  967.525;  -71.000;  -14.000
355.565; 1520.275; -402.000; -384.000
355.698;  365.650; -356.000; -296.000
355.831;  -21.800; -882.000; -801.000
355.964;   52.925; -285.000; -170.000
356.096;  -91.900; -856.000; -843.000
356.229;  -10.175; -523.000; -530.000
356.362;  318.875; -373.000; -266.000
356.494;  594.925; -229.000; -162.000
356.627;  417.750;  269.000;  377.000
356.760;  662.125;  120.000;   53.000
356.892;  959.125; -286.000; -601.000
357.025;  595.175;  403.000;  389.000
357.157;  512.125; -167.000; -179.000
357.290;  692.650; -856.000; -713.000
357.423;  202.600; -667.000; -556.000
357.555;   93.075; -217.000; -228.000
357.688;  130.650; -483.000; -364.000
357.820;  406.950; -870.000; -877.000
357.953; 3445.600; -563.000; -589.000
358.085;  696.725; -632.000; -612.000
358.218;  958.800;-1131.000; -932.000
358.350;  180.075;  -58.000;  312.000
358.483; -119.825;-1300.000;-1187.000
358.615;  -33.675;-1182.000;-1078.000
358.747;  -83.975;-1187.000;-1058.000
358.880;  -12.450; -810.000; -744.000
359.012;  -24.000; -376.000; -202.000
359.145;  -48.475; -480.000; -511.000
359.277;   44.100; -962.000; -913.000
359.409; 2798.975;  536.000;  231.000
359.542;  719.225; -738.000; -688.000
359.674;   59.100;   46.000;   13.000
359.806;  -75.800; -565.000; -438.000
359.939;  -56.425; -617.000; -516.000
360.071;   -4.000; -583.000; -579.000
360.203;  -29.875; -411.000; -364.000
360.335;   51.775;  164.000;  -16.000
360.468;  169.500; -249.000; -307.000
360.600; 2297.200; -547.000; -454.000
360.732; 2897.750; -546.000; -423.000
360.864;  392.575;-1216.000;-1044.000
360.996;  225.375; -516.000; -554.000
361.129;   39.050; -389.000; -598.000
361.261;    1.825;  110.000; -113.000
361.393;  -40.200; -252.000; -214.000
361.525;   20.175;   94.000;  244.000
361.657;  -54.150; -821.000; -703.000
361.789;   -3.825; -139.000; -155.000
361.921;  169.075; -642.000; -593.000
362.053;  214.050;  524.000;  541.000
362.185;   35.500;  288.000;   72.000
362.318; -103.975; -709.000; -705.000
362.450;  113.050;  294.000;  444.000
362.582;   58.750; -913.000; -870.000
362.714;  -42.975; -353.000; -332.000
362.846;  -92.300; -606.000; -490.000
362.978; -143.200; -941.000; -811.000
363.109;   36.825; -161.000; -260.000
363.241;  369.750; -739.000; -749.000
363.373;  410.750; -649.000; -564.000
363.505;  687.425; -186.000;  -91.000
363.637;  140.325; -787.000; -601.000
363.769; -146.225;-1067.000;-1080.000
363.901;  -71.825; -596.000; -654.000
364.033; -132.700;-1103.000;-1062.000
364.165;  -14.750; -283.000; -283.000
364.296;   69.025; -316.000; -177.000
364.428;   55.625;-1344.000;-1220.000
364.560;  -73.375; -679.000; -661.000
364.692;  -75.525; -738.000; -835.000
364.824;  202.550; -588.000; -456.000
364.955;  406.800; -402.000; -564.000
365.087;  973.525;-1097.000; -852.000
365.219;   20.700; -686.000; -816.000
365.351;  -79.750; -526.000; -572.000
365.482;   39.800;  300.000;  240.000
365.614;  -43.500; -402.000; -314.000
365.746; -109.400; -729.000; -752.000
365.877;  -94.450; -706.000; -672.000
366.009;  255.150;  -35.000;  -62.000
366.141;  -96.800;-1249.000;-1134.000
366.272; -131.000; -803.000; -719.000
366.404; -114.250;-1005.000; -874.000
366.535;  -26.575; -139.000;  -12.000
366.667; -108.775; -644.000; -649.000
366.799;   20.000;  353.000;  203.000
366.930; -136.125; -862.000; -996.000
367.062;  117.975; -639.000; -613.000
367.193;  166.450; -872.000; -842.000
367.325;  -74.625; -580.000; -684.000
367.456;   32.275; -246.000;   31.000
367.588;  149.400; -371.000; -318.000
367.719;   29.325;  -44.000;  -45.000
367.851;  -22.975; -222.000; -241.000
367.982;  -75.900; -875.000; -732.000
368.113;   71.450; -475.000; -358.000
368.245; -123.550; -960.000; -841.000
368.376;  -27.225; -254.000; -302.000
368.508;  -41.550; -188.000; -263.000
368.639; -151.950;-1166.000;-1034.000
368.770;  -33.550; -670.000; -589.000
368.902;  -85.950; -836.000; -926.000
369.033; -118.300; -906.000; -855.000
369.164;  -63.600; -720.000; -653.000
369.296; -105.100; -452.000; -601.000
369.427;  -16.375; -209.000; -144.000
369.558;  -77.325; -593.000; -377.000
369.689; -100.150; -721.000; -569.000
369.821; -131.800; -951.000; -845.000
369.952;  -33.800;   42.000; -108.000
370.083;  -53.950; -229.000; -108.000
370.214;  -79.300; -735.000; -650.000
370.345;    1.900;   65.000;   81.000
370.477; -101.050; -810.000; -790.000
370.608;  214.100; -328.000; -264.000
370.739;  -71.350;-1233.000;-1292.000
370.870;  -56.150;-1102.000; -923.000
371.001;   64.425; -378.000; -467.000
371.132;  -88.675; -754.000; -735.000
371.263;  -40.375;  -42.000; -148.000
371.394; -125.900; -841.000; -748.000
371.525;   16.950;  345.000;  225.000
371.657; -108.075; -808.000; -670.000
371.788;   45.800;  103.000;  199.000
371.919;  144.650; -384.000; -304.000
372.050; 3269.450;  -91.000; -156.000
372.181;  985.550; -188.000; -294.000
372.311;  320.375;   42.000; -127.000
372.442;   15.325; -457.000; -451.000
372.573;  -44.550; -444.000; -340.000
372.704; -121.575;-1008.000; -980.000
372.835;   74.325; -228.000; -289.000
372.966;  -64.250; -646.000; -554.000
373.097;  -72.000; -575.000; -711.000
373.228;  -37.650; -717.000; -542.000
373.359;  100.800; -824.000; -536.000
373.490;  811.350; -881.000; -727.000
373.620; 1014.100;-1001.000; -803.000
373.751; 1600.900; -332.000; -396.000
373.882;  680.075; -663.000; -733.000
374.013;   56.275; -449.000; -262.000
374.143;  -61.175; -581.000; -659.000
374.274; -109.425; -987.000; -908.000
374.405;  132.925; -388.000; -276.000
374.536;  390.050; -526.000; -387.000
374.666;  953.350; -759.000; -807.000
374.797;  190.100; -817.000; -868.000
374.928;  737.125; -710.000; -560.000
375.058;  763.800; -535.000; -500.000
375.189;   55.725;  -59.000;  -93.000
375.320; -113.075; -928.000;-1034.000
375.450;  -45.950; -625.000; -616.000
375.581;  -41.050; -526.000; -436.000
375.712;  -40.600; -574.000; -250.000
375.842;  265.650; -438.000; -415.000
375.973;  194.475; -554.000; -513.000
376.103;  -62.175; -665.000; -648.000
376.234; -101.900; -531.000; -552.000
376.364;  -42.650; -944.000; -867.000
376.495;  281.750;  925.000;  529.000
376.625;  -24.600; -472.000; -485.000
376.756;   20.325; -709.000; -678.000
376.886;  -85.775;-1178.000;-1026.000
377.017;   41.925;-1048.000;-1061.000
377.147;  357.500; -786.000; -782.000
377.278;   58.750;  174.000;  228.000
377.408; -131.075; -801.000; -815.000
377.538; -118.375; -707.000; -693.000
377.669;  -95.025; -537.000; -613.000
377.799;  -98.825; -645.000; -635.000
377.929;  -54.250; -610.000; -428.000
378.060; -133.875; -781.000; -847.000
378.190;  -56.500; -726.000; -531.000
378.320;  -66.100; -401.000; -406.000
378.451;  -14.075; -131.000;  -22.000
378.581;  -30.975;  -67.000; -110.000
378.711;  139.150; 1035.000;  866.000
378.841;  -39.775; -533.000; -675.000
378.972;  -83.625; -871.000; -751.000
379.102;  -24.650; -652.000; -579.000
379.232;  -22.775; -126.000;  -73.000
379.362; -119.125;-1001.000; -885.000
379.492;   -9.100; -373.000; -424.000
379.623;   68.575;    0.000;  111.000
379.753; -104.775;-1107.000; -974.000
379.883;  162.275;   59.000;  156.000
380.013;  -13.575;-1081.000;-1017.000
380.143; -101.075;-1097.000;-1056.000
380.273;  -99.500; -985.000; -861.000
380.403;  -21.925; -344.000; -257.000
380.533;  -41.425; -651.000; -664.000
380.663;   67.250;  173.000;  128.000
380.793; -104.175;-1027.000;-1074.000
380.923;  -28.800; -103.000;  -34.000
381.053; -102.575; -613.000; -623.000
381.183;  -51.050; -106.000; -248.000
381.313;   17.800; -656.000; -470.000
381.443;   11.625; -692.000; -473.000
381.573;  156.200; -402.000; -409.000
381.703;  199.450;-1249.000;-1095.000
381.833; -152.350;-1454.000;-1336.000
381.963;   89.800; -134.000;  -87.000
382.093; 1277.750; -925.000; -909.000
382.223;  360.950; -713.000; -602.000
382.353;  -41.750; -801.000; -608.000
382.482;  290.800;-1091.000; -964.000
382.612;  644.450; -872.000; -644.000
382.742;  378.925; -695.000; -622.000
382.872;  224.400; -565.000; -551.000
383.002;   40.600;  347.000; -132.000
383.131;  -19.075; -226.000; -160.000
383.261;  -55.200; -706.000; -768.000
383.391;  274.650; -552.000; -377.000
383.521; 3331.100;  451.000;  263.000
383.650;  800.950; -947.000; -904.000
383.780;  -36.475; -783.000; -656.000
383.910;  107.775;  880.000;  802.000
384.039;   -0.025; -794.000; -656.000
384.169;  146.250;-1205.000;-1017.000
384.299;  -46.900; -650.000; -662.000
384.428;  -98.550; -764.000; -680.000
384.558;  -59.850; -308.000; -275.000
384.687;  -53.225; -414.000; -334.000
384.817;  -17.200;   75.000;   -2.000
384.947;    0.450; -234.000; -141.000
385.076;  246.200;  982.000;  912.000
385.206;   80.600;  369.000;  480.000
385.335;  -53.100; -549.000; -417.000
385.465;  -83.950; -655.000; -663.000
385.594;  116.825;  -53.000;  -44.000
385.724;  367.650; -868.000; -838.000
385.853;   84.850; -296.000; -270.000
385.982; 1194.050; -743.000; -787.000
386.112; 1908.850;-1052.000; -871.000
386.241;  123.400; -307.000; -312.000
386.371;    1.625; -174.000;  -87.000
386.500;  -21.800; -825.000; -789.000
386.629;    8.575; -874.000; -817.000
386.759;   69.675;  -43.000;   68.000
386.888;  -42.725; -170.000; -250.000
387.017;  -77.875; -648.000; -620.000
387.147; -104.325; -771.000; -798.000
387.276;   -2.425; -410.000; -397.000
387.405;   -2.300; -398.000; -342.000
387.535;  -49.025; -452.000; -361.000
387.664;  -82.300; -692.000; -620.000
387.793;   55.050; -198.000; -113.000
387.922;  454.725;  255.000;  200.000
388.052;   -2.200; -576.000; -423.000
388.181;  -17.950; -342.000; -472.000
388.310;  -20.600; -889.000; -710.000
388.439;  -68.525; -749.000; -742.000
388.568;  163.000;  365.000;  244.000
388.697;  904.900; -756.000; -653.000
388.826;  173.825; -768.000; -666.000
388.956;   38.200; -285.000; -307.000
389.085;  -44.550; -347.000; -287.000
389.214; -116.325; -842.000; -872.000
389.343;  -69.900; -645.000; -413.000
389.472;  390.675;  126.000;  149.000
389.601;  514.450;   91.000;    0.000
389.730;   -1.725; -568.000; -687.000
389.859;   57.400;  226.000;   46.000
389.988;  150.350; -423.000; -408.000
390.117;  112.250; -168.000; -146.000
390.246;  -34.625; -331.000; -320.000
390.375;   62.850; -673.000; -626.000
390.504;  -76.325; -703.000; -621.000
390.633; -107.050; -672.000; -726.000
390.761;  -94.250; -732.000; -645.000
390.890;    7.700;   -4.000; -130.000
391.019;  -42.600; -421.000; -441.000
391.148; -131.625; -826.000; -855.000
391.277;  -85.625; -576.000; -493.000
391.406; -104.900; -821.000; -805.000
391.534;    8.950;  574.000; -301.000
391.663;  -68.000; -583.000; -645.000
391.792; -114.250; -673.000; -701.000
391.921;   69.000;   -3.000;   15.000
392.050;  136.650; -287.000; -228.000
392.178;  -69.350;-1206.000;-1061.000
392.307;   98.225; -758.000; -712.000
392.436;   38.975; -427.000; -641.000
392.564;   12.825;  166.000;   -6.000
392.693; -101.175; -860.000; -682.000
392.822;  162.900; -529.000; -534.000
392.950;   64.425; -880.000; -714.000
393.079;  268.525; -188.000; -328.000
393.208;   16.450; -488.000; -511.000
393.336;  -22.675; -170.000; -145.000
393.465;  -63.675; -317.000; -199.000
393.593;   -3.650;   62.000;   79.000
393.722; -151.925;-1121.000; -916.000
393.850;  -49.000; -188.000;  -61.000
393.979; -160.725; -926.000; -805.000
394.107;  -75.925; -517.000; -537.000
394.236;  -37.750; -570.000; -507.000
394.364;  160.375;  383.000;  206.000
394.493;  266.975; -911.000; -767.000
394.621;  -36.200; -955.000; -916.000
394.750;  727.650; -873.000; -923.000
394.878; 2994.000; -247.000; -149.000
395.007; 4069.750; -721.000; -807.000
395.135;  304.425; -790.000; -721.000
395.263;  -90.875;-1038.000;-1040.000
395.392;   -5.475;  -25.000; -107.000
395.520; -148.650; -818.000; -679.000
395.648; -110.025; -865.000; -915.000
395.777;  -25.500; -366.000; -405.000
395.905;  -76.550; -449.000; -564.000
396.033;    9.700;  217.000;  172.000
396.162;  437.500; -399.000; -453.000
396.290;  401.250;  -17.000;   -2.000
396.418;   62.350; -555.000; -514.000
396.546;  -81.450; -571.000; -466.000
396.674; -117.975; -850.000; -878.000
396.803;   -0.875;  -72.000;  -23.000
396.931;   60.600; -179.000; -199.000
397.059;   -4.200;-1026.000; -989.000
397.187; -131.400;-1026.000; -975.000
397.315; -141.550; -884.000; -649.000
397.443; -108.650; -592.000; -443.000
397.572; -100.225; -578.000; -424.000
397.700;  -35.375; -607.000; -614.000
397.828;  -12.250;  120.000;  -90.000
397.956;  -69.625; -508.000; -478.000
398.084;  -72.325; -767.000; -626.000
398.212;   17.675;  137.000;  124.000
398.340;    0.625;  -56.000;  159.000
398.468;   -3.900; -390.000; -169.000
398.596; -139.225; -993.000; -953.000
398.724; -137.650; -762.000; -767.000
398.852; -157.025;-1024.000; -976.000
398.980;  -87.750; -560.000; -560.000
399.108;  -74.100; -982.000; -735.000
399.236;    6.100;   13.000;    8.000
399.363;   -1.700;  222.000;  196.000
399.491;  -78.325; -404.000; -398.000
399.619; -130.625; -829.000; -800.000
399.747; -118.600; -859.000; -771.000
399.875;   78.525;  220.000;  234.000
400.003;  -70.275; -359.000; -284.000
400.130; -101.800; -421.000; -341.000
400.258;  -33.150;  -83.000;   38.000
400.386;  -60.475; -352.000; -168.000
400.514;  -73.225; -526.000; -587.000
400.641; -103.250; -928.000; -802.000
400.769; -148.000; -979.000; -888.000
400.897; -129.450; -838.000; -793.000
401.025;  -47.375; -166.000; -152.000
401.152;   -8.150;  220.000;   38.000
401.280;  -90.125; -430.000; -429.000
401.408; -117.350; -712.000; -576.000
401.535; -121.175; -735.000; -758.000
401.663; -191.475;-1134.000;-1054.000
401.790; -102.125; -514.000; -525.000
401.918;   31.400;  436.000;  405.000
402.046;  -42.625;  134.000;  122.000
402.173;  -51.850;  -18.000;    7.000
402.301;  -97.875; -519.000; -397.000
402.428;   33.575;  528.000;  383.000
402.556; -164.900;-1188.000; -913.000
402.683;  -40.000;  -20.000;   -1.000
402.811;  -31.550;  -37.000; -206.000
402.938;  -18.300;   20.000;   27.000
403.066;  141.225; -574.000; -558.000
403.193;  291.650;  299.000;  239.000
403.321;  211.275; -396.000; -574.000
403.448;  274.800;   83.000;   27.000
403.575;  115.075;  -90.000;  -46.000
403.703;  -92.875; -732.000; -557.000
403.830;  -72.175; -531.000; -496.000
403.957; -144.400;-1117.000;-1023.000
404.085;    7.175;  -61.000; -172.000
404.212;   94.675;  -50.000;   63.000
404.339;  265.775; -566.000; -306.000
404.467; 5905.500; -612.000; -524.000
404.594; 3828.875; -287.000; -227.000
404.721;  838.975; -869.000; -764.000
404.848;   61.600; -113.000; -202.000
404.976; -100.675; -856.000; -783.000
405.103;  -20.375;  -14.000;  -82.000
405.230;   -3.200;  190.000;  226.000
405.357;   15.750;  117.000;   44.000
405.484;  276.475;  -49.000;    5.000
405.612;   48.025; -548.000; -563.000
405.739;  -74.700; -488.000; -243.000
405.866;   60.875;  669.000;  385.000
405.993;  -69.000; -398.000; -102.000
406.120; -149.425; -801.000; -887.000
406.247;  -63.975; -323.000; -342.000
406.374;  365.225;  540.000;  629.000
406.501;   66.300; -632.000; -702.000
406.628;  -92.925; -621.000; -589.000
406.755; -101.625; -803.000; -620.000
406.882;  -48.700; -228.000; -277.000
407.009; -114.450; -719.000; -628.000
407.136;   22.925; -480.000; -401.000
407.263;   82.825; -939.000; -829.000
407.390; -100.450; -692.000; -614.000
407.517; -182.950;-1139.000;-1187.000
407.644;  -77.400; -332.000; -256.000
407.771;  -69.950; -249.000; -287.000
407.898;   10.900;  168.000;  328.000
408.025;  -70.400; -421.000; -313.000
408.151;  -13.525;   82.000;  153.000
408.278;  -87.200; -267.000; -216.000
408.405; -118.725; -931.000; -899.000
408.532;  -90.900; -549.000; -542.000
408.659; -136.900; -677.000; -648.000
408.785; -207.675;-1298.000;-1170.000
408.912;  -69.125; -412.000; -296.000
409.039; -113.300; -610.000; -686.000
409.166; -109.375; -591.000; -555.000
409.292; -118.975; -571.000; -534.000
409.419; -128.400; -665.000; -649.000
409.546; -104.550; -431.000; -192.000
409.672; -111.200; -713.000; -545.000
409.799;  -35.425;  -36.000;   34.000
409.926;  -40.950; -180.000; -179.000
410.052; -172.075;-1127.000;-1091.000
410.179;  -79.650; -368.000; -392.000
410.305; -103.075; -375.000; -493.000
410.432;  -42.375; -220.000; -333.000
410.558; -108.050; -305.000; -380.000
410.685;  -98.450; -688.000; -431.000
410.812; -109.650; -409.000; -588.000
410.938; -162.075; -964.000; -808.000
411.065; -115.300; -671.000; -645.000
411.191;  -52.375; -189.000; -174.000
411.317; -120.425; -823.000; -742.000
411.444;  -82.000; -317.000; -246.000
411.570;  -71.750; -339.000; -294.000
411.697; -136.075; -758.000; -752.000
411.823; -185.600; -989.000; -999.000
411.949;  -51.850;  -56.000;   17.000
412.076; -120.450; -539.000; -519.000
412.202; -129.300; -758.000; -757.000
412.329; -134.825; -798.000; -752.000
412.455; -125.725; -821.000; -657.000
412.581;  -32.225;  -15.000;  172.000
412.707;  -80.450; -540.000; -457.000
412.834;    6.975;  156.000;  219.000
412.960;  -99.475; -785.000; -784.000
413.086;  -97.575; -743.000; -701.000
413.212;  120.950;  604.000;  578.000
413.339;  -63.850; -685.000; -701.000
413.465;  -25.725; -364.000; -310.000
413.591; -106.375; -757.000; -474.000
413.717;  -68.425; -358.000; -366.000
413.843; -132.800; -839.000; -861.000
413.969;  -70.575;  -47.000; -292.000
414.096; -107.150; -679.000; -679.000
414.222;  -23.800;  -33.000;   85.000
414.348;  -50.575; -652.000; -385.000
414.474;   65.050;   38.000;  -52.000
414.600;  -24.550; -126.000; -144.000
414.726;  -13.800;  -96.000;  -55.000
414.852;  -63.025; -365.000; -342.000
414.978;   20.250;  104.000;  -18.000
415.104;   29.825;   38.000;   80.000
415.230;    5.525; -329.000; -330.000
415.356;   24.775; -409.000; -514.000
415.482;  180.975;   13.000;  -35.000
415.608;  262.400; -247.000; -323.000
415.734;  965.450;   67.000;   38.000
415.860;20240.125; -875.000; -767.000
415.986;14805.275; -685.000; -607.000
416.111; 1275.375; -798.000; -652.000
416.237;  248.900; -424.000; -571.000
416.363; 1174.375; -765.000; -733.000
416.489; 4314.725; -324.000; -251.000
416.615;  459.275; -707.000; -742.000
416.741;  -41.250; -677.000; -784.000
416.866;  -93.875; -673.000; -736.000
416.992; -121.250; -801.000; -818.000
417.118;  -31.500;  -41.000;  -80.000
417.244;  -77.250; -798.000; -531.000
417.369;  -82.050; -801.000; -612.000
417.495;  -28.175; -325.000; -254.000
417.621;  -94.575;-1015.000; -803.000
417.746;   -3.400; -579.000; -572.000
417.872;   48.025; -254.000; -144.000
417.998;   44.250; -515.000; -530.000
418.123; 1084.275;-1073.000; -845.000
418.249; 5550.900; -512.000; -601.000
418.374;  770.975; -916.000; -824.000
418.500;  102.175; -383.000; -482.000
418.626;   99.050;   70.000;  -59.000
418.751;  106.975; -549.000; -448.000
418.877;  183.025; -637.000; -643.000
419.002; 1822.075; -688.000; -560.000
419.128;12940.050; -930.000; -721.000
419.253; 3201.350; -967.000; -837.000
419.379;  411.225; -391.000; -338.000
419.504;  383.675;  325.000;  415.000
419.629;  529.800; -393.000; -212.000
419.755; 3710.175; -317.000; -254.000
419.880;22113.350;  -98.000;   67.000
420.006;11740.375; -280.000; -221.000
420.131;30154.400; -662.000; -775.000
420.256; 4359.425; -315.000; -316.000
420.382;  569.025; -665.000; -687.000
420.507;   62.150; -649.000; -778.000
420.632;  104.950; -337.000; -339.000
420.758;  184.575; -251.000; -425.000
420.883;  -85.525; -876.000; -672.000
421.008; -105.475; -775.000; -619.000
421.133;  -91.425; -509.000; -467.000
421.259;  -61.400; -325.000; -259.000
421.384; -112.150; -834.000; -693.000
421.509;  -68.600;-1052.000; -862.000
421.634;  947.350; -936.000; -820.000
421.759;  405.775; -359.000; -327.000
421.885;  -53.325; -717.000; -656.000
422.010;  -79.575; -673.000; -542.000
422.135; -155.000; -695.000; -727.000
422.260;   21.875;  340.000;  280.000
422.385;  -52.450;   12.000;  -98.000
422.510;   -8.150;  151.000;  -26.000
422.635;    7.725;  -87.000;  -43.000
422.760;   80.525; -766.000; -791.000
422.885;   50.275;  -57.000;  -80.000
423.010;  -44.125; -112.000; -169.000
423.135; -117.950; -481.000; -561.000
423.260;  -41.450; -150.000; -245.000
423.385;   59.825;  476.000;  222.000
423.510;   20.300;   71.000;  -22.000
423.635;   62.625;  133.000;   45.000
423.760;   47.075;  383.000;  328.000
423.885;   63.550;  336.000;  391.000
424.010;   -4.075;  -68.000;  -13.000
424.135;   -8.425;    5.000;  -33.000
424.259;  -96.225; -654.000; -457.000
424.384;  -61.100; -279.000; -272.000
424.509;  -36.475; -260.000; -186.000
424.634; -124.775; -761.000; -623.000
424.759;  -47.625; -688.000; -544.000
424.883;   -7.775; -506.000; -527.000
425.008;  138.100; -502.000; -410.000
425.133; 2044.625; -679.000; -653.000
425.258;  934.250; -517.000; -381.000
425.382;  952.000; -867.000; -774.000
425.507; 2364.525; -487.000; -543.000
425.632;  419.475; -802.000; -663.000
425.756;  444.750; -256.000; -146.000
425.881; 6807.175; -831.000; -857.000
426.006;18782.425; -604.000; -355.000
426.130; 2905.050; -696.000; -508.000
426.255;  364.800; -611.000; -491.000
426.379;  165.275; -189.000; -577.000
426.504;  368.600;  660.000;  544.000
426.629; 4073.000; -519.000; -466.000
426.753; 2833.750;   64.000;  -46.000
426.878;  316.050; -252.000; -288.000
427.002;  138.175; -651.000; -668.000
427.127; 1614.025;  -35.000; -158.000
427.251;11734.600;  372.000;  401.000
427.375; 3371.900; -191.000; -173.000
427.500; 2089.125; -616.000; -610.000
427.624;  692.750; -234.000; -400.000
427.749;   68.825; -216.000; -225.000
427.873;  -55.350; -499.000; -412.000
427.997;  -64.775; -222.000; -230.000
428.122;   76.800;  795.000;  703.000
428.246;   54.750;  433.000;  434.000
428.371; -138.875; -869.000; -773.000
428.495; -123.000; -624.000; -646.000
428.619;  -47.150; -186.000; -117.000
428.743;    2.900;   65.000;  132.000
428.868;    0.500; -732.000; -643.000
428.992; 1249.125; -219.000; -326.000
429.116;  503.950; -329.000; -357.000
429.240;  225.300;  419.000;  426.000
429.365;  -36.150; -454.000; -574.000
429.489;  -63.225; -638.000; -647.000
429.613;   27.950; -236.000; -177.000
429.737;   11.525; -563.000; -432.000
429.861;  258.325; -247.000; -133.000
429.985; 5673.000; -425.000; -305.000
430.109; 6288.975; -770.000; -908.000
430.234;  709.250;   76.000;  -50.000
430.358;   74.350; -250.000; -160.000
430.482;  -78.125; -672.000; -564.000
430.606;  -69.875; -655.000; -375.000
430.730;  -14.775; -437.000; -388.000
430.854;   74.525; -909.000; -835.000
430.978;  -98.850; -795.000; -764.000
431.102;  -95.850; -499.000; -422.000
431.226; -138.250; -874.000; -815.000
431.350;   18.850;  345.000;  422.000
431.474;  -81.575; -661.000; -373.000
431.597; -164.600;-1060.000; -848.000
431.721;  -90.625; -276.000; -267.000
431.845; -122.500; -704.000; -472.000
431.969; -101.300; -304.000; -349.000
432.093; -101.725; -395.000; -317.000
432.217;  -28.275;   32.000;   82.000
432.341;  -93.550; -523.000; -518.000
432.464;   -4.175;   96.000;   40.000
432.588;  140.250; -401.000; -329.000
432.712;   72.600;  -52.000;  -52.000
432.836;   39.300;  213.000;  263.000
432.959;  -38.075; -372.000; -311.000
433.083;   84.400;   11.000;    2.000
433.207;  370.450;  285.000;  930.000
433.330; 5189.525; -391.000; -200.000
433.454; 6465.475; -654.000; -638.000
433.578; 3699.100;  583.000;  278.000
433.701;  677.375; -623.000; -675.000
433.825;  109.175; -292.000; -299.000
433.949;  130.575;   28.000;  -72.000
434.072;   31.450; -410.000; -323.000
434.196;  -26.675; -309.000; -117.000
434.319; 3713.900;25482.000;25124.000
434.443;  705.975; -656.000; -603.000
434.566; 2743.625;  281.000;   62.000
434.690;  449.850; -637.000; -383.000
434.813;   48.650; -251.000; -173.000
434.937;  -84.925; -569.000; -696.000
435.060;  -48.050; -423.000; -332.000
435.184;  209.950; -492.000; -217.000
435.307;  110.375;  159.000;  102.000
435.431;  -23.350;  -40.000;   24.000
435.554;  -87.075; -399.000; -240.000
435.677;  -92.225; -350.000; -258.000
435.801;  -51.400;  -25.000;   49.000
435.924;  -31.900;    1.000;  -67.000
436.048; -128.600;-1019.000; -732.000
436.171;  -77.325; -240.000;  -66.000
436.294;  -38.150; -248.000; -229.000
436.417;   88.900; -963.000; -849.000
436.541;  -95.950; -814.000; -840.000
436.664;  -55.025; -242.000; -316.000
436.787;  -24.125;   13.000;  113.000
436.910; -125.750; -792.000; -422.000
437.034;   10.075;  142.000;  143.000
437.157;   14.925;  -11.000;    0.000
437.280;  -48.750; -392.000; -292.000
437.403; -120.800; -982.000; -869.000
437.526;  479.975; -903.000; -865.000
437.649; 1846.550; -505.000; -332.000
437.772;  262.600; -692.000; -540.000
437.896;  108.900;  700.000;  544.000
438.019; -113.900; -758.000; -503.000
438.142; -106.600; -596.000; -506.000
438.265;  -40.525; -639.000; -670.000
438.388;  444.050; -520.000; -410.000
438.511;   54.300; -597.000; -394.000
438.634;  -60.375; -247.000; -125.000
438.757; -148.375; -693.000; -619.000
438.880;  -45.825;  -34.000;  -57.000
439.003;  -75.100; -417.000; -437.000
439.126;  -75.750; -287.000; -167.000
439.248;  -72.275;  -98.000; -139.000
439.371;  -54.225;    9.000;  -53.000
439.494;   16.825;  510.000;  439.000
439.617;  -74.200;   65.000;  -88.000
439.740; -169.350; -968.000; -816.000
439.863; -149.200; -755.000; -595.000
439.986; -123.000; -476.000; -431.000
440.108;  -56.975; -161.000; -112.000
440.231; -171.400; -950.000; -836.000
440.354;  -56.300;  -64.000; -150.000
440.477;    8.200; -566.000; -542.000
440.599;  -20.875; -200.000; -225.000
440.722; -130.000; -709.000; -586.000
440.845;   56.450;  751.000;  928.000
440.968; -116.075; -415.000; -311.000
441.090;  -92.100; -199.000;  -33.000
441.213; -171.500;-1021.000; -825.000
441.336;  -67.450; -159.000;   -5.000
441.458;  -93.575; -549.000; -396.000
441.581; -104.675; -628.000; -629.000
441.703;  -65.075; -152.000;   13.000
441.826; -134.325; -557.000; -400.000
441.948;  -49.450;   56.000;   51.000
442.071;    6.425;  555.000;  424.000
442.193; -127.475; -531.000; -485.000
442.316;    2.375;  152.000;   97.000
442.438;   38.625; -233.000;  -10.000
442.561;   47.225;  272.000;  262.000
442.683;  415.550; -809.000; -522.000
442.806;  967.925;   -8.000;   74.000
442.928;   -8.650; -859.000; -604.000
443.051;  -82.000; -577.000; -373.000
443.173; -100.125; -341.000; -339.000
443.295; -103.325; -263.000; -371.000
443.418;  -87.200; -321.000;  -29.000
443.540;  -18.450; -106.000;   -4.000
443.662; -126.850; -563.000; -465.000
443.785;  -19.200;  335.000;  199.000
443.907; -103.500; -362.000; -208.000
444.029; -147.125; -767.000; -494.000
444.152; -151.375; -644.000; -554.000
444.274;  -41.425;  -18.000;  -24.000
444.396; -122.625; -461.000; -221.000
444.518; -145.000; -691.000; -454.000
444.640; -116.575; -268.000; -111.000
444.763;  -43.750;  388.000;  249.000
444.885; -119.750; -432.000; -392.000
445.007;  -40.275;   35.000;   86.000
445.129; -121.550; -610.000; -515.000
445.251; -118.300; -372.000; -439.000
445.373; -136.425; -537.000; -386.000
445.495;  -16.800;  242.000;  350.000
445.617;   40.575;  853.000;  753.000
445.739;  -73.600; -215.000;  -97.000
445.861;  -42.200; -245.000; -112.000
445.984;  -53.725; -267.000; -101.000
446.105;  151.100; -418.000; -251.000
446.227;  504.525; -176.000;  -19.000
446.349;  -30.125; -358.000; -249.000
446.471; -102.850; -615.000; -448.000
446.593;  -71.350; -316.000;   19.000
446.715;  -45.475;  -67.000;   41.000
446.837;   50.475;  697.000;  832.000
446.959; -102.625; -457.000; -478.000
447.081; -138.800; -628.000; -518.000
447.203;   37.325;  862.000;  834.000
447.325;  -90.800; -270.000;   42.000
447.446;  -29.375;  286.000;  530.000
447.568; -163.600; -921.000; -803.000
447.690; -100.450; -236.000; -245.000
447.812; -150.100; -798.000; -519.000
447.933;  -45.350;  155.000;  127.000
448.055;  -66.700; -306.000; -261.000
448.177;  114.800;   31.000;   79.000
448.299;   45.175; -935.000; -727.000
448.420;    2.925;  -25.000;  159.000
448.542;  -55.050;   -3.000;   33.000
448.664;  -27.600;  109.000;  322.000
448.785;  -35.250;  265.000;   83.000
448.907;  -89.775; -614.000; -353.000
449.028;  -54.400; -771.000; -471.000
449.150;   43.450;  492.000;  589.000
449.272; -178.975;-1044.000; -913.000
449.393;    4.450;  612.000;  694.000
449.515; -146.225; -634.000; -581.000
449.636;  -71.875; -264.000; -155.000
449.758;   61.675;  763.000;  622.000
449.879; -116.350; -498.000; -396.000
450.001;  -86.475; -149.000;  -49.000
450.122;  -57.025;  -95.000;  162.000
450.244;  -33.775;   37.000;  364.000
450.365; -101.850; -495.000; -301.000
450.486;  -35.875;   80.000;  268.000
450.608;    2.900;  393.000;  326.000
450.729;   79.450;  578.000;  645.000
450.850;   -0.950; -574.000; -466.000
450.972;  781.725; -552.000; -389.000
451.093; 5151.525;  190.000;  588.000
451.214; 2253.550; -516.000; -337.000
451.336;  404.075;  773.000;  579.000
451.457;   56.375;  264.000;  393.000
451.578;  -67.075; -118.000;  -74.000
451.699; -115.600; -546.000; -540.000
451.821;  -65.350; -284.000;  -50.000
451.942;  -13.450;  278.000;  285.000
452.063;   19.800;  228.000;  419.000
452.184;  562.575;  -54.000;  -49.000
452.305; 1098.250;  103.000;  170.000
452.427;  136.975; -549.000; -301.000
452.548;  -22.175;   23.000;   79.000
452.669;  -65.900; -257.000;  -89.000
452.790;  -51.200;    3.000;  -18.000
452.911;  -16.575;  195.000;  259.000
453.032;  -74.825; -289.000;  -60.000
453.153;  -61.650;  -29.000;   81.000
453.274;   47.875;  737.000;  868.000
453.395;  -64.700;  -51.000;  175.000
453.516;  109.875; 1317.000; 1388.000
453.637;  -72.025; -205.000; -150.000
453.758;  -70.575;   15.000;   69.000
453.879; -126.000; -462.000; -250.000
454.000;   51.900; 1086.000;  948.000
454.121; -132.550; -554.000; -326.000
454.242; -129.975; -599.000; -383.000
454.362;  -65.925;  -99.000;  114.000
454.483;  -60.875; -309.000; -229.000
454.604;   35.725;  512.000;  580.000
454.725; -129.550; -627.000; -555.000
454.846; -135.575; -474.000; -406.000
454.967;  -41.000;  230.000;  539.000
455.087;  -28.775;  179.000;  153.000
455.208;   -3.150;  554.000;  856.000
455.329;  -80.250;  -22.000;   82.000
455.450;   33.875;  473.000;  633.000
455.570;  -90.650; -234.000; -211.000
455.691;  -59.075;  201.000;  407.000
455.812; -113.650; -270.000;  -92.000
455.932;  -67.450;  107.000;  -97.000
456.053;  -75.075;   36.000;   24.000
456.173; -129.675; -433.000; -355.000
456.294; -130.850; -476.000; -303.000
456.415;  -72.825;  -73.000;   70.000
456.535;  -35.525;  297.000;  273.000
456.656;  -68.225;  132.000;  240.000
456.776;  -70.175;    3.000;  298.000
456.897;  -19.925;  308.000;  513.000
457.017;  -76.725; -153.000;   -3.000
457.138; -120.575; -402.000; -249.000
457.258;  -41.600;  263.000;  224.000
457.379;  -31.875;  509.000;  521.000
457.499;  -18.050;  443.000;  432.000
457.620; -142.575; -407.000; -231.000
457.740;  -91.925; -132.000;  -11.000
457.860;  -77.025;   87.000;   44.000
457.981;  -61.650;  132.000;  124.000
458.101;  -96.500;  -89.000;   40.000
458.221;  -19.450;  336.000;  402.000
458.342;  -62.525;   -4.000;  -37.000
458.462;   18.375;  617.000;  352.000
458.582;  -46.850; -302.000; -294.000
458.703;    7.950;  303.000;  154.000
458.823;  -15.375;   22.000;  163.000
458.943;    8.800;  341.000;  467.000
459.063;  -28.650; 1124.000;  192.000
459.183;  -26.800;  328.000;  313.000
459.304;   -6.225;  315.000;  517.000
459.424;  -62.550; -246.000;  -89.000
459.544;  335.300;  388.000;  764.000
459.664;  857.200;  499.000;  506.000
459.784;  307.200; 1004.000; 1175.000
459.904;   61.975;  867.000;  744.000
460.024;   57.050;  867.000;  684.000
460.144;   -2.075;  449.000;  554.000
460.264;  -17.125;  515.000;  327.000
460.385;  -95.950; -145.000; -119.000
460.505;   24.025;  905.000;  858.000
460.625;  -95.175;  -17.000;  -68.000
460.745;  -42.425;  396.000;  541.000
460.864;  -52.975;  153.000;  469.000
460.984;   11.175;  499.000;  573.000
461.104;  122.625; 1656.000; 1775.000
461.224;    3.800;  657.000;  650.000
461.344;  -33.025;  431.000;  360.000
461.464;  -36.500;  258.000;  513.000
461.584;   -0.350;  283.000;  466.000
461.704;  -67.500;   58.000;  108.000
461.824;  -60.725;  238.000;  259.000
461.943;  -63.275;  191.000;  130.000
462.063;  -78.000;    2.000;  324.000
462.183;   21.950;  639.000;  717.000
462.303;  106.625; 1678.000; 1230.000
462.422;   18.700;  781.000;  840.000
462.542;  -40.175;  271.000;  391.000
462.662;   31.300;  353.000;  380.000
462.782;  232.675;  833.000;  572.000
462.901;  481.350;  545.000;  717.000
463.021;  304.200; 1702.000; 1638.000
463.141;  -17.600;  337.000;  770.000
463.260;  -23.200;  614.000;  474.000
463.380;    8.425;  902.000;  884.000
463.499;  -43.300;  342.000;  332.000
463.619;  -56.900;  581.000;  559.000
463.738;  107.600; 1644.000;  903.000
463.858;    1.125;  657.000;  811.000
463.978;  -37.200;  542.000;  396.000
464.097;   35.625;  921.000; 1114.000
464.217;  106.800; 1196.000; 1143.000
464.336;   97.775; 1068.000; 1130.000
464.455;  -35.975;  328.000;  659.000
464.575;   35.825;  597.000;  602.000
464.694;  157.850; 1204.000; 1179.000
464.814;  121.625; 1190.000; 1138.000
464.933;   72.600; 1095.000; 1027.000
465.052;   83.800; 1412.000; 1054.000
465.172;   69.875;  922.000;  799.000
465.291;  126.525; 1376.000; 1320.000
465.410;   11.375;  462.000;  735.000
465.530;   61.575; 1355.000; 1310.000
465.649;   52.250; 1209.000; 1273.000
465.768;  111.225; 1673.000; 1508.000
465.888;   35.550;  941.000; 1174.000
466.007;   72.375; 1335.000; 1440.000
466.126;  -16.550;  721.000;  641.000
466.245;   24.750; 1176.000; 1187.000
466.364;   28.175;  950.000; 1060.000
466.484;   34.625; 1024.000; 1213.000
466.603;   27.600; 1101.000; 1222.000
466.722;   98.425; 1490.000; 1769.000
466.841;   71.825; 1151.000; 1401.000
466.960;   20.425; 1069.000;  972.000
467.079;  128.600; 1971.000; 1786.000
467.198;   24.675; 1238.000; 1181.000
467.317;   70.275; 1768.000; 1162.000
467.436;   52.850; 1709.000; 1261.000
467.555;  141.225; 1796.000; 1746.000
467.674;   47.500; 1227.000; 1329.000
467.793;   43.050; 1376.000; 1374.000
467.912;   89.225; 1658.000; 1539.000
468.031;  126.375; 2038.000; 1930.000
468.150;  124.350; 1842.000; 1837.000
468.269;  189.275; 2313.000; 2090.000
468.388;  183.100; 2168.000; 2339.000
468.507;  250.575; 2884.000; 2903.000
468.626;  211.525; 2555.000; 2541.000
468.744;  129.425; 2018.000; 2174.000
468.863;  202.300; 2312.000; 2523.000
468.982;   86.600; 1503.000; 1555.000
469.101;  206.475; 2788.000; 2692.000
469.220;  142.200; 2333.000; 2176.000
469.338;  241.400; 2935.000; 3051.000
469.457;  179.350; 2719.000; 2545.000
469.576;  359.825; 3953.000; 3784.000
469.695;  237.075; 2877.000; 3066.000
469.813;  411.600; 4148.000; 4192.000
469.932;  405.050; 4255.000; 4485.000
470.051;  402.950; 4075.000; 4161.000
470.169;  861.250; 4470.000; 4338.000
470.288; 1508.725; 4700.000; 4809.000
470.406;  894.800; 5059.000; 5194.000
470.525;  629.100; 6101.000; 5787.000
470.644;  637.475; 6847.000; 6794.000
470.762;  803.700; 8397.000; 7873.000
470.881;  911.000; 8651.000; 8464.000
470.999; 1046.875; 9685.000; 9151.000
471.118; 1102.525;11174.000;10711.000

