
Integration time [ms]: 100.000
Averaging Nr. [scans]: 40
Smoothing Nr. [pixels]: 0
Data measured with spectrometer [name]: 2101012U2
Wave   ;Sample   ;Dark     ;Reference
[nm]   ;[counts] ;[counts] ;[counts] 

197.733;   61.850;  516.000;  404.000
197.879;  -76.375; -610.000; -634.000
198.025;  -36.800; -475.000; -420.000
198.171;  -68.825; -602.000; -612.000
198.317;  -14.000; -401.000; -316.000
198.463;  -60.400; -655.000; -404.000
198.609;   35.125;  181.000; -137.000
198.755;  -71.425; -644.000; -410.000
198.901;  -68.525; -505.000; -424.000
199.047;  -62.475; -615.000; -488.000
199.193;  -24.575; -230.000; -468.000
199.339;  -49.725; -222.000; -369.000
199.485;   50.025;  330.000;  271.000
199.631;    9.025;  227.000;  310.000
199.777;  -30.525; -466.000; -398.000
199.923;  -69.650; -610.000; -424.000
200.069;   -0.675; -141.000;  -58.000
200.215;   55.100;  128.000;  453.000
200.361;   51.575;  243.000;  477.000
200.507;  -56.600; -600.000; -373.000
200.653;  -20.925; -371.000; -194.000
200.798;  -31.900; -215.000; -125.000
200.944;    7.225; -146.000;  -41.000
201.090;   38.075;   61.000;  222.000
201.236;   -1.625; -116.000; -158.000
201.382;  131.725;  874.000;  903.000
201.528;    4.800;  -58.000;  -48.000
201.674;  -57.000; -386.000; -293.000
201.819;  -41.075; -540.000; -439.000
201.965;  -72.625; -699.000; -447.000
202.111;  -24.400; -273.000; -226.000
202.257;  -42.350; -250.000; -238.000
202.402;    7.525;   13.000;  -36.000
202.548;  -13.850; -169.000; -116.000
202.694;  103.725;  410.000; -183.000
202.840;  -72.700; -603.000; -531.000
202.985;  -52.075; -681.000; -639.000
203.131;  -99.725; -832.000; -666.000
203.277;  -21.025; -199.000; -262.000
203.423;  -48.575; -434.000; -520.000
203.568;  -36.650; -462.000; -237.000
203.714;  -61.575; -535.000; -542.000
203.860;  -70.600; -682.000; -641.000
204.005;   12.875;  112.000;  167.000
204.151;   87.400;  561.000;  556.000
204.296;  -41.700; -354.000; -221.000
204.442;  -51.450; -600.000; -547.000
204.588;  -71.050; -592.000; -579.000
204.733;   29.900;  178.000;  168.000
204.879; -110.975;-1018.000; -822.000
205.025;   10.575;  -99.000;  126.000
205.170;   -3.525;  -17.000;   94.000
205.316;   74.875;  438.000;  661.000
205.461;  -88.575; -698.000; -554.000
205.607;   79.925;  609.000;  665.000
205.752;  -82.550; -626.000; -551.000
205.898;  -46.200; -501.000; -391.000
206.043;  -51.625; -578.000; -506.000
206.189;  -32.950; -243.000; -285.000
206.334;   83.000;  554.000;  606.000
206.480;   94.600;  409.000;  239.000
206.625;  -71.150; -529.000; -552.000
206.771;  -27.150; -451.000; -373.000
206.916;  -22.400; -210.000; -537.000
207.062;  -70.750; -545.000; -591.000
207.207;  -60.425; -546.000; -443.000
207.353;   66.750;  185.000;  460.000
207.498;   20.650;  196.000;   85.000
207.643;  -57.850; -501.000; -370.000
207.789; -121.500;-1069.000; -910.000
207.934;  -84.775; -665.000; -713.000
208.080;  -22.375; -154.000;   66.000
208.225;    6.400;  -22.000;  -57.000
208.370;  -75.325; -727.000; -619.000
208.516;  -70.525; -741.000; -487.000
208.661;  -37.150; -127.000;  -69.000
208.806;  -22.125; -165.000; -171.000
208.952; -130.075;-1044.000; -731.000
209.097;   69.650;  378.000;  349.000
209.242;  -46.850; -307.000; -382.000
209.387;   69.525;  392.000;  350.000
209.533;  -44.700; -321.000; -350.000
209.678;   82.950;  472.000;  543.000
209.823;  -53.000; -408.000; -310.000
209.969;  -84.275; -860.000; -757.000
210.114; -102.500; -907.000; -719.000
210.259; -102.375; -939.000; -889.000
210.404;  -20.575; -171.000;  103.000
210.549;   30.025;  108.000;    3.000
210.695;  -14.100;   -3.000;  -95.000
210.840;   29.300;   94.000;   67.000
210.985;  -57.850; -484.000; -303.000
211.130;   73.200;  268.000;  406.000
211.275;   13.075;  207.000;  199.000
211.420;  -42.175; -300.000; -289.000
211.566;  -66.350; -536.000; -489.000
211.711;   18.275;  218.000;  157.000
211.856;  -56.950; -545.000; -519.000
212.001;   34.625;  151.000;   44.000
212.146;   21.000;  153.000;   49.000
212.291;  -22.775; -210.000; -186.000
212.436;  -34.825; -280.000;   -6.000
212.581;  -68.375; -685.000; -653.000
212.726;  -76.050; -487.000; -538.000
212.871;  -25.725; -552.000; -217.000
213.016; -142.775;-1172.000;-1029.000
213.161;   56.200;  406.000;  291.000
213.306;  -64.050; -435.000; -577.000
213.451;  -79.700; -778.000; -689.000
213.596;  -30.250; -455.000; -347.000
213.741;  -45.750; -448.000; -538.000
213.886;  -74.225; -498.000; -517.000
214.031;   -7.600; -294.000; -124.000
214.176;  -46.625; -408.000; -341.000
214.321;  -12.575; -296.000; -157.000
214.466;  -30.325; -163.000;  -43.000
214.611;    1.650;  -61.000;  -10.000
214.756; -110.350; -948.000; -858.000
214.901;  -23.375; -388.000; -226.000
215.046; -121.375; -797.000; -825.000
215.191;   30.700;  128.000;   35.000
215.336;  -16.875; -157.000;  -19.000
215.480;  -63.150; -684.000; -505.000
215.625;   -2.450; -175.000;  -19.000
215.770;  -67.450; -757.000; -662.000
215.915;    7.475;   -5.000;  -97.000
216.060;   12.425; -113.000;  -21.000
216.205;  -98.250; -731.000; -779.000
216.349;  -58.725; -470.000; -533.000
216.494; -130.875; -939.000; -867.000
216.639; -110.150; -823.000; -888.000
216.784;  -80.800; -577.000; -525.000
216.929;   45.875;  392.000;  281.000
217.073;   -4.225; -244.000;  -31.000
217.218;   -3.575;   78.000;  -47.000
217.363;  -84.625; -656.000; -618.000
217.507;  -78.425; -623.000; -588.000
217.652; -116.025; -845.000; -874.000
217.797;  -89.300; -708.000; -659.000
217.942;  -90.925; -856.000; -720.000
218.086;   63.925;  608.000;  539.000
218.231;  -26.325; -174.000;  -26.000
218.376;  -31.125; -337.000; -229.000
218.520;    1.150;  -41.000;   96.000
218.665;  -31.500; -338.000; -204.000
218.810;  -36.350; -275.000; -233.000
218.954;   19.650;  201.000;   35.000
219.099;  -97.775; -713.000; -963.000
219.243;  -62.200; -589.000; -554.000
219.388;  -37.050; -264.000; -136.000
219.532;  -17.775; -116.000; -116.000
219.677;  -81.350; -564.000; -521.000
219.822;   14.675;   33.000;   89.000
219.966;   -5.475;   17.000;  -99.000
220.111;  -36.025; -328.000;  -40.000
220.255; -100.475; -797.000; -750.000
220.400;  -18.650; -180.000; -146.000
220.544;  -77.600; -516.000; -450.000
220.689;  -40.275; -422.000; -451.000
220.833;  -30.500; -123.000;  -58.000
220.978;  -36.250; -393.000; -563.000
221.122;   20.550;  319.000;  307.000
221.267; -104.875; -906.000; -837.000
221.411;  -67.675; -478.000; -394.000
221.555;   -2.825; -104.000;  -23.000
221.700;  -34.925; -329.000; -222.000
221.844;   31.450;  255.000;  272.000
221.989;  -43.925; -328.000; -311.000
222.133;  -15.975; -289.000; -307.000
222.277;   -8.975;    5.000;   78.000
222.422;   26.525;  227.000;  113.000
222.566;  -29.200; -381.000; -214.000
222.711;  -38.625; -414.000; -479.000
222.855;  -77.300; -643.000; -586.000
222.999;  -71.300; -642.000; -717.000
223.144;  -31.000; -195.000; -194.000
223.288;   52.800;  423.000;  251.000
223.432;   14.500;  184.000;  230.000
223.576;   24.800;  152.000;  -21.000
223.721;   29.775;  364.000;  273.000
223.865;  -49.125; -472.000; -475.000
224.009;  224.550; 1673.000; 1631.000
224.153;  -62.925; -660.000; -671.000
224.298;  -66.375; -531.000; -489.000
224.442;  -11.150;  -74.000;  -33.000
224.586;   -0.725; -169.000; -106.000
224.730;  -76.700; -858.000; -670.000
224.875; -108.400; -739.000; -688.000
225.019;   15.500;  102.000;  188.000
225.163;   43.750;  208.000;  341.000
225.307;   21.625;   97.000;  -91.000
225.451;   43.225;  360.000;  481.000
225.595;   37.125;  264.000;  176.000
225.739;  -18.425; -170.000;  -94.000
225.884;   28.225;   86.000;    5.000
226.028;  -93.025; -760.000; -626.000
226.172;  -31.025; -260.000; -273.000
226.316; -112.925; -941.000; -902.000
226.460;  -56.375; -645.000; -493.000
226.604;  -57.350; -406.000; -400.000
226.748;  -92.175; -836.000; -733.000
226.892;  -29.025; -227.000; -181.000
227.036;  -42.050; -537.000; -447.000
227.180;  -58.350; -551.000; -375.000
227.324;  -47.975; -561.000; -580.000
227.468; -115.800; -819.000; -717.000
227.612;   18.025;  242.000;  -28.000
227.756;  -93.350; -845.000; -698.000
227.900;   54.900;  342.000;  441.000
228.044;  -63.050; -509.000; -290.000
228.188;   54.950;  448.000;  568.000
228.332;  -82.650; -546.000; -472.000
228.476;  -15.400; -223.000; -149.000
228.620;  -18.075; -210.000; -150.000
228.764;   80.150;  431.000;  349.000
228.908;  -17.550; -155.000;   30.000
229.052;  -55.125; -615.000; -528.000
229.195;  -20.600; -172.000;   13.000
229.339;  -21.925; -235.000; -305.000
229.483;  -30.200;    5.000; -162.000
229.627;    6.225; -156.000;  139.000
229.771;  -34.825; -218.000; -294.000
229.915;   19.375;  230.000;   79.000
230.059;  -93.350; -648.000; -663.000
230.202;  -35.125; -370.000; -317.000
230.346;  -11.775; -107.000;  107.000
230.490;  -38.575; -489.000; -521.000
230.634; -117.450; -736.000; -553.000
230.777;   73.700;  478.000;  509.000
230.921;  -64.375; -450.000; -359.000
231.065;  -38.925; -246.000; -286.000
231.209;   23.075;  261.000;  265.000
231.352;   17.375;   54.000;   40.000
231.496;   12.700;  568.000;  188.000
231.640;  -89.375; -693.000; -621.000
231.783;   59.725;  546.000;  525.000
231.927;  -36.025; -294.000; -365.000
232.071; -117.150; -962.000; -736.000
232.214; -100.375; -980.000; -764.000
232.358;  -93.500; -683.000; -599.000
232.502;   15.050;  -19.000;    7.000
232.645; -139.325;-1090.000; -927.000
232.789;  -30.050; -257.000; -218.000
232.933;  -45.250; -407.000; -224.000
233.076; -115.450;-1038.000; -897.000
233.220;  -98.725; -752.000; -777.000
233.363;  -69.575; -669.000; -477.000
233.507;   49.700;  371.000;  129.000
233.650;  -80.950; -764.000; -834.000
233.794;   43.525;  438.000;  461.000
233.938;  -56.650; -530.000; -362.000
234.081;  -15.400;  -93.000;   31.000
234.225;  -57.550; -631.000; -539.000
234.368; -114.825; -773.000; -723.000
234.512;  -44.175; -385.000; -299.000
234.655;  -89.925; -582.000; -555.000
234.798;  -54.025; -493.000; -466.000
234.942; -124.300; -884.000;-1002.000
235.085;  -55.850; -651.000; -443.000
235.229;  -63.725; -405.000; -410.000
235.372;  -42.175; -247.000; -191.000
235.516;  -58.525; -397.000; -321.000
235.659;   28.275;   92.000;  121.000
235.802;  -19.650;  -38.000;  -22.000
235.946;   40.875;  335.000;  215.000
236.089;   22.200;  126.000;  250.000
236.233;   43.950;  275.000;  298.000
236.376;  -42.275; -235.000; -378.000
236.519;  -34.950; -297.000; -319.000
236.663;  -18.700; -215.000; -117.000
236.806; -116.750;-1029.000; -999.000
236.949;   49.750;  543.000;  431.000
237.092;   66.625;  412.000;  391.000
237.236;  -87.950; -589.000; -502.000
237.379;   57.600;  352.000;  428.000
237.522; -106.925; -879.000; -768.000
237.666;  -10.200; -271.000;   18.000
237.809; -123.275; -851.000; -823.000
237.952;   37.325;  469.000;  271.000
238.095;  -67.075; -447.000; -442.000
238.238;   95.700;  688.000;  700.000
238.382;   -0.800;  166.000;  103.000
238.525;  -74.650; -598.000; -511.000
238.668; -118.475;-1060.000; -985.000
238.811;  -76.575; -638.000; -643.000
238.954;  -61.025; -483.000; -334.000
239.097;   95.825;  617.000;  664.000
239.241;   17.575;  394.000;  326.000
239.384;  -15.175; -254.000; -214.000
239.527;  -50.450; -424.000; -224.000
239.670; -127.925; -994.000;-1091.000
239.813;  -96.050; -696.000; -658.000
239.956;   67.500;  579.000;  473.000
240.099; -111.550; -778.000; -725.000
240.242;   57.000;  428.000;  432.000
240.385;   44.250;  466.000;  450.000
240.528;  -60.025; -706.000; -473.000
240.671;   20.300;  189.000;  134.000
240.814;  -34.875; -441.000; -158.000
240.957;  -93.525; -767.000; -578.000
241.100;  -87.425; -779.000; -755.000
241.243; -130.375;-1234.000; -893.000
241.386;  -57.800; -508.000; -379.000
241.529;  -84.675; -735.000; -547.000
241.672;  -50.300; -566.000; -495.000
241.815; -123.925; -832.000; -808.000
241.958;  -25.500; -125.000; -182.000
242.101;  -83.425; -545.000; -390.000
242.244;  -32.525; -270.000; -325.000
242.387;  -27.600; -304.000; -246.000
242.530;   60.675;  470.000;  134.000
242.673;  -37.625; -381.000; -309.000
242.815; -113.375; -925.000; -899.000
242.958;  -78.125; -482.000; -381.000
243.101;   13.675;  132.000;  187.000
243.244;  -78.725; -564.000; -521.000
243.387;  -46.925; -313.000; -316.000
243.530;  -94.050; -657.000; -674.000
243.672;    2.500;   43.000;  -92.000
243.815;  -57.550; -355.000; -283.000
243.958;    7.050;   98.000;  -26.000
244.101;    3.100;   59.000;  -16.000
244.243;  -10.400;  -47.000;  101.000
244.386; -103.850; -761.000; -630.000
244.529;  -20.850; -132.000; -139.000
244.672; -151.150;-1154.000; -951.000
244.814;  -93.900; -621.000; -794.000
244.957;  -68.375; -380.000; -304.000
245.100;  -71.250; -489.000; -489.000
245.242;  -62.675; -387.000; -374.000
245.385;   -2.625;  -59.000;  -39.000
245.528; -121.400; -871.000; -705.000
245.670;   95.575;  612.000;  634.000
245.813;  -96.550; -599.000; -547.000
245.956;  -38.650; -324.000; -275.000
246.098;  -73.600; -508.000; -650.000
246.241;    4.225;  194.000;   48.000
246.383;  -29.450; -119.000;  -73.000
246.526;  -67.675; -454.000; -525.000
246.669; -116.625; -889.000; -780.000
246.811;   12.700;  172.000;   -1.000
246.954;  -65.975; -512.000; -426.000
247.096;  -15.275;  -84.000;   -6.000
247.239;  -73.100; -482.000; -445.000
247.381;  -65.225; -647.000; -488.000
247.524;   91.450;  645.000;  679.000
247.666;   -5.075;   58.000;   11.000
247.809; -110.800; -887.000; -691.000
247.951;    7.675;  -75.000;  138.000
248.094;   21.025;  432.000;  308.000
248.236; -138.175;-1262.000;-1238.000
248.378;  -18.575; -356.000;  -81.000
248.521;  -25.125; -334.000; -337.000
248.663;  -43.650; -236.000; -267.000
248.806;  -26.925; -300.000; -266.000
248.948; -111.025; -886.000; -763.000
249.090;  -49.725; -428.000; -398.000
249.233;  -72.225; -344.000; -381.000
249.375;  -50.900; -474.000; -451.000
249.518;  -33.000;  -83.000; -133.000
249.660;  -20.800; -103.000;    3.000
249.802; -155.450;-1303.000;-1189.000
249.945;  -72.575; -612.000; -540.000
250.087; -112.100; -834.000; -768.000
250.229;  -61.425; -362.000; -480.000
250.371;  -74.350; -494.000; -439.000
250.514;  -42.625; -310.000; -244.000
250.656;  -48.725;   69.000;  102.000
250.798; -108.950; -849.000; -800.000
250.940;  -49.125; -322.000; -322.000
251.083;  -20.950; -335.000; -111.000
251.225;   53.650;  338.000;  310.000
251.367;  -32.650; -274.000; -373.000
251.509;  -47.500; -265.000; -210.000
251.651;  -90.525; -731.000; -671.000
251.794;   51.625;  538.000;  632.000
251.936; -105.975; -821.000; -747.000
252.078;  -83.550; -540.000; -461.000
252.220;  -71.450; -645.000; -477.000
252.362;   58.000;  344.000;  462.000
252.504;  -64.200; -677.000; -584.000
252.646; -108.125; -875.000; -722.000
252.788;   -4.800;   14.000; -128.000
252.931;  -54.050; -257.000; -253.000
253.073;  -36.800; -376.000; -317.000
253.215;    3.800;  141.000;  122.000
253.357;  -10.250;   82.000; -153.000
253.499;  -46.375; -374.000; -234.000
253.641;  -79.700; -749.000; -594.000
253.783;  -92.200; -609.000; -527.000
253.925;  -83.025; -586.000; -591.000
254.067; -110.350; -744.000; -667.000
254.209;  -42.250; -391.000; -259.000
254.351; -140.950; -865.000; -883.000
254.493;  -62.350; -441.000; -417.000
254.635; -122.850; -936.000; -818.000
254.777;  -76.200; -752.000; -687.000
254.918;  -67.875; -512.000; -430.000
255.060;  -53.550; -551.000; -395.000
255.202;  -42.075; -473.000; -261.000
255.344;  -78.200; -658.000; -455.000
255.486;  -76.275; -471.000; -406.000
255.628; -106.025; -780.000; -781.000
255.770; -101.025; -676.000; -536.000
255.912;  -55.325; -559.000; -468.000
256.053;  -91.800; -730.000; -508.000
256.195;  148.900; 1008.000;  903.000
256.337;  -94.950; -861.000; -595.000
256.479;   75.425;  532.000;  416.000
256.621;  -42.275; -394.000; -212.000
256.762;  -83.775; -789.000; -742.000
256.904;   36.350;  485.000;  487.000
257.046;  -36.225; -381.000; -271.000
257.188;  -38.250; -351.000; -264.000
257.329;  -63.025; -525.000; -464.000
257.471; -114.725; -939.000; -807.000
257.613;  -49.925; -584.000; -498.000
257.755; -150.150;-1073.000; -982.000
257.896;   35.625;  286.000;  392.000
258.038;  -68.925; -403.000; -352.000
258.180;  -35.775; -354.000; -279.000
258.321;  -82.325; -581.000; -457.000
258.463;   -7.300;  -71.000;  133.000
258.605;  -99.225; -562.000; -570.000
258.746; -102.925; -886.000; -772.000
258.888; -142.275;-1026.000;-1020.000
259.029;   34.625;  121.000;   -8.000
259.171;  -74.475; -614.000; -550.000
259.313;   17.650;  -49.000;  -47.000
259.454;  -73.325; -536.000; -414.000
259.596;  -48.150; -483.000; -390.000
259.737;  -80.725; -590.000; -474.000
259.879;   48.450;  217.000;  311.000
260.020;   65.575;  901.000;  636.000
260.162;  -38.425; -146.000; -253.000
260.303; -119.325; -768.000; -687.000
260.445;  -76.800; -609.000; -613.000
260.586;   24.050;  392.000;  157.000
260.728;  -43.600; -360.000; -248.000
260.869;  -67.575; -350.000; -343.000
261.011;   76.075;  706.000;  537.000
261.152;  -58.300; -479.000; -319.000
261.293;  -68.250; -576.000; -595.000
261.435;  -34.200; -219.000; -184.000
261.576;  -46.850; -455.000; -325.000
261.718;   45.900;  420.000;  470.000
261.859; -106.925; -940.000; -949.000
262.000; -127.825; -951.000;-1016.000
262.142;  -23.225;  -52.000;  -60.000
262.283; -111.500; -808.000; -691.000
262.424;  -84.000; -666.000; -625.000
262.566; -137.900;-1161.000; -983.000
262.707; -113.900; -840.000; -830.000
262.848; -119.125; -769.000; -726.000
262.990;  -43.400; -362.000; -345.000
263.131;   81.575;  650.000;  681.000
263.272;  -10.525;  -61.000;  -41.000
263.413;  -93.925; -589.000; -561.000
263.555;  -68.100; -669.000; -143.000
263.696;  -80.875; -550.000; -641.000
263.837;  -59.800; -449.000; -551.000
263.978;    3.025;   -5.000;  -77.000
264.119;  -34.800; -283.000; -264.000
264.261; -112.200; -847.000; -630.000
264.402;   -8.950;   33.000;   40.000
264.543;  -78.725; -509.000; -524.000
264.684;   -8.225;   61.000;  -50.000
264.825;  -75.000; -816.000; -538.000
264.966;    2.750;  -84.000;  -67.000
265.107;  -99.425; -646.000; -670.000
265.248; -102.600; -825.000; -812.000
265.390;  -15.325;  152.000;   -9.000
265.531;  -17.400; -238.000; -107.000
265.672;  -83.375; -557.000; -630.000
265.813;   66.975;  563.000;  439.000
265.954; -140.275; -959.000; -940.000
266.095;  -19.775; -372.000; -322.000
266.236; -104.575; -686.000; -548.000
266.377;  -29.425; -243.000; -297.000
266.518;  -68.825; -619.000; -547.000
266.659;   27.600;  170.000;  268.000
266.800;  -16.400;   83.000;   85.000
266.941;  -72.400; -487.000; -478.000
267.082;    9.525;  354.000;   99.000
267.223;  -46.800; -344.000; -273.000
267.364; -110.250; -892.000; -686.000
267.504;   -2.300;    3.000;  135.000
267.645;    8.725;  160.000;   67.000
267.786;  -31.550; -147.000;  -86.000
267.927;  -75.950; -473.000; -379.000
268.068;  -11.100; -186.000;  -61.000
268.209;  -46.750; -175.000; -413.000
268.350;  -58.475; -388.000; -532.000
268.490;  -77.975; -648.000; -521.000
268.631;   41.500;  127.000;  225.000
268.772;  -98.875; -874.000; -647.000
268.913;  -55.975; -328.000; -476.000
269.054;  -29.125; -117.000;   12.000
269.194;  -40.475; -418.000; -402.000
269.335; -155.950;-1137.000;-1074.000
269.476;  -12.775;   33.000;  -35.000
269.617;  -47.100; -347.000; -392.000
269.757;  -97.550; -713.000; -646.000
269.898; -111.975; -856.000; -613.000
270.039;  -56.450; -415.000; -405.000
270.180; -135.725; -952.000; -816.000
270.320;  -28.025; -190.000; -250.000
270.461;  -43.500; -277.000; -249.000
270.602;  -17.150; -186.000; -156.000
270.742; -119.725; -868.000; -943.000
270.883;  -41.075; -442.000; -390.000
271.023;  -60.100; -358.000; -357.000
271.164;  -66.450; -607.000; -528.000
271.305; -102.450; -666.000; -654.000
271.445;  -81.150; -722.000; -683.000
271.586;  -72.925; -462.000; -283.000
271.726;  -45.825; -397.000; -322.000
271.867;  -63.150; -594.000; -534.000
272.008;   77.275; -473.000; -285.000
272.148;   82.175;  462.000;  468.000
272.289;   -8.975; -113.000; -181.000
272.429;    6.425;   19.000;  185.000
272.570;  -86.125; -633.000; -737.000
272.710; -102.425; -825.000; -775.000
272.851;  -30.025;  113.000; -130.000
272.991; -157.150;-1173.000;-1077.000
273.131;  -60.925; -419.000; -459.000
273.272; -108.625; -683.000; -723.000
273.412;  -10.825; -143.000;  -31.000
273.553;  -58.150; -488.000; -507.000
273.693;  121.200;  913.000;  858.000
273.834; -121.300; -894.000; -692.000
273.974;  -78.150; -664.000; -615.000
274.114;  -98.800; -772.000; -560.000
274.255;   49.300;  414.000;  373.000
274.395;  -36.325; -180.000; -125.000
274.535;   35.875;  199.000;  350.000
274.676;   25.525;  225.000;   94.000
274.816;   -7.850;  110.000;   34.000
274.956;  -94.150; -624.000; -690.000
275.097;  -88.275;-1014.000; -922.000
275.237; -111.550; -913.000; -803.000
275.377;  -90.650; -778.000; -689.000
275.517; -157.050; -878.000; -937.000
275.658;  -48.325; -590.000; -555.000
275.798;  -77.450; -606.000; -413.000
275.938;   20.075;  215.000;  323.000
276.078;  -79.275; -626.000; -395.000
276.218;   15.025;   99.000;  104.000
276.359; -145.750;-1026.000;-1024.000
276.499;  -71.100; -605.000; -446.000
276.639;  -30.975; -305.000; -151.000
276.779;  -41.900; -475.000; -357.000
276.919; -118.425; -783.000; -624.000
277.059;  -20.475; -261.000; -212.000
277.199;  -44.600; -357.000; -259.000
277.340;   29.775;  287.000;  175.000
277.480; -108.925; -840.000; -693.000
277.620;   23.750;  192.000;   16.000
277.760; -191.725;-1533.000;-1294.000
277.900;   -9.400;  113.000;   33.000
278.040;    2.425;  137.000;  159.000
278.180;   21.575;  270.000;  170.000
278.320;  -11.950;   21.000;   56.000
278.460;  -60.675; -443.000; -469.000
278.600;  -94.975; -708.000; -598.000
278.740;   43.350;  448.000;  224.000
278.880; -104.100; -768.000; -791.000
279.020;  -27.200; -194.000; -144.000
279.160;  -89.800; -672.000; -595.000
279.300; -101.100; -926.000; -873.000
279.440;  -99.425; -709.000; -622.000
279.579;  -72.800;-1014.000; -929.000
279.719;  -75.400; -410.000; -394.000
279.859;   57.325;   -4.000;   41.000
279.999;   -7.325; -208.000;  101.000
280.139;  -35.925; -435.000; -387.000
280.279;  -90.200; -708.000; -745.000
280.419;  -25.925; -229.000; -147.000
280.559;  -36.150; -259.000; -180.000
280.698;  -83.525; -790.000; -639.000
280.838; -107.850; -778.000; -800.000
280.978;  -95.550; -846.000; -790.000
281.118; -117.725; -811.000; -704.000
281.257;   24.525;   24.000;    6.000
281.397; -152.900;-1094.000; -960.000
281.537;  -82.375; -599.000; -712.000
281.677;  -25.750; -150.000; -101.000
281.816;  -82.975; -700.000; -630.000
281.956;  -19.575; -193.000; -257.000
282.096;  -63.200; -539.000; -396.000
282.235;  -98.700; -672.000; -638.000
282.375;  -12.875; -243.000;  -98.000
282.515;  -97.325; -715.000; -707.000
282.654;   20.925;   29.000;  106.000
282.794;   20.550;  388.000;  244.000
282.934;  -42.875; -530.000; -491.000
283.073; -129.425;-1030.000; -857.000
283.213;  -43.600; -460.000; -467.000
283.353;  -43.425; -408.000; -349.000
283.492;  -25.625; -264.000; -296.000
283.632;  -54.925; -254.000; -168.000
283.771; -101.500; -859.000; -730.000
283.911;  -51.925; -369.000; -260.000
284.050;  -98.275; -794.000; -748.000
284.190; -154.300;-1229.000;-1096.000
284.329; -121.300;-1055.000; -964.000
284.469;  -72.400; -516.000; -591.000
284.608;  -55.025; -559.000; -598.000
284.748;  -70.725; -614.000; -570.000
284.887;   -7.500;  -87.000;  -20.000
285.027; -117.350; -844.000; -892.000
285.166;  -40.225; -192.000; -249.000
285.306;   -4.475; -116.000;  -33.000
285.445;  -36.025; -229.000; -343.000
285.584;  -74.025; -630.000; -494.000
285.724;  -37.300; -282.000; -322.000
285.863; -106.375; -857.000; -507.000
286.002;  -35.425; -366.000; -276.000
286.142; -106.350; -715.000; -622.000
286.281;  -68.675; -525.000; -493.000
286.420;  -76.700; -554.000; -417.000
286.560;   97.025;  653.000;  623.000
286.699; -134.825; -958.000; -912.000
286.838;  -73.150; -590.000; -591.000
286.978;  -90.450; -533.000; -537.000
287.117; -118.525;-1085.000; -950.000
287.256;  -38.250; -228.000; -211.000
287.395;  -42.000; -197.000; -378.000
287.535;  -55.875; -370.000; -298.000
287.674;  -70.800; -509.000; -484.000
287.813;   44.825;  661.000;  533.000
287.952; -125.075;-1010.000; -871.000
288.091; -141.025;-1049.000; -915.000
288.231;    4.825;   13.000;   15.000
288.370; -170.625;-1217.000;-1200.000
288.509;  -77.400; -728.000; -645.000
288.648;  -88.550; -770.000; -548.000
288.787;  -36.500; -243.000;  -87.000
288.926;  -63.100; -454.000; -475.000
289.065;  106.175;  859.000;  672.000
289.204;  -52.950; -377.000; -217.000
289.344;  -80.325; -791.000; -690.000
289.483;   21.525;  416.000;  304.000
289.622;  -31.900; -291.000; -149.000
289.761;  -16.500; -309.000; -166.000
289.900; -103.775; -785.000; -626.000
290.039;  -14.225;  -12.000;  -95.000
290.178;  -35.675; -274.000; -180.000
290.317;  -87.850; -618.000; -479.000
290.456;  -73.925; -463.000; -451.000
290.595; -128.950; -961.000; -833.000
290.734; -130.825; -904.000; -891.000
290.873;  -76.975; -456.000; -420.000
291.011;  -96.125; -833.000; -843.000
291.150; -118.425; -770.000; -682.000
291.289;  -33.925; -343.000; -110.000
291.428;  -99.300; -599.000; -480.000
291.567;  -45.950; -370.000; -442.000
291.706;   -6.175;  109.000;  154.000
291.845;  -79.200; -597.000; -505.000
291.984; -163.450;-1234.000;-1061.000
292.122;   80.050;  602.000;  582.000
292.261;   30.650;  620.000;  463.000
292.400;    6.850; -144.000;  211.000
292.539; -128.400; -959.000; -813.000
292.678;  -25.925; -325.000; -300.000
292.816; -157.375;-1136.000; -965.000
292.955;  -98.175; -844.000; -684.000
293.094;  -25.775; -173.000; -337.000
293.233;  -38.800; -556.000; -400.000
293.371;  -44.525; -225.000;  -84.000
293.510;  -98.425; -866.000; -780.000
293.649; -138.975; -959.000; -924.000
293.787; -100.250;-1083.000;-1012.000
293.926;  -18.900; -113.000;  -32.000
294.065;  -47.450; -379.000; -290.000
294.203;   38.750;  298.000;  406.000
294.342;   28.425;   74.000;  156.000
294.481; 6648.725;51180.000; -836.000
294.619;  -15.250; -425.000; -582.000
294.758; -162.150;-1230.000;-1137.000
294.896;   19.275; -125.000;    5.000
295.035; -142.300;-1040.000;-1006.000
295.174; -108.250;-1082.000; -954.000
295.312;  -53.600; -323.000; -203.000
295.451;  -38.475; -307.000; -428.000
295.589;  -69.200; -389.000; -518.000
295.728;   21.600; -292.000; -165.000
295.866;  -12.225;  -36.000;  -51.000
296.005;  -64.700; -584.000; -341.000
296.143;  -81.350; -558.000; -596.000
296.282;  -96.650; -957.000; -881.000
296.420;  -85.650; -657.000; -557.000
296.559;  -71.725; -892.000; -633.000
296.697;  -67.275; -847.000; -665.000
296.835;  -68.400;-1141.000;-1002.000
296.974;   22.425;  -23.000;   39.000
297.112;   -7.150; -443.000; -504.000
297.251;  -86.050; -815.000; -755.000
297.389;    0.750; -576.000; -438.000
297.527;    6.675; -145.000;  -83.000
297.666;  -47.325; -486.000; -438.000
297.804;  -53.475; -404.000; -264.000
297.942;   -9.325; -136.000; -161.000
298.081;   -7.900; -183.000;   63.000
298.219;   30.525;  -17.000;  -19.000
298.357;  -17.325; -144.000;  -71.000
298.495;  -47.750; -810.000; -812.000
298.634;   19.000;  245.000;  219.000
298.772;  -10.775; -220.000; -338.000
298.910;  -34.600; -309.000; -182.000
299.048;  -10.925; -130.000; -153.000
299.187;  -55.000; -350.000; -250.000
299.325;   -1.450;   52.000;  122.000
299.463;  -17.300; -389.000; -299.000
299.601;   18.050; -327.000; -271.000
299.739; -138.725; -908.000; -883.000
299.877;  -78.825; -791.000; -703.000
300.016;  -93.900;-1095.000; -935.000
300.154;   51.450;  -19.000; -161.000
300.292;  -26.250; -428.000; -348.000
300.430;  -22.200; -408.000; -291.000
300.568; -130.175; -940.000; -874.000
300.706;  -51.250; -366.000; -469.000
300.844; -115.475;-1108.000; -979.000
300.982;   71.075;  246.000;  282.000
301.120; -119.175; -965.000; -866.000
301.258;  -70.225; -812.000; -705.000
301.396;    5.650;  104.000;  -41.000
301.534;   -1.575; -218.000; -293.000
301.672;  -77.575; -664.000; -521.000
301.810;  -46.975; -613.000; -545.000
301.948;   21.550;   53.000;  149.000
302.086;  248.650; -250.000;  -32.000
302.224;  282.075; -610.000; -585.000
302.362;  -32.575; -558.000; -622.000
302.500;  -93.525; -923.000; -893.000
302.638;   43.075;  128.000;  245.000
302.776;  -29.725; -352.000; -408.000
302.913;   37.600;  447.000;  236.000
303.051;  -33.350;  -86.000;  -23.000
303.189;    6.300;   90.000;  118.000
303.327;  -45.275; -341.000; -256.000
303.465;  -81.025; -832.000; -588.000
303.603; -100.375; -805.000; -604.000
303.740;   57.275;  417.000;  241.000
303.878;  -59.825; -800.000; -759.000
304.016;  -92.375; -915.000; -790.000
304.154; -149.975;-1123.000;-1152.000
304.291;  -49.675; -505.000; -554.000
304.429;  -10.725;  102.000;   74.000
304.567; -124.225; -908.000; -893.000
304.705;  -55.700; -408.000; -515.000
304.842;   -5.250; -616.000; -540.000
304.980;   17.025;  215.000;   35.000
305.118;   -9.650; -367.000; -365.000
305.255; -117.450; -945.000; -927.000
305.393;   38.050;  178.000;  239.000
305.531; -121.725;-1173.000; -956.000
305.668;  -73.275; -663.000; -582.000
305.806;    9.800; -358.000; -439.000
305.943;    5.400; -629.000; -637.000
306.081;   -1.275; -378.000; -267.000
306.219;  -82.250; -863.000; -748.000
306.356;   11.375;  158.000;   27.000
306.494;  115.200;  981.000;  761.000
306.631;    1.225;  -11.000;  -55.000
306.769;  -20.275; -613.000; -485.000
306.906;  -30.350; -284.000; -258.000
307.044;  -46.975; -473.000; -488.000
307.181;  -56.650; -410.000; -332.000
307.319;   19.075;  112.000;   87.000
307.456; -171.300;-1191.000;-1153.000
307.594; -102.025; -980.000; -727.000
307.731;  -33.775; -371.000; -164.000
307.868;    5.500;  -15.000;   20.000
308.006; -124.950; -961.000; -847.000
308.143;  -68.975; -618.000; -330.000
308.281;   58.400;  -37.000; -254.000
308.418;  -45.400; -748.000; -640.000
308.555;  -60.675; -400.000; -250.000
308.693;  -55.050; -577.000; -573.000
308.830;  -94.700; -712.000; -657.000
308.967;  -11.400; -215.000;  -95.000
309.105;  -29.700; -507.000; -396.000
309.242;    8.425; -468.000; -367.000
309.379;   69.725; -577.000; -655.000
309.517;  -87.700; -936.000; -948.000
309.654;  -96.325; -910.000; -734.000
309.791;  -67.275; -662.000; -580.000
309.928; -103.950; -977.000; -914.000
310.065;  152.425;  819.000;  697.000
310.203;  -64.225; -825.000; -850.000
310.340;  -29.700; -465.000; -321.000
310.477;  -71.625; -412.000; -516.000
310.614;  -46.600; -383.000; -473.000
310.751;  -68.950; -427.000; -518.000
310.889;   -6.975;    1.000;   11.000
311.026; -130.825;-1161.000; -939.000
311.163;  -41.925; -386.000; -380.000
311.300;  -62.900; -512.000; -479.000
311.437;  -59.725; -658.000; -619.000
311.574; -146.000;-1226.000; -985.000
311.711;  -42.975; -595.000; -433.000
311.848;  -49.600; -380.000; -388.000
311.985;   34.150;  270.000;   93.000
312.122; -105.850; -932.000; -762.000
312.259;  -89.900; -941.000; -994.000
312.396;  -69.025; -508.000; -551.000
312.533;  -73.675; -812.000; -790.000
312.670; -118.700;-1070.000; -898.000
312.807;  -21.875; -352.000; -367.000
312.944;  -72.150; -513.000; -611.000
313.081;   -3.775; -150.000; -415.000
313.218;  -90.200;-1111.000; -867.000
313.355;  -15.775; -531.000; -449.000
313.492;  -11.700; -455.000; -292.000
313.629;  140.050;  815.000;  735.000
313.766; -144.450;-1176.000;-1008.000
313.902;  -10.575; -186.000;   21.000
314.039;  -50.925; -372.000; -289.000
314.176;   32.800;  286.000;  192.000
314.313;  -69.625; -569.000; -473.000
314.450;  -61.075; -788.000; -684.000
314.587;  -54.125; -468.000; -480.000
314.723;   11.400;  -78.000;  130.000
314.860;   44.025;  318.000;  332.000
314.997;   51.025;  223.000;  142.000
315.134;  -15.775; -385.000; -368.000
315.270;   -8.825; -480.000; -496.000
315.407; -105.525;-1094.000; -967.000
315.544;  -36.650; -657.000; -538.000
315.681;  -47.500; -681.000; -565.000
315.817;   64.625; -133.000; -176.000
315.954;   73.375; -613.000; -392.000
316.091;  -97.400;-1045.000;-1023.000
316.227;  -24.425;  -71.000; -179.000
316.364;   -4.000;   23.000;    6.000
316.500;  -47.075; -113.000; -300.000
316.637;  -36.075; -181.000; -302.000
316.774;  -88.925; -625.000; -358.000
316.910;  -76.550; -598.000; -629.000
317.047;  -63.075; -487.000; -351.000
317.183;  -46.775; -435.000; -566.000
317.320;   26.900; -367.000; -321.000
317.456;  -41.175; -733.000; -805.000
317.593;  -92.225; -598.000; -641.000
317.729;   13.500;  168.000;  -67.000
317.866; -191.450;-1434.000;-1285.000
318.002;  -83.875; -708.000; -948.000
318.139; -105.075; -883.000; -867.000
318.275; -105.225;-1003.000; -738.000
318.412;  -60.950; -517.000; -336.000
318.548;  -67.550; -751.000; -720.000
318.685; -108.425; -985.000; -888.000
318.821;  -81.425; -762.000; -735.000
318.957;  -29.075;   34.000;  -23.000
319.094;   32.125;  297.000;  154.000
319.230; -105.550; -756.000; -742.000
319.367;   12.800; -471.000; -520.000
319.503;  -24.325; -538.000; -436.000
319.639;  -81.975; -877.000; -793.000
319.775;  -94.475; -750.000; -685.000
319.912;  -57.150; -424.000; -519.000
320.048; -109.850;-1184.000;-1184.000
320.184;   82.975;   59.000;   70.000
320.321;  -57.000; -497.000; -467.000
320.457;   69.775;  475.000;  662.000
320.593;  -78.600; -375.000; -382.000
320.729;  -93.525; -732.000; -734.000
320.866;  -57.525; -577.000; -635.000
321.002;  -87.325; -759.000; -809.000
321.138;  -30.375; -135.000; -211.000
321.274;   17.950; -148.000; -115.000
321.410;  -54.975; -585.000; -353.000
321.546; -100.550;-1011.000; -911.000
321.683;   20.000;  400.000;  185.000
321.819;  -18.400;  -48.000; -117.000
321.955; -121.875; -743.000; -722.000
322.091;  -65.625; -585.000; -540.000
322.227;  -49.225; -382.000; -202.000
322.363;  -31.200; -320.000; -215.000
322.499;  -44.300; -343.000; -331.000
322.635;  114.600;  636.000;  443.000
322.771;   -8.525; -139.000;   12.000
322.907;   54.200;  129.000;  327.000
323.043;  -46.425; -115.000; -206.000
323.179;  -40.025; -394.000; -363.000
323.315;  -45.400; -401.000; -371.000
323.451;   23.200; -328.000; -236.000
323.587;   37.025;  -60.000;  -77.000
323.723;  -24.150; -682.000; -601.000
323.859;  -19.550; -258.000;  -76.000
323.995;  -49.350; -467.000; -409.000
324.131; -120.450; -967.000; -892.000
324.267;  -32.550; -254.000; -276.000
324.402; -140.850; -960.000; -983.000
324.538;  -28.900; -279.000; -104.000
324.674;  -18.700;  164.000;   77.000
324.810;   59.750;  226.000;  308.000
324.946;  -35.675; -810.000; -658.000
325.082;  -71.000; -568.000; -475.000
325.217;  -15.775;  -62.000;   16.000
325.353; -102.150; -764.000; -659.000
325.489;  -86.625; -540.000; -506.000
325.625;  -51.500; -579.000; -525.000
325.760;   79.475;  517.000;  376.000
325.896;   15.025; -515.000; -702.000
326.032;  -57.925; -403.000; -352.000
326.168;  -57.825; -462.000; -369.000
326.303;  -66.800; -352.000; -461.000
326.439;   -1.100; -336.000; -276.000
326.575;   -6.300; -190.000;  -29.000
326.710;  -18.575; -156.000;  -30.000
326.846;  -18.550;  146.000;  103.000
326.982;  -95.500; -530.000; -548.000
327.117;  -77.850; -481.000; -442.000
327.253;  -76.875; -745.000; -742.000
327.388; -166.650;-1137.000;-1153.000
327.524;  -68.825; -811.000; -578.000
327.659;  -34.300;  -58.000;  -22.000
327.795;  -13.075;   69.000;   45.000
327.931;  -67.175; -723.000; -499.000
328.066;  -26.025; -417.000; -276.000
328.202;   -9.075;   12.000; -129.000
328.337;   92.150;  957.000;  713.000
328.473;   28.225;  -12.000;  -74.000
328.608;  -11.150; -256.000; -267.000
328.743; -100.025; -799.000; -664.000
328.879;   12.675;  214.000;  114.000
329.014;  -43.125; -102.000; -122.000
329.150;  -63.475; -358.000; -483.000
329.285;  -98.275; -465.000; -466.000
329.421;  -44.350; -548.000; -246.000
329.556;  -26.675;  -36.000;   85.000
329.691;  -84.950; -633.000; -615.000
329.827;  -86.450; -626.000; -480.000
329.962;  -30.975;  131.000; -301.000
330.097;  -70.325; -673.000; -585.000
330.233;  -50.500; -410.000; -223.000
330.368; -116.900; -839.000; -628.000
330.503;  -16.300;    3.000;   98.000
330.638;  -23.175;  -93.000; -125.000
330.774;  -78.650; -609.000; -530.000
330.909;  -48.200; -434.000; -244.000
331.044;  -88.950; -714.000; -708.000
331.179; -154.450;-1217.000;-1109.000
331.315;   -0.450;   77.000;   20.000
331.450;   12.800;  157.000;  285.000
331.585;  -93.100; -805.000; -706.000
331.720;  -89.775; -510.000; -460.000
331.855;   -6.025;  -35.000; -102.000
331.990;  412.025;   62.000;  138.000
332.126;  208.475; -110.000;   71.000
332.261;    1.800; -379.000; -265.000
332.396;   33.850; -135.000; -242.000
332.531;  -61.650;-1074.000;-1031.000
332.666;   95.750; -519.000; -363.000
332.801;  -92.150; -726.000; -807.000
332.936;  -22.275; -192.000; -122.000
333.071; -127.175; -870.000; -817.000
333.206;   32.375;  307.000;  379.000
333.341;   23.025;  344.000;  418.000
333.476;  -81.250; -627.000; -623.000
333.611;  -39.425; -251.000; -173.000
333.746;  -38.875; -381.000; -464.000
333.881; -114.050; -973.000; -935.000
334.016; -108.050; -936.000; -917.000
334.151; -113.550; -746.000; -702.000
334.286;   21.275;  152.000;  186.000
334.421;   -5.350; -125.000; -178.000
334.556;  -68.325; -611.000; -567.000
334.690;  -80.925; -631.000; -577.000
334.825;   59.950;  381.000;   83.000
334.960;  -47.975; -285.000; -413.000
335.095;   12.925;  135.000;  -91.000
335.230;  -70.375; -722.000; -738.000
335.365;  -94.700;-1084.000; -990.000
335.499; -106.725;-1108.000;-1037.000
335.634;   38.875;    9.000;  534.000
335.769;  -70.950; -755.000; -720.000
335.904;  -26.850; -603.000; -561.000
336.038;  -13.175; -735.000; -657.000
336.173;  -78.850;-1206.000;-1194.000
336.308;   38.300; -116.000; -189.000
336.443;   92.800; -544.000; -634.000
336.577;  -26.450; -936.000; -787.000
336.712;  126.775;   -4.000;  -12.000
336.847;    3.550; -724.000; -607.000
336.981;   99.200; -272.000; -208.000
337.116;  367.125;  615.000;  501.000
337.250;  191.500; -434.000; -421.000
337.385;  454.200; -297.000; -208.000
337.520;  206.650; -632.000; -603.000
337.654;  -34.400; -215.000; -126.000
337.789; -117.275; -989.000; -933.000
337.923;  -44.700; -104.000; -205.000
338.058; -101.225; -673.000; -738.000
338.192;  -65.325; -611.000; -488.000
338.327;  -12.400;  -18.000; -155.000
338.461;  -64.700; -299.000; -469.000
338.596;  -83.975; -780.000; -638.000
338.730;  -94.750; -767.000; -803.000
338.865;  164.600;  -46.000; -140.000
338.999;   13.300; -846.000; -702.000
339.134;    4.675; -634.000; -536.000
339.268;   33.650; -741.000; -603.000
339.403;  580.250; -740.000; -775.000
339.537;  259.250; -894.000; -820.000
339.671;  -88.600; -829.000; -813.000
339.806;  -31.400; -556.000; -512.000
339.940;   36.675; -261.000; -235.000
340.074;  -93.700; -685.000; -510.000
340.209;  -42.525; -351.000; -230.000
340.343;  -91.100; -517.000; -573.000
340.477;  138.400;  998.000; 1036.000
340.612;   -1.100;-1033.000; -900.000
340.746;  227.650; -199.000; -243.000
340.880;  -97.050; -924.000; -785.000
341.014;  -15.850;  -45.000; -154.000
341.149; -119.850; -756.000; -718.000
341.283; -124.275; -839.000; -754.000
341.417; -137.975;-1124.000; -938.000
341.551;   -9.825; -768.000; -708.000
341.685;  -58.400; -633.000; -611.000
341.820;  -38.875; -562.000; -493.000
341.954;  -46.525; -218.000; -349.000
342.088; -146.550;-1102.000;-1019.000
342.222;   42.500;  565.000;  618.000
342.356;  -68.475; -395.000; -335.000
342.490; -126.975; -880.000; -841.000
342.624;  -61.575; -339.000; -242.000
342.758;  -42.150; -364.000; -312.000
342.892;  -86.300; -710.000; -585.000
343.026;  -39.600;  -58.000; -116.000
343.160;  -64.800; -426.000; -376.000
343.294;  -85.925; -474.000; -337.000
343.428;  -66.575; -488.000; -448.000
343.562;  -45.375; -172.000;  -23.000
343.696;  -48.925; -385.000; -314.000
343.830;  -49.800; -362.000; -356.000
343.964;  -19.825; -231.000; -168.000
344.098;  357.400;  199.000;   70.000
344.232;  308.650; -266.000; -127.000
344.366;   67.075; -567.000; -453.000
344.500;  -31.650; -665.000; -744.000
344.634;  -24.925; -324.000; -164.000
344.768;  -65.575; -531.000; -341.000
344.902;   -3.650;  278.000;  256.000
345.035;  -81.975; -556.000; -496.000
345.169; -137.625; -933.000; -656.000
345.303;  -47.475; -308.000; -482.000
345.437; -109.875; -826.000; -717.000
345.571;  -67.600; -675.000; -594.000
345.704;  -64.475; -309.000; -532.000
345.838;  -14.200; -331.000; -284.000
345.972;  -49.775; -543.000; -495.000
346.106;  248.675; -179.000; -190.000
346.239;  487.425; -312.000; -243.000
346.373;   -6.200; -343.000; -302.000
346.507; -138.875; -950.000; -962.000
346.640;   39.425;  -30.000;   13.000
346.774;  -87.725; -650.000; -797.000
346.908;  -14.825; -138.000;  -11.000
347.041;  -95.725; -646.000; -593.000
347.175;    7.925;  259.000;   27.000
347.309;  -95.400; -698.000; -628.000
347.442; -107.175; -883.000; -732.000
347.576;  134.025;  670.000;  668.000
347.709;   71.625; -123.000;  -52.000
347.843; -111.700; -933.000; -825.000
347.976;   29.275;  235.000;  294.000
348.110; -177.250;-1268.000;-1186.000
348.243; -107.100; -679.000; -772.000
348.377;   -7.100;  -26.000;   60.000
348.510;   55.200;  403.000;  540.000
348.644;  -52.400;  -37.000; -159.000
348.777;    1.400;  180.000;  191.000
348.911;  -51.175; -142.000; -112.000
349.044;   88.275;  471.000;  448.000
349.178;  -10.825;-1069.000;-1006.000
349.311;  103.100;  141.000;  255.000
349.444;   28.150; -927.000; -813.000
349.578;  -23.375; -347.000; -200.000
349.711; -130.575; -959.000; -862.000
349.845;  -58.075; -661.000; -591.000
349.978; -153.750;-1224.000;-1137.000
350.111;  -69.125; -546.000; -612.000
350.244;  -97.625; -596.000; -700.000
350.378;  -40.025; -392.000; -393.000
350.511;  -83.500; -393.000; -426.000
350.644; -105.450; -808.000; -806.000
350.778;    8.875;  168.000;  104.000
350.911;   -3.575;  134.000;  140.000
351.044; -108.125; -685.000; -615.000
351.177;  -44.625; -321.000; -281.000
351.310;  -22.575;    3.000; -131.000
351.444; -106.125; -888.000; -788.000
351.577;   49.550;  140.000;   90.000
351.710;   80.275;  593.000;  417.000
351.843;  -49.175; -165.000;  -77.000
351.976;    5.150;  149.000;  -79.000
352.109; -101.975; -621.000; -612.000
352.242;  -47.050; -464.000; -419.000
352.376;  -77.275; -580.000; -636.000
352.509;   49.425; -437.000; -356.000
352.642;  -82.975; -654.000; -604.000
352.775;   18.700; -141.000;  -98.000
352.908; -110.425; -933.000; -904.000
353.041; -103.225; -814.000; -824.000
353.174;  -60.000; -551.000; -424.000
353.307;  -76.300; -753.000; -764.000
353.440;   82.675;  541.000;  453.000
353.573;  -80.300; -957.000;-1008.000
353.706;  -40.600; -384.000; -558.000
353.839;  -25.600; -264.000; -220.000
353.971;  -90.325; -657.000; -512.000
354.104;  -88.925; -896.000; -835.000
354.237;  -76.950; -627.000; -662.000
354.370;  -86.625; -846.000; -879.000
354.503; -171.475;-1231.000;-1308.000
354.636;   -6.525; -529.000; -348.000
354.769; -126.900; -937.000; -860.000
354.902;  -19.575; -230.000; -139.000
355.034;  -20.100; -164.000; -220.000
355.167;   14.700; -262.000; -162.000
355.300;  -62.125;-1061.000; -880.000
355.433; 1450.525;  -71.000;  -14.000
355.565; 2245.325; -402.000; -384.000
355.698;  586.800; -356.000; -296.000
355.831;    0.700; -882.000; -801.000
355.964;   51.025; -285.000; -170.000
356.096;  -70.500; -856.000; -843.000
356.229;    6.100; -523.000; -530.000
356.362;  518.450; -373.000; -266.000
356.494;  895.775; -229.000; -162.000
356.627;  362.650;  269.000;  377.000
356.760;  895.300;  120.000;   53.000
356.892; 1505.225; -286.000; -601.000
357.025;  380.450;  403.000;  389.000
357.157;  274.950; -167.000; -179.000
357.290; 1160.025; -856.000; -713.000
357.423;  368.000; -667.000; -556.000
357.555;  138.850; -217.000; -228.000
357.688;  181.425; -483.000; -364.000
357.820;  221.175; -870.000; -877.000
357.953; 1729.425; -563.000; -589.000
358.085;  291.925; -632.000; -612.000
358.218;  194.550;-1131.000; -932.000
358.350;   58.500;  -58.000;  312.000
358.483; -156.025;-1300.000;-1187.000
358.615; -112.250;-1182.000;-1078.000
358.747; -140.225;-1187.000;-1058.000
358.880;  -35.875; -810.000; -744.000
359.012;  -32.850; -376.000; -202.000
359.145;  -52.425; -480.000; -511.000
359.277;  -44.825; -962.000; -913.000
359.409; 1443.850;  536.000;  231.000
359.542;  323.500; -738.000; -688.000
359.674;   27.275;   46.000;   13.000
359.806;  -81.450; -565.000; -438.000
359.939;  -41.025; -617.000; -516.000
360.071;   18.100; -583.000; -579.000
360.203;  -20.425; -411.000; -364.000
360.335;   28.450;  164.000;  -16.000
360.468;  104.625; -249.000; -307.000
360.600; 1455.000; -547.000; -454.000
360.732; 4124.950; -546.000; -423.000
360.864;  608.625;-1216.000;-1044.000
360.996;   90.375; -516.000; -554.000
361.129;  -39.025; -389.000; -598.000
361.261;   -4.500;  110.000; -113.000
361.393;  -54.600; -252.000; -214.000
361.525;   17.525;   94.000;  244.000
361.657; -102.625; -821.000; -703.000
361.789;  -25.425; -139.000; -155.000
361.921;  -21.850; -642.000; -593.000
362.053;  105.375;  524.000;  541.000
362.185;    8.800;  288.000;   72.000
362.318; -102.125; -709.000; -705.000
362.450;   50.525;  294.000;  444.000
362.582;  -68.575; -913.000; -870.000
362.714;  -61.000; -353.000; -332.000
362.846;  -71.850; -606.000; -490.000
362.978; -148.525; -941.000; -811.000
363.109;  -35.450; -161.000; -260.000
363.241;  158.225; -739.000; -749.000
363.373;  627.400; -649.000; -564.000
363.505; 1019.275; -186.000;  -91.000
363.637;  230.125; -787.000; -601.000
363.769; -130.000;-1067.000;-1080.000
363.901;  -87.350; -596.000; -654.000
364.033; -157.925;-1103.000;-1062.000
364.165;  -27.000; -283.000; -283.000
364.296;  100.225; -316.000; -177.000
364.428;  193.175;-1344.000;-1220.000
364.560;  -63.375; -679.000; -661.000
364.692;  -83.350; -738.000; -835.000
364.824;   12.025; -588.000; -456.000
364.955;  473.625; -402.000; -564.000
365.087; 1603.375;-1097.000; -852.000
365.219;  100.150; -686.000; -816.000
365.351;  -69.200; -526.000; -572.000
365.482;   35.250;  300.000;  240.000
365.614;  -61.225; -402.000; -314.000
365.746;  -85.100; -729.000; -752.000
365.877;  -94.800; -706.000; -672.000
366.009;  426.725;  -35.000;  -62.000
366.141;  -34.175;-1249.000;-1134.000
366.272; -104.750; -803.000; -719.000
366.404; -119.975;-1005.000; -874.000
366.535;  -23.675; -139.000;  -12.000
366.667; -106.650; -644.000; -649.000
366.799;   31.850;  353.000;  203.000
366.930; -136.950; -862.000; -996.000
367.062;  188.175; -639.000; -613.000
367.193;  329.975; -872.000; -842.000
367.325;  -44.225; -580.000; -684.000
367.456;   13.725; -246.000;   31.000
367.588;  268.700; -371.000; -318.000
367.719;   32.700;  -44.000;  -45.000
367.851;  -35.825; -222.000; -241.000
367.982; -107.875; -875.000; -732.000
368.113;    6.500; -475.000; -358.000
368.245; -147.725; -960.000; -841.000
368.376;  -38.000; -254.000; -302.000
368.508;  -54.525; -188.000; -263.000
368.639; -153.125;-1166.000;-1034.000
368.770;  -96.650; -670.000; -589.000
368.902; -113.025; -836.000; -926.000
369.033; -121.325; -906.000; -855.000
369.164;  -29.775; -720.000; -653.000
369.296; -112.700; -452.000; -601.000
369.427;  -34.075; -209.000; -144.000
369.558;  -80.150; -593.000; -377.000
369.689;  -77.950; -721.000; -569.000
369.821; -119.375; -951.000; -845.000
369.952;  -18.850;   42.000; -108.000
370.083;  -54.425; -229.000; -108.000
370.214;  -97.850; -735.000; -650.000
370.345;  -30.100;   65.000;   81.000
370.477; -108.900; -810.000; -790.000
370.608;   51.425; -328.000; -264.000
370.739; -116.875;-1233.000;-1292.000
370.870; -119.125;-1102.000; -923.000
371.001;   -3.375; -378.000; -467.000
371.132;  -94.400; -754.000; -735.000
371.263;  -35.550;  -42.000; -148.000
371.394; -145.875; -841.000; -748.000
371.525;    7.025;  345.000;  225.000
371.657; -125.700; -808.000; -670.000
371.788;   24.125;  103.000;  199.000
371.919;   20.800; -384.000; -304.000
372.050; 1499.950;  -91.000; -156.000
372.181;  456.475; -188.000; -294.000
372.311;  139.625;   42.000; -127.000
372.442;  -44.575; -457.000; -451.000
372.573;  -44.675; -444.000; -340.000
372.704; -140.000;-1008.000; -980.000
372.835;   -1.175; -228.000; -289.000
372.966;  -80.225; -646.000; -554.000
373.097;  -95.100; -575.000; -711.000
373.228;  -90.600; -717.000; -542.000
373.359;  -24.400; -824.000; -536.000
373.490;  224.775; -881.000; -727.000
373.620;  313.650;-1001.000; -803.000
373.751;  647.025; -332.000; -396.000
373.882;  274.575; -663.000; -733.000
374.013;  -18.125; -449.000; -262.000
374.143;  -71.050; -581.000; -659.000
374.274; -121.850; -987.000; -908.000
374.405;   86.100; -388.000; -276.000
374.536;  133.300; -526.000; -387.000
374.666;  378.925; -759.000; -807.000
374.797;   17.475; -817.000; -868.000
374.928;  253.925; -710.000; -560.000
375.058;  237.750; -535.000; -500.000
375.189;   15.000;  -59.000;  -93.000
375.320; -130.175; -928.000;-1034.000
375.450;  -36.325; -625.000; -616.000
375.581;  -29.225; -526.000; -436.000
375.712;  -36.725; -574.000; -250.000
375.842;   37.600; -438.000; -415.000
375.973;   15.825; -554.000; -513.000
376.103;  -94.675; -665.000; -648.000
376.234;  -81.350; -531.000; -552.000
376.364; -115.975; -944.000; -867.000
376.495;  161.375;  925.000;  529.000
376.625;  -76.725; -472.000; -485.000
376.756;  -37.775; -709.000; -678.000
376.886; -137.575;-1178.000;-1026.000
377.017;  150.550;-1048.000;-1061.000
377.147;  632.125; -786.000; -782.000
377.278;   86.300;  174.000;  228.000
377.408; -126.250; -801.000; -815.000
377.538;  -96.500; -707.000; -693.000
377.669;  -85.875; -537.000; -613.000
377.799; -101.900; -645.000; -635.000
377.929;  -92.025; -610.000; -428.000
378.060; -118.750; -781.000; -847.000
378.190;  -26.450; -726.000; -531.000
378.320;  -27.450; -401.000; -406.000
378.451;  -18.525; -131.000;  -22.000
378.581;  -20.175;  -67.000; -110.000
378.711;   99.275; 1035.000;  866.000
378.841;  -45.075; -533.000; -675.000
378.972; -112.100; -871.000; -751.000
379.102;  -51.925; -652.000; -579.000
379.232;  -38.200; -126.000;  -73.000
379.362; -118.825;-1001.000; -885.000
379.492;  -50.425; -373.000; -424.000
379.623;   57.975;    0.000;  111.000
379.753; -110.400;-1107.000; -974.000
379.883;   86.000;   59.000;  156.000
380.013;  -72.250;-1081.000;-1017.000
380.143; -116.450;-1097.000;-1056.000
380.273; -110.000; -985.000; -861.000
380.403;   32.950; -344.000; -257.000
380.533;  -25.825; -651.000; -664.000
380.663;   12.675;  173.000;  128.000
380.793; -151.175;-1027.000;-1074.000
380.923;  -35.550; -103.000;  -34.000
381.053;  -95.900; -613.000; -623.000
381.183;  -36.450; -106.000; -248.000
381.313;  -63.825; -656.000; -470.000
381.443;  -47.350; -692.000; -473.000
381.573;  -22.825; -402.000; -409.000
381.703;  -60.375;-1249.000;-1095.000
381.833; -167.275;-1454.000;-1336.000
381.963;   38.425; -134.000;  -87.000
382.093;  459.325; -925.000; -909.000
382.223;  124.750; -713.000; -602.000
382.353;  -72.450; -801.000; -608.000
382.482;   38.900;-1091.000; -964.000
382.612;  231.975; -872.000; -644.000
382.742;  119.750; -695.000; -622.000
382.872;   -8.175; -565.000; -551.000
383.002;   24.125;  347.000; -132.000
383.131;  -30.550; -226.000; -160.000
383.261;  -35.325; -706.000; -768.000
383.391;  317.575; -552.000; -377.000
383.521; 4912.900;  451.000;  263.000
383.650; 1428.125; -947.000; -904.000
383.780;   34.350; -783.000; -656.000
383.910;   88.375;  880.000;  802.000
384.039;  -56.150; -794.000; -656.000
384.169;  -89.325;-1205.000;-1017.000
384.299;  -83.525; -650.000; -662.000
384.428; -106.925; -764.000; -680.000
384.558;  -51.825; -308.000; -275.000
384.687;  -77.525; -414.000; -334.000
384.817;   -2.075;   75.000;   -2.000
384.947;  -23.450; -234.000; -141.000
385.076;  166.600;  982.000;  912.000
385.206;   50.275;  369.000;  480.000
385.335;  -56.750; -549.000; -417.000
385.465; -105.525; -655.000; -663.000
385.594;   34.225;  -53.000;  -44.000
385.724;   62.525; -868.000; -838.000
385.853;    5.075; -296.000; -270.000
385.982;  443.700; -743.000; -787.000
386.112;  800.275;-1052.000; -871.000
386.241;   20.950; -307.000; -312.000
386.371;  -12.375; -174.000;  -87.000
386.500;  -54.100; -825.000; -789.000
386.629;    0.300; -874.000; -817.000
386.759;   72.675;  -43.000;   68.000
386.888;  -18.850; -170.000; -250.000
387.017; -104.125; -648.000; -620.000
387.147;  -91.625; -771.000; -798.000
387.276;  -59.725; -410.000; -397.000
387.405;  -32.425; -398.000; -342.000
387.535;  -67.600; -452.000; -361.000
387.664;  -62.375; -692.000; -620.000
387.793;  -23.575; -198.000; -113.000
387.922;  170.400;  255.000;  200.000
388.052;  -52.000; -576.000; -423.000
388.181;  -44.275; -342.000; -472.000
388.310;  -87.325; -889.000; -710.000
388.439;  -91.525; -749.000; -742.000
388.568;   44.625;  365.000;  244.000
388.697;  343.225; -756.000; -653.000
388.826;    9.625; -768.000; -666.000
388.956;  -30.675; -285.000; -307.000
389.085;  -62.275; -347.000; -287.000
389.214; -112.350; -842.000; -872.000
389.343;  -76.425; -645.000; -413.000
389.472;  556.175;  126.000;  149.000
389.601;  639.750;   91.000;    0.000
389.730;  -16.175; -568.000; -687.000
389.859;   32.675;  226.000;   46.000
389.988;   50.325; -423.000; -408.000
390.117;   53.625; -168.000; -146.000
390.246;  -47.275; -331.000; -320.000
390.375;  -51.475; -673.000; -626.000
390.504;  -82.725; -703.000; -621.000
390.633; -126.100; -672.000; -726.000
390.761;  -95.575; -732.000; -645.000
390.890;  -31.375;   -4.000; -130.000
391.019;  -63.325; -421.000; -441.000
391.148; -126.225; -826.000; -855.000
391.277;  -82.250; -576.000; -493.000
391.406; -120.750; -821.000; -805.000
391.534;    6.425;  574.000; -301.000
391.663;  -95.450; -583.000; -645.000
391.792;  -90.575; -673.000; -701.000
391.921;  -14.800;   -3.000;   15.000
392.050;    7.600; -287.000; -228.000
392.178; -127.500;-1206.000;-1061.000
392.307;  -29.675; -758.000; -712.000
392.436;  -57.550; -427.000; -641.000
392.564;    1.325;  166.000;   -6.000
392.693; -110.050; -860.000; -682.000
392.822;   32.100; -529.000; -534.000
392.950;  -39.300; -880.000; -714.000
393.079;   86.275; -188.000; -328.000
393.208;  -55.900; -488.000; -511.000
393.336;  -24.875; -170.000; -145.000
393.465;  -65.925; -317.000; -199.000
393.593;    3.125;   62.000;   79.000
393.722; -155.400;-1121.000; -916.000
393.850;  -38.600; -188.000;  -61.000
393.979; -139.250; -926.000; -805.000
394.107;  -53.950; -517.000; -537.000
394.236;  -44.275; -570.000; -507.000
394.364;  117.975;  383.000;  206.000
394.493;   86.950; -911.000; -767.000
394.621;   14.450; -955.000; -916.000
394.750; 1131.125; -873.000; -923.000
394.878; 4428.225; -247.000; -149.000
395.007; 6437.775; -721.000; -807.000
395.135;  565.900; -790.000; -721.000
395.263;  -63.750;-1038.000;-1040.000
395.392;    7.100;  -25.000; -107.000
395.520; -130.675; -818.000; -679.000
395.648; -121.975; -865.000; -915.000
395.777;  -64.675; -366.000; -405.000
395.905;  -77.650; -449.000; -564.000
396.033;  -16.400;  217.000;  172.000
396.162;  153.050; -399.000; -453.000
396.290;  159.650;  -17.000;   -2.000
396.418;  -37.750; -555.000; -514.000
396.546;  -95.675; -571.000; -466.000
396.674; -116.900; -850.000; -878.000
396.803;  -35.125;  -72.000;  -23.000
396.931;   -8.175; -179.000; -199.000
397.059; -121.375;-1026.000; -989.000
397.187; -135.650;-1026.000; -975.000
397.315; -133.700; -884.000; -649.000
397.443;  -95.550; -592.000; -443.000
397.572; -100.350; -578.000; -424.000
397.700;  -80.150; -607.000; -614.000
397.828;  -36.925;  120.000;  -90.000
397.956;  -30.950; -508.000; -478.000
398.084;  -42.275; -767.000; -626.000
398.212;   16.550;  137.000;  124.000
398.340;  -29.925;  -56.000;  159.000
398.468;  -46.100; -390.000; -169.000
398.596; -161.175; -993.000; -953.000
398.724; -123.550; -762.000; -767.000
398.852; -163.575;-1024.000; -976.000
398.980;  -75.250; -560.000; -560.000
399.108;  -96.550; -982.000; -735.000
399.236;   -6.575;   13.000;    8.000
399.363;    7.125;  222.000;  196.000
399.491;  -59.725; -404.000; -398.000
399.619; -100.275; -829.000; -800.000
399.747; -100.325; -859.000; -771.000
399.875;   48.975;  220.000;  234.000
400.003;  -61.900; -359.000; -284.000
400.130;  -97.525; -421.000; -341.000
400.258;  -34.300;  -83.000;   38.000
400.386;  -77.850; -352.000; -168.000
400.514;  -85.725; -526.000; -587.000
400.641; -129.225; -928.000; -802.000
400.769; -161.275; -979.000; -888.000
400.897; -129.425; -838.000; -793.000
401.025;  -39.950; -166.000; -152.000
401.152;  -22.475;  220.000;   38.000
401.280;  -77.100; -430.000; -429.000
401.408; -131.025; -712.000; -576.000
401.535; -105.000; -735.000; -758.000
401.663; -191.925;-1134.000;-1054.000
401.790;  -93.900; -514.000; -525.000
401.918;   27.150;  436.000;  405.000
402.046;  -19.825;  134.000;  122.000
402.173;  -55.025;  -18.000;    7.000
402.301;  -69.800; -519.000; -397.000
402.428;   33.200;  528.000;  383.000
402.556; -156.475;-1188.000; -913.000
402.683;  -47.850;  -20.000;   -1.000
402.811;  -39.500;  -37.000; -206.000
402.938;  -19.550;   20.000;   27.000
403.066;   13.600; -574.000; -558.000
403.193;  118.250;  299.000;  239.000
403.321;   73.925; -396.000; -574.000
403.448;  136.425;   83.000;   27.000
403.575;   47.000;  -90.000;  -46.000
403.703; -110.150; -732.000; -557.000
403.830;  -55.300; -531.000; -496.000
403.957; -133.050;-1117.000;-1023.000
404.085;   33.200;  -61.000; -172.000
404.212;  113.875;  -50.000;   63.000
404.339;  443.650; -566.000; -306.000
404.467; 8921.775; -612.000; -524.000
404.594; 5436.800; -287.000; -227.000
404.721;  954.800; -869.000; -764.000
404.848;  115.525; -113.000; -202.000
404.976; -112.375; -856.000; -783.000
405.103;   -4.575;  -14.000;  -82.000
405.230;    3.575;  190.000;  226.000
405.357;   59.525;  117.000;   44.000
405.484;  413.250;  -49.000;    5.000
405.612;  110.525; -548.000; -563.000
405.739;  -54.175; -488.000; -243.000
405.866;   69.375;  669.000;  385.000
405.993;  -48.600; -398.000; -102.000
406.120; -122.550; -801.000; -887.000
406.247;  -79.325; -323.000; -342.000
406.374;  129.525;  540.000;  629.000
406.501;  -66.175; -632.000; -702.000
406.628;  -95.150; -621.000; -589.000
406.755; -114.500; -803.000; -620.000
406.882;  -60.725; -228.000; -277.000
407.009; -116.025; -719.000; -628.000
407.136;  -41.725; -480.000; -401.000
407.263;  -47.375; -939.000; -829.000
407.390;  -99.300; -692.000; -614.000
407.517; -186.400;-1139.000;-1187.000
407.644;  -67.925; -332.000; -256.000
407.771;  -71.175; -249.000; -287.000
407.898;  -10.450;  168.000;  328.000
408.025;  -82.000; -421.000; -313.000
408.151;  -16.425;   82.000;  153.000
408.278;  -72.125; -267.000; -216.000
408.405; -126.475; -931.000; -899.000
408.532; -107.050; -549.000; -542.000
408.659; -111.300; -677.000; -648.000
408.785; -186.525;-1298.000;-1170.000
408.912;  -63.450; -412.000; -296.000
409.039; -116.700; -610.000; -686.000
409.166; -114.150; -591.000; -555.000
409.292; -111.675; -571.000; -534.000
409.419; -122.950; -665.000; -649.000
409.546;  -82.425; -431.000; -192.000
409.672;  -95.875; -713.000; -545.000
409.799;  -37.175;  -36.000;   34.000
409.926;  -44.850; -180.000; -179.000
410.052; -173.950;-1127.000;-1091.000
410.179;  -75.600; -368.000; -392.000
410.305;  -92.425; -375.000; -493.000
410.432;  -41.025; -220.000; -333.000
410.558;  -88.125; -305.000; -380.000
410.685;  -92.125; -688.000; -431.000
410.812;  -98.425; -409.000; -588.000
410.938; -139.075; -964.000; -808.000
411.065; -104.925; -671.000; -645.000
411.191;  -38.650; -189.000; -174.000
411.317; -135.725; -823.000; -742.000
411.444;  -58.650; -317.000; -246.000
411.570;  -64.200; -339.000; -294.000
411.697; -123.425; -758.000; -752.000
411.823; -173.350; -989.000; -999.000
411.949;  -58.700;  -56.000;   17.000
412.076; -113.775; -539.000; -519.000
412.202; -120.525; -758.000; -757.000
412.329; -139.775; -798.000; -752.000
412.455; -107.725; -821.000; -657.000
412.581;  -36.075;  -15.000;  172.000
412.707;  -74.650; -540.000; -457.000
412.834;   -1.775;  156.000;  219.000
412.960; -105.100; -785.000; -784.000
413.086; -113.925; -743.000; -701.000
413.212;  116.300;  604.000;  578.000
413.339; -100.825; -685.000; -701.000
413.465;  -52.125; -364.000; -310.000
413.591; -121.850; -757.000; -474.000
413.717;  -49.825; -358.000; -366.000
413.843; -144.900; -839.000; -861.000
413.969;  -45.150;  -47.000; -292.000
414.096;  -96.900; -679.000; -679.000
414.222;   -3.800;  -33.000;   85.000
414.348;  -83.500; -652.000; -385.000
414.474;   11.825;   38.000;  -52.000
414.600;  -16.050; -126.000; -144.000
414.726;   11.625;  -96.000;  -55.000
414.852;  -38.700; -365.000; -342.000
414.978;   36.350;  104.000;  -18.000
415.104;   55.525;   38.000;   80.000
415.230;   43.925; -329.000; -330.000
415.356;   71.950; -409.000; -514.000
415.482;  225.900;   13.000;  -35.000
415.608;  387.700; -247.000; -323.000
415.734; 1330.150;   67.000;   38.000
415.860;27812.375; -875.000; -767.000
415.986;22597.400; -685.000; -607.000
416.111; 2098.725; -798.000; -652.000
416.237;  453.775; -424.000; -571.000
416.363; 1668.750; -765.000; -733.000
416.489; 6660.875; -324.000; -251.000
416.615;  901.375; -707.000; -742.000
416.741;   65.025; -677.000; -784.000
416.866;  -64.325; -673.000; -736.000
416.992;  -93.225; -801.000; -818.000
417.118;  -17.850;  -41.000;  -80.000
417.244;  -67.100; -798.000; -531.000
417.369;  -90.800; -801.000; -612.000
417.495;  -12.550; -325.000; -254.000
417.621;  -80.875;-1015.000; -803.000
417.746;   22.275; -579.000; -572.000
417.872;   68.250; -254.000; -144.000
417.998;  126.700; -515.000; -530.000
418.123; 1528.700;-1073.000; -845.000
418.249; 8525.450; -512.000; -601.000
418.374; 1434.275; -916.000; -824.000
418.500;  231.475; -383.000; -482.000
418.626;  156.275;   70.000;  -59.000
418.751;  143.125; -549.000; -448.000
418.877;  304.875; -637.000; -643.000
419.002; 2542.975; -688.000; -560.000
419.128;19324.450; -930.000; -721.000
419.253; 5354.575; -967.000; -837.000
419.379;  744.100; -391.000; -338.000
419.504;  590.400;  325.000;  415.000
419.629;  814.150; -393.000; -212.000
419.755; 5288.375; -317.000; -254.000
419.880;34106.175;  -98.000;   67.000
420.006;17263.350; -280.000; -221.000
420.131;42980.825; -662.000; -775.000
420.256; 6859.425; -315.000; -316.000
420.382;  933.225; -665.000; -687.000
420.507;  162.850; -649.000; -778.000
420.632;   44.650; -337.000; -339.000
420.758;   67.250; -251.000; -425.000
420.883; -100.525; -876.000; -672.000
421.008; -104.875; -775.000; -619.000
421.133;  -94.275; -509.000; -467.000
421.259;  -63.200; -325.000; -259.000
421.384; -129.075; -834.000; -693.000
421.509; -111.975;-1052.000; -862.000
421.634;  248.150; -936.000; -820.000
421.759;  133.875; -359.000; -327.000
421.885;  -84.625; -717.000; -656.000
422.010;  -93.025; -673.000; -542.000
422.135; -156.925; -695.000; -727.000
422.260;   23.175;  340.000;  280.000
422.385;  -52.375;   12.000;  -98.000
422.510;   -2.200;  151.000;  -26.000
422.635;  -18.075;  -87.000;  -43.000
422.760;  -18.325; -766.000; -791.000
422.885;   18.600;  -57.000;  -80.000
423.010;  -19.825; -112.000; -169.000
423.135;  -92.725; -481.000; -561.000
423.260;  -47.300; -150.000; -245.000
423.385;   26.325;  476.000;  222.000
423.510;   13.850;   71.000;  -22.000
423.635;    7.775;  133.000;   45.000
423.760;   43.150;  383.000;  328.000
423.885;   22.425;  336.000;  391.000
424.010;  -11.000;  -68.000;  -13.000
424.135;  -16.600;    5.000;  -33.000
424.259;  -76.025; -654.000; -457.000
424.384;  -60.200; -279.000; -272.000
424.509;  -14.125; -260.000; -186.000
424.634;  -93.100; -761.000; -623.000
424.759;  -34.500; -688.000; -544.000
424.883;   -6.050; -506.000; -527.000
425.008;  196.625; -502.000; -410.000
425.133; 2814.250; -679.000; -653.000
425.258; 1519.500; -517.000; -381.000
425.382;  555.150; -867.000; -774.000
425.507; 1329.925; -487.000; -543.000
425.632;  386.950; -802.000; -663.000
425.756;  686.275; -256.000; -146.000
425.881; 9803.350; -831.000; -857.000
426.006;29933.475; -604.000; -355.000
426.130; 4853.900; -696.000; -508.000
426.255;  690.400; -611.000; -491.000
426.379;  270.675; -189.000; -577.000
426.504;  514.950;  660.000;  544.000
426.629; 5785.425; -519.000; -466.000
426.753; 4398.250;   64.000;  -46.000
426.878;  551.700; -252.000; -288.000
427.002;  307.525; -651.000; -668.000
427.127; 2102.300;  -35.000; -158.000
427.251;17072.000;  372.000;  401.000
427.375; 5490.825; -191.000; -173.000
427.500; 1464.175; -616.000; -610.000
427.624;  449.625; -234.000; -400.000
427.749;   94.250; -216.000; -225.000
427.873;  -31.600; -499.000; -412.000
427.997;  -43.125; -222.000; -230.000
428.122;   61.925;  795.000;  703.000
428.246;   43.050;  433.000;  434.000
428.371; -130.000; -869.000; -773.000
428.495; -103.850; -624.000; -646.000
428.619;  -49.625; -186.000; -117.000
428.743;    0.600;   65.000;  132.000
428.868;  -75.225; -732.000; -643.000
428.992;  592.525; -219.000; -326.000
429.116;  207.050; -329.000; -357.000
429.240;  132.925;  419.000;  426.000
429.365;  -59.725; -454.000; -574.000
429.489;  -53.850; -638.000; -647.000
429.613;   32.350; -236.000; -177.000
429.737;   61.075; -563.000; -432.000
429.861;  377.750; -247.000; -133.000
429.985; 7955.425; -425.000; -305.000
430.109; 9984.350; -770.000; -908.000
430.234; 1198.100;   76.000;  -50.000
430.358;  140.325; -250.000; -160.000
430.482;  -47.700; -672.000; -564.000
430.606;  -67.925; -655.000; -375.000
430.730;  -53.025; -437.000; -388.000
430.854;  -74.625; -909.000; -835.000
430.978;  -90.075; -795.000; -764.000
431.102; -100.325; -499.000; -422.000
431.226; -112.350; -874.000; -815.000
431.350;   28.275;  345.000;  422.000
431.474;  -89.575; -661.000; -373.000
431.597; -150.325;-1060.000; -848.000
431.721;  -81.875; -276.000; -267.000
431.845; -136.150; -704.000; -472.000
431.969;  -69.575; -304.000; -349.000
432.093;  -93.100; -395.000; -317.000
432.217;  -10.625;   32.000;   82.000
432.341; -100.625; -523.000; -518.000
432.464;   -3.825;   96.000;   40.000
432.588;  -12.150; -401.000; -329.000
432.712;   15.800;  -52.000;  -52.000
432.836;   69.925;  213.000;  263.000
432.959;   25.625; -372.000; -311.000
433.083;  161.900;   11.000;    2.000
433.207;  553.375;  285.000;  930.000
433.330; 7562.075; -391.000; -200.000
433.454;10405.525; -654.000; -638.000
433.578; 5756.825;  583.000;  278.000
433.701; 1229.175; -623.000; -675.000
433.825;  150.900; -292.000; -299.000
433.949;   50.500;   28.000;  -72.000
434.072;  -18.250; -410.000; -323.000
434.196;  -15.075; -309.000; -117.000
434.319; 3568.325;25482.000;25124.000
434.443;  883.475; -656.000; -603.000
434.566; 4022.775;  281.000;   62.000
434.690;  852.775; -637.000; -383.000
434.813;  128.525; -251.000; -173.000
434.937;  -37.000; -569.000; -696.000
435.060;  -77.050; -423.000; -332.000
435.184;   16.750; -492.000; -217.000
435.307;   11.675;  159.000;  102.000
435.431;  -26.150;  -40.000;   24.000
435.554;  -79.600; -399.000; -240.000
435.677;  -89.050; -350.000; -258.000
435.801;  -57.600;  -25.000;   49.000
435.924;  -45.875;    1.000;  -67.000
436.048; -151.800;-1019.000; -732.000
436.171;  -67.450; -240.000;  -66.000
436.294;  -19.300; -248.000; -229.000
436.417;  228.725; -963.000; -849.000
436.541;  -33.625; -814.000; -840.000
436.664;  -38.200; -242.000; -316.000
436.787;  -20.775;   13.000;  113.000
436.910; -113.300; -792.000; -422.000
437.034;  -13.575;  142.000;  143.000
437.157;   -0.050;  -11.000;    0.000
437.280;  -91.650; -392.000; -292.000
437.403; -138.925; -982.000; -869.000
437.526;   55.550; -903.000; -865.000
437.649;  655.650; -505.000; -332.000
437.772;   37.075; -692.000; -540.000
437.896;   60.550;  700.000;  544.000
438.019;  -96.625; -758.000; -503.000
438.142; -102.075; -596.000; -506.000
438.265; -109.150; -639.000; -670.000
438.388;   62.350; -520.000; -410.000
438.511;  -74.200; -597.000; -394.000
438.634;  -74.250; -247.000; -125.000
438.757; -148.450; -693.000; -619.000
438.880;  -46.325;  -34.000;  -57.000
439.003;  -98.975; -417.000; -437.000
439.126;  -66.250; -287.000; -167.000
439.248;  -66.075;  -98.000; -139.000
439.371;  -48.625;    9.000;  -53.000
439.494;   21.750;  510.000;  439.000
439.617;  -64.200;   65.000;  -88.000
439.740; -176.825; -968.000; -816.000
439.863; -124.300; -755.000; -595.000
439.986; -122.950; -476.000; -431.000
440.108;  -24.925; -161.000; -112.000
440.231; -161.100; -950.000; -836.000
440.354;  -69.225;  -64.000; -150.000
440.477;  -99.050; -566.000; -542.000
440.599;  -72.325; -200.000; -225.000
440.722; -149.475; -709.000; -586.000
440.845;   65.475;  751.000;  928.000
440.968; -111.900; -415.000; -311.000
441.090;  -67.600; -199.000;  -33.000
441.213; -178.425;-1021.000; -825.000
441.336;  -50.325; -159.000;   -5.000
441.458; -105.650; -549.000; -396.000
441.581; -115.700; -628.000; -629.000
441.703;  -76.975; -152.000;   13.000
441.826; -118.775; -557.000; -400.000
441.948;  -56.600;   56.000;   51.000
442.071;   27.825;  555.000;  424.000
442.193; -115.800; -531.000; -485.000
442.316;   -0.800;  152.000;   97.000
442.438;   74.700; -233.000;  -10.000
442.561;   73.175;  272.000;  262.000
442.683;   90.600; -809.000; -522.000
442.806;  368.525;   -8.000;   74.000
442.928;  -86.000; -859.000; -604.000
443.051;  -79.850; -577.000; -373.000
443.173;  -95.325; -341.000; -339.000
443.295;  -99.800; -263.000; -371.000
443.418;  -84.000; -321.000;  -29.000
443.540;  -17.500; -106.000;   -4.000
443.662; -127.975; -563.000; -465.000
443.785;  -17.450;  335.000;  199.000
443.907;  -90.850; -362.000; -208.000
444.029; -131.350; -767.000; -494.000
444.152; -146.700; -644.000; -554.000
444.274;  -44.250;  -18.000;  -24.000
444.396; -113.350; -461.000; -221.000
444.518; -128.350; -691.000; -454.000
444.640; -103.450; -268.000; -111.000
444.763;  -33.475;  388.000;  249.000
444.885; -133.325; -432.000; -392.000
445.007;  -37.575;   35.000;   86.000
445.129; -134.025; -610.000; -515.000
445.251; -109.500; -372.000; -439.000
445.373; -137.400; -537.000; -386.000
445.495;  -13.950;  242.000;  350.000
445.617;   36.875;  853.000;  753.000
445.739;  -76.275; -215.000;  -97.000
445.861;  -68.650; -245.000; -112.000
445.984;  -61.475; -267.000; -101.000
446.105;   -1.850; -418.000; -251.000
446.227;  168.100; -176.000;  -19.000
446.349;  -76.225; -358.000; -249.000
446.471; -110.125; -615.000; -448.000
446.593;  -97.150; -316.000;   19.000
446.715;  -36.450;  -67.000;   41.000
446.837;   35.300;  697.000;  832.000
446.959; -107.625; -457.000; -478.000
447.081; -142.050; -628.000; -518.000
447.203;   49.375;  862.000;  834.000
447.325; -101.400; -270.000;   42.000
447.446;  -10.350;  286.000;  530.000
447.568; -162.475; -921.000; -803.000
447.690;  -86.200; -236.000; -245.000
447.812; -150.350; -798.000; -519.000
447.933;  -32.400;  155.000;  127.000
448.055;  -79.975; -306.000; -261.000
448.177;   25.450;   31.000;   79.000
448.299;  -90.575; -935.000; -727.000
448.420;  -15.950;  -25.000;  159.000
448.542;  -52.850;   -3.000;   33.000
448.664;  -21.075;  109.000;  322.000
448.785;  -36.525;  265.000;   83.000
448.907; -108.125; -614.000; -353.000
449.028; -102.250; -771.000; -471.000
449.150;   42.950;  492.000;  589.000
449.272; -180.800;-1044.000; -913.000
449.393;   19.800;  612.000;  694.000
449.515; -150.375; -634.000; -581.000
449.636;  -57.900; -264.000; -155.000
449.758;   49.250;  763.000;  622.000
449.879;  -97.850; -498.000; -396.000
450.001;  -87.175; -149.000;  -49.000
450.122;  -20.425;  -95.000;  162.000
450.244;  -29.950;   37.000;  364.000
450.365;  -66.425; -495.000; -301.000
450.486;  -17.700;   80.000;  268.000
450.608;   50.000;  393.000;  326.000
450.729;  108.175;  578.000;  645.000
450.850;   83.375; -574.000; -466.000
450.972; 1208.775; -552.000; -389.000
451.093; 7850.750;  190.000;  588.000
451.214; 3960.050; -516.000; -337.000
451.336;  681.925;  773.000;  579.000
451.457;  110.175;  264.000;  393.000
451.578;  -14.700; -118.000;  -74.000
451.699; -103.575; -546.000; -540.000
451.821;  -45.700; -284.000;  -50.000
451.942;   -4.525;  278.000;  285.000
452.063;   52.725;  228.000;  419.000
452.184;  817.325;  -54.000;  -49.000
452.305; 1730.975;  103.000;  170.000
452.427;  322.400; -549.000; -301.000
452.548;    5.250;   23.000;   79.000
452.669;  -71.075; -257.000;  -89.000
452.790;  -56.500;    3.000;  -18.000
452.911;  -20.050;  195.000;  259.000
453.032;  -89.225; -289.000;  -60.000
453.153;  -65.725;  -29.000;   81.000
453.274;   60.575;  737.000;  868.000
453.395;  -63.900;  -51.000;  175.000
453.516;   88.750; 1317.000; 1388.000
453.637;  -94.825; -205.000; -150.000
453.758;  -71.950;   15.000;   69.000
453.879; -115.025; -462.000; -250.000
454.000;   58.575; 1086.000;  948.000
454.121; -142.525; -554.000; -326.000
454.242; -127.025; -599.000; -383.000
454.362;  -52.600;  -99.000;  114.000
454.483;  -12.400; -309.000; -229.000
454.604;   68.925;  512.000;  580.000
454.725; -122.125; -627.000; -555.000
454.846; -129.575; -474.000; -406.000
454.967;  -22.175;  230.000;  539.000
455.087;  -44.875;  179.000;  153.000
455.208;   19.400;  554.000;  856.000
455.329;  -57.350;  -22.000;   82.000
455.450;   50.575;  473.000;  633.000
455.570;  -76.450; -234.000; -211.000
455.691;  -46.625;  201.000;  407.000
455.812; -106.025; -270.000;  -92.000
455.932;  -65.900;  107.000;  -97.000
456.053;  -85.775;   36.000;   24.000
456.173; -104.900; -433.000; -355.000
456.294; -128.750; -476.000; -303.000
456.415;  -73.075;  -73.000;   70.000
456.535;  -36.825;  297.000;  273.000
456.656;  -36.725;  132.000;  240.000
456.776;  -75.525;    3.000;  298.000
456.897;   11.475;  308.000;  513.000
457.017;  -68.925; -153.000;   -3.000
457.138;  -94.250; -402.000; -249.000
457.258;  -31.350;  263.000;  224.000
457.379;  -29.600;  509.000;  521.000
457.499;  -26.125;  443.000;  432.000
457.620; -118.975; -407.000; -231.000
457.740; -101.450; -132.000;  -11.000
457.860;  -54.250;   87.000;   44.000
457.981;  -52.775;  132.000;  124.000
458.101;  -65.525;  -89.000;   40.000
458.221;  -19.150;  336.000;  402.000
458.342;  -41.550;   -4.000;  -37.000
458.462;   34.550;  617.000;  352.000
458.582;   24.525; -302.000; -294.000
458.703;   59.150;  303.000;  154.000
458.823;   15.250;   22.000;  163.000
458.943;   50.650;  341.000;  467.000
459.063;   30.525; 1124.000;  192.000
459.183;  -21.575;  328.000;  313.000
459.304;   11.100;  315.000;  517.000
459.424;  -44.850; -246.000;  -89.000
459.544;  466.225;  388.000;  764.000
459.664; 1286.200;  499.000;  506.000
459.784;  513.900; 1004.000; 1175.000
459.904;   77.625;  867.000;  744.000
460.024;   56.050;  867.000;  684.000
460.144;  -20.325;  449.000;  554.000
460.264;  -18.450;  515.000;  327.000
460.385;  -98.150; -145.000; -119.000
460.505;   29.500;  905.000;  858.000
460.625;  -88.700;  -17.000;  -68.000
460.745;  -26.300;  396.000;  541.000
460.864;  -56.550;  153.000;  469.000
460.984;   44.450;  499.000;  573.000
461.104;  142.375; 1656.000; 1775.000
461.224;   16.250;  657.000;  650.000
461.344;  -30.450;  431.000;  360.000
461.464;  -42.875;  258.000;  513.000
461.584;  -25.875;  283.000;  466.000
461.704;  -59.650;   58.000;  108.000
461.824;  -61.725;  238.000;  259.000
461.943;  -41.225;  191.000;  130.000
462.063;  -74.125;    2.000;  324.000
462.183;   31.075;  639.000;  717.000
462.303;   76.150; 1678.000; 1230.000
462.422;   24.775;  781.000;  840.000
462.542;  -42.050;  271.000;  391.000
462.662;   50.875;  353.000;  380.000
462.782;  353.875;  833.000;  572.000
462.901;  733.900;  545.000;  717.000
463.021;  382.850; 1702.000; 1638.000
463.141;   27.900;  337.000;  770.000
463.260;  -27.400;  614.000;  474.000
463.380;   11.575;  902.000;  884.000
463.499;  -48.900;  342.000;  332.000
463.619;  -32.275;  581.000;  559.000
463.738;  108.675; 1644.000;  903.000
463.858;   15.075;  657.000;  811.000
463.978;  -31.400;  542.000;  396.000
464.097;   61.125;  921.000; 1114.000
464.217;  152.925; 1196.000; 1143.000
464.336;  156.725; 1068.000; 1130.000
464.455;  -21.150;  328.000;  659.000
464.575;   12.925;  597.000;  602.000
464.694;  118.375; 1204.000; 1179.000
464.814;  154.675; 1190.000; 1138.000
464.933;   79.825; 1095.000; 1027.000
465.052;   94.475; 1412.000; 1054.000
465.172;   61.875;  922.000;  799.000
465.291;  112.500; 1376.000; 1320.000
465.410;    9.400;  462.000;  735.000
465.530;   87.175; 1355.000; 1310.000
465.649;   51.475; 1209.000; 1273.000
465.768;  135.000; 1673.000; 1508.000
465.888;   51.850;  941.000; 1174.000
466.007;  104.950; 1335.000; 1440.000
466.126;   -2.100;  721.000;  641.000
466.245;   40.850; 1176.000; 1187.000
466.364;    8.450;  950.000; 1060.000
466.484;   42.150; 1024.000; 1213.000
466.603;   30.925; 1101.000; 1222.000
466.722;  100.325; 1490.000; 1769.000
466.841;   84.100; 1151.000; 1401.000
466.960;   36.150; 1069.000;  972.000
467.079;  120.325; 1971.000; 1786.000
467.198;   63.725; 1238.000; 1181.000
467.317;   82.650; 1768.000; 1162.000
467.436;   65.050; 1709.000; 1261.000
467.555;  113.800; 1796.000; 1746.000
467.674;   63.075; 1227.000; 1329.000
467.793;   43.050; 1376.000; 1374.000
467.912;   89.300; 1658.000; 1539.000
468.031;  131.825; 2038.000; 1930.000
468.150;  139.125; 1842.000; 1837.000
468.269;  170.975; 2313.000; 2090.000
468.388;  175.075; 2168.000; 2339.000
468.507;  235.075; 2884.000; 2903.000
468.626;  281.000; 2555.000; 2541.000
468.744;  135.650; 2018.000; 2174.000
468.863;  191.775; 2312.000; 2523.000
468.982;   98.500; 1503.000; 1555.000
469.101;  204.575; 2788.000; 2692.000
469.220;  148.475; 2333.000; 2176.000
469.338;  260.500; 2935.000; 3051.000
469.457;  195.600; 2719.000; 2545.000
469.576;  347.200; 3953.000; 3784.000
469.695;  229.200; 2877.000; 3066.000
469.813;  421.450; 4148.000; 4192.000
469.932;  395.750; 4255.000; 4485.000
470.051;  466.750; 4075.000; 4161.000
470.169; 1029.775; 4470.000; 4338.000
470.288; 2027.800; 4700.000; 4809.000
470.406; 1169.400; 5059.000; 5194.000
470.525;  683.925; 6101.000; 5787.000
470.644;  666.600; 6847.000; 6794.000
470.762;  809.850; 8397.000; 7873.000
470.881;  924.275; 8651.000; 8464.000
470.999; 1060.575; 9685.000; 9151.000
471.118; 1107.400;11174.000;10711.000

