
Integration time [ms]: 100.000
Averaging Nr. [scans]: 40
Smoothing Nr. [pixels]: 0
Data measured with spectrometer [name]: 2101012U2
Wave   ;Sample   ;Dark     ;Reference
[nm]   ;[counts] ;[counts] ;[counts] 

197.733;   55.050;  516.000;  404.000
197.879;  -84.700; -610.000; -634.000
198.025;  -35.250; -475.000; -420.000
198.171;  -71.225; -602.000; -612.000
198.317;  -27.450; -401.000; -316.000
198.463;  -54.925; -655.000; -404.000
198.609;   27.500;  181.000; -137.000
198.755;  -80.000; -644.000; -410.000
198.901;  -69.300; -505.000; -424.000
199.047;  -57.250; -615.000; -488.000
199.193;  -35.950; -230.000; -468.000
199.339;  -50.050; -222.000; -369.000
199.485;   51.200;  330.000;  271.000
199.631;   14.875;  227.000;  310.000
199.777;  -60.050; -466.000; -398.000
199.923;  -59.975; -610.000; -424.000
200.069;    0.300; -141.000;  -58.000
200.215;   56.650;  128.000;  453.000
200.361;   34.450;  243.000;  477.000
200.507;  -63.550; -600.000; -373.000
200.653;  -20.775; -371.000; -194.000
200.798;  -56.525; -215.000; -125.000
200.944;    4.950; -146.000;  -41.000
201.090;   31.475;   61.000;  222.000
201.236;    1.725; -116.000; -158.000
201.382;  118.425;  874.000;  903.000
201.528;   13.075;  -58.000;  -48.000
201.674;  -33.875; -386.000; -293.000
201.819;  -67.250; -540.000; -439.000
201.965;  -88.200; -699.000; -447.000
202.111;  -14.200; -273.000; -226.000
202.257;  -41.150; -250.000; -238.000
202.402;   10.475;   13.000;  -36.000
202.548;  -28.550; -169.000; -116.000
202.694;   76.525;  410.000; -183.000
202.840;  -72.775; -603.000; -531.000
202.985;  -65.825; -681.000; -639.000
203.131; -108.175; -832.000; -666.000
203.277;  -20.700; -199.000; -262.000
203.423;  -55.050; -434.000; -520.000
203.568;  -41.750; -462.000; -237.000
203.714;  -56.300; -535.000; -542.000
203.860;  -78.550; -682.000; -641.000
204.005;   11.725;  112.000;  167.000
204.151;   65.625;  561.000;  556.000
204.296;  -51.150; -354.000; -221.000
204.442;  -62.225; -600.000; -547.000
204.588;  -91.125; -592.000; -579.000
204.733;   20.625;  178.000;  168.000
204.879; -128.650;-1018.000; -822.000
205.025;   29.200;  -99.000;  126.000
205.170;   -1.725;  -17.000;   94.000
205.316;   88.050;  438.000;  661.000
205.461;  -84.100; -698.000; -554.000
205.607;   89.950;  609.000;  665.000
205.752;  -91.150; -626.000; -551.000
205.898;  -42.650; -501.000; -391.000
206.043;  -58.200; -578.000; -506.000
206.189;  -50.800; -243.000; -285.000
206.334;   83.800;  554.000;  606.000
206.480;   81.450;  409.000;  239.000
206.625;  -83.375; -529.000; -552.000
206.771;  -40.400; -451.000; -373.000
206.916;  -36.850; -210.000; -537.000
207.062;  -70.475; -545.000; -591.000
207.207;  -72.775; -546.000; -443.000
207.353;   55.050;  185.000;  460.000
207.498;   11.450;  196.000;   85.000
207.643;  -47.275; -501.000; -370.000
207.789; -135.250;-1069.000; -910.000
207.934;  -81.350; -665.000; -713.000
208.080;  -25.375; -154.000;   66.000
208.225;  -10.650;  -22.000;  -57.000
208.370;  -83.250; -727.000; -619.000
208.516;  -81.125; -741.000; -487.000
208.661;  -31.050; -127.000;  -69.000
208.806;  -21.600; -165.000; -171.000
208.952; -119.200;-1044.000; -731.000
209.097;   82.375;  378.000;  349.000
209.242;  -28.900; -307.000; -382.000
209.387;   61.825;  392.000;  350.000
209.533;  -63.050; -321.000; -350.000
209.678;   82.125;  472.000;  543.000
209.823;  -54.175; -408.000; -310.000
209.969;  -97.275; -860.000; -757.000
210.114;  -96.550; -907.000; -719.000
210.259; -118.125; -939.000; -889.000
210.404;  -14.525; -171.000;  103.000
210.549;   -1.425;  108.000;    3.000
210.695;  -10.775;   -3.000;  -95.000
210.840;   29.625;   94.000;   67.000
210.985;  -72.700; -484.000; -303.000
211.130;   69.125;  268.000;  406.000
211.275;   -2.100;  207.000;  199.000
211.420;  -58.575; -300.000; -289.000
211.566;  -75.600; -536.000; -489.000
211.711;    6.175;  218.000;  157.000
211.856;  -62.800; -545.000; -519.000
212.001;    8.975;  151.000;   44.000
212.146;   23.775;  153.000;   49.000
212.291;   -3.850; -210.000; -186.000
212.436;  -30.850; -280.000;   -6.000
212.581;  -88.000; -685.000; -653.000
212.726;  -76.225; -487.000; -538.000
212.871;  -43.200; -552.000; -217.000
213.016; -156.950;-1172.000;-1029.000
213.161;   66.150;  406.000;  291.000
213.306;  -82.275; -435.000; -577.000
213.451;  -94.675; -778.000; -689.000
213.596;  -55.200; -455.000; -347.000
213.741;  -64.100; -448.000; -538.000
213.886;  -82.800; -498.000; -517.000
214.031;  -20.525; -294.000; -124.000
214.176;  -52.625; -408.000; -341.000
214.321;  -21.525; -296.000; -157.000
214.466;  -19.075; -163.000;  -43.000
214.611;   -7.250;  -61.000;  -10.000
214.756; -120.175; -948.000; -858.000
214.901;  -23.000; -388.000; -226.000
215.046; -122.075; -797.000; -825.000
215.191;    2.500;  128.000;   35.000
215.336;  -19.150; -157.000;  -19.000
215.480;  -61.775; -684.000; -505.000
215.625;  -17.475; -175.000;  -19.000
215.770;  -76.150; -757.000; -662.000
215.915;  -19.225;   -5.000;  -97.000
216.060;   -0.825; -113.000;  -21.000
216.205; -117.200; -731.000; -779.000
216.349;  -85.800; -470.000; -533.000
216.494; -137.925; -939.000; -867.000
216.639; -112.600; -823.000; -888.000
216.784; -102.650; -577.000; -525.000
216.929;   45.600;  392.000;  281.000
217.073;  -22.275; -244.000;  -31.000
217.218;    6.650;   78.000;  -47.000
217.363; -103.075; -656.000; -618.000
217.507;  -90.850; -623.000; -588.000
217.652; -131.950; -845.000; -874.000
217.797;  -82.300; -708.000; -659.000
217.942; -115.250; -856.000; -720.000
218.086;   80.250;  608.000;  539.000
218.231;  -13.975; -174.000;  -26.000
218.376;  -35.350; -337.000; -229.000
218.520;   -5.950;  -41.000;   96.000
218.665;  -21.775; -338.000; -204.000
218.810;  -42.825; -275.000; -233.000
218.954;   12.975;  201.000;   35.000
219.099; -121.050; -713.000; -963.000
219.243;  -80.975; -589.000; -554.000
219.388;  -46.650; -264.000; -136.000
219.532;   -4.700; -116.000; -116.000
219.677;  -74.150; -564.000; -521.000
219.822;   -2.125;   33.000;   89.000
219.966;    0.900;   17.000;  -99.000
220.111;  -35.350; -328.000;  -40.000
220.255;  -97.025; -797.000; -750.000
220.400;  -13.375; -180.000; -146.000
220.544;  -82.825; -516.000; -450.000
220.689;  -54.250; -422.000; -451.000
220.833;  -23.900; -123.000;  -58.000
220.978;  -39.300; -393.000; -563.000
221.122;   12.550;  319.000;  307.000
221.267; -103.175; -906.000; -837.000
221.411;  -48.625; -478.000; -394.000
221.555;   -0.275; -104.000;  -23.000
221.700;  -50.350; -329.000; -222.000
221.844;   34.225;  255.000;  272.000
221.989;  -45.775; -328.000; -311.000
222.133;  -34.050; -289.000; -307.000
222.277;  -17.675;    5.000;   78.000
222.422;    5.225;  227.000;  113.000
222.566;  -33.975; -381.000; -214.000
222.711;  -51.175; -414.000; -479.000
222.855;  -80.675; -643.000; -586.000
222.999;  -88.250; -642.000; -717.000
223.144;  -16.400; -195.000; -194.000
223.288;   47.725;  423.000;  251.000
223.432;   19.500;  184.000;  230.000
223.576;   10.400;  152.000;  -21.000
223.721;   22.475;  364.000;  273.000
223.865;  -57.800; -472.000; -475.000
224.009;  232.275; 1673.000; 1631.000
224.153;  -84.950; -660.000; -671.000
224.298;  -89.600; -531.000; -489.000
224.442;  -19.750;  -74.000;  -33.000
224.586;  -13.325; -169.000; -106.000
224.730;  -99.600; -858.000; -670.000
224.875; -125.875; -739.000; -688.000
225.019;   31.325;  102.000;  188.000
225.163;   51.700;  208.000;  341.000
225.307;   16.975;   97.000;  -91.000
225.451;   37.500;  360.000;  481.000
225.595;   28.775;  264.000;  176.000
225.739;  -24.775; -170.000;  -94.000
225.884;   12.625;   86.000;    5.000
226.028;  -89.150; -760.000; -626.000
226.172;  -41.550; -260.000; -273.000
226.316; -126.275; -941.000; -902.000
226.460;  -58.675; -645.000; -493.000
226.604;  -52.050; -406.000; -400.000
226.748;  -98.625; -836.000; -733.000
226.892;  -46.600; -227.000; -181.000
227.036;  -44.475; -537.000; -447.000
227.180;  -58.075; -551.000; -375.000
227.324;  -60.300; -561.000; -580.000
227.468; -122.450; -819.000; -717.000
227.612;   19.100;  242.000;  -28.000
227.756; -102.975; -845.000; -698.000
227.900;   51.175;  342.000;  441.000
228.044;  -57.325; -509.000; -290.000
228.188;   48.875;  448.000;  568.000
228.332;  -91.700; -546.000; -472.000
228.476;  -32.625; -223.000; -149.000
228.620;  -38.375; -210.000; -150.000
228.764;   65.050;  431.000;  349.000
228.908;  -18.200; -155.000;   30.000
229.052;  -56.850; -615.000; -528.000
229.195;  -23.675; -172.000;   13.000
229.339;  -23.900; -235.000; -305.000
229.483;  -23.550;    5.000; -162.000
229.627;    7.300; -156.000;  139.000
229.771;  -49.700; -218.000; -294.000
229.915;    8.775;  230.000;   79.000
230.059;  -95.675; -648.000; -663.000
230.202;  -35.800; -370.000; -317.000
230.346;  -19.350; -107.000;  107.000
230.490;  -70.175; -489.000; -521.000
230.634; -112.975; -736.000; -553.000
230.777;   68.200;  478.000;  509.000
230.921;  -60.175; -450.000; -359.000
231.065;  -48.100; -246.000; -286.000
231.209;   22.725;  261.000;  265.000
231.352;   10.425;   54.000;   40.000
231.496;    8.425;  568.000;  188.000
231.640;  -74.875; -693.000; -621.000
231.783;   55.500;  546.000;  525.000
231.927;  -42.825; -294.000; -365.000
232.071; -140.575; -962.000; -736.000
232.214; -106.700; -980.000; -764.000
232.358; -105.125; -683.000; -599.000
232.502;    3.575;  -19.000;    7.000
232.645; -144.100;-1090.000; -927.000
232.789;  -22.500; -257.000; -218.000
232.933;  -39.950; -407.000; -224.000
233.076; -121.250;-1038.000; -897.000
233.220; -108.175; -752.000; -777.000
233.363;  -74.525; -669.000; -477.000
233.507;   53.625;  371.000;  129.000
233.650;  -99.725; -764.000; -834.000
233.794;   43.725;  438.000;  461.000
233.938;  -47.725; -530.000; -362.000
234.081;  -15.450;  -93.000;   31.000
234.225;  -73.600; -631.000; -539.000
234.368; -107.275; -773.000; -723.000
234.512;  -37.425; -385.000; -299.000
234.655;  -78.725; -582.000; -555.000
234.798;  -67.775; -493.000; -466.000
234.942; -135.525; -884.000;-1002.000
235.085;  -73.775; -651.000; -443.000
235.229;  -82.900; -405.000; -410.000
235.372;  -54.125; -247.000; -191.000
235.516;  -66.050; -397.000; -321.000
235.659;   18.075;   92.000;  121.000
235.802;  -36.550;  -38.000;  -22.000
235.946;   24.600;  335.000;  215.000
236.089;   12.825;  126.000;  250.000
236.233;   57.475;  275.000;  298.000
236.376;  -50.225; -235.000; -378.000
236.519;  -57.450; -297.000; -319.000
236.663;  -30.675; -215.000; -117.000
236.806; -137.725;-1029.000; -999.000
236.949;   51.900;  543.000;  431.000
237.092;   57.675;  412.000;  391.000
237.236;  -92.375; -589.000; -502.000
237.379;   63.400;  352.000;  428.000
237.522; -134.500; -879.000; -768.000
237.666;  -12.100; -271.000;   18.000
237.809; -125.725; -851.000; -823.000
237.952;   34.425;  469.000;  271.000
238.095;  -73.650; -447.000; -442.000
238.238;   76.575;  688.000;  700.000
238.382;   -7.625;  166.000;  103.000
238.525;  -67.275; -598.000; -511.000
238.668; -141.275;-1060.000; -985.000
238.811;  -80.350; -638.000; -643.000
238.954;  -57.725; -483.000; -334.000
239.097;  100.025;  617.000;  664.000
239.241;   15.450;  394.000;  326.000
239.384;  -33.850; -254.000; -214.000
239.527;  -51.625; -424.000; -224.000
239.670; -155.100; -994.000;-1091.000
239.813; -111.950; -696.000; -658.000
239.956;   78.175;  579.000;  473.000
240.099; -101.550; -778.000; -725.000
240.242;   56.875;  428.000;  432.000
240.385;   37.800;  466.000;  450.000
240.528;  -62.425; -706.000; -473.000
240.671;    9.825;  189.000;  134.000
240.814;  -30.300; -441.000; -158.000
240.957; -112.825; -767.000; -578.000
241.100; -103.800; -779.000; -755.000
241.243; -145.300;-1234.000; -893.000
241.386;  -71.325; -508.000; -379.000
241.529;  -97.250; -735.000; -547.000
241.672;  -55.850; -566.000; -495.000
241.815; -120.450; -832.000; -808.000
241.958;  -25.750; -125.000; -182.000
242.101;  -80.850; -545.000; -390.000
242.244;  -34.675; -270.000; -325.000
242.387;  -47.950; -304.000; -246.000
242.530;   69.150;  470.000;  134.000
242.673;  -51.900; -381.000; -309.000
242.815; -122.325; -925.000; -899.000
242.958;  -67.750; -482.000; -381.000
243.101;   10.025;  132.000;  187.000
243.244;  -92.250; -564.000; -521.000
243.387;  -40.350; -313.000; -316.000
243.530; -110.225; -657.000; -674.000
243.672;   -3.400;   43.000;  -92.000
243.815;  -51.950; -355.000; -283.000
243.958;    1.875;   98.000;  -26.000
244.101;   -3.400;   59.000;  -16.000
244.243;  -20.000;  -47.000;  101.000
244.386; -112.900; -761.000; -630.000
244.529;  -25.775; -132.000; -139.000
244.672; -165.300;-1154.000; -951.000
244.814;  -79.675; -621.000; -794.000
244.957;  -51.525; -380.000; -304.000
245.100;  -76.975; -489.000; -489.000
245.242;  -64.900; -387.000; -374.000
245.385;   -6.100;  -59.000;  -39.000
245.528; -117.600; -871.000; -705.000
245.670;   93.625;  612.000;  634.000
245.813;  -89.625; -599.000; -547.000
245.956;  -25.500; -324.000; -275.000
246.098;  -73.050; -508.000; -650.000
246.241;   13.600;  194.000;   48.000
246.383;  -15.325; -119.000;  -73.000
246.526;  -76.725; -454.000; -525.000
246.669; -125.550; -889.000; -780.000
246.811;    5.325;  172.000;   -1.000
246.954;  -67.050; -512.000; -426.000
247.096;  -28.225;  -84.000;   -6.000
247.239;  -80.200; -482.000; -445.000
247.381;  -71.875; -647.000; -488.000
247.524;   84.125;  645.000;  679.000
247.666;  -10.850;   58.000;   11.000
247.809; -119.300; -887.000; -691.000
247.951;   -3.350;  -75.000;  138.000
248.094;   27.750;  432.000;  308.000
248.236; -155.450;-1262.000;-1238.000
248.378;    7.825; -356.000;  -81.000
248.521;  -37.050; -334.000; -337.000
248.663;  -38.275; -236.000; -267.000
248.806;  -20.750; -300.000; -266.000
248.948;  -82.075; -886.000; -763.000
249.090;  -34.775; -428.000; -398.000
249.233;  -58.125; -344.000; -381.000
249.375;  -82.700; -474.000; -451.000
249.518;  -24.425;  -83.000; -133.000
249.660;   -3.100; -103.000;    3.000
249.802; -162.650;-1303.000;-1189.000
249.945;  -74.425; -612.000; -540.000
250.087; -113.225; -834.000; -768.000
250.229;  -50.500; -362.000; -480.000
250.371;  -85.775; -494.000; -439.000
250.514;  -60.000; -310.000; -244.000
250.656;  -14.550;   69.000;  102.000
250.798; -112.075; -849.000; -800.000
250.940;  -60.175; -322.000; -322.000
251.083;  -20.300; -335.000; -111.000
251.225;   60.300;  338.000;  310.000
251.367;  -39.325; -274.000; -373.000
251.509;  -30.075; -265.000; -210.000
251.651;  -85.875; -731.000; -671.000
251.794;   68.875;  538.000;  632.000
251.936;  -97.900; -821.000; -747.000
252.078;  -82.575; -540.000; -461.000
252.220;  -64.625; -645.000; -477.000
252.362;   75.125;  344.000;  462.000
252.504;  -75.550; -677.000; -584.000
252.646; -112.750; -875.000; -722.000
252.788;  -14.850;   14.000; -128.000
252.931;  -46.600; -257.000; -253.000
253.073;  -37.675; -376.000; -317.000
253.215;   -5.425;  141.000;  122.000
253.357;  -12.425;   82.000; -153.000
253.499;  -55.150; -374.000; -234.000
253.641;  -85.900; -749.000; -594.000
253.783; -104.950; -609.000; -527.000
253.925;  -87.475; -586.000; -591.000
254.067; -114.125; -744.000; -667.000
254.209;  -31.925; -391.000; -259.000
254.351; -131.975; -865.000; -883.000
254.493;  -60.325; -441.000; -417.000
254.635; -139.375; -936.000; -818.000
254.777;  -86.450; -752.000; -687.000
254.918;  -76.150; -512.000; -430.000
255.060;  -48.050; -551.000; -395.000
255.202;  -67.000; -473.000; -261.000
255.344;  -74.025; -658.000; -455.000
255.486;  -69.075; -471.000; -406.000
255.628; -117.200; -780.000; -781.000
255.770;  -98.425; -676.000; -536.000
255.912;  -64.650; -559.000; -468.000
256.053; -104.800; -730.000; -508.000
256.195;  161.350; 1008.000;  903.000
256.337; -115.625; -861.000; -595.000
256.479;   57.500;  532.000;  416.000
256.621;  -53.725; -394.000; -212.000
256.762; -108.750; -789.000; -742.000
256.904;   54.275;  485.000;  487.000
257.046;  -42.450; -381.000; -271.000
257.188;  -46.225; -351.000; -264.000
257.329;  -67.350; -525.000; -464.000
257.471; -124.700; -939.000; -807.000
257.613;  -57.825; -584.000; -498.000
257.755; -149.600;-1073.000; -982.000
257.896;   35.300;  286.000;  392.000
258.038;  -79.075; -403.000; -352.000
258.180;  -40.850; -354.000; -279.000
258.321;  -93.450; -581.000; -457.000
258.463;  -12.550;  -71.000;  133.000
258.605;  -92.675; -562.000; -570.000
258.746; -107.875; -886.000; -772.000
258.888; -161.000;-1026.000;-1020.000
259.029;   13.550;  121.000;   -8.000
259.171;  -90.100; -614.000; -550.000
259.313;    4.700;  -49.000;  -47.000
259.454;  -79.625; -536.000; -414.000
259.596;  -59.375; -483.000; -390.000
259.737;  -87.275; -590.000; -474.000
259.879;   38.150;  217.000;  311.000
260.020;   81.675;  901.000;  636.000
260.162;  -43.350; -146.000; -253.000
260.303; -115.775; -768.000; -687.000
260.445;  -73.600; -609.000; -613.000
260.586;   19.850;  392.000;  157.000
260.728;  -43.975; -360.000; -248.000
260.869; -126.000; -350.000; -343.000
261.011;   71.425;  706.000;  537.000
261.152;  -69.250; -479.000; -319.000
261.293;  -80.625; -576.000; -595.000
261.435;  -39.550; -219.000; -184.000
261.576;  -66.200; -455.000; -325.000
261.718;   42.925;  420.000;  470.000
261.859; -109.000; -940.000; -949.000
262.000; -123.800; -951.000;-1016.000
262.142;  -17.650;  -52.000;  -60.000
262.283; -119.525; -808.000; -691.000
262.424;  -96.875; -666.000; -625.000
262.566; -156.225;-1161.000; -983.000
262.707; -121.700; -840.000; -830.000
262.848; -128.075; -769.000; -726.000
262.990;  -64.800; -362.000; -345.000
263.131;   88.050;  650.000;  681.000
263.272;   -7.750;  -61.000;  -41.000
263.413;  -94.375; -589.000; -561.000
263.555;  -77.000; -669.000; -143.000
263.696;  -86.650; -550.000; -641.000
263.837;  -60.475; -449.000; -551.000
263.978;   -4.350;   -5.000;  -77.000
264.119;  -47.200; -283.000; -264.000
264.261; -122.025; -847.000; -630.000
264.402;    2.100;   33.000;   40.000
264.543;  -78.125; -509.000; -524.000
264.684;   -5.175;   61.000;  -50.000
264.825;  -78.000; -816.000; -538.000
264.966;  -14.325;  -84.000;  -67.000
265.107; -113.250; -646.000; -670.000
265.248; -106.300; -825.000; -812.000
265.390;  -12.375;  152.000;   -9.000
265.531;  -19.800; -238.000; -107.000
265.672; -100.075; -557.000; -630.000
265.813;   65.700;  563.000;  439.000
265.954; -145.350; -959.000; -940.000
266.095;  -17.400; -372.000; -322.000
266.236; -103.650; -686.000; -548.000
266.377;  -42.700; -243.000; -297.000
266.518;  -75.175; -619.000; -547.000
266.659;   24.025;  170.000;  268.000
266.800;   11.300;   83.000;   85.000
266.941;  -79.125; -487.000; -478.000
267.082;    9.850;  354.000;   99.000
267.223;  -61.675; -344.000; -273.000
267.364; -124.950; -892.000; -686.000
267.504;  -20.925;    3.000;  135.000
267.645;   -5.875;  160.000;   67.000
267.786;  -29.575; -147.000;  -86.000
267.927;  -81.050; -473.000; -379.000
268.068;   -3.025; -186.000;  -61.000
268.209;  -52.225; -175.000; -413.000
268.350;  -55.575; -388.000; -532.000
268.490;  -90.450; -648.000; -521.000
268.631;   26.875;  127.000;  225.000
268.772; -119.125; -874.000; -647.000
268.913;  -57.000; -328.000; -476.000
269.054;  -12.250; -117.000;   12.000
269.194;  -36.200; -418.000; -402.000
269.335; -155.950;-1137.000;-1074.000
269.476;  -12.175;   33.000;  -35.000
269.617;  -45.225; -347.000; -392.000
269.757;  -91.950; -713.000; -646.000
269.898;  -99.600; -856.000; -613.000
270.039;  -51.225; -415.000; -405.000
270.180; -141.975; -952.000; -816.000
270.320;  -19.900; -190.000; -250.000
270.461;  -41.775; -277.000; -249.000
270.602;   -7.950; -186.000; -156.000
270.742; -128.900; -868.000; -943.000
270.883;  -50.500; -442.000; -390.000
271.023;  -57.675; -358.000; -357.000
271.164;  -69.225; -607.000; -528.000
271.305;  -97.750; -666.000; -654.000
271.445;  -90.500; -722.000; -683.000
271.586;  -69.625; -462.000; -283.000
271.726;  -41.775; -397.000; -322.000
271.867;  -61.550; -594.000; -534.000
272.008;  204.625; -473.000; -285.000
272.148;  132.175;  462.000;  468.000
272.289;   34.750; -113.000; -181.000
272.429;    3.750;   19.000;  185.000
272.570;  -81.450; -633.000; -737.000
272.710; -103.575; -825.000; -775.000
272.851;  -16.775;  113.000; -130.000
272.991; -161.125;-1173.000;-1077.000
273.131;  -65.425; -419.000; -459.000
273.272; -103.175; -683.000; -723.000
273.412;   11.075; -143.000;  -31.000
273.553;  -64.000; -488.000; -507.000
273.693;  140.150;  913.000;  858.000
273.834;  -88.100; -894.000; -692.000
273.974;  -67.750; -664.000; -615.000
274.114; -103.425; -772.000; -560.000
274.255;   77.450;  414.000;  373.000
274.395;    3.100; -180.000; -125.000
274.535;   48.150;  199.000;  350.000
274.676;   19.850;  225.000;   94.000
274.816;   -0.200;  110.000;   34.000
274.956;  -91.350; -624.000; -690.000
275.097;  -47.225;-1014.000; -922.000
275.237; -108.600; -913.000; -803.000
275.377;  -87.975; -778.000; -689.000
275.517; -144.875; -878.000; -937.000
275.658;  -48.200; -590.000; -555.000
275.798;  -74.975; -606.000; -413.000
275.938;   27.450;  215.000;  323.000
276.078; -115.525; -626.000; -395.000
276.218;   15.875;   99.000;  104.000
276.359; -132.600;-1026.000;-1024.000
276.499;  -76.875; -605.000; -446.000
276.639;  -34.475; -305.000; -151.000
276.779;  -40.900; -475.000; -357.000
276.919; -108.075; -783.000; -624.000
277.059;  -25.975; -261.000; -212.000
277.199;  -47.725; -357.000; -259.000
277.340;   56.675;  287.000;  175.000
277.480; -110.400; -840.000; -693.000
277.620;   20.400;  192.000;   16.000
277.760; -195.250;-1533.000;-1294.000
277.900;   13.875;  113.000;   33.000
278.040;   34.150;  137.000;  159.000
278.180;   32.000;  270.000;  170.000
278.320;   -5.200;   21.000;   56.000
278.460;  -67.550; -443.000; -469.000
278.600;  -86.900; -708.000; -598.000
278.740;   41.175;  448.000;  224.000
278.880;  -50.600; -768.000; -791.000
279.020;   12.300; -194.000; -144.000
279.160;  -85.975; -672.000; -595.000
279.300; -116.125; -926.000; -873.000
279.440;  -87.050; -709.000; -622.000
279.579;  -12.325;-1014.000; -929.000
279.719;  -60.350; -410.000; -394.000
279.859;   69.575;   -4.000;   41.000
279.999;   28.350; -208.000;  101.000
280.139;  -16.875; -435.000; -387.000
280.279;  -82.175; -708.000; -745.000
280.419;  -10.625; -229.000; -147.000
280.559;  -22.375; -259.000; -180.000
280.698;  -78.600; -790.000; -639.000
280.838;  -87.575; -778.000; -800.000
280.978;  -84.150; -846.000; -790.000
281.118; -111.000; -811.000; -704.000
281.257;    2.325;   24.000;    6.000
281.397; -110.375;-1094.000; -960.000
281.537;  -88.175; -599.000; -712.000
281.677;  -20.550; -150.000; -101.000
281.816;  -92.700; -700.000; -630.000
281.956;  -33.800; -193.000; -257.000
282.096;  -63.825; -539.000; -396.000
282.235; -114.650; -672.000; -638.000
282.375;  -23.850; -243.000;  -98.000
282.515; -107.750; -715.000; -707.000
282.654;   37.525;   29.000;  106.000
282.794;   21.725;  388.000;  244.000
282.934;  -50.500; -530.000; -491.000
283.073; -137.625;-1030.000; -857.000
283.213;  -63.200; -460.000; -467.000
283.353;  -39.200; -408.000; -349.000
283.492;  -36.000; -264.000; -296.000
283.632;  -39.700; -254.000; -168.000
283.771;  -93.950; -859.000; -730.000
283.911;  -55.200; -369.000; -260.000
284.050; -116.650; -794.000; -748.000
284.190; -167.550;-1229.000;-1096.000
284.329; -137.475;-1055.000; -964.000
284.469;  -68.125; -516.000; -591.000
284.608;  -58.800; -559.000; -598.000
284.748;  -81.925; -614.000; -570.000
284.887;  -11.650;  -87.000;  -20.000
285.027; -127.175; -844.000; -892.000
285.166;  -20.550; -192.000; -249.000
285.306;    2.250; -116.000;  -33.000
285.445;  -44.525; -229.000; -343.000
285.584; -100.475; -630.000; -494.000
285.724;  -44.500; -282.000; -322.000
285.863; -103.925; -857.000; -507.000
286.002;  -47.375; -366.000; -276.000
286.142; -106.650; -715.000; -622.000
286.281;  -64.650; -525.000; -493.000
286.420;  -85.250; -554.000; -417.000
286.560;  101.650;  653.000;  623.000
286.699; -132.500; -958.000; -912.000
286.838;  -87.925; -590.000; -591.000
286.978;  -80.850; -533.000; -537.000
287.117; -125.025;-1085.000; -950.000
287.256;  -19.250; -228.000; -211.000
287.395;  -43.350; -197.000; -378.000
287.535;  -55.525; -370.000; -298.000
287.674;  -74.225; -509.000; -484.000
287.813;   50.400;  661.000;  533.000
287.952; -121.000;-1010.000; -871.000
288.091; -155.475;-1049.000; -915.000
288.231;   23.350;   13.000;   15.000
288.370; -180.650;-1217.000;-1200.000
288.509;  -87.225; -728.000; -645.000
288.648;  -94.325; -770.000; -548.000
288.787;  -39.975; -243.000;  -87.000
288.926;  -62.150; -454.000; -475.000
289.065;  118.125;  859.000;  672.000
289.204;  -46.000; -377.000; -217.000
289.344;  -86.350; -791.000; -690.000
289.483;   27.275;  416.000;  304.000
289.622;  -19.575; -291.000; -149.000
289.761;  -13.350; -309.000; -166.000
289.900; -109.650; -785.000; -626.000
290.039;  -21.650;  -12.000;  -95.000
290.178;  -30.200; -274.000; -180.000
290.317;  -81.825; -618.000; -479.000
290.456;  -63.575; -463.000; -451.000
290.595; -147.600; -961.000; -833.000
290.734; -130.050; -904.000; -891.000
290.873;  -67.500; -456.000; -420.000
291.011; -102.650; -833.000; -843.000
291.150; -104.450; -770.000; -682.000
291.289;  -24.525; -343.000; -110.000
291.428; -103.100; -599.000; -480.000
291.567;  -51.875; -370.000; -442.000
291.706;   -9.825;  109.000;  154.000
291.845;  -95.100; -597.000; -505.000
291.984; -168.725;-1234.000;-1061.000
292.122;   61.375;  602.000;  582.000
292.261;   42.725;  620.000;  463.000
292.400;   10.625; -144.000;  211.000
292.539; -128.400; -959.000; -813.000
292.678;  -31.900; -325.000; -300.000
292.816; -152.450;-1136.000; -965.000
292.955;  -90.250; -844.000; -684.000
293.094;  -20.475; -173.000; -337.000
293.233;  -54.125; -556.000; -400.000
293.371;  -42.325; -225.000;  -84.000
293.510; -102.150; -866.000; -780.000
293.649; -135.050; -959.000; -924.000
293.787;  -50.150;-1083.000;-1012.000
293.926;  -10.475; -113.000;  -32.000
294.065;  -56.325; -379.000; -290.000
294.203;   43.300;  298.000;  406.000
294.342;   37.000;   74.000;  156.000
294.481; 5661.100;51180.000; -836.000
294.619;  -33.300; -425.000; -582.000
294.758; -152.450;-1230.000;-1137.000
294.896;   83.975; -125.000;    5.000
295.035; -123.700;-1040.000;-1006.000
295.174; -105.775;-1082.000; -954.000
295.312;  -38.575; -323.000; -203.000
295.451;   -9.225; -307.000; -428.000
295.589;  -56.225; -389.000; -518.000
295.728;   29.650; -292.000; -165.000
295.866;   -0.875;  -36.000;  -51.000
296.005;  -61.125; -584.000; -341.000
296.143;  -75.825; -558.000; -596.000
296.282;  -97.800; -957.000; -881.000
296.420;  -95.225; -657.000; -557.000
296.559;  -73.150; -892.000; -633.000
296.697;   28.725; -847.000; -665.000
296.835;   93.350;-1141.000;-1002.000
296.974;   44.875;  -23.000;   39.000
297.112;   22.250; -443.000; -504.000
297.251;  -74.500; -815.000; -755.000
297.389;  100.250; -576.000; -438.000
297.527;   63.225; -145.000;  -83.000
297.666;  -43.425; -486.000; -438.000
297.804;  -51.250; -404.000; -264.000
297.942;   -6.650; -136.000; -161.000
298.081;    0.550; -183.000;   63.000
298.219;   91.700;  -17.000;  -19.000
298.357;   57.750; -144.000;  -71.000
298.495;   62.550; -810.000; -812.000
298.634;   82.500;  245.000;  219.000
298.772;   70.350; -220.000; -338.000
298.910;  -31.650; -309.000; -182.000
299.048;   -2.575; -130.000; -153.000
299.187;  -30.675; -350.000; -250.000
299.325;   11.800;   52.000;  122.000
299.463;   75.350; -389.000; -299.000
299.601;  139.150; -327.000; -271.000
299.739; -101.425; -908.000; -883.000
299.877;  -64.950; -791.000; -703.000
300.016;  -33.425;-1095.000; -935.000
300.154;  185.700;  -19.000; -161.000
300.292;   60.850; -428.000; -348.000
300.430;   54.200; -408.000; -291.000
300.568; -105.725; -940.000; -874.000
300.706;  -38.450; -366.000; -469.000
300.844;  -56.250;-1108.000; -979.000
300.982;  127.350;  246.000;  282.000
301.120; -107.125; -965.000; -866.000
301.258;  -63.875; -812.000; -705.000
301.396;   37.550;  104.000;  -41.000
301.534;  116.575; -218.000; -293.000
301.672;   15.750; -664.000; -521.000
301.810;   44.875; -613.000; -545.000
301.948;  123.450;   53.000;  149.000
302.086;  695.950; -250.000;  -32.000
302.224; 1099.675; -610.000; -585.000
302.362;   55.075; -558.000; -622.000
302.500;   -3.075; -923.000; -893.000
302.638;  110.350;  128.000;  245.000
302.776;   -3.325; -352.000; -408.000
302.913;   61.475;  447.000;  236.000
303.051;    6.425;  -86.000;  -23.000
303.189;   67.850;   90.000;  118.000
303.327;  -42.600; -341.000; -256.000
303.465;  -68.700; -832.000; -588.000
303.603;  -94.525; -805.000; -604.000
303.740;  109.475;  417.000;  241.000
303.878;   45.150; -800.000; -759.000
304.016;  -89.850; -915.000; -790.000
304.154; -128.775;-1123.000;-1152.000
304.291;  -22.450; -505.000; -554.000
304.429;   16.300;  102.000;   74.000
304.567; -121.575; -908.000; -893.000
304.705;  -41.575; -408.000; -515.000
304.842;  104.650; -616.000; -540.000
304.980;   61.475;  215.000;   35.000
305.118;   61.325; -367.000; -365.000
305.255;  -57.600; -945.000; -927.000
305.393;   54.300;  178.000;  239.000
305.531;  -99.425;-1173.000; -956.000
305.668;  -66.800; -663.000; -582.000
305.806;  114.100; -358.000; -439.000
305.943;  136.675; -629.000; -637.000
306.081;   74.475; -378.000; -267.000
306.219;  -91.350; -863.000; -748.000
306.356;   -2.475;  158.000;   27.000
306.494;  107.200;  981.000;  761.000
306.631;   -9.575;  -11.000;  -55.000
306.769;   11.200; -613.000; -485.000
306.906;  -14.250; -284.000; -258.000
307.044;  -63.450; -473.000; -488.000
307.181;  -76.150; -410.000; -332.000
307.319;   17.475;  112.000;   87.000
307.456; -180.250;-1191.000;-1153.000
307.594;  -87.075; -980.000; -727.000
307.731;  -18.925; -371.000; -164.000
307.868;   -1.425;  -15.000;   20.000
308.006; -135.850; -961.000; -847.000
308.143;  -72.825; -618.000; -330.000
308.281;  172.950;  -37.000; -254.000
308.418;    3.950; -748.000; -640.000
308.555;  -60.600; -400.000; -250.000
308.693;  -66.975; -577.000; -573.000
308.830; -108.700; -712.000; -657.000
308.967;  -10.075; -215.000;  -95.000
309.105;  -46.125; -507.000; -396.000
309.242;   35.225; -468.000; -367.000
309.379;  334.350; -577.000; -655.000
309.517;  -54.400; -936.000; -948.000
309.654; -100.775; -910.000; -734.000
309.791;  -61.400; -662.000; -580.000
309.928; -114.300; -977.000; -914.000
310.065;  197.950;  819.000;  697.000
310.203;   11.700; -825.000; -850.000
310.340;   -9.650; -465.000; -321.000
310.477;  -91.400; -412.000; -516.000
310.614;  -80.800; -383.000; -473.000
310.751;  -79.000; -427.000; -518.000
310.889;  -21.400;    1.000;   11.000
311.026; -145.125;-1161.000; -939.000
311.163;  -54.575; -386.000; -380.000
311.300;  -82.125; -512.000; -479.000
311.437;  -72.275; -658.000; -619.000
311.574; -156.025;-1226.000; -985.000
311.711;  -58.100; -595.000; -433.000
311.848;  -48.400; -380.000; -388.000
311.985;   22.900;  270.000;   93.000
312.122; -119.300; -932.000; -762.000
312.259; -115.550; -941.000; -994.000
312.396;  -84.525; -508.000; -551.000
312.533;  -87.750; -812.000; -790.000
312.670; -131.250;-1070.000; -898.000
312.807;  -23.825; -352.000; -367.000
312.944;  -84.750; -513.000; -611.000
313.081;  -34.050; -150.000; -415.000
313.218;  -96.750;-1111.000; -867.000
313.355;   25.075; -531.000; -449.000
313.492;    5.750; -455.000; -292.000
313.629;  141.725;  815.000;  735.000
313.766; -147.250;-1176.000;-1008.000
313.902;  -28.825; -186.000;   21.000
314.039;  -48.875; -372.000; -289.000
314.176;   20.200;  286.000;  192.000
314.313;  -66.675; -569.000; -473.000
314.450;  -80.525; -788.000; -684.000
314.587;  -61.250; -468.000; -480.000
314.723;    7.050;  -78.000;  130.000
314.860;   37.975;  318.000;  332.000
314.997;   29.950;  223.000;  142.000
315.134;  -45.850; -385.000; -368.000
315.270;  -19.775; -480.000; -496.000
315.407; -118.475;-1094.000; -967.000
315.544;  -41.425; -657.000; -538.000
315.681;  -52.250; -681.000; -565.000
315.817;   36.775; -133.000; -176.000
315.954;   22.700; -613.000; -392.000
316.091; -114.075;-1045.000;-1023.000
316.227;  -11.925;  -71.000; -179.000
316.364;   11.200;   23.000;    6.000
316.500;  -48.100; -113.000; -300.000
316.637;  -42.450; -181.000; -302.000
316.774;  -98.725; -625.000; -358.000
316.910;  -89.450; -598.000; -629.000
317.047;  -79.650; -487.000; -351.000
317.183;  -49.925; -435.000; -566.000
317.320;  -36.300; -367.000; -321.000
317.456;  -72.775; -733.000; -805.000
317.593;  -89.650; -598.000; -641.000
317.729;    7.750;  168.000;  -67.000
317.866; -203.500;-1434.000;-1285.000
318.002;  -87.825; -708.000; -948.000
318.139;  -89.600; -883.000; -867.000
318.275; -104.325;-1003.000; -738.000
318.412;  -69.825; -517.000; -336.000
318.548;   -4.350; -751.000; -720.000
318.685;  -91.625; -985.000; -888.000
318.821;  -91.425; -762.000; -735.000
318.957;  -28.225;   34.000;  -23.000
319.094;   34.500;  297.000;  154.000
319.230;  -58.050; -756.000; -742.000
319.367;  160.575; -471.000; -520.000
319.503;   71.075; -538.000; -436.000
319.639;  -99.950; -877.000; -793.000
319.775;  -42.475; -750.000; -685.000
319.912;  -41.925; -424.000; -519.000
320.048;  -98.150;-1184.000;-1184.000
320.184;   73.225;   59.000;   70.000
320.321;  -68.150; -497.000; -467.000
320.457;   56.550;  475.000;  662.000
320.593;  -69.425; -375.000; -382.000
320.729;  -96.575; -732.000; -734.000
320.866;  -67.975; -577.000; -635.000
321.002;  -77.350; -759.000; -809.000
321.138;  -20.250; -135.000; -211.000
321.274;   78.850; -148.000; -115.000
321.410;  -31.800; -585.000; -353.000
321.546;  -17.275;-1011.000; -911.000
321.683;   44.500;  400.000;  185.000
321.819;    9.675;  -48.000; -117.000
321.955; -109.075; -743.000; -722.000
322.091;  -49.200; -585.000; -540.000
322.227;   -9.625; -382.000; -202.000
322.363;  -15.625; -320.000; -215.000
322.499;  -44.925; -343.000; -331.000
322.635;  188.575;  636.000;  443.000
322.771;   35.850; -139.000;   12.000
322.907;  101.075;  129.000;  327.000
323.043;  -12.850; -115.000; -206.000
323.179;  -30.425; -394.000; -363.000
323.315;   36.475; -401.000; -371.000
323.451;  118.875; -328.000; -236.000
323.587;   66.800;  -60.000;  -77.000
323.723;   49.600; -682.000; -601.000
323.859;  -11.375; -258.000;  -76.000
323.995;  -30.800; -467.000; -409.000
324.131; -115.725; -967.000; -892.000
324.267;  -53.200; -254.000; -276.000
324.402; -131.200; -960.000; -983.000
324.538;  -13.050; -279.000; -104.000
324.674;   23.900;  164.000;   77.000
324.810;  154.850;  226.000;  308.000
324.946;   21.100; -810.000; -658.000
325.082;  -78.325; -568.000; -475.000
325.217;   -3.000;  -62.000;   16.000
325.353; -107.825; -764.000; -659.000
325.489;  -90.575; -540.000; -506.000
325.625;  -84.125; -579.000; -525.000
325.760;   56.225;  517.000;  376.000
325.896;  -27.675; -515.000; -702.000
326.032;  -53.275; -403.000; -352.000
326.168;  -60.350; -462.000; -369.000
326.303;  -58.100; -352.000; -461.000
326.439;  -20.000; -336.000; -276.000
326.575;   -1.125; -190.000;  -29.000
326.710;    5.450; -156.000;  -30.000
326.846;  -10.050;  146.000;  103.000
326.982;  -87.225; -530.000; -548.000
327.117;  -76.375; -481.000; -442.000
327.253;  -92.650; -745.000; -742.000
327.388; -170.500;-1137.000;-1153.000
327.524;  -33.550; -811.000; -578.000
327.659;  -30.700;  -58.000;  -22.000
327.795;   -9.675;   69.000;   45.000
327.931;  -94.800; -723.000; -499.000
328.066;  -27.200; -417.000; -276.000
328.202;  -19.950;   12.000; -129.000
328.337;  106.100;  957.000;  713.000
328.473;   42.100;  -12.000;  -74.000
328.608;  -26.000; -256.000; -267.000
328.743;  -69.050; -799.000; -664.000
328.879;   13.325;  214.000;  114.000
329.014;  -37.600; -102.000; -122.000
329.150;  -79.250; -358.000; -483.000
329.285;  -83.225; -465.000; -466.000
329.421;  -54.750; -548.000; -246.000
329.556;  -33.775;  -36.000;   85.000
329.691;  -96.975; -633.000; -615.000
329.827;  -76.600; -626.000; -480.000
329.962;  -44.875;  131.000; -301.000
330.097; -101.525; -673.000; -585.000
330.233;  -57.225; -410.000; -223.000
330.368; -129.675; -839.000; -628.000
330.503;  -10.800;    3.000;   98.000
330.638;    8.950;  -93.000; -125.000
330.774;  -48.250; -609.000; -530.000
330.909;  -37.750; -434.000; -244.000
331.044;  -92.975; -714.000; -708.000
331.179; -171.925;-1217.000;-1109.000
331.315;   12.175;   77.000;   20.000
331.450;    3.950;  157.000;  285.000
331.585;  -94.125; -805.000; -706.000
331.720;  -75.550; -510.000; -460.000
331.855;  -11.950;  -35.000; -102.000
331.990;  232.300;   62.000;  138.000
332.126;  121.575; -110.000;   71.000
332.261;  -32.100; -379.000; -265.000
332.396;   -8.025; -135.000; -242.000
332.531; -103.575;-1074.000;-1031.000
332.666;   16.475; -519.000; -363.000
332.801;  -98.750; -726.000; -807.000
332.936;  -10.525; -192.000; -122.000
333.071; -143.300; -870.000; -817.000
333.206;   15.550;  307.000;  379.000
333.341;   28.350;  344.000;  418.000
333.476;  -82.250; -627.000; -623.000
333.611;  -36.525; -251.000; -173.000
333.746;  -44.750; -381.000; -464.000
333.881; -108.400; -973.000; -935.000
334.016; -118.450; -936.000; -917.000
334.151; -120.175; -746.000; -702.000
334.286;   33.900;  152.000;  186.000
334.421;  -12.375; -125.000; -178.000
334.556;  -73.925; -611.000; -567.000
334.690;  -92.525; -631.000; -577.000
334.825;   73.925;  381.000;   83.000
334.960;  -64.925; -285.000; -413.000
335.095;   23.300;  135.000;  -91.000
335.230;  -97.400; -722.000; -738.000
335.365; -143.550;-1084.000; -990.000
335.499; -136.900;-1108.000;-1037.000
335.634;   35.000;    9.000;  534.000
335.769;  -91.775; -755.000; -720.000
335.904;  -47.075; -603.000; -561.000
336.038;  -43.025; -735.000; -657.000
336.173; -105.925;-1206.000;-1194.000
336.308;    7.075; -116.000; -189.000
336.443;   19.825; -544.000; -634.000
336.577;  -65.575; -936.000; -787.000
336.712;   76.825;   -4.000;  -12.000
336.847;  -19.800; -724.000; -607.000
336.981;   73.400; -272.000; -208.000
337.116;  309.975;  615.000;  501.000
337.250;  193.175; -434.000; -421.000
337.385;  214.875; -297.000; -208.000
337.520;   75.575; -632.000; -603.000
337.654;  -55.125; -215.000; -126.000
337.789; -126.175; -989.000; -933.000
337.923;  -34.000; -104.000; -205.000
338.058;  -78.350; -673.000; -738.000
338.192;  -24.875; -611.000; -488.000
338.327;   -5.200;  -18.000; -155.000
338.461;  -61.650; -299.000; -469.000
338.596;  -91.675; -780.000; -638.000
338.730;  -99.575; -767.000; -803.000
338.865;   75.200;  -46.000; -140.000
338.999;  -64.025; -846.000; -702.000
339.134;  -34.875; -634.000; -536.000
339.268;   16.650; -741.000; -603.000
339.403;  357.375; -740.000; -775.000
339.537;   90.050; -894.000; -820.000
339.671; -118.825; -829.000; -813.000
339.806;  -59.325; -556.000; -512.000
339.940;   14.200; -261.000; -235.000
340.074;  -91.150; -685.000; -510.000
340.209;  -46.500; -351.000; -230.000
340.343;  -92.425; -517.000; -573.000
340.477;  157.525;  998.000; 1036.000
340.612;  -58.300;-1033.000; -900.000
340.746;  115.275; -199.000; -243.000
340.880;  -68.925; -924.000; -785.000
341.014;  -16.750;  -45.000; -154.000
341.149; -109.750; -756.000; -718.000
341.283; -113.275; -839.000; -754.000
341.417;  -95.300;-1124.000; -938.000
341.551;  183.025; -768.000; -708.000
341.685;  -28.075; -633.000; -611.000
341.820;  -38.275; -562.000; -493.000
341.954;  -64.100; -218.000; -349.000
342.088; -145.625;-1102.000;-1019.000
342.222;   51.350;  565.000;  618.000
342.356;  -59.175; -395.000; -335.000
342.490;  -90.825; -880.000; -841.000
342.624;  -47.200; -339.000; -242.000
342.758;   -1.100; -364.000; -312.000
342.892;  -65.275; -710.000; -585.000
343.026;  -31.675;  -58.000; -116.000
343.160;  -60.150; -426.000; -376.000
343.294;  -86.275; -474.000; -337.000
343.428;    3.600; -488.000; -448.000
343.562;   -7.400; -172.000;  -23.000
343.696;  -12.775; -385.000; -314.000
343.830;   -7.750; -362.000; -356.000
343.964;   19.025; -231.000; -168.000
344.098; 1080.825;  199.000;   70.000
344.232;  879.575; -266.000; -127.000
344.366;   89.850; -567.000; -453.000
344.500;   89.150; -665.000; -744.000
344.634;   44.150; -324.000; -164.000
344.768;   -1.300; -531.000; -341.000
344.902;   13.375;  278.000;  256.000
345.035;  -71.425; -556.000; -496.000
345.169; -131.775; -933.000; -656.000
345.303;  -18.000; -308.000; -482.000
345.437;  -56.600; -826.000; -717.000
345.571;  -59.925; -675.000; -594.000
345.704;  -65.275; -309.000; -532.000
345.838;   -9.125; -331.000; -284.000
345.972;  -16.975; -543.000; -495.000
346.106;  151.625; -179.000; -190.000
346.239;  431.550; -312.000; -243.000
346.373;    3.600; -343.000; -302.000
346.507; -143.050; -950.000; -962.000
346.640;  173.775;  -30.000;   13.000
346.774;  -35.850; -650.000; -797.000
346.908;   -9.300; -138.000;  -11.000
347.041;  -85.300; -646.000; -593.000
347.175;   10.800;  259.000;   27.000
347.309;  -64.475; -698.000; -628.000
347.442;  -88.800; -883.000; -732.000
347.576;  308.375;  670.000;  668.000
347.709;  245.525; -123.000;  -52.000
347.843;  -77.975; -933.000; -825.000
347.976;   36.050;  235.000;  294.000
348.110; -175.325;-1268.000;-1186.000
348.243; -118.750; -679.000; -772.000
348.377;    3.375;  -26.000;   60.000
348.510;   55.525;  403.000;  540.000
348.644;  -27.825;  -37.000; -159.000
348.777;    8.950;  180.000;  191.000
348.911;  -57.200; -142.000; -112.000
349.044;  189.375;  471.000;  448.000
349.178;  212.875;-1069.000;-1006.000
349.311;  129.400;  141.000;  255.000
349.444;   -8.475; -927.000; -813.000
349.578;  -15.700; -347.000; -200.000
349.711; -110.000; -959.000; -862.000
349.845;    6.375; -661.000; -591.000
349.978; -155.775;-1224.000;-1137.000
350.111;  -87.675; -546.000; -612.000
350.244;  -89.575; -596.000; -700.000
350.378;   23.775; -392.000; -393.000
350.511;  -62.875; -393.000; -426.000
350.644; -115.725; -808.000; -806.000
350.778;   16.775;  168.000;  104.000
350.911;   10.450;  134.000;  140.000
351.044;  -85.600; -685.000; -615.000
351.177;  -22.800; -321.000; -281.000
351.310;   -7.825;    3.000; -131.000
351.444;  -54.225; -888.000; -788.000
351.577;  128.125;  140.000;   90.000
351.710;  109.800;  593.000;  417.000
351.843;  -51.325; -165.000;  -77.000
351.976;    6.625;  149.000;  -79.000
352.109;  -86.925; -621.000; -612.000
352.242;  -11.025; -464.000; -419.000
352.376;  -43.550; -580.000; -636.000
352.509;  214.500; -437.000; -356.000
352.642;   42.450; -654.000; -604.000
352.775;   61.275; -141.000;  -98.000
352.908; -107.625; -933.000; -904.000
353.041; -101.700; -814.000; -824.000
353.174;  -49.900; -551.000; -424.000
353.307;  -83.375; -753.000; -764.000
353.440;   76.150;  541.000;  453.000
353.573;  -98.675; -957.000;-1008.000
353.706;  -14.250; -384.000; -558.000
353.839;  -14.650; -264.000; -220.000
353.971;  -82.175; -657.000; -512.000
354.104;  -85.500; -896.000; -835.000
354.237;  -29.375; -627.000; -662.000
354.370;  -76.150; -846.000; -879.000
354.503; -183.125;-1231.000;-1308.000
354.636;  -44.250; -529.000; -348.000
354.769; -123.800; -937.000; -860.000
354.902;  -17.675; -230.000; -139.000
355.034;  -19.725; -164.000; -220.000
355.167;   -8.275; -262.000; -162.000
355.300;  -87.375;-1061.000; -880.000
355.433;  935.000;  -71.000;  -14.000
355.565; 1426.075; -402.000; -384.000
355.698;  351.600; -356.000; -296.000
355.831;  -18.925; -882.000; -801.000
355.964;  106.375; -285.000; -170.000
356.096;  -73.025; -856.000; -843.000
356.229;   20.525; -523.000; -530.000
356.362;  290.950; -373.000; -266.000
356.494;  577.050; -229.000; -162.000
356.627;  522.975;  269.000;  377.000
356.760;  650.825;  120.000;   53.000
356.892;  861.850; -286.000; -601.000
357.025;  741.125;  403.000;  389.000
357.157;  689.325; -167.000; -179.000
357.290;  599.650; -856.000; -713.000
357.423;  180.675; -667.000; -556.000
357.555;  137.500; -217.000; -228.000
357.688;  141.750; -483.000; -364.000
357.820;  520.625; -870.000; -877.000
357.953; 4094.325; -563.000; -589.000
358.085;  944.700; -632.000; -612.000
358.218; 1425.250;-1131.000; -932.000
358.350;  261.500;  -58.000;  312.000
358.483; -106.550;-1300.000;-1187.000
358.615;    2.450;-1182.000;-1078.000
358.747;  -46.975;-1187.000;-1058.000
358.880;   40.525; -810.000; -744.000
359.012;    1.725; -376.000; -202.000
359.145;  -29.275; -480.000; -511.000
359.277;   79.025; -962.000; -913.000
359.409; 3423.550;  536.000;  231.000
359.542;  911.850; -738.000; -688.000
359.674;   83.000;   46.000;   13.000
359.806;  -59.250; -565.000; -438.000
359.939;  -35.975; -617.000; -516.000
360.071;  -11.800; -583.000; -579.000
360.203;  -20.075; -411.000; -364.000
360.335;   48.450;  164.000;  -16.000
360.468;  219.900; -249.000; -307.000
360.600; 2736.950; -547.000; -454.000
360.732; 2654.475; -546.000; -423.000
360.864;  383.375;-1216.000;-1044.000
360.996;  345.275; -516.000; -554.000
361.129;   67.925; -389.000; -598.000
361.261;   21.900;  110.000; -113.000
361.393;  -19.300; -252.000; -214.000
361.525;   38.025;   94.000;  244.000
361.657;  -14.675; -821.000; -703.000
361.789;   14.450; -139.000; -155.000
361.921;  292.375; -642.000; -593.000
362.053;  320.875;  524.000;  541.000
362.185;   61.350;  288.000;   72.000
362.318;  -71.800; -709.000; -705.000
362.450;  138.775;  294.000;  444.000
362.582;  172.650; -913.000; -870.000
362.714;  -28.950; -353.000; -332.000
362.846;  -76.000; -606.000; -490.000
362.978; -141.000; -941.000; -811.000
363.109;   70.550; -161.000; -260.000
363.241;  512.075; -739.000; -749.000
363.373;  405.125; -649.000; -564.000
363.505;  600.175; -186.000;  -91.000
363.637;  138.050; -787.000; -601.000
363.769; -118.075;-1067.000;-1080.000
363.901;  -57.000; -596.000; -654.000
364.033; -116.050;-1103.000;-1062.000
364.165;    8.250; -283.000; -283.000
364.296;   65.975; -316.000; -177.000
364.428;   65.775;-1344.000;-1220.000
364.560;  -69.425; -679.000; -661.000
364.692;  -51.775; -738.000; -835.000
364.824;  328.750; -588.000; -456.000
364.955;  439.825; -402.000; -564.000
365.087;  810.500;-1097.000; -852.000
365.219;   18.500; -686.000; -816.000
365.351;  -58.200; -526.000; -572.000
365.482;   67.925;  300.000;  240.000
365.614;  -56.050; -402.000; -314.000
365.746;  -92.550; -729.000; -752.000
365.877;  -98.850; -706.000; -672.000
366.009;  244.925;  -35.000;  -62.000
366.141; -102.025;-1249.000;-1134.000
366.272; -109.950; -803.000; -719.000
366.404; -118.825;-1005.000; -874.000
366.535;    1.850; -139.000;  -12.000
366.667; -108.100; -644.000; -649.000
366.799;   24.600;  353.000;  203.000
366.930; -118.400; -862.000; -996.000
367.062;  122.700; -639.000; -613.000
367.193;  128.825; -872.000; -842.000
367.325;  -58.300; -580.000; -684.000
367.456;   87.525; -246.000;   31.000
367.588;  155.925; -371.000; -318.000
367.719;   33.875;  -44.000;  -45.000
367.851;   -8.175; -222.000; -241.000
367.982;  -37.575; -875.000; -732.000
368.113;  127.425; -475.000; -358.000
368.245; -118.675; -960.000; -841.000
368.376;   -8.450; -254.000; -302.000
368.508;  -25.650; -188.000; -263.000
368.639; -135.425;-1166.000;-1034.000
368.770;   -4.825; -670.000; -589.000
368.902;  -49.500; -836.000; -926.000
369.033; -102.625; -906.000; -855.000
369.164;  -54.675; -720.000; -653.000
369.296; -109.250; -452.000; -601.000
369.427;    8.300; -209.000; -144.000
369.558;  -36.350; -593.000; -377.000
369.689;  -76.650; -721.000; -569.000
369.821; -133.650; -951.000; -845.000
369.952;  -18.675;   42.000; -108.000
370.083;  -49.625; -229.000; -108.000
370.214;  -66.225; -735.000; -650.000
370.345;   -0.675;   65.000;   81.000
370.477;  -70.375; -810.000; -790.000
370.608;  276.125; -328.000; -264.000
370.739;  -30.175;-1233.000;-1292.000
370.870;  -16.000;-1102.000; -923.000
371.001;  118.725; -378.000; -467.000
371.132;  -69.300; -754.000; -735.000
371.263;  -12.250;  -42.000; -148.000
371.394; -126.825; -841.000; -748.000
371.525;   38.275;  345.000;  225.000
371.657;  -77.275; -808.000; -670.000
371.788;   90.175;  103.000;  199.000
371.919;  216.600; -384.000; -304.000
372.050; 4188.175;  -91.000; -156.000
372.181; 1262.400; -188.000; -294.000
372.311;  437.850;   42.000; -127.000
372.442;   55.925; -457.000; -451.000
372.573;  -18.175; -444.000; -340.000
372.704; -119.700;-1008.000; -980.000
372.835;  116.700; -228.000; -289.000
372.966;  -56.375; -646.000; -554.000
373.097;  -56.600; -575.000; -711.000
373.228;  -33.600; -717.000; -542.000
373.359;  187.025; -824.000; -536.000
373.490; 1129.150; -881.000; -727.000
373.620; 1383.225;-1001.000; -803.000
373.751; 2099.525; -332.000; -396.000
373.882;  970.125; -663.000; -733.000
374.013;   89.075; -449.000; -262.000
374.143;  -16.975; -581.000; -659.000
374.274;  -95.200; -987.000; -908.000
374.405;  200.450; -388.000; -276.000
374.536;  538.825; -526.000; -387.000
374.666; 1357.625; -759.000; -807.000
374.797;  295.475; -817.000; -868.000
374.928; 1047.225; -710.000; -560.000
375.058; 1071.775; -535.000; -500.000
375.189;   95.275;  -59.000;  -93.000
375.320; -102.050; -928.000;-1034.000
375.450;  -34.900; -625.000; -616.000
375.581;  -44.800; -526.000; -436.000
375.712;  -26.950; -574.000; -250.000
375.842;  367.000; -438.000; -415.000
375.973;  295.475; -554.000; -513.000
376.103;  -20.500; -665.000; -648.000
376.234;  -76.125; -531.000; -552.000
376.364;  -31.350; -944.000; -867.000
376.495;  364.650;  925.000;  529.000
376.625;   10.550; -472.000; -485.000
376.756;   93.200; -709.000; -678.000
376.886;  -59.300;-1178.000;-1026.000
377.017;   40.625;-1048.000;-1061.000
377.147;  308.725; -786.000; -782.000
377.278;   58.950;  174.000;  228.000
377.408; -127.950; -801.000; -815.000
377.538; -105.400; -707.000; -693.000
377.669;  -75.625; -537.000; -613.000
377.799;  -80.625; -645.000; -635.000
377.929;  -49.700; -610.000; -428.000
378.060; -115.425; -781.000; -847.000
378.190;  -71.175; -726.000; -531.000
378.320;  -45.500; -401.000; -406.000
378.451;   -2.675; -131.000;  -22.000
378.581;    6.175;  -67.000; -110.000
378.711;  161.900; 1035.000;  866.000
378.841;   -1.500; -533.000; -675.000
378.972;  -67.700; -871.000; -751.000
379.102;   28.200; -652.000; -579.000
379.232;  -10.175; -126.000;  -73.000
379.362;  -98.475;-1001.000; -885.000
379.492;   36.675; -373.000; -424.000
379.623;  132.125;    0.000;  111.000
379.753;  -97.100;-1107.000; -974.000
379.883;  223.500;   59.000;  156.000
380.013;   28.775;-1081.000;-1017.000
380.143;  -84.575;-1097.000;-1056.000
380.273; -102.075; -985.000; -861.000
380.403;    6.300; -344.000; -257.000
380.533;  -25.725; -651.000; -664.000
380.663;   92.350;  173.000;  128.000
380.793;  -72.450;-1027.000;-1074.000
380.923;  -33.775; -103.000;  -34.000
381.053; -101.300; -613.000; -623.000
381.183;  -35.425; -106.000; -248.000
381.313;   55.100; -656.000; -470.000
381.443;   56.225; -692.000; -473.000
381.573;  258.400; -402.000; -409.000
381.703;  372.250;-1249.000;-1095.000
381.833; -118.825;-1454.000;-1336.000
381.963;  131.725; -134.000;  -87.000
382.093; 1607.175; -925.000; -909.000
382.223;  512.550; -713.000; -602.000
382.353;    9.125; -801.000; -608.000
382.482;  485.475;-1091.000; -964.000
382.612;  885.925; -872.000; -644.000
382.742;  518.750; -695.000; -622.000
382.872;  352.250; -565.000; -551.000
383.002;   68.600;  347.000; -132.000
383.131;   -2.125; -226.000; -160.000
383.261;  -39.800; -706.000; -768.000
383.391;  314.500; -552.000; -377.000
383.521; 2934.900;  451.000;  263.000
383.650;  673.650; -947.000; -904.000
383.780;  -16.825; -783.000; -656.000
383.910;  108.600;  880.000;  802.000
384.039;   57.550; -794.000; -656.000
384.169;  279.375;-1205.000;-1017.000
384.299;  -14.550; -650.000; -662.000
384.428;  -77.275; -764.000; -680.000
384.558;  -45.075; -308.000; -275.000
384.687;  -30.350; -414.000; -334.000
384.817;   31.350;   75.000;   -2.000
384.947;   40.425; -234.000; -141.000
385.076;  326.150;  982.000;  912.000
385.206;  115.650;  369.000;  480.000
385.335;  -19.875; -549.000; -417.000
385.465;  -76.525; -655.000; -663.000
385.594;  154.850;  -53.000;  -44.000
385.724;  542.025; -868.000; -838.000
385.853;  147.000; -296.000; -270.000
385.982; 1615.775; -743.000; -787.000
386.112; 2528.325;-1052.000; -871.000
386.241;  178.300; -307.000; -312.000
386.371;   33.400; -174.000;  -87.000
386.500;   11.900; -825.000; -789.000
386.629;   25.400; -874.000; -817.000
386.759;   70.700;  -43.000;   68.000
386.888;   -5.225; -170.000; -250.000
387.017;  -81.750; -648.000; -620.000
387.147;  -76.125; -771.000; -798.000
387.276;   32.825; -410.000; -397.000
387.405;   34.025; -398.000; -342.000
387.535;  -43.750; -452.000; -361.000
387.664;  -43.400; -692.000; -620.000
387.793;   77.450; -198.000; -113.000
387.922;  611.625;  255.000;  200.000
388.052;   42.450; -576.000; -423.000
388.181;   24.775; -342.000; -472.000
388.310;   40.575; -889.000; -710.000
388.439;  -22.375; -749.000; -742.000
388.568;  209.700;  365.000;  244.000
388.697; 1250.900; -756.000; -653.000
388.826;  270.825; -768.000; -666.000
388.956;   87.325; -285.000; -307.000
389.085;  -34.700; -347.000; -287.000
389.214; -100.000; -842.000; -872.000
389.343;  -62.125; -645.000; -413.000
389.472;  386.475;  126.000;  149.000
389.601;  523.150;   91.000;    0.000
389.730;   32.450; -568.000; -687.000
389.859;   75.250;  226.000;   46.000
389.988;  222.650; -423.000; -408.000
390.117;  164.800; -168.000; -146.000
390.246;   13.950; -331.000; -320.000
390.375;  136.775; -673.000; -626.000
390.504;  -58.500; -703.000; -621.000
390.633; -102.275; -672.000; -726.000
390.761;  -57.900; -732.000; -645.000
390.890;   34.050;   -4.000; -130.000
391.019;  -12.600; -421.000; -441.000
391.148; -124.400; -826.000; -855.000
391.277;  -50.950; -576.000; -493.000
391.406;  -59.275; -821.000; -805.000
391.534;   31.750;  574.000; -301.000
391.663;  -65.500; -583.000; -645.000
391.792;  -78.000; -673.000; -701.000
391.921;  118.000;   -3.000;   15.000
392.050;  237.000; -287.000; -228.000
392.178;  -16.400;-1206.000;-1061.000
392.307;  196.800; -758.000; -712.000
392.436;  101.850; -427.000; -641.000
392.564;   27.900;  166.000;   -6.000
392.693;  -86.275; -860.000; -682.000
392.822;  258.175; -529.000; -534.000
392.950;  132.300; -880.000; -714.000
393.079;  385.275; -188.000; -328.000
393.208;   45.875; -488.000; -511.000
393.336;    0.075; -170.000; -145.000
393.465;  -40.375; -317.000; -199.000
393.593;    8.050;   62.000;   79.000
393.722; -154.800;-1121.000; -916.000
393.850;  -39.700; -188.000;  -61.000
393.979; -154.500; -926.000; -805.000
394.107;  -59.825; -517.000; -537.000
394.236;  -18.225; -570.000; -507.000
394.364;  225.325;  383.000;  206.000
394.493;  353.400; -911.000; -767.000
394.621;    1.400; -955.000; -916.000
394.750;  643.450; -873.000; -923.000
394.878; 2779.175; -247.000; -149.000
395.007; 3736.100; -721.000; -807.000
395.135;  273.125; -790.000; -721.000
395.263; -100.000;-1038.000;-1040.000
395.392;    2.775;  -25.000; -107.000
395.520; -148.225; -818.000; -679.000
395.648;  -78.700; -865.000; -915.000
395.777;   -4.850; -366.000; -405.000
395.905;  -35.775; -449.000; -564.000
396.033;    6.000;  217.000;  172.000
396.162;  595.000; -399.000; -453.000
396.290;  522.450;  -17.000;   -2.000
396.418;  127.500; -555.000; -514.000
396.546;  -68.625; -571.000; -466.000
396.674;  -91.500; -850.000; -878.000
396.803;   16.650;  -72.000;  -23.000
396.931;  115.600; -179.000; -199.000
397.059;   91.125;-1026.000; -989.000
397.187;  -94.100;-1026.000; -975.000
397.315; -141.525; -884.000; -649.000
397.443;  -95.550; -592.000; -443.000
397.572;  -91.325; -578.000; -424.000
397.700;   16.700; -607.000; -614.000
397.828;    5.350;  120.000;  -90.000
397.956;  -55.800; -508.000; -478.000
398.084;  -56.225; -767.000; -626.000
398.212;   45.450;  137.000;  124.000
398.340;   14.100;  -56.000;  159.000
398.468;   40.275; -390.000; -169.000
398.596; -140.525; -993.000; -953.000
398.724; -120.675; -762.000; -767.000
398.852; -160.450;-1024.000; -976.000
398.980;  -60.975; -560.000; -560.000
399.108;  -39.875; -982.000; -735.000
399.236;   40.675;   13.000;    8.000
399.363;   17.175;  222.000;  196.000
399.491;  -69.875; -404.000; -398.000
399.619; -126.250; -829.000; -800.000
399.747;  -99.800; -859.000; -771.000
399.875;   84.075;  220.000;  234.000
400.003;  -30.675; -359.000; -284.000
400.130;  -90.775; -421.000; -341.000
400.258;  -17.500;  -83.000;   38.000
400.386;  -66.725; -352.000; -168.000
400.514;  -39.200; -526.000; -587.000
400.641;  -71.150; -928.000; -802.000
400.769; -128.850; -979.000; -888.000
400.897; -114.425; -838.000; -793.000
401.025;  -17.575; -166.000; -152.000
401.152;  -12.500;  220.000;   38.000
401.280;  -86.575; -430.000; -429.000
401.408; -117.375; -712.000; -576.000
401.535; -105.750; -735.000; -758.000
401.663; -183.425;-1134.000;-1054.000
401.790;  -77.475; -514.000; -525.000
401.918;   54.450;  436.000;  405.000
402.046;  -14.900;  134.000;  122.000
402.173;  -23.800;  -18.000;    7.000
402.301;  -71.475; -519.000; -397.000
402.428;   17.525;  528.000;  383.000
402.556; -145.450;-1188.000; -913.000
402.683;  -43.950;  -20.000;   -1.000
402.811;  -25.350;  -37.000; -206.000
402.938;  -10.825;   20.000;   27.000
403.066;  242.100; -574.000; -558.000
403.193;  392.300;  299.000;  239.000
403.321;  313.550; -396.000; -574.000
403.448;  371.000;   83.000;   27.000
403.575;  181.450;  -90.000;  -46.000
403.703; -100.325; -732.000; -557.000
403.830;  -59.450; -531.000; -496.000
403.957; -141.000;-1117.000;-1023.000
404.085;   12.375;  -61.000; -172.000
404.212;  105.450;  -50.000;   63.000
404.339;  253.175; -566.000; -306.000
404.467; 5446.350; -612.000; -524.000
404.594; 3784.425; -287.000; -227.000
404.721;  991.550; -869.000; -764.000
404.848;   83.850; -113.000; -202.000
404.976; -104.225; -856.000; -783.000
405.103;    1.900;  -14.000;  -82.000
405.230;   -4.875;  190.000;  226.000
405.357;   21.375;  117.000;   44.000
405.484;  237.625;  -49.000;    5.000
405.612;   50.200; -548.000; -563.000
405.739;  -73.475; -488.000; -243.000
405.866;   82.025;  669.000;  385.000
405.993;  -42.400; -398.000; -102.000
406.120; -136.800; -801.000; -887.000
406.247;  -53.100; -323.000; -342.000
406.374;  526.525;  540.000;  629.000
406.501;  138.525; -632.000; -702.000
406.628;  -72.775; -621.000; -589.000
406.755;  -93.200; -803.000; -620.000
406.882;  -33.975; -228.000; -277.000
407.009; -109.050; -719.000; -628.000
407.136;   74.000; -480.000; -401.000
407.263;  183.025; -939.000; -829.000
407.390;  -64.650; -692.000; -614.000
407.517; -174.175;-1139.000;-1187.000
407.644;  -55.175; -332.000; -256.000
407.771;  -74.450; -249.000; -287.000
407.898;    8.875;  168.000;  328.000
408.025;  -63.475; -421.000; -313.000
408.151;   -8.425;   82.000;  153.000
408.278;  -76.925; -267.000; -216.000
408.405; -109.150; -931.000; -899.000
408.532;  -63.850; -549.000; -542.000
408.659; -106.375; -677.000; -648.000
408.785; -199.450;-1298.000;-1170.000
408.912;  -60.150; -412.000; -296.000
409.039; -114.525; -610.000; -686.000
409.166; -107.650; -591.000; -555.000
409.292; -113.025; -571.000; -534.000
409.419; -116.150; -665.000; -649.000
409.546;  -96.475; -431.000; -192.000
409.672; -108.725; -713.000; -545.000
409.799;  -22.675;  -36.000;   34.000
409.926;  -47.175; -180.000; -179.000
410.052; -183.550;-1127.000;-1091.000
410.179;  -50.525; -368.000; -392.000
410.305;  -90.675; -375.000; -493.000
410.432;  -48.375; -220.000; -333.000
410.558; -103.250; -305.000; -380.000
410.685; -121.725; -688.000; -431.000
410.812; -112.050; -409.000; -588.000
410.938; -147.500; -964.000; -808.000
411.065;  -98.550; -671.000; -645.000
411.191;  -16.950; -189.000; -174.000
411.317; -122.125; -823.000; -742.000
411.444;  -64.425; -317.000; -246.000
411.570;  -77.350; -339.000; -294.000
411.697; -108.925; -758.000; -752.000
411.823; -182.350; -989.000; -999.000
411.949;  -23.675;  -56.000;   17.000
412.076; -118.475; -539.000; -519.000
412.202; -120.100; -758.000; -757.000
412.329; -126.075; -798.000; -752.000
412.455; -102.575; -821.000; -657.000
412.581;  -24.175;  -15.000;  172.000
412.707;  -60.225; -540.000; -457.000
412.834;    4.675;  156.000;  219.000
412.960;  -68.875; -785.000; -784.000
413.086; -106.200; -743.000; -701.000
413.212;  153.700;  604.000;  578.000
413.339;  -65.525; -685.000; -701.000
413.465;   18.325; -364.000; -310.000
413.591;  -83.375; -757.000; -474.000
413.717;  -51.675; -358.000; -366.000
413.843; -126.225; -839.000; -861.000
413.969;  -71.525;  -47.000; -292.000
414.096;  -96.675; -679.000; -679.000
414.222;   -5.150;  -33.000;   85.000
414.348;  -25.050; -652.000; -385.000
414.474;  114.775;   38.000;  -52.000
414.600;  -24.375; -126.000; -144.000
414.726;   -2.700;  -96.000;  -55.000
414.852;  -75.400; -365.000; -342.000
414.978;   41.175;  104.000;  -18.000
415.104;   42.850;   38.000;   80.000
415.230;   42.125; -329.000; -330.000
415.356;   31.775; -409.000; -514.000
415.482;  202.275;   13.000;  -35.000
415.608;  253.800; -247.000; -323.000
415.734;  927.075;   67.000;   38.000
415.860;19228.425; -875.000; -767.000
415.986;14055.850; -685.000; -607.000
416.111; 1187.700; -798.000; -652.000
416.237;  243.550; -424.000; -571.000
416.363; 1032.525; -765.000; -733.000
416.489; 3932.475; -324.000; -251.000
416.615;  406.700; -707.000; -742.000
416.741;  -34.725; -677.000; -784.000
416.866;  -95.400; -673.000; -736.000
416.992; -134.550; -801.000; -818.000
417.118;  -28.225;  -41.000;  -80.000
417.244;  -69.225; -798.000; -531.000
417.369;  -62.575; -801.000; -612.000
417.495;   -7.125; -325.000; -254.000
417.621;  -76.975;-1015.000; -803.000
417.746;   -9.375; -579.000; -572.000
417.872;   37.400; -254.000; -144.000
417.998;   58.750; -515.000; -530.000
418.123;  987.650;-1073.000; -845.000
418.249; 5091.950; -512.000; -601.000
418.374;  716.375; -916.000; -824.000
418.500;   99.775; -383.000; -482.000
418.626;   94.650;   70.000;  -59.000
418.751;  113.775; -549.000; -448.000
418.877;  191.775; -637.000; -643.000
419.002; 1690.400; -688.000; -560.000
419.128;11894.525; -930.000; -721.000
419.253; 2932.750; -967.000; -837.000
419.379;  380.450; -391.000; -338.000
419.504;  371.475;  325.000;  415.000
419.629;  470.225; -393.000; -212.000
419.755; 3279.275; -317.000; -254.000
419.880;19671.950;  -98.000;   67.000
420.006;10799.600; -280.000; -221.000
420.131;28170.225; -662.000; -775.000
420.256; 4121.175; -315.000; -316.000
420.382;  526.800; -665.000; -687.000
420.507;   77.125; -649.000; -778.000
420.632;  161.975; -337.000; -339.000
420.758;  323.050; -251.000; -425.000
420.883;  -87.925; -876.000; -672.000
421.008; -103.475; -775.000; -619.000
421.133;  -85.525; -509.000; -467.000
421.259;  -41.100; -325.000; -259.000
421.384; -118.400; -834.000; -693.000
421.509;  -23.425;-1052.000; -862.000
421.634; 1406.150; -936.000; -820.000
421.759;  639.625; -359.000; -327.000
421.885;  -51.350; -717.000; -656.000
422.010;  -64.900; -673.000; -542.000
422.135; -149.850; -695.000; -727.000
422.260;   38.825;  340.000;  280.000
422.385;  -28.775;   12.000;  -98.000
422.510;   19.300;  151.000;  -26.000
422.635;   11.075;  -87.000;  -43.000
422.760;  117.300; -766.000; -791.000
422.885;   56.000;  -57.000;  -80.000
423.010;  -45.100; -112.000; -169.000
423.135;  -98.000; -481.000; -561.000
423.260;  -16.675; -150.000; -245.000
423.385;   72.600;  476.000;  222.000
423.510;   42.175;   71.000;  -22.000
423.635;   72.750;  133.000;   45.000
423.760;   67.275;  383.000;  328.000
423.885;   51.875;  336.000;  391.000
424.010;   21.050;  -68.000;  -13.000
424.135;  -27.675;    5.000;  -33.000
424.259;  -92.175; -654.000; -457.000
424.384;  -65.000; -279.000; -272.000
424.509;  -10.300; -260.000; -186.000
424.634; -111.925; -761.000; -623.000
424.759;  -19.875; -688.000; -544.000
424.883;    2.425; -506.000; -527.000
425.008;  163.450; -502.000; -410.000
425.133; 1910.125; -679.000; -653.000
425.258;  907.725; -517.000; -381.000
425.382; 1136.450; -867.000; -774.000
425.507; 2999.550; -487.000; -543.000
425.632;  476.600; -802.000; -663.000
425.756;  435.000; -256.000; -146.000
425.881; 5966.400; -831.000; -857.000
426.006;16179.400; -604.000; -355.000
426.130; 2613.850; -696.000; -508.000
426.255;  337.550; -611.000; -491.000
426.379;  138.425; -189.000; -577.000
426.504;  372.300;  660.000;  544.000
426.629; 3889.750; -519.000; -466.000
426.753; 2699.225;   64.000;  -46.000
426.878;  311.450; -252.000; -288.000
427.002;  128.025; -651.000; -668.000
427.127; 1539.950;  -35.000; -158.000
427.251;10813.450;  372.000;  401.000
427.375; 3157.250; -191.000; -173.000
427.500; 2611.250; -616.000; -610.000
427.624;  902.775; -234.000; -400.000
427.749;  112.000; -216.000; -225.000
427.873;  -22.800; -499.000; -412.000
427.997;  -38.275; -222.000; -230.000
428.122;   79.000;  795.000;  703.000
428.246;   72.550;  433.000;  434.000
428.371; -125.125; -869.000; -773.000
428.495;  -95.775; -624.000; -646.000
428.619;  -32.200; -186.000; -117.000
428.743;   27.975;   65.000;  132.000
428.868;   40.350; -732.000; -643.000
428.992; 1631.325; -219.000; -326.000
429.116;  675.225; -329.000; -357.000
429.240;  337.075;  419.000;  426.000
429.365;   -6.000; -454.000; -574.000
429.489;  -30.175; -638.000; -647.000
429.613;   30.000; -236.000; -177.000
429.737;   35.650; -563.000; -432.000
429.861;  252.875; -247.000; -133.000
429.985; 5280.725; -425.000; -305.000
430.109; 5855.025; -770.000; -908.000
430.234;  683.125;   76.000;  -50.000
430.358;   60.075; -250.000; -160.000
430.482;  -76.525; -672.000; -564.000
430.606;  -64.300; -655.000; -375.000
430.730;   22.125; -437.000; -388.000
430.854;  184.050; -909.000; -835.000
430.978;  -54.975; -795.000; -764.000
431.102;  -88.050; -499.000; -422.000
431.226; -119.150; -874.000; -815.000
431.350;   20.750;  345.000;  422.000
431.474;  -80.025; -661.000; -373.000
431.597; -146.175;-1060.000; -848.000
431.721;  -79.050; -276.000; -267.000
431.845; -124.300; -704.000; -472.000
431.969;  -80.500; -304.000; -349.000
432.093;  -85.075; -395.000; -317.000
432.217;  -25.725;   32.000;   82.000
432.341;  -91.075; -523.000; -518.000
432.464;   18.425;   96.000;   40.000
432.588;  259.300; -401.000; -329.000
432.712;  118.900;  -52.000;  -52.000
432.836;   43.375;  213.000;  263.000
432.959;   -5.875; -372.000; -311.000
433.083;   66.150;   11.000;    2.000
433.207;  366.475;  285.000;  930.000
433.330; 4738.925; -391.000; -200.000
433.454; 5882.875; -654.000; -638.000
433.578; 3443.675;  583.000;  278.000
433.701;  650.950; -623.000; -675.000
433.825;  170.275; -292.000; -299.000
433.949;  224.125;   28.000;  -72.000
434.072;   85.975; -410.000; -323.000
434.196;  -15.100; -309.000; -117.000
434.319; 3754.625;25482.000;25124.000
434.443;  723.525; -656.000; -603.000
434.566; 2517.475;  281.000;   62.000
434.690;  416.050; -637.000; -383.000
434.813;   39.975; -251.000; -173.000
434.937;  -72.050; -569.000; -696.000
435.060;  -27.525; -423.000; -332.000
435.184;  403.675; -492.000; -217.000
435.307;  221.625;  159.000;  102.000
435.431;  -11.450;  -40.000;   24.000
435.554;  -78.200; -399.000; -240.000
435.677;  -99.100; -350.000; -258.000
435.801;  -52.400;  -25.000;   49.000
435.924;  -14.675;    1.000;  -67.000
436.048; -107.450;-1019.000; -732.000
436.171;  -60.950; -240.000;  -66.000
436.294;  -42.000; -248.000; -229.000
436.417;   77.500; -963.000; -849.000
436.541; -104.750; -814.000; -840.000
436.664;  -54.075; -242.000; -316.000
436.787;  -43.175;   13.000;  113.000
436.910; -122.700; -792.000; -422.000
437.034;    4.100;  142.000;  143.000
437.157;   56.125;  -11.000;    0.000
437.280;  -33.325; -392.000; -292.000
437.403;  -72.500; -982.000; -869.000
437.526;  794.350; -903.000; -865.000
437.649; 2878.800; -505.000; -332.000
437.772;  445.625; -692.000; -540.000
437.896;  152.925;  700.000;  544.000
438.019;  -99.125; -758.000; -503.000
438.142;  -90.650; -596.000; -506.000
438.265;   -6.475; -639.000; -670.000
438.388;  690.250; -520.000; -410.000
438.511;  153.550; -597.000; -394.000
438.634;  -42.050; -247.000; -125.000
438.757; -133.000; -693.000; -619.000
438.880;  -25.375;  -34.000;  -57.000
439.003;  -61.225; -417.000; -437.000
439.126;  -68.125; -287.000; -167.000
439.248;  -72.000;  -98.000; -139.000
439.371;  -42.900;    9.000;  -53.000
439.494;    9.175;  510.000;  439.000
439.617;  -39.875;   65.000;  -88.000
439.740; -178.775; -968.000; -816.000
439.863; -156.825; -755.000; -595.000
439.986; -116.475; -476.000; -431.000
440.108;  -28.975; -161.000; -112.000
440.231; -154.975; -950.000; -836.000
440.354;  -32.800;  -64.000; -150.000
440.477;   56.925; -566.000; -542.000
440.599;   21.150; -200.000; -225.000
440.722; -121.325; -709.000; -586.000
440.845;   72.050;  751.000;  928.000
440.968; -106.850; -415.000; -311.000
441.090;  -65.450; -199.000;  -33.000
441.213; -168.900;-1021.000; -825.000
441.336;  -50.300; -159.000;   -5.000
441.458;  -82.900; -549.000; -396.000
441.581;  -70.350; -628.000; -629.000
441.703;  -64.775; -152.000;   13.000
441.826; -109.850; -557.000; -400.000
441.948;  -53.725;   56.000;   51.000
442.071;   22.800;  555.000;  424.000
442.193; -121.000; -531.000; -485.000
442.316;   31.050;  152.000;   97.000
442.438;   33.825; -233.000;  -10.000
442.561;   82.875;  272.000;  262.000
442.683;  667.750; -809.000; -522.000
442.806; 1450.125;   -8.000;   74.000
442.928;   78.750; -859.000; -604.000
443.051;  -59.000; -577.000; -373.000
443.173;  -94.800; -341.000; -339.000
443.295;  -90.700; -263.000; -371.000
443.418;  -74.225; -321.000;  -29.000
443.540;   -1.750; -106.000;   -4.000
443.662; -124.450; -563.000; -465.000
443.785;  -16.650;  335.000;  199.000
443.907;  -99.900; -362.000; -208.000
444.029; -123.725; -767.000; -494.000
444.152; -149.000; -644.000; -554.000
444.274;  -27.975;  -18.000;  -24.000
444.396; -115.875; -461.000; -221.000
444.518; -134.225; -691.000; -454.000
444.640; -114.925; -268.000; -111.000
444.763;  -19.200;  388.000;  249.000
444.885; -132.750; -432.000; -392.000
445.007;  -31.550;   35.000;   86.000
445.129; -116.125; -610.000; -515.000
445.251; -118.600; -372.000; -439.000
445.373; -147.150; -537.000; -386.000
445.495;   -3.975;  242.000;  350.000
445.617;   44.075;  853.000;  753.000
445.739;  -66.425; -215.000;  -97.000
445.861;  -41.125; -245.000; -112.000
445.984;  -31.775; -267.000; -101.000
446.105;  253.675; -418.000; -251.000
446.227;  743.025; -176.000;  -19.000
446.349;   30.150; -358.000; -249.000
446.471;  -92.900; -615.000; -448.000
446.593;  -63.750; -316.000;   19.000
446.715;   19.500;  -67.000;   41.000
446.837;   60.700;  697.000;  832.000
446.959;  -95.350; -457.000; -478.000
447.081; -130.900; -628.000; -518.000
447.203;   57.400;  862.000;  834.000
447.325; -101.400; -270.000;   42.000
447.446;  -17.100;  286.000;  530.000
447.568; -155.125; -921.000; -803.000
447.690;  -86.100; -236.000; -245.000
447.812; -150.525; -798.000; -519.000
447.933;  -27.625;  155.000;  127.000
448.055;  -67.700; -306.000; -261.000
448.177;  184.125;   31.000;   79.000
448.299;  132.225; -935.000; -727.000
448.420;   31.750;  -25.000;  159.000
448.542;  -52.900;   -3.000;   33.000
448.664;  -24.675;  109.000;  322.000
448.785;  -47.250;  265.000;   83.000
448.907;  -77.075; -614.000; -353.000
449.028;  -21.675; -771.000; -471.000
449.150;   61.350;  492.000;  589.000
449.272; -184.325;-1044.000; -913.000
449.393;   42.425;  612.000;  694.000
449.515; -140.350; -634.000; -581.000
449.636;  -59.225; -264.000; -155.000
449.758;   70.450;  763.000;  622.000
449.879; -102.975; -498.000; -396.000
450.001;  -81.750; -149.000;  -49.000
450.122;  -38.475;  -95.000;  162.000
450.244;  -27.225;   37.000;  364.000
450.365;  -90.625; -495.000; -301.000
450.486;  -34.575;   80.000;  268.000
450.608;   15.275;  393.000;  326.000
450.729;   49.600;  578.000;  645.000
450.850;    3.525; -574.000; -466.000
450.972;  682.650; -552.000; -389.000
451.093; 4525.575;  190.000;  588.000
451.214; 2004.625; -516.000; -337.000
451.336;  379.825;  773.000;  579.000
451.457;   52.750;  264.000;  393.000
451.578;  -43.500; -118.000;  -74.000
451.699; -130.950; -546.000; -540.000
451.821;  -83.075; -284.000;  -50.000
451.942;   -3.150;  278.000;  285.000
452.063;   18.525;  228.000;  419.000
452.184;  511.650;  -54.000;  -49.000
452.305; 1021.725;  103.000;  170.000
452.427;  118.475; -549.000; -301.000
452.548;  -31.150;   23.000;   79.000
452.669;  -56.625; -257.000;  -89.000
452.790;  -40.600;    3.000;  -18.000
452.911;  -12.650;  195.000;  259.000
453.032;  -73.400; -289.000;  -60.000
453.153;  -58.450;  -29.000;   81.000
453.274;   71.075;  737.000;  868.000
453.395;  -63.425;  -51.000;  175.000
453.516;  128.375; 1317.000; 1388.000
453.637;  -78.525; -205.000; -150.000
453.758;  -39.750;   15.000;   69.000
453.879; -122.850; -462.000; -250.000
454.000;   60.550; 1086.000;  948.000
454.121; -122.175; -554.000; -326.000
454.242; -137.650; -599.000; -383.000
454.362;  -58.975;  -99.000;  114.000
454.483;  -37.150; -309.000; -229.000
454.604;   53.900;  512.000;  580.000
454.725; -135.200; -627.000; -555.000
454.846; -118.025; -474.000; -406.000
454.967;  -24.950;  230.000;  539.000
455.087;  -56.500;  179.000;  153.000
455.208;    9.725;  554.000;  856.000
455.329;  -72.700;  -22.000;   82.000
455.450;   44.250;  473.000;  633.000
455.570;  -98.700; -234.000; -211.000
455.691;  -53.500;  201.000;  407.000
455.812; -103.700; -270.000;  -92.000
455.932;  -59.500;  107.000;  -97.000
456.053;  -97.625;   36.000;   24.000
456.173; -124.700; -433.000; -355.000
456.294; -144.500; -476.000; -303.000
456.415;  -74.350;  -73.000;   70.000
456.535;  -51.425;  297.000;  273.000
456.656;  -41.350;  132.000;  240.000
456.776;  -87.325;    3.000;  298.000
456.897;  -21.675;  308.000;  513.000
457.017;  -89.375; -153.000;   -3.000
457.138; -113.450; -402.000; -249.000
457.258;  -32.050;  263.000;  224.000
457.379;  -14.600;  509.000;  521.000
457.499;  -29.575;  443.000;  432.000
457.620; -115.775; -407.000; -231.000
457.740; -112.750; -132.000;  -11.000
457.860;  -59.725;   87.000;   44.000
457.981;  -49.950;  132.000;  124.000
458.101;  -72.775;  -89.000;   40.000
458.221;  -24.725;  336.000;  402.000
458.342;  -71.725;   -4.000;  -37.000
458.462;    9.950;  617.000;  352.000
458.582;  -66.125; -302.000; -294.000
458.703;    0.925;  303.000;  154.000
458.823;  -24.475;   22.000;  163.000
458.943;   18.300;  341.000;  467.000
459.063;  -13.650; 1124.000;  192.000
459.183;  -35.325;  328.000;  313.000
459.304;    3.425;  315.000;  517.000
459.424;  -64.825; -246.000;  -89.000
459.544;  312.175;  388.000;  764.000
459.664;  772.325;  499.000;  506.000
459.784;  313.600; 1004.000; 1175.000
459.904;   58.825;  867.000;  744.000
460.024;   68.000;  867.000;  684.000
460.144;   11.375;  449.000;  554.000
460.264;   -5.900;  515.000;  327.000
460.385;  -93.150; -145.000; -119.000
460.505;   25.675;  905.000;  858.000
460.625; -101.225;  -17.000;  -68.000
460.745;  -31.900;  396.000;  541.000
460.864;  -50.350;  153.000;  469.000
460.984;   14.350;  499.000;  573.000
461.104;  132.275; 1656.000; 1775.000
461.224;   16.175;  657.000;  650.000
461.344;  -14.600;  431.000;  360.000
461.464;  -43.400;  258.000;  513.000
461.584;  -27.425;  283.000;  466.000
461.704;  -43.000;   58.000;  108.000
461.824;  -60.550;  238.000;  259.000
461.943;  -30.900;  191.000;  130.000
462.063;  -74.925;    2.000;  324.000
462.183;   32.625;  639.000;  717.000
462.303;   89.200; 1678.000; 1230.000
462.422;   31.950;  781.000;  840.000
462.542;  -39.200;  271.000;  391.000
462.662;   43.850;  353.000;  380.000
462.782;  219.075;  833.000;  572.000
462.901;  451.100;  545.000;  717.000
463.021;  274.300; 1702.000; 1638.000
463.141;  -14.175;  337.000;  770.000
463.260;  -16.975;  614.000;  474.000
463.380;   13.575;  902.000;  884.000
463.499;  -47.075;  342.000;  332.000
463.619;  -38.750;  581.000;  559.000
463.738;  100.725; 1644.000;  903.000
463.858;   15.100;  657.000;  811.000
463.978;  -32.900;  542.000;  396.000
464.097;   69.850;  921.000; 1114.000
464.217;  103.500; 1196.000; 1143.000
464.336;  108.925; 1068.000; 1130.000
464.455;  -44.900;  328.000;  659.000
464.575;   43.550;  597.000;  602.000
464.694;  180.275; 1204.000; 1179.000
464.814;  133.750; 1190.000; 1138.000
464.933;   95.350; 1095.000; 1027.000
465.052;  106.150; 1412.000; 1054.000
465.172;   83.525;  922.000;  799.000
465.291;  150.875; 1376.000; 1320.000
465.410;   16.475;  462.000;  735.000
465.530;   79.825; 1355.000; 1310.000
465.649;   56.650; 1209.000; 1273.000
465.768;  146.175; 1673.000; 1508.000
465.888;   32.075;  941.000; 1174.000
466.007;   95.450; 1335.000; 1440.000
466.126;   -2.050;  721.000;  641.000
466.245;   43.700; 1176.000; 1187.000
466.364;    8.000;  950.000; 1060.000
466.484;   53.100; 1024.000; 1213.000
466.603;   39.500; 1101.000; 1222.000
466.722;  119.850; 1490.000; 1769.000
466.841;   62.150; 1151.000; 1401.000
466.960;   46.850; 1069.000;  972.000
467.079;  120.050; 1971.000; 1786.000
467.198;   40.375; 1238.000; 1181.000
467.317;   83.300; 1768.000; 1162.000
467.436;   69.825; 1709.000; 1261.000
467.555;  120.250; 1796.000; 1746.000
467.674;   57.550; 1227.000; 1329.000
467.793;   42.025; 1376.000; 1374.000
467.912;   83.150; 1658.000; 1539.000
468.031;  125.175; 2038.000; 1930.000
468.150;  156.325; 1842.000; 1837.000
468.269;  170.175; 2313.000; 2090.000
468.388;  182.175; 2168.000; 2339.000
468.507;  238.950; 2884.000; 2903.000
468.626;  231.825; 2555.000; 2541.000
468.744;  137.125; 2018.000; 2174.000
468.863;  192.550; 2312.000; 2523.000
468.982;   84.150; 1503.000; 1555.000
469.101;  220.425; 2788.000; 2692.000
469.220;  167.250; 2333.000; 2176.000
469.338;  245.975; 2935.000; 3051.000
469.457;  193.950; 2719.000; 2545.000
469.576;  354.525; 3953.000; 3784.000
469.695;  231.300; 2877.000; 3066.000
469.813;  434.800; 4148.000; 4192.000
469.932;  400.200; 4255.000; 4485.000
470.051;  426.000; 4075.000; 4161.000
470.169;  821.625; 4470.000; 4338.000
470.288; 1428.175; 4700.000; 4809.000
470.406;  847.700; 5059.000; 5194.000
470.525;  641.775; 6101.000; 5787.000
470.644;  642.525; 6847.000; 6794.000
470.762;  806.525; 8397.000; 7873.000
470.881;  898.975; 8651.000; 8464.000
470.999; 1033.875; 9685.000; 9151.000
471.118; 1096.625;11174.000;10711.000

