
Integration time [ms]: 100.000
Averaging Nr. [scans]: 40
Smoothing Nr. [pixels]: 0
Data measured with spectrometer [name]: 2101012U2
Wave   ;Sample   ;Dark     ;Reference
[nm]   ;[counts] ;[counts] ;[counts] 

197.733;   58.550;  516.000;  404.000
197.879;  -77.975; -610.000; -634.000
198.025;  -47.500; -475.000; -420.000
198.171;  -83.850; -602.000; -612.000
198.317;  -28.400; -401.000; -316.000
198.463;  -47.550; -655.000; -404.000
198.609;   18.400;  181.000; -137.000
198.755;  -67.500; -644.000; -410.000
198.901;  -59.850; -505.000; -424.000
199.047;  -64.575; -615.000; -488.000
199.193;  -41.775; -230.000; -468.000
199.339;  -44.975; -222.000; -369.000
199.485;   28.500;  330.000;  271.000
199.631;   26.225;  227.000;  310.000
199.777;  -50.625; -466.000; -398.000
199.923;  -45.800; -610.000; -424.000
200.069;   -3.375; -141.000;  -58.000
200.215;   61.200;  128.000;  453.000
200.361;   39.975;  243.000;  477.000
200.507;  -57.975; -600.000; -373.000
200.653;  -29.925; -371.000; -194.000
200.798;  -31.200; -215.000; -125.000
200.944;   -1.775; -146.000;  -41.000
201.090;   58.775;   61.000;  222.000
201.236;    1.900; -116.000; -158.000
201.382;  121.025;  874.000;  903.000
201.528;    9.950;  -58.000;  -48.000
201.674;  -32.575; -386.000; -293.000
201.819;  -57.825; -540.000; -439.000
201.965;  -82.425; -699.000; -447.000
202.111;  -26.675; -273.000; -226.000
202.257;  -25.950; -250.000; -238.000
202.402;    3.200;   13.000;  -36.000
202.548;  -21.750; -169.000; -116.000
202.694;   74.950;  410.000; -183.000
202.840;  -79.025; -603.000; -531.000
202.985;  -75.225; -681.000; -639.000
203.131;  -87.225; -832.000; -666.000
203.277;  -34.175; -199.000; -262.000
203.423;  -59.800; -434.000; -520.000
203.568;  -31.500; -462.000; -237.000
203.714;  -58.475; -535.000; -542.000
203.860;  -76.250; -682.000; -641.000
204.005;   13.650;  112.000;  167.000
204.151;   74.375;  561.000;  556.000
204.296;  -46.725; -354.000; -221.000
204.442;  -62.275; -600.000; -547.000
204.588;  -58.375; -592.000; -579.000
204.733;   20.300;  178.000;  168.000
204.879; -129.200;-1018.000; -822.000
205.025;   15.125;  -99.000;  126.000
205.170;    7.800;  -17.000;   94.000
205.316;   88.325;  438.000;  661.000
205.461;  -85.550; -698.000; -554.000
205.607;   83.100;  609.000;  665.000
205.752;  -73.150; -626.000; -551.000
205.898;  -60.025; -501.000; -391.000
206.043;  -67.800; -578.000; -506.000
206.189;  -42.100; -243.000; -285.000
206.334;   91.700;  554.000;  606.000
206.480;   74.225;  409.000;  239.000
206.625;  -87.200; -529.000; -552.000
206.771;  -38.850; -451.000; -373.000
206.916;  -38.225; -210.000; -537.000
207.062;  -72.725; -545.000; -591.000
207.207;  -57.825; -546.000; -443.000
207.353;   59.875;  185.000;  460.000
207.498;    8.950;  196.000;   85.000
207.643;  -50.050; -501.000; -370.000
207.789; -122.375;-1069.000; -910.000
207.934;  -99.250; -665.000; -713.000
208.080;  -14.950; -154.000;   66.000
208.225;  -22.475;  -22.000;  -57.000
208.370;  -84.775; -727.000; -619.000
208.516;  -76.900; -741.000; -487.000
208.661;  -36.050; -127.000;  -69.000
208.806;  -24.825; -165.000; -171.000
208.952; -114.350;-1044.000; -731.000
209.097;   77.200;  378.000;  349.000
209.242;  -47.925; -307.000; -382.000
209.387;   59.675;  392.000;  350.000
209.533;  -57.250; -321.000; -350.000
209.678;   78.800;  472.000;  543.000
209.823;  -39.625; -408.000; -310.000
209.969; -105.075; -860.000; -757.000
210.114;  -99.075; -907.000; -719.000
210.259;  -98.150; -939.000; -889.000
210.404;   -8.300; -171.000;  103.000
210.549;    7.325;  108.000;    3.000
210.695;  -20.450;   -3.000;  -95.000
210.840;   32.100;   94.000;   67.000
210.985;  -65.775; -484.000; -303.000
211.130;   72.625;  268.000;  406.000
211.275;   16.325;  207.000;  199.000
211.420;  -49.525; -300.000; -289.000
211.566;  -70.750; -536.000; -489.000
211.711;   11.275;  218.000;  157.000
211.856;  -67.750; -545.000; -519.000
212.001;   18.375;  151.000;   44.000
212.146;   33.075;  153.000;   49.000
212.291;  -20.575; -210.000; -186.000
212.436;  -17.925; -280.000;   -6.000
212.581;  -92.400; -685.000; -653.000
212.726;  -67.975; -487.000; -538.000
212.871;  -52.250; -552.000; -217.000
213.016; -142.375;-1172.000;-1029.000
213.161;   57.700;  406.000;  291.000
213.306;  -71.450; -435.000; -577.000
213.451; -103.400; -778.000; -689.000
213.596;  -35.950; -455.000; -347.000
213.741;  -56.875; -448.000; -538.000
213.886;  -81.575; -498.000; -517.000
214.031;  -14.575; -294.000; -124.000
214.176;  -47.925; -408.000; -341.000
214.321;  -18.050; -296.000; -157.000
214.466;  -24.100; -163.000;  -43.000
214.611;  -10.775;  -61.000;  -10.000
214.756; -112.350; -948.000; -858.000
214.901;  -26.425; -388.000; -226.000
215.046; -124.450; -797.000; -825.000
215.191;   15.900;  128.000;   35.000
215.336;   -9.675; -157.000;  -19.000
215.480;  -82.450; -684.000; -505.000
215.625;   -9.875; -175.000;  -19.000
215.770;  -88.350; -757.000; -662.000
215.915;   -5.375;   -5.000;  -97.000
216.060;   -5.400; -113.000;  -21.000
216.205; -103.000; -731.000; -779.000
216.349;  -59.750; -470.000; -533.000
216.494; -129.275; -939.000; -867.000
216.639; -114.100; -823.000; -888.000
216.784;  -84.175; -577.000; -525.000
216.929;   46.250;  392.000;  281.000
217.073;   -7.700; -244.000;  -31.000
217.218;   -1.800;   78.000;  -47.000
217.363;  -84.925; -656.000; -618.000
217.507;  -71.550; -623.000; -588.000
217.652; -113.950; -845.000; -874.000
217.797;  -74.225; -708.000; -659.000
217.942; -105.875; -856.000; -720.000
218.086;   63.950;  608.000;  539.000
218.231;  -19.700; -174.000;  -26.000
218.376;  -38.925; -337.000; -229.000
218.520;    5.075;  -41.000;   96.000
218.665;  -43.875; -338.000; -204.000
218.810;  -26.350; -275.000; -233.000
218.954;   12.950;  201.000;   35.000
219.099; -105.600; -713.000; -963.000
219.243;  -76.200; -589.000; -554.000
219.388;  -26.175; -264.000; -136.000
219.532;   -6.900; -116.000; -116.000
219.677;  -77.150; -564.000; -521.000
219.822;    6.775;   33.000;   89.000
219.966;   13.350;   17.000;  -99.000
220.111;  -29.650; -328.000;  -40.000
220.255; -103.275; -797.000; -750.000
220.400;  -16.550; -180.000; -146.000
220.544;  -69.450; -516.000; -450.000
220.689;  -62.225; -422.000; -451.000
220.833;  -21.275; -123.000;  -58.000
220.978;  -40.225; -393.000; -563.000
221.122;   20.900;  319.000;  307.000
221.267; -112.225; -906.000; -837.000
221.411;  -58.550; -478.000; -394.000
221.555;  -16.675; -104.000;  -23.000
221.700;  -41.350; -329.000; -222.000
221.844;   19.800;  255.000;  272.000
221.989;  -48.800; -328.000; -311.000
222.133;  -42.800; -289.000; -307.000
222.277;   -4.850;    5.000;   78.000
222.422;    3.625;  227.000;  113.000
222.566;  -32.700; -381.000; -214.000
222.711;  -68.575; -414.000; -479.000
222.855;  -77.375; -643.000; -586.000
222.999;  -80.075; -642.000; -717.000
223.144;  -29.375; -195.000; -194.000
223.288;   58.275;  423.000;  251.000
223.432;   33.725;  184.000;  230.000
223.576;   20.975;  152.000;  -21.000
223.721;   32.475;  364.000;  273.000
223.865;  -56.375; -472.000; -475.000
224.009;  248.450; 1673.000; 1631.000
224.153;  -74.500; -660.000; -671.000
224.298;  -78.450; -531.000; -489.000
224.442;   -8.475;  -74.000;  -33.000
224.586;   -0.500; -169.000; -106.000
224.730;  -96.300; -858.000; -670.000
224.875; -108.400; -739.000; -688.000
225.019;    7.425;  102.000;  188.000
225.163;   59.500;  208.000;  341.000
225.307;   12.725;   97.000;  -91.000
225.451;   52.925;  360.000;  481.000
225.595;   25.300;  264.000;  176.000
225.739;  -19.825; -170.000;  -94.000
225.884;    3.300;   86.000;    5.000
226.028; -104.275; -760.000; -626.000
226.172;  -35.350; -260.000; -273.000
226.316; -121.125; -941.000; -902.000
226.460;  -74.425; -645.000; -493.000
226.604;  -56.475; -406.000; -400.000
226.748;  -96.075; -836.000; -733.000
226.892;  -40.775; -227.000; -181.000
227.036;  -52.375; -537.000; -447.000
227.180;  -52.900; -551.000; -375.000
227.324;  -72.950; -561.000; -580.000
227.468; -113.450; -819.000; -717.000
227.612;   -0.500;  242.000;  -28.000
227.756;  -93.325; -845.000; -698.000
227.900;   52.625;  342.000;  441.000
228.044;  -52.700; -509.000; -290.000
228.188;   57.800;  448.000;  568.000
228.332;  -92.225; -546.000; -472.000
228.476;  -30.900; -223.000; -149.000
228.620;  -36.075; -210.000; -150.000
228.764;   53.875;  431.000;  349.000
228.908;  -15.425; -155.000;   30.000
229.052;  -62.200; -615.000; -528.000
229.195;   -4.700; -172.000;   13.000
229.339;  -24.050; -235.000; -305.000
229.483;  -25.250;    5.000; -162.000
229.627;   -7.175; -156.000;  139.000
229.771;  -44.900; -218.000; -294.000
229.915;    8.075;  230.000;   79.000
230.059;  -84.425; -648.000; -663.000
230.202;  -47.725; -370.000; -317.000
230.346;  -11.050; -107.000;  107.000
230.490;  -54.050; -489.000; -521.000
230.634; -105.400; -736.000; -553.000
230.777;   71.475;  478.000;  509.000
230.921;  -73.100; -450.000; -359.000
231.065;  -39.600; -246.000; -286.000
231.209;   32.875;  261.000;  265.000
231.352;   15.600;   54.000;   40.000
231.496;   15.775;  568.000;  188.000
231.640;  -74.075; -693.000; -621.000
231.783;   59.250;  546.000;  525.000
231.927;  -43.625; -294.000; -365.000
232.071; -125.750; -962.000; -736.000
232.214; -115.250; -980.000; -764.000
232.358;  -89.950; -683.000; -599.000
232.502;   11.250;  -19.000;    7.000
232.645; -137.125;-1090.000; -927.000
232.789;  -27.600; -257.000; -218.000
232.933;  -35.325; -407.000; -224.000
233.076; -116.900;-1038.000; -897.000
233.220; -107.425; -752.000; -777.000
233.363;  -85.000; -669.000; -477.000
233.507;   52.150;  371.000;  129.000
233.650;  -96.650; -764.000; -834.000
233.794;   49.850;  438.000;  461.000
233.938;  -69.400; -530.000; -362.000
234.081;  -13.075;  -93.000;   31.000
234.225;  -61.075; -631.000; -539.000
234.368; -113.225; -773.000; -723.000
234.512;  -19.275; -385.000; -299.000
234.655;  -78.800; -582.000; -555.000
234.798;  -68.725; -493.000; -466.000
234.942; -119.325; -884.000;-1002.000
235.085;  -86.525; -651.000; -443.000
235.229;  -63.650; -405.000; -410.000
235.372;  -51.725; -247.000; -191.000
235.516;  -49.000; -397.000; -321.000
235.659;    7.125;   92.000;  121.000
235.802;  -18.450;  -38.000;  -22.000
235.946;   30.075;  335.000;  215.000
236.089;   33.150;  126.000;  250.000
236.233;   45.700;  275.000;  298.000
236.376;  -42.500; -235.000; -378.000
236.519;  -47.050; -297.000; -319.000
236.663;  -12.725; -215.000; -117.000
236.806; -128.650;-1029.000; -999.000
236.949;   56.525;  543.000;  431.000
237.092;   60.275;  412.000;  391.000
237.236;  -85.100; -589.000; -502.000
237.379;   51.200;  352.000;  428.000
237.522; -114.550; -879.000; -768.000
237.666;  -15.425; -271.000;   18.000
237.809; -124.850; -851.000; -823.000
237.952;   35.975;  469.000;  271.000
238.095;  -60.775; -447.000; -442.000
238.238;   74.350;  688.000;  700.000
238.382;    1.100;  166.000;  103.000
238.525;  -71.525; -598.000; -511.000
238.668; -120.600;-1060.000; -985.000
238.811;  -83.300; -638.000; -643.000
238.954;  -60.450; -483.000; -334.000
239.097;   91.250;  617.000;  664.000
239.241;   32.800;  394.000;  326.000
239.384;  -31.775; -254.000; -214.000
239.527;  -63.000; -424.000; -224.000
239.670; -148.675; -994.000;-1091.000
239.813;  -97.300; -696.000; -658.000
239.956;   74.675;  579.000;  473.000
240.099; -117.550; -778.000; -725.000
240.242;   57.675;  428.000;  432.000
240.385;   48.475;  466.000;  450.000
240.528;  -71.900; -706.000; -473.000
240.671;   32.300;  189.000;  134.000
240.814;  -43.650; -441.000; -158.000
240.957;  -96.575; -767.000; -578.000
241.100; -101.450; -779.000; -755.000
241.243; -148.825;-1234.000; -893.000
241.386;  -81.125; -508.000; -379.000
241.529;  -86.250; -735.000; -547.000
241.672;  -74.375; -566.000; -495.000
241.815; -115.175; -832.000; -808.000
241.958;  -37.425; -125.000; -182.000
242.101;  -75.300; -545.000; -390.000
242.244;  -42.375; -270.000; -325.000
242.387;  -44.975; -304.000; -246.000
242.530;   47.300;  470.000;  134.000
242.673;  -56.375; -381.000; -309.000
242.815; -114.850; -925.000; -899.000
242.958;  -71.600; -482.000; -381.000
243.101;   14.800;  132.000;  187.000
243.244;  -85.300; -564.000; -521.000
243.387;  -40.750; -313.000; -316.000
243.530;  -91.575; -657.000; -674.000
243.672;  -15.375;   43.000;  -92.000
243.815;  -48.600; -355.000; -283.000
243.958;  -12.450;   98.000;  -26.000
244.101;    5.250;   59.000;  -16.000
244.243;  -18.725;  -47.000;  101.000
244.386; -116.850; -761.000; -630.000
244.529;  -25.175; -132.000; -139.000
244.672; -161.475;-1154.000; -951.000
244.814;  -91.725; -621.000; -794.000
244.957;  -21.725; -380.000; -304.000
245.100;  -85.150; -489.000; -489.000
245.242;  -60.800; -387.000; -374.000
245.385;  -11.275;  -59.000;  -39.000
245.528; -112.775; -871.000; -705.000
245.670;   98.475;  612.000;  634.000
245.813;  -84.575; -599.000; -547.000
245.956;  -46.600; -324.000; -275.000
246.098;  -64.175; -508.000; -650.000
246.241;    6.950;  194.000;   48.000
246.383;  -14.425; -119.000;  -73.000
246.526;  -74.775; -454.000; -525.000
246.669; -112.800; -889.000; -780.000
246.811;    6.250;  172.000;   -1.000
246.954;  -61.625; -512.000; -426.000
247.096;  -19.750;  -84.000;   -6.000
247.239;  -71.350; -482.000; -445.000
247.381;  -77.450; -647.000; -488.000
247.524;   90.375;  645.000;  679.000
247.666;  -17.100;   58.000;   11.000
247.809; -103.925; -887.000; -691.000
247.951;  -12.350;  -75.000;  138.000
248.094;   34.175;  432.000;  308.000
248.236; -157.750;-1262.000;-1238.000
248.378;   17.150; -356.000;  -81.000
248.521;  -35.175; -334.000; -337.000
248.663;  -30.750; -236.000; -267.000
248.806;  -24.250; -300.000; -266.000
248.948;  -86.775; -886.000; -763.000
249.090;  -30.200; -428.000; -398.000
249.233;  -36.475; -344.000; -381.000
249.375;  -60.950; -474.000; -451.000
249.518;  -22.950;  -83.000; -133.000
249.660;  -25.075; -103.000;    3.000
249.802; -161.225;-1303.000;-1189.000
249.945;  -72.600; -612.000; -540.000
250.087; -113.575; -834.000; -768.000
250.229;  -54.025; -362.000; -480.000
250.371;  -76.175; -494.000; -439.000
250.514;  -48.100; -310.000; -244.000
250.656;  -41.650;   69.000;  102.000
250.798; -115.375; -849.000; -800.000
250.940;  -65.200; -322.000; -322.000
251.083;  -27.400; -335.000; -111.000
251.225;   60.100;  338.000;  310.000
251.367;  -34.400; -274.000; -373.000
251.509;  -43.875; -265.000; -210.000
251.651;  -97.325; -731.000; -671.000
251.794;   51.925;  538.000;  632.000
251.936; -110.375; -821.000; -747.000
252.078;  -81.625; -540.000; -461.000
252.220;  -66.375; -645.000; -477.000
252.362;   95.200;  344.000;  462.000
252.504;  -73.650; -677.000; -584.000
252.646;  -98.975; -875.000; -722.000
252.788;   -9.275;   14.000; -128.000
252.931;  -38.350; -257.000; -253.000
253.073;  -38.925; -376.000; -317.000
253.215;  -17.975;  141.000;  122.000
253.357;  -22.025;   82.000; -153.000
253.499;  -47.400; -374.000; -234.000
253.641;  -96.800; -749.000; -594.000
253.783; -100.450; -609.000; -527.000
253.925;  -83.175; -586.000; -591.000
254.067; -101.125; -744.000; -667.000
254.209;  -23.475; -391.000; -259.000
254.351; -129.300; -865.000; -883.000
254.493;  -60.875; -441.000; -417.000
254.635; -130.600; -936.000; -818.000
254.777;  -84.700; -752.000; -687.000
254.918;  -52.150; -512.000; -430.000
255.060;  -56.575; -551.000; -395.000
255.202;  -54.275; -473.000; -261.000
255.344;  -78.025; -658.000; -455.000
255.486;  -65.000; -471.000; -406.000
255.628; -102.450; -780.000; -781.000
255.770;  -87.425; -676.000; -536.000
255.912;  -67.700; -559.000; -468.000
256.053;  -81.875; -730.000; -508.000
256.195;  155.425; 1008.000;  903.000
256.337; -105.525; -861.000; -595.000
256.479;   60.250;  532.000;  416.000
256.621;  -52.450; -394.000; -212.000
256.762;  -94.350; -789.000; -742.000
256.904;   64.050;  485.000;  487.000
257.046;  -46.800; -381.000; -271.000
257.188;  -46.450; -351.000; -264.000
257.329;  -72.050; -525.000; -464.000
257.471; -110.300; -939.000; -807.000
257.613;  -65.475; -584.000; -498.000
257.755; -143.800;-1073.000; -982.000
257.896;   31.675;  286.000;  392.000
258.038;  -66.100; -403.000; -352.000
258.180;  -36.500; -354.000; -279.000
258.321;  -86.700; -581.000; -457.000
258.463;   -2.000;  -71.000;  133.000
258.605;  -81.950; -562.000; -570.000
258.746; -100.750; -886.000; -772.000
258.888; -144.375;-1026.000;-1020.000
259.029;   13.175;  121.000;   -8.000
259.171;  -83.850; -614.000; -550.000
259.313;    3.875;  -49.000;  -47.000
259.454;  -77.000; -536.000; -414.000
259.596;  -62.450; -483.000; -390.000
259.737;  -73.300; -590.000; -474.000
259.879;   27.150;  217.000;  311.000
260.020;   86.625;  901.000;  636.000
260.162;  -29.275; -146.000; -253.000
260.303; -113.725; -768.000; -687.000
260.445;  -92.575; -609.000; -613.000
260.586;   40.975;  392.000;  157.000
260.728;  -41.400; -360.000; -248.000
260.869; -105.125; -350.000; -343.000
261.011;   86.250;  706.000;  537.000
261.152;  -66.200; -479.000; -319.000
261.293;  -76.025; -576.000; -595.000
261.435;  -34.600; -219.000; -184.000
261.576;  -51.225; -455.000; -325.000
261.718;   55.575;  420.000;  470.000
261.859; -128.475; -940.000; -949.000
262.000; -123.250; -951.000;-1016.000
262.142;  -21.750;  -52.000;  -60.000
262.283; -116.125; -808.000; -691.000
262.424; -100.275; -666.000; -625.000
262.566; -151.600;-1161.000; -983.000
262.707; -116.225; -840.000; -830.000
262.848; -114.400; -769.000; -726.000
262.990;  -41.025; -362.000; -345.000
263.131;   74.250;  650.000;  681.000
263.272;    2.600;  -61.000;  -41.000
263.413;  -97.250; -589.000; -561.000
263.555;  -60.325; -669.000; -143.000
263.696;  -80.325; -550.000; -641.000
263.837;  -53.200; -449.000; -551.000
263.978;   -2.425;   -5.000;  -77.000
264.119;  -54.000; -283.000; -264.000
264.261; -103.175; -847.000; -630.000
264.402;    3.275;   33.000;   40.000
264.543;  -77.275; -509.000; -524.000
264.684;   -4.500;   61.000;  -50.000
264.825;  -70.175; -816.000; -538.000
264.966;   -3.500;  -84.000;  -67.000
265.107; -113.950; -646.000; -670.000
265.248; -119.800; -825.000; -812.000
265.390;    2.525;  152.000;   -9.000
265.531;  -27.250; -238.000; -107.000
265.672;  -95.025; -557.000; -630.000
265.813;   55.975;  563.000;  439.000
265.954; -133.850; -959.000; -940.000
266.095;  -22.300; -372.000; -322.000
266.236;  -92.400; -686.000; -548.000
266.377;  -49.325; -243.000; -297.000
266.518;  -68.000; -619.000; -547.000
266.659;   28.850;  170.000;  268.000
266.800;   -4.950;   83.000;   85.000
266.941;  -76.125; -487.000; -478.000
267.082;   13.575;  354.000;   99.000
267.223;  -53.700; -344.000; -273.000
267.364; -111.600; -892.000; -686.000
267.504;  -19.925;    3.000;  135.000
267.645;    9.950;  160.000;   67.000
267.786;  -39.700; -147.000;  -86.000
267.927;  -60.225; -473.000; -379.000
268.068;  -25.200; -186.000;  -61.000
268.209;  -36.575; -175.000; -413.000
268.350;  -66.800; -388.000; -532.000
268.490;  -89.150; -648.000; -521.000
268.631;   31.575;  127.000;  225.000
268.772;  -96.750; -874.000; -647.000
268.913;  -51.225; -328.000; -476.000
269.054;  -16.075; -117.000;   12.000
269.194;  -50.400; -418.000; -402.000
269.335; -151.300;-1137.000;-1074.000
269.476;  -23.650;   33.000;  -35.000
269.617;  -53.275; -347.000; -392.000
269.757;  -86.925; -713.000; -646.000
269.898;  -95.650; -856.000; -613.000
270.039;  -65.850; -415.000; -405.000
270.180; -132.900; -952.000; -816.000
270.320;  -37.825; -190.000; -250.000
270.461;  -24.100; -277.000; -249.000
270.602;  -15.675; -186.000; -156.000
270.742; -122.025; -868.000; -943.000
270.883;  -60.925; -442.000; -390.000
271.023;  -66.675; -358.000; -357.000
271.164;  -65.625; -607.000; -528.000
271.305;  -86.750; -666.000; -654.000
271.445;  -99.050; -722.000; -683.000
271.586;  -67.725; -462.000; -283.000
271.726;  -55.775; -397.000; -322.000
271.867;  -50.275; -594.000; -534.000
272.008;  192.600; -473.000; -285.000
272.148;  139.275;  462.000;  468.000
272.289;   24.025; -113.000; -181.000
272.429;   24.100;   19.000;  185.000
272.570;  -88.000; -633.000; -737.000
272.710;  -86.350; -825.000; -775.000
272.851;  -26.200;  113.000; -130.000
272.991; -153.375;-1173.000;-1077.000
273.131;  -63.600; -419.000; -459.000
273.272;  -79.450; -683.000; -723.000
273.412;   17.750; -143.000;  -31.000
273.553;  -53.875; -488.000; -507.000
273.693;  136.150;  913.000;  858.000
273.834;  -78.475; -894.000; -692.000
273.974;  -70.600; -664.000; -615.000
274.114;  -95.275; -772.000; -560.000
274.255;   80.175;  414.000;  373.000
274.395;   21.950; -180.000; -125.000
274.535;   41.200;  199.000;  350.000
274.676;   31.175;  225.000;   94.000
274.816;   -2.800;  110.000;   34.000
274.956;  -80.150; -624.000; -690.000
275.097;  -42.100;-1014.000; -922.000
275.237; -106.425; -913.000; -803.000
275.377;  -93.575; -778.000; -689.000
275.517; -142.075; -878.000; -937.000
275.658;  -41.500; -590.000; -555.000
275.798;  -71.900; -606.000; -413.000
275.938;   18.625;  215.000;  323.000
276.078; -103.000; -626.000; -395.000
276.218;    2.975;   99.000;  104.000
276.359; -111.525;-1026.000;-1024.000
276.499;  -79.800; -605.000; -446.000
276.639;  -31.200; -305.000; -151.000
276.779;  -59.675; -475.000; -357.000
276.919; -106.800; -783.000; -624.000
277.059;    1.000; -261.000; -212.000
277.199;  -30.200; -357.000; -259.000
277.340;   54.325;  287.000;  175.000
277.480; -106.225; -840.000; -693.000
277.620;   18.750;  192.000;   16.000
277.760; -174.525;-1533.000;-1294.000
277.900;   19.725;  113.000;   33.000
278.040;   23.075;  137.000;  159.000
278.180;   36.250;  270.000;  170.000
278.320;    2.450;   21.000;   56.000
278.460;  -76.850; -443.000; -469.000
278.600;  -84.300; -708.000; -598.000
278.740;   27.350;  448.000;  224.000
278.880;  -30.650; -768.000; -791.000
279.020;   -4.325; -194.000; -144.000
279.160;  -81.375; -672.000; -595.000
279.300; -126.500; -926.000; -873.000
279.440;  -85.925; -709.000; -622.000
279.579;    0.375;-1014.000; -929.000
279.719;  -42.900; -410.000; -394.000
279.859;   84.425;   -4.000;   41.000
279.999;   39.875; -208.000;  101.000
280.139;  -15.475; -435.000; -387.000
280.279;  -58.150; -708.000; -745.000
280.419;  -20.550; -229.000; -147.000
280.559;  -20.600; -259.000; -180.000
280.698;  -82.125; -790.000; -639.000
280.838;  -97.225; -778.000; -800.000
280.978; -110.325; -846.000; -790.000
281.118; -108.250; -811.000; -704.000
281.257;    6.850;   24.000;    6.000
281.397;  -91.600;-1094.000; -960.000
281.537;  -82.700; -599.000; -712.000
281.677;  -18.625; -150.000; -101.000
281.816;  -86.025; -700.000; -630.000
281.956;  -48.875; -193.000; -257.000
282.096;  -55.650; -539.000; -396.000
282.235; -105.250; -672.000; -638.000
282.375;  -20.125; -243.000;  -98.000
282.515; -100.375; -715.000; -707.000
282.654;   35.525;   29.000;  106.000
282.794;   26.175;  388.000;  244.000
282.934;  -48.075; -530.000; -491.000
283.073; -139.625;-1030.000; -857.000
283.213;  -40.100; -460.000; -467.000
283.353;  -18.750; -408.000; -349.000
283.492;  -25.350; -264.000; -296.000
283.632;  -38.350; -254.000; -168.000
283.771;  -96.950; -859.000; -730.000
283.911;  -49.000; -369.000; -260.000
284.050; -108.800; -794.000; -748.000
284.190; -149.450;-1229.000;-1096.000
284.329; -132.850;-1055.000; -964.000
284.469;  -55.150; -516.000; -591.000
284.608;  -59.325; -559.000; -598.000
284.748;  -72.300; -614.000; -570.000
284.887;   -4.050;  -87.000;  -20.000
285.027; -127.700; -844.000; -892.000
285.166;  -30.000; -192.000; -249.000
285.306;   34.750; -116.000;  -33.000
285.445;  -26.825; -229.000; -343.000
285.584;  -87.750; -630.000; -494.000
285.724;  -44.500; -282.000; -322.000
285.863; -108.875; -857.000; -507.000
286.002;  -50.225; -366.000; -276.000
286.142; -102.425; -715.000; -622.000
286.281;  -79.150; -525.000; -493.000
286.420;  -70.300; -554.000; -417.000
286.560;  109.050;  653.000;  623.000
286.699; -119.125; -958.000; -912.000
286.838;  -79.575; -590.000; -591.000
286.978;  -87.625; -533.000; -537.000
287.117; -132.375;-1085.000; -950.000
287.256;  -19.025; -228.000; -211.000
287.395;  -40.425; -197.000; -378.000
287.535;  -39.275; -370.000; -298.000
287.674;  -63.150; -509.000; -484.000
287.813;   64.925;  661.000;  533.000
287.952; -124.075;-1010.000; -871.000
288.091; -146.400;-1049.000; -915.000
288.231;   15.625;   13.000;   15.000
288.370; -161.825;-1217.000;-1200.000
288.509;  -94.250; -728.000; -645.000
288.648;  -83.475; -770.000; -548.000
288.787;  -34.125; -243.000;  -87.000
288.926;  -63.575; -454.000; -475.000
289.065;  121.200;  859.000;  672.000
289.204;  -45.500; -377.000; -217.000
289.344;  -97.350; -791.000; -690.000
289.483;   28.450;  416.000;  304.000
289.622;  -22.350; -291.000; -149.000
289.761;  -18.100; -309.000; -166.000
289.900;  -98.650; -785.000; -626.000
290.039;  -11.150;  -12.000;  -95.000
290.178;  -40.325; -274.000; -180.000
290.317;  -76.175; -618.000; -479.000
290.456;  -64.875; -463.000; -451.000
290.595; -138.875; -961.000; -833.000
290.734; -142.800; -904.000; -891.000
290.873;  -61.325; -456.000; -420.000
291.011; -110.025; -833.000; -843.000
291.150;  -99.275; -770.000; -682.000
291.289;  -19.525; -343.000; -110.000
291.428;  -91.275; -599.000; -480.000
291.567;  -60.825; -370.000; -442.000
291.706;   -2.375;  109.000;  154.000
291.845;  -92.675; -597.000; -505.000
291.984; -174.100;-1234.000;-1061.000
292.122;   55.900;  602.000;  582.000
292.261;   48.350;  620.000;  463.000
292.400;    0.250; -144.000;  211.000
292.539; -134.275; -959.000; -813.000
292.678;  -33.175; -325.000; -300.000
292.816; -142.575;-1136.000; -965.000
292.955;  -79.225; -844.000; -684.000
293.094;  -24.475; -173.000; -337.000
293.233;  -52.750; -556.000; -400.000
293.371;  -35.200; -225.000;  -84.000
293.510;  -99.200; -866.000; -780.000
293.649; -122.575; -959.000; -924.000
293.787;  -43.900;-1083.000;-1012.000
293.926;    9.875; -113.000;  -32.000
294.065;  -37.875; -379.000; -290.000
294.203;   54.950;  298.000;  406.000
294.342;   26.625;   74.000;  156.000
294.481; 6375.175;51180.000; -836.000
294.619;  -27.675; -425.000; -582.000
294.758; -137.475;-1230.000;-1137.000
294.896;   87.975; -125.000;    5.000
295.035; -112.200;-1040.000;-1006.000
295.174; -106.700;-1082.000; -954.000
295.312;  -34.950; -323.000; -203.000
295.451;   -4.425; -307.000; -428.000
295.589;  -65.250; -389.000; -518.000
295.728;   16.950; -292.000; -165.000
295.866;   11.100;  -36.000;  -51.000
296.005;  -47.575; -584.000; -341.000
296.143;  -58.925; -558.000; -596.000
296.282;  -96.150; -957.000; -881.000
296.420;  -74.200; -657.000; -557.000
296.559;  -72.550; -892.000; -633.000
296.697;   69.100; -847.000; -665.000
296.835;  113.525;-1141.000;-1002.000
296.974;   61.400;  -23.000;   39.000
297.112;   36.175; -443.000; -504.000
297.251;  -68.125; -815.000; -755.000
297.389;  147.475; -576.000; -438.000
297.527;   55.825; -145.000;  -83.000
297.666;  -49.550; -486.000; -438.000
297.804;  -48.275; -404.000; -264.000
297.942;   -7.325; -136.000; -161.000
298.081;    6.050; -183.000;   63.000
298.219;  100.600;  -17.000;  -19.000
298.357;   69.250; -144.000;  -71.000
298.495;   60.250; -810.000; -812.000
298.634;  107.625;  245.000;  219.000
298.772;   86.425; -220.000; -338.000
298.910;  -28.200; -309.000; -182.000
299.048;  -14.850; -130.000; -153.000
299.187;  -13.300; -350.000; -250.000
299.325;   25.375;   52.000;  122.000
299.463;   90.200; -389.000; -299.000
299.601;  158.450; -327.000; -271.000
299.739;  -86.575; -908.000; -883.000
299.877;  -74.200; -791.000; -703.000
300.016;  -20.025;-1095.000; -935.000
300.154;  196.250;  -19.000; -161.000
300.292;   91.375; -428.000; -348.000
300.430;   56.650; -408.000; -291.000
300.568;  -91.475; -940.000; -874.000
300.706;  -33.500; -366.000; -469.000
300.844;  -58.725;-1108.000; -979.000
300.982;  129.275;  246.000;  282.000
301.120;  -92.325; -965.000; -866.000
301.258;  -40.700; -812.000; -705.000
301.396;   39.450;  104.000;  -41.000
301.534;  112.325; -218.000; -293.000
301.672;    7.250; -664.000; -521.000
301.810;   70.850; -613.000; -545.000
301.948;  152.475;   53.000;  149.000
302.086;  761.100; -250.000;  -32.000
302.224; 1166.650; -610.000; -585.000
302.362;   74.600; -558.000; -622.000
302.500;   19.575; -923.000; -893.000
302.638;  131.275;  128.000;  245.000
302.776;   20.425; -352.000; -408.000
302.913;   47.225;  447.000;  236.000
303.051;   14.450;  -86.000;  -23.000
303.189;   49.100;   90.000;  118.000
303.327;  -28.850; -341.000; -256.000
303.465;  -77.150; -832.000; -588.000
303.603;  -84.450; -805.000; -604.000
303.740;  125.100;  417.000;  241.000
303.878;   59.900; -800.000; -759.000
304.016;  -81.225; -915.000; -790.000
304.154;  -97.250;-1123.000;-1152.000
304.291;  -26.850; -505.000; -554.000
304.429;   21.200;  102.000;   74.000
304.567; -113.825; -908.000; -893.000
304.705;  -47.975; -408.000; -515.000
304.842;  136.825; -616.000; -540.000
304.980;   62.325;  215.000;   35.000
305.118;   55.475; -367.000; -365.000
305.255;  -52.725; -945.000; -927.000
305.393;   68.300;  178.000;  239.000
305.531;  -95.100;-1173.000; -956.000
305.668;  -66.850; -663.000; -582.000
305.806;  128.750; -358.000; -439.000
305.943;  147.725; -629.000; -637.000
306.081;   82.400; -378.000; -267.000
306.219; -105.950; -863.000; -748.000
306.356;   10.950;  158.000;   27.000
306.494;   99.925;  981.000;  761.000
306.631;   -3.025;  -11.000;  -55.000
306.769;   10.525; -613.000; -485.000
306.906;  -11.475; -284.000; -258.000
307.044;  -57.300; -473.000; -488.000
307.181;  -56.525; -410.000; -332.000
307.319;   10.675;  112.000;   87.000
307.456; -161.550;-1191.000;-1153.000
307.594; -100.450; -980.000; -727.000
307.731;   -8.600; -371.000; -164.000
307.868;   -1.350;  -15.000;   20.000
308.006; -127.125; -961.000; -847.000
308.143;  -71.475; -618.000; -330.000
308.281;  211.225;  -37.000; -254.000
308.418;   -1.050; -748.000; -640.000
308.555;  -66.350; -400.000; -250.000
308.693;  -67.300; -577.000; -573.000
308.830; -108.675; -712.000; -657.000
308.967;   -6.950; -215.000;  -95.000
309.105;  -36.675; -507.000; -396.000
309.242;   60.275; -468.000; -367.000
309.379;  416.600; -577.000; -655.000
309.517;  -54.550; -936.000; -948.000
309.654;  -98.150; -910.000; -734.000
309.791;  -63.550; -662.000; -580.000
309.928;  -99.225; -977.000; -914.000
310.065;  194.850;  819.000;  697.000
310.203;   31.475; -825.000; -850.000
310.340;   -0.125; -465.000; -321.000
310.477;  -68.575; -412.000; -516.000
310.614;  -74.250; -383.000; -473.000
310.751;  -82.750; -427.000; -518.000
310.889;  -23.925;    1.000;   11.000
311.026; -150.000;-1161.000; -939.000
311.163;  -47.700; -386.000; -380.000
311.300;  -78.400; -512.000; -479.000
311.437;  -72.750; -658.000; -619.000
311.574; -149.950;-1226.000; -985.000
311.711;  -55.900; -595.000; -433.000
311.848;  -38.150; -380.000; -388.000
311.985;    8.525;  270.000;   93.000
312.122; -101.750; -932.000; -762.000
312.259; -123.825; -941.000; -994.000
312.396;  -84.625; -508.000; -551.000
312.533;  -91.550; -812.000; -790.000
312.670; -119.550;-1070.000; -898.000
312.807;  -25.175; -352.000; -367.000
312.944;  -70.250; -513.000; -611.000
313.081;  -43.975; -150.000; -415.000
313.218;  -99.700;-1111.000; -867.000
313.355;   30.525; -531.000; -449.000
313.492;   26.050; -455.000; -292.000
313.629;  149.950;  815.000;  735.000
313.766; -146.500;-1176.000;-1008.000
313.902;   -3.975; -186.000;   21.000
314.039;  -44.775; -372.000; -289.000
314.176;   42.825;  286.000;  192.000
314.313;  -62.800; -569.000; -473.000
314.450;  -74.125; -788.000; -684.000
314.587;  -67.375; -468.000; -480.000
314.723;    3.525;  -78.000;  130.000
314.860;   36.975;  318.000;  332.000
314.997;   34.500;  223.000;  142.000
315.134;  -25.575; -385.000; -368.000
315.270;  -20.550; -480.000; -496.000
315.407; -104.575;-1094.000; -967.000
315.544;  -46.725; -657.000; -538.000
315.681;  -50.450; -681.000; -565.000
315.817;   33.375; -133.000; -176.000
315.954;   27.075; -613.000; -392.000
316.091; -116.550;-1045.000;-1023.000
316.227;  -27.450;  -71.000; -179.000
316.364;   13.100;   23.000;    6.000
316.500;  -29.700; -113.000; -300.000
316.637;  -34.125; -181.000; -302.000
316.774;  -80.700; -625.000; -358.000
316.910;  -98.050; -598.000; -629.000
317.047;  -58.000; -487.000; -351.000
317.183;  -45.400; -435.000; -566.000
317.320;  -13.900; -367.000; -321.000
317.456;  -63.375; -733.000; -805.000
317.593; -102.575; -598.000; -641.000
317.729;    4.700;  168.000;  -67.000
317.866; -183.025;-1434.000;-1285.000
318.002;  -91.100; -708.000; -948.000
318.139;  -88.225; -883.000; -867.000
318.275;  -91.900;-1003.000; -738.000
318.412;  -53.150; -517.000; -336.000
318.548;  -22.775; -751.000; -720.000
318.685;  -94.325; -985.000; -888.000
318.821;  -93.875; -762.000; -735.000
318.957;  -20.225;   34.000;  -23.000
319.094;   44.275;  297.000;  154.000
319.230;  -37.500; -756.000; -742.000
319.367;  157.650; -471.000; -520.000
319.503;   78.525; -538.000; -436.000
319.639;  -84.850; -877.000; -793.000
319.775;  -43.575; -750.000; -685.000
319.912;  -55.925; -424.000; -519.000
320.048;  -71.000;-1184.000;-1184.000
320.184;   62.575;   59.000;   70.000
320.321;  -48.725; -497.000; -467.000
320.457;   59.450;  475.000;  662.000
320.593;  -60.600; -375.000; -382.000
320.729;  -97.475; -732.000; -734.000
320.866;  -60.925; -577.000; -635.000
321.002;  -75.600; -759.000; -809.000
321.138;   -5.650; -135.000; -211.000
321.274;   92.100; -148.000; -115.000
321.410;  -15.175; -585.000; -353.000
321.546;   -4.325;-1011.000; -911.000
321.683;   86.050;  400.000;  185.000
321.819;    2.600;  -48.000; -117.000
321.955; -105.175; -743.000; -722.000
322.091;  -33.625; -585.000; -540.000
322.227;   -2.800; -382.000; -202.000
322.363;   -8.950; -320.000; -215.000
322.499;  -30.075; -343.000; -331.000
322.635;  197.525;  636.000;  443.000
322.771;   37.250; -139.000;   12.000
322.907;   95.975;  129.000;  327.000
323.043;  -11.225; -115.000; -206.000
323.179;  -28.525; -394.000; -363.000
323.315;   39.475; -401.000; -371.000
323.451;  126.075; -328.000; -236.000
323.587;   77.100;  -60.000;  -77.000
323.723;   48.325; -682.000; -601.000
323.859;   -2.550; -258.000;  -76.000
323.995;  -27.625; -467.000; -409.000
324.131; -118.950; -967.000; -892.000
324.267;  -40.750; -254.000; -276.000
324.402; -125.600; -960.000; -983.000
324.538;   -2.850; -279.000; -104.000
324.674;   33.175;  164.000;   77.000
324.810;  132.350;  226.000;  308.000
324.946;   28.625; -810.000; -658.000
325.082;  -53.150; -568.000; -475.000
325.217;    8.175;  -62.000;   16.000
325.353;  -86.100; -764.000; -659.000
325.489;  -79.525; -540.000; -506.000
325.625;  -73.350; -579.000; -525.000
325.760;   67.875;  517.000;  376.000
325.896;  -35.375; -515.000; -702.000
326.032;  -39.275; -403.000; -352.000
326.168;  -51.950; -462.000; -369.000
326.303;  -59.675; -352.000; -461.000
326.439;  -11.675; -336.000; -276.000
326.575;    3.850; -190.000;  -29.000
326.710;    7.625; -156.000;  -30.000
326.846;  -14.650;  146.000;  103.000
326.982;  -93.000; -530.000; -548.000
327.117;  -74.350; -481.000; -442.000
327.253;  -86.675; -745.000; -742.000
327.388; -119.350;-1137.000;-1153.000
327.524;  -28.425; -811.000; -578.000
327.659;  -14.300;  -58.000;  -22.000
327.795;   -2.775;   69.000;   45.000
327.931;  -80.200; -723.000; -499.000
328.066;  -28.450; -417.000; -276.000
328.202;  -11.800;   12.000; -129.000
328.337;   95.000;  957.000;  713.000
328.473;   40.050;  -12.000;  -74.000
328.608;  -24.250; -256.000; -267.000
328.743;  -67.700; -799.000; -664.000
328.879;   13.125;  214.000;  114.000
329.014;  -39.150; -102.000; -122.000
329.150;  -91.100; -358.000; -483.000
329.285;  -64.525; -465.000; -466.000
329.421;  -45.625; -548.000; -246.000
329.556;  -18.225;  -36.000;   85.000
329.691;  -94.325; -633.000; -615.000
329.827;  -78.800; -626.000; -480.000
329.962;  -43.025;  131.000; -301.000
330.097;  -80.900; -673.000; -585.000
330.233;  -43.150; -410.000; -223.000
330.368; -116.125; -839.000; -628.000
330.503;  -15.550;    3.000;   98.000
330.638;   13.500;  -93.000; -125.000
330.774;  -43.600; -609.000; -530.000
330.909;  -43.150; -434.000; -244.000
331.044;  -92.625; -714.000; -708.000
331.179; -163.350;-1217.000;-1109.000
331.315;   10.175;   77.000;   20.000
331.450;    3.475;  157.000;  285.000
331.585;  -76.525; -805.000; -706.000
331.720;  -70.825; -510.000; -460.000
331.855;  -16.950;  -35.000; -102.000
331.990;  213.025;   62.000;  138.000
332.126;  118.425; -110.000;   71.000
332.261;  -12.725; -379.000; -265.000
332.396;  -10.100; -135.000; -242.000
332.531;  -90.650;-1074.000;-1031.000
332.666;   19.675; -519.000; -363.000
332.801;  -92.350; -726.000; -807.000
332.936;  -21.175; -192.000; -122.000
333.071; -148.100; -870.000; -817.000
333.206;   21.075;  307.000;  379.000
333.341;   24.525;  344.000;  418.000
333.476;  -87.125; -627.000; -623.000
333.611;  -36.175; -251.000; -173.000
333.746;  -49.850; -381.000; -464.000
333.881; -101.775; -973.000; -935.000
334.016; -111.500; -936.000; -917.000
334.151; -116.975; -746.000; -702.000
334.286;   35.900;  152.000;  186.000
334.421;   -9.875; -125.000; -178.000
334.556;  -70.700; -611.000; -567.000
334.690;  -79.425; -631.000; -577.000
334.825;   66.600;  381.000;   83.000
334.960;  -44.175; -285.000; -413.000
335.095;   21.325;  135.000;  -91.000
335.230;  -86.400; -722.000; -738.000
335.365; -114.350;-1084.000; -990.000
335.499; -113.300;-1108.000;-1037.000
335.634;   25.475;    9.000;  534.000
335.769;  -87.475; -755.000; -720.000
335.904;  -44.900; -603.000; -561.000
336.038;  -43.700; -735.000; -657.000
336.173; -106.850;-1206.000;-1194.000
336.308;   33.625; -116.000; -189.000
336.443;   23.800; -544.000; -634.000
336.577;  -46.525; -936.000; -787.000
336.712;   67.800;   -4.000;  -12.000
336.847;   -5.775; -724.000; -607.000
336.981;   88.850; -272.000; -208.000
337.116;  345.850;  615.000;  501.000
337.250;  200.000; -434.000; -421.000
337.385;  212.350; -297.000; -208.000
337.520;   71.700; -632.000; -603.000
337.654;  -27.400; -215.000; -126.000
337.789; -113.850; -989.000; -933.000
337.923;  -29.700; -104.000; -205.000
338.058;  -84.025; -673.000; -738.000
338.192;  -21.575; -611.000; -488.000
338.327;    1.200;  -18.000; -155.000
338.461;  -60.100; -299.000; -469.000
338.596;  -81.850; -780.000; -638.000
338.730;  -92.550; -767.000; -803.000
338.865;   78.475;  -46.000; -140.000
338.999;  -61.250; -846.000; -702.000
339.134;  -23.400; -634.000; -536.000
339.268;   17.600; -741.000; -603.000
339.403;  344.775; -740.000; -775.000
339.537;   93.200; -894.000; -820.000
339.671; -109.450; -829.000; -813.000
339.806;  -53.850; -556.000; -512.000
339.940;   -3.150; -261.000; -235.000
340.074;  -95.025; -685.000; -510.000
340.209;  -57.800; -351.000; -230.000
340.343;  -82.175; -517.000; -573.000
340.477;  153.475;  998.000; 1036.000
340.612;  -67.675;-1033.000; -900.000
340.746;  119.525; -199.000; -243.000
340.880;  -61.975; -924.000; -785.000
341.014;  -11.950;  -45.000; -154.000
341.149;  -95.100; -756.000; -718.000
341.283; -109.175; -839.000; -754.000
341.417;  -66.550;-1124.000; -938.000
341.551;  190.750; -768.000; -708.000
341.685;  -20.225; -633.000; -611.000
341.820;  -42.950; -562.000; -493.000
341.954;  -51.675; -218.000; -349.000
342.088; -160.025;-1102.000;-1019.000
342.222;   53.450;  565.000;  618.000
342.356;  -52.200; -395.000; -335.000
342.490;  -84.875; -880.000; -841.000
342.624;  -36.525; -339.000; -242.000
342.758;   15.850; -364.000; -312.000
342.892;  -49.975; -710.000; -585.000
343.026;  -44.000;  -58.000; -116.000
343.160;  -56.275; -426.000; -376.000
343.294;  -78.400; -474.000; -337.000
343.428;  -11.175; -488.000; -448.000
343.562;   -3.350; -172.000;  -23.000
343.696;   -9.075; -385.000; -314.000
343.830;    4.775; -362.000; -356.000
343.964;   20.700; -231.000; -168.000
344.098; 1133.250;  199.000;   70.000
344.232;  968.575; -266.000; -127.000
344.366;  117.675; -567.000; -453.000
344.500;   97.425; -665.000; -744.000
344.634;   52.625; -324.000; -164.000
344.768;    7.725; -531.000; -341.000
344.902;   19.950;  278.000;  256.000
345.035;  -73.425; -556.000; -496.000
345.169; -136.575; -933.000; -656.000
345.303;  -21.850; -308.000; -482.000
345.437;  -51.875; -826.000; -717.000
345.571;  -77.100; -675.000; -594.000
345.704;  -57.625; -309.000; -532.000
345.838;   -2.875; -331.000; -284.000
345.972;  -21.800; -543.000; -495.000
346.106;  145.200; -179.000; -190.000
346.239;  420.750; -312.000; -243.000
346.373;   14.350; -343.000; -302.000
346.507; -127.600; -950.000; -962.000
346.640;  193.450;  -30.000;   13.000
346.774;  -18.375; -650.000; -797.000
346.908;  -12.025; -138.000;  -11.000
347.041;  -83.000; -646.000; -593.000
347.175;   -4.725;  259.000;   27.000
347.309;  -63.900; -698.000; -628.000
347.442;  -88.700; -883.000; -732.000
347.576;  326.625;  670.000;  668.000
347.709;  256.875; -123.000;  -52.000
347.843;  -77.900; -933.000; -825.000
347.976;   36.325;  235.000;  294.000
348.110; -173.775;-1268.000;-1186.000
348.243; -100.325; -679.000; -772.000
348.377;    6.775;  -26.000;   60.000
348.510;   48.300;  403.000;  540.000
348.644;  -35.750;  -37.000; -159.000
348.777;    2.125;  180.000;  191.000
348.911;  -43.125; -142.000; -112.000
349.044;  190.500;  471.000;  448.000
349.178;  242.250;-1069.000;-1006.000
349.311;  112.525;  141.000;  255.000
349.444;   -9.275; -927.000; -813.000
349.578;  -28.725; -347.000; -200.000
349.711;  -79.650; -959.000; -862.000
349.845;   32.000; -661.000; -591.000
349.978; -129.475;-1224.000;-1137.000
350.111;  -98.575; -546.000; -612.000
350.244;  -62.500; -596.000; -700.000
350.378;   24.975; -392.000; -393.000
350.511;  -57.475; -393.000; -426.000
350.644; -108.500; -808.000; -806.000
350.778;   13.475;  168.000;  104.000
350.911;    5.675;  134.000;  140.000
351.044;  -80.025; -685.000; -615.000
351.177;  -15.750; -321.000; -281.000
351.310;  -17.275;    3.000; -131.000
351.444;  -64.650; -888.000; -788.000
351.577;  146.500;  140.000;   90.000
351.710;  108.775;  593.000;  417.000
351.843;  -22.900; -165.000;  -77.000
351.976;   23.675;  149.000;  -79.000
352.109;  -72.800; -621.000; -612.000
352.242;  -12.175; -464.000; -419.000
352.376;  -39.150; -580.000; -636.000
352.509;  235.200; -437.000; -356.000
352.642;   64.300; -654.000; -604.000
352.775;   67.550; -141.000;  -98.000
352.908;  -99.725; -933.000; -904.000
353.041;  -92.450; -814.000; -824.000
353.174;  -46.725; -551.000; -424.000
353.307;  -77.525; -753.000; -764.000
353.440;   83.675;  541.000;  453.000
353.573; -101.125; -957.000;-1008.000
353.706;  -38.875; -384.000; -558.000
353.839;  -15.775; -264.000; -220.000
353.971;  -83.100; -657.000; -512.000
354.104;  -64.900; -896.000; -835.000
354.237;  -19.775; -627.000; -662.000
354.370;  -95.750; -846.000; -879.000
354.503; -170.325;-1231.000;-1308.000
354.636;  -25.325; -529.000; -348.000
354.769; -116.975; -937.000; -860.000
354.902;   -9.350; -230.000; -139.000
355.034;  -17.750; -164.000; -220.000
355.167;  -19.000; -262.000; -162.000
355.300;  -82.050;-1061.000; -880.000
355.433;  908.275;  -71.000;  -14.000
355.565; 1420.100; -402.000; -384.000
355.698;  363.475; -356.000; -296.000
355.831;   23.750; -882.000; -801.000
355.964;  110.625; -285.000; -170.000
356.096;  -85.700; -856.000; -843.000
356.229;   34.125; -523.000; -530.000
356.362;  310.300; -373.000; -266.000
356.494;  557.875; -229.000; -162.000
356.627;  557.125;  269.000;  377.000
356.760;  627.975;  120.000;   53.000
356.892;  878.900; -286.000; -601.000
357.025;  779.350;  403.000;  389.000
357.157;  767.525; -167.000; -179.000
357.290;  596.975; -856.000; -713.000
357.423;  216.600; -667.000; -556.000
357.555;  139.925; -217.000; -228.000
357.688;  154.500; -483.000; -364.000
357.820;  576.600; -870.000; -877.000
357.953; 4384.850; -563.000; -589.000
358.085; 1009.950; -632.000; -612.000
358.218; 1519.475;-1131.000; -932.000
358.350;  263.100;  -58.000;  312.000
358.483;  -97.125;-1300.000;-1187.000
358.615;   36.450;-1182.000;-1078.000
358.747;   -9.450;-1187.000;-1058.000
358.880;   64.550; -810.000; -744.000
359.012;   21.900; -376.000; -202.000
359.145;  -19.550; -480.000; -511.000
359.277;  106.550; -962.000; -913.000
359.409; 3630.550;  536.000;  231.000
359.542; 1022.075; -738.000; -688.000
359.674;   91.950;   46.000;   13.000
359.806;  -60.500; -565.000; -438.000
359.939;  -29.050; -617.000; -516.000
360.071;  -10.475; -583.000; -579.000
360.203;   -3.050; -411.000; -364.000
360.335;   63.875;  164.000;  -16.000
360.468;  231.025; -249.000; -307.000
360.600; 2857.850; -547.000; -454.000
360.732; 2666.725; -546.000; -423.000
360.864;  388.700;-1216.000;-1044.000
360.996;  380.975; -516.000; -554.000
361.129;   84.400; -389.000; -598.000
361.261;   31.125;  110.000; -113.000
361.393;  -18.550; -252.000; -214.000
361.525;   27.200;   94.000;  244.000
361.657;  -19.225; -821.000; -703.000
361.789;   28.050; -139.000; -155.000
361.921;  335.225; -642.000; -593.000
362.053;  328.525;  524.000;  541.000
362.185;   65.075;  288.000;   72.000
362.318;  -69.175; -709.000; -705.000
362.450;  154.300;  294.000;  444.000
362.582;  192.425; -913.000; -870.000
362.714;  -27.675; -353.000; -332.000
362.846;  -71.100; -606.000; -490.000
362.978; -129.500; -941.000; -811.000
363.109;   75.375; -161.000; -260.000
363.241;  578.300; -739.000; -749.000
363.373;  415.475; -649.000; -564.000
363.505;  581.375; -186.000;  -91.000
363.637;  148.325; -787.000; -601.000
363.769;  -97.100;-1067.000;-1080.000
363.901;  -62.650; -596.000; -654.000
364.033;  -99.600;-1103.000;-1062.000
364.165;    7.200; -283.000; -283.000
364.296;   84.650; -316.000; -177.000
364.428;   73.325;-1344.000;-1220.000
364.560;  -65.425; -679.000; -661.000
364.692;  -58.975; -738.000; -835.000
364.824;  373.250; -588.000; -456.000
364.955;  470.425; -402.000; -564.000
365.087;  800.100;-1097.000; -852.000
365.219;   26.075; -686.000; -816.000
365.351;  -58.600; -526.000; -572.000
365.482;   66.925;  300.000;  240.000
365.614;  -48.025; -402.000; -314.000
365.746;  -89.925; -729.000; -752.000
365.877;  -82.150; -706.000; -672.000
366.009;  244.225;  -35.000;  -62.000
366.141;  -94.875;-1249.000;-1134.000
366.272;  -97.700; -803.000; -719.000
366.404; -120.375;-1005.000; -874.000
366.535;   -7.450; -139.000;  -12.000
366.667;  -86.150; -644.000; -649.000
366.799;   36.550;  353.000;  203.000
366.930;  -99.150; -862.000; -996.000
367.062;  121.825; -639.000; -613.000
367.193;  130.725; -872.000; -842.000
367.325;  -55.900; -580.000; -684.000
367.456;  104.900; -246.000;   31.000
367.588;  151.250; -371.000; -318.000
367.719;   24.550;  -44.000;  -45.000
367.851;   -7.975; -222.000; -241.000
367.982;  -10.400; -875.000; -732.000
368.113;  144.750; -475.000; -358.000
368.245; -109.200; -960.000; -841.000
368.376;  -19.550; -254.000; -302.000
368.508;  -37.525; -188.000; -263.000
368.639; -126.700;-1166.000;-1034.000
368.770;   11.900; -670.000; -589.000
368.902;  -38.775; -836.000; -926.000
369.033;  -90.825; -906.000; -855.000
369.164;  -58.675; -720.000; -653.000
369.296; -110.825; -452.000; -601.000
369.427;   -0.600; -209.000; -144.000
369.558;  -32.925; -593.000; -377.000
369.689;  -82.550; -721.000; -569.000
369.821; -128.375; -951.000; -845.000
369.952;   -5.550;   42.000; -108.000
370.083;  -38.850; -229.000; -108.000
370.214;  -73.125; -735.000; -650.000
370.345;   17.350;   65.000;   81.000
370.477;  -58.400; -810.000; -790.000
370.608;  313.725; -328.000; -264.000
370.739;   -8.250;-1233.000;-1292.000
370.870;   -8.625;-1102.000; -923.000
371.001;  131.625; -378.000; -467.000
371.132;  -57.350; -754.000; -735.000
371.263;  -12.225;  -42.000; -148.000
371.394; -133.600; -841.000; -748.000
371.525;   43.675;  345.000;  225.000
371.657;  -74.825; -808.000; -670.000
371.788;   97.325;  103.000;  199.000
371.919;  224.200; -384.000; -304.000
372.050; 4405.200;  -91.000; -156.000
372.181; 1370.525; -188.000; -294.000
372.311;  472.800;   42.000; -127.000
372.442;   61.675; -457.000; -451.000
372.573;   -8.850; -444.000; -340.000
372.704;  -88.700;-1008.000; -980.000
372.835;  120.450; -228.000; -289.000
372.966;  -47.475; -646.000; -554.000
373.097;  -54.025; -575.000; -711.000
373.228;  -25.375; -717.000; -542.000
373.359;  193.125; -824.000; -536.000
373.490; 1185.575; -881.000; -727.000
373.620; 1505.375;-1001.000; -803.000
373.751; 2252.350; -332.000; -396.000
373.882; 1056.175; -663.000; -733.000
374.013;  115.725; -449.000; -262.000
374.143;  -31.825; -581.000; -659.000
374.274;  -86.200; -987.000; -908.000
374.405;  224.550; -388.000; -276.000
374.536;  558.075; -526.000; -387.000
374.666; 1456.650; -759.000; -807.000
374.797;  325.300; -817.000; -868.000
374.928; 1128.350; -710.000; -560.000
375.058; 1145.125; -535.000; -500.000
375.189;  111.475;  -59.000;  -93.000
375.320;  -83.450; -928.000;-1034.000
375.450;  -29.050; -625.000; -616.000
375.581;  -39.625; -526.000; -436.000
375.712;  -28.500; -574.000; -250.000
375.842;  397.700; -438.000; -415.000
375.973;  311.600; -554.000; -513.000
376.103;   -9.300; -665.000; -648.000
376.234;  -67.375; -531.000; -552.000
376.364;  -12.225; -944.000; -867.000
376.495;  375.225;  925.000;  529.000
376.625;   36.450; -472.000; -485.000
376.756;  107.425; -709.000; -678.000
376.886;  -28.525;-1178.000;-1026.000
377.017;   26.100;-1048.000;-1061.000
377.147;  304.550; -786.000; -782.000
377.278;   61.200;  174.000;  228.000
377.408; -127.875; -801.000; -815.000
377.538; -101.525; -707.000; -693.000
377.669;  -65.175; -537.000; -613.000
377.799;  -80.750; -645.000; -635.000
377.929;  -25.150; -610.000; -428.000
378.060; -126.050; -781.000; -847.000
378.190;  -58.825; -726.000; -531.000
378.320;  -57.150; -401.000; -406.000
378.451;    1.025; -131.000;  -22.000
378.581;  -13.725;  -67.000; -110.000
378.711;  168.425; 1035.000;  866.000
378.841;   11.850; -533.000; -675.000
378.972;  -44.275; -871.000; -751.000
379.102;   12.750; -652.000; -579.000
379.232;   -7.500; -126.000;  -73.000
379.362;  -99.850;-1001.000; -885.000
379.492;   34.250; -373.000; -424.000
379.623;  140.575;    0.000;  111.000
379.753;  -87.175;-1107.000; -974.000
379.883;  235.975;   59.000;  156.000
380.013;   70.750;-1081.000;-1017.000
380.143;  -81.600;-1097.000;-1056.000
380.273;  -74.500; -985.000; -861.000
380.403;   13.000; -344.000; -257.000
380.533;    5.850; -651.000; -664.000
380.663;   95.950;  173.000;  128.000
380.793;  -72.400;-1027.000;-1074.000
380.923;  -21.250; -103.000;  -34.000
381.053;  -75.600; -613.000; -623.000
381.183;  -29.225; -106.000; -248.000
381.313;   71.300; -656.000; -470.000
381.443;   73.725; -692.000; -473.000
381.573;  292.900; -402.000; -409.000
381.703;  425.750;-1249.000;-1095.000
381.833; -103.575;-1454.000;-1336.000
381.963;  135.000; -134.000;  -87.000
382.093; 1687.875; -925.000; -909.000
382.223;  572.100; -713.000; -602.000
382.353;   21.525; -801.000; -608.000
382.482;  516.750;-1091.000; -964.000
382.612;  970.750; -872.000; -644.000
382.742;  555.700; -695.000; -622.000
382.872;  377.900; -565.000; -551.000
383.002;   82.400;  347.000; -132.000
383.131;  -14.400; -226.000; -160.000
383.261;  -37.075; -706.000; -768.000
383.391;  314.625; -552.000; -377.000
383.521; 2878.375;  451.000;  263.000
383.650;  685.175; -947.000; -904.000
383.780;  -22.525; -783.000; -656.000
383.910;  113.675;  880.000;  802.000
384.039;   52.200; -794.000; -656.000
384.169;  310.725;-1205.000;-1017.000
384.299;   -3.400; -650.000; -662.000
384.428;  -80.050; -764.000; -680.000
384.558;  -51.375; -308.000; -275.000
384.687;  -20.725; -414.000; -334.000
384.817;   28.125;   75.000;   -2.000
384.947;   36.600; -234.000; -141.000
385.076;  323.100;  982.000;  912.000
385.206;  109.350;  369.000;  480.000
385.335;  -18.200; -549.000; -417.000
385.465;  -67.925; -655.000; -663.000
385.594;  172.450;  -53.000;  -44.000
385.724;  575.975; -868.000; -838.000
385.853;  159.425; -296.000; -270.000
385.982; 1704.075; -743.000; -787.000
386.112; 2745.550;-1052.000; -871.000
386.241;  214.100; -307.000; -312.000
386.371;   33.950; -174.000;  -87.000
386.500;   29.325; -825.000; -789.000
386.629;   31.675; -874.000; -817.000
386.759;   66.575;  -43.000;   68.000
386.888;    0.350; -170.000; -250.000
387.017;  -67.375; -648.000; -620.000
387.147;  -81.400; -771.000; -798.000
387.276;   35.475; -410.000; -397.000
387.405;   20.925; -398.000; -342.000
387.535;  -34.850; -452.000; -361.000
387.664;  -52.900; -692.000; -620.000
387.793;   94.300; -198.000; -113.000
387.922;  655.900;  255.000;  200.000
388.052;   60.100; -576.000; -423.000
388.181;   53.275; -342.000; -472.000
388.310;   58.500; -889.000; -710.000
388.439;  -12.075; -749.000; -742.000
388.568;  229.000;  365.000;  244.000
388.697; 1352.525; -756.000; -653.000
388.826;  310.800; -768.000; -666.000
388.956;   84.750; -285.000; -307.000
389.085;  -10.650; -347.000; -287.000
389.214;  -99.500; -842.000; -872.000
389.343;  -58.450; -645.000; -413.000
389.472;  369.700;  126.000;  149.000
389.601;  549.100;   91.000;    0.000
389.730;   49.100; -568.000; -687.000
389.859;   84.975;  226.000;   46.000
389.988;  235.850; -423.000; -408.000
390.117;  184.850; -168.000; -146.000
390.246;    5.175; -331.000; -320.000
390.375;  161.025; -673.000; -626.000
390.504;  -49.000; -703.000; -621.000
390.633;  -81.750; -672.000; -726.000
390.761;  -46.825; -732.000; -645.000
390.890;   29.225;   -4.000; -130.000
391.019;  -10.800; -421.000; -441.000
391.148; -120.975; -826.000; -855.000
391.277;  -53.050; -576.000; -493.000
391.406;  -55.000; -821.000; -805.000
391.534;   29.900;  574.000; -301.000
391.663;  -41.400; -583.000; -645.000
391.792;  -74.025; -673.000; -701.000
391.921;  120.850;   -3.000;   15.000
392.050;  253.325; -287.000; -228.000
392.178;   -1.625;-1206.000;-1061.000
392.307;  194.275; -758.000; -712.000
392.436;  109.575; -427.000; -641.000
392.564;   33.975;  166.000;   -6.000
392.693;  -75.350; -860.000; -682.000
392.822;  284.825; -529.000; -534.000
392.950;  147.675; -880.000; -714.000
393.079;  425.925; -188.000; -328.000
393.208;   66.750; -488.000; -511.000
393.336;   -3.825; -170.000; -145.000
393.465;  -44.250; -317.000; -199.000
393.593;    4.025;   62.000;   79.000
393.722; -146.400;-1121.000; -916.000
393.850;  -24.175; -188.000;  -61.000
393.979; -158.575; -926.000; -805.000
394.107;  -55.450; -517.000; -537.000
394.236;  -10.275; -570.000; -507.000
394.364;  258.150;  383.000;  206.000
394.493;  447.875; -911.000; -767.000
394.621;    4.150; -955.000; -916.000
394.750;  642.875; -873.000; -923.000
394.878; 2702.200; -247.000; -149.000
395.007; 3768.875; -721.000; -807.000
395.135;  307.200; -790.000; -721.000
395.263;  -81.625;-1038.000;-1040.000
395.392;   10.225;  -25.000; -107.000
395.520; -136.050; -818.000; -679.000
395.648;  -65.475; -865.000; -915.000
395.777;   12.775; -366.000; -405.000
395.905;  -32.950; -449.000; -564.000
396.033;   18.500;  217.000;  172.000
396.162;  703.975; -399.000; -453.000
396.290;  626.350;  -17.000;   -2.000
396.418;  154.650; -555.000; -514.000
396.546;  -49.450; -571.000; -466.000
396.674;  -89.350; -850.000; -878.000
396.803;   22.425;  -72.000;  -23.000
396.931;  136.375; -179.000; -199.000
397.059;  123.225;-1026.000; -989.000
397.187; -100.950;-1026.000; -975.000
397.315; -129.650; -884.000; -649.000
397.443; -103.450; -592.000; -443.000
397.572;  -86.050; -578.000; -424.000
397.700;   12.450; -607.000; -614.000
397.828;   47.400;  120.000;  -90.000
397.956;  -43.300; -508.000; -478.000
398.084;  -62.900; -767.000; -626.000
398.212;   41.575;  137.000;  124.000
398.340;   25.675;  -56.000;  159.000
398.468;   65.525; -390.000; -169.000
398.596; -118.325; -993.000; -953.000
398.724; -117.225; -762.000; -767.000
398.852; -149.750;-1024.000; -976.000
398.980;  -50.775; -560.000; -560.000
399.108;  -38.675; -982.000; -735.000
399.236;   40.925;   13.000;    8.000
399.363;   24.850;  222.000;  196.000
399.491;  -67.875; -404.000; -398.000
399.619; -111.700; -829.000; -800.000
399.747;  -91.150; -859.000; -771.000
399.875;   96.600;  220.000;  234.000
400.003;  -58.450; -359.000; -284.000
400.130;  -88.350; -421.000; -341.000
400.258;  -38.250;  -83.000;   38.000
400.386;  -59.875; -352.000; -168.000
400.514;  -29.975; -526.000; -587.000
400.641;  -63.175; -928.000; -802.000
400.769; -127.075; -979.000; -888.000
400.897;  -91.075; -838.000; -793.000
401.025;   -4.350; -166.000; -152.000
401.152;   -6.250;  220.000;   38.000
401.280;  -82.900; -430.000; -429.000
401.408; -124.525; -712.000; -576.000
401.535;  -98.325; -735.000; -758.000
401.663; -176.150;-1134.000;-1054.000
401.790;  -88.825; -514.000; -525.000
401.918;   51.025;  436.000;  405.000
402.046;  -33.850;  134.000;  122.000
402.173;  -42.600;  -18.000;    7.000
402.301;  -54.875; -519.000; -397.000
402.428;   34.200;  528.000;  383.000
402.556; -140.475;-1188.000; -913.000
402.683;  -34.000;  -20.000;   -1.000
402.811;  -19.625;  -37.000; -206.000
402.938;   -6.575;   20.000;   27.000
403.066;  266.275; -574.000; -558.000
403.193;  424.400;  299.000;  239.000
403.321;  337.500; -396.000; -574.000
403.448;  388.500;   83.000;   27.000
403.575;  193.375;  -90.000;  -46.000
403.703;  -91.425; -732.000; -557.000
403.830;  -45.400; -531.000; -496.000
403.957; -132.750;-1117.000;-1023.000
404.085;   14.950;  -61.000; -172.000
404.212;  112.150;  -50.000;   63.000
404.339;  242.800; -566.000; -306.000
404.467; 5298.475; -612.000; -524.000
404.594; 3892.875; -287.000; -227.000
404.721; 1032.175; -869.000; -764.000
404.848;   94.975; -113.000; -202.000
404.976;  -93.750; -856.000; -783.000
405.103;  -17.225;  -14.000;  -82.000
405.230;    9.775;  190.000;  226.000
405.357;   28.300;  117.000;   44.000
405.484;  241.350;  -49.000;    5.000
405.612;   56.700; -548.000; -563.000
405.739;  -67.625; -488.000; -243.000
405.866;   90.550;  669.000;  385.000
405.993;  -28.150; -398.000; -102.000
406.120; -126.500; -801.000; -887.000
406.247;  -45.450; -323.000; -342.000
406.374;  537.800;  540.000;  629.000
406.501;  188.800; -632.000; -702.000
406.628;  -75.475; -621.000; -589.000
406.755;  -88.150; -803.000; -620.000
406.882;  -29.750; -228.000; -277.000
407.009; -100.575; -719.000; -628.000
407.136;   71.475; -480.000; -401.000
407.263;  220.900; -939.000; -829.000
407.390;  -65.500; -692.000; -614.000
407.517; -162.250;-1139.000;-1187.000
407.644;  -43.225; -332.000; -256.000
407.771;  -63.050; -249.000; -287.000
407.898;   16.175;  168.000;  328.000
408.025;  -56.175; -421.000; -313.000
408.151;   -3.625;   82.000;  153.000
408.278;  -62.700; -267.000; -216.000
408.405; -122.300; -931.000; -899.000
408.532;  -61.000; -549.000; -542.000
408.659; -112.225; -677.000; -648.000
408.785; -199.325;-1298.000;-1170.000
408.912;  -50.600; -412.000; -296.000
409.039; -117.825; -610.000; -686.000
409.166; -106.975; -591.000; -555.000
409.292; -113.925; -571.000; -534.000
409.419; -122.300; -665.000; -649.000
409.546;  -95.675; -431.000; -192.000
409.672; -125.475; -713.000; -545.000
409.799;  -12.975;  -36.000;   34.000
409.926;  -52.500; -180.000; -179.000
410.052; -170.775;-1127.000;-1091.000
410.179;  -52.250; -368.000; -392.000
410.305;  -83.100; -375.000; -493.000
410.432;  -50.350; -220.000; -333.000
410.558;  -81.675; -305.000; -380.000
410.685; -107.450; -688.000; -431.000
410.812;  -84.175; -409.000; -588.000
410.938; -126.750; -964.000; -808.000
411.065;  -81.300; -671.000; -645.000
411.191;  -10.250; -189.000; -174.000
411.317; -107.950; -823.000; -742.000
411.444;  -59.400; -317.000; -246.000
411.570;  -64.300; -339.000; -294.000
411.697; -136.925; -758.000; -752.000
411.823; -161.125; -989.000; -999.000
411.949;  -18.975;  -56.000;   17.000
412.076; -107.500; -539.000; -519.000
412.202; -121.700; -758.000; -757.000
412.329; -119.325; -798.000; -752.000
412.455;  -87.125; -821.000; -657.000
412.581;  -13.300;  -15.000;  172.000
412.707;  -67.800; -540.000; -457.000
412.834;   19.275;  156.000;  219.000
412.960;  -69.350; -785.000; -784.000
413.086;  -93.175; -743.000; -701.000
413.212;  168.600;  604.000;  578.000
413.339;  -50.100; -685.000; -701.000
413.465;   16.975; -364.000; -310.000
413.591;  -87.650; -757.000; -474.000
413.717;  -56.600; -358.000; -366.000
413.843; -135.575; -839.000; -861.000
413.969;  -56.950;  -47.000; -292.000
414.096;  -93.925; -679.000; -679.000
414.222;  -13.775;  -33.000;   85.000
414.348;   -6.675; -652.000; -385.000
414.474;  122.850;   38.000;  -52.000
414.600;  -13.850; -126.000; -144.000
414.726;  -25.600;  -96.000;  -55.000
414.852;  -62.900; -365.000; -342.000
414.978;   31.300;  104.000;  -18.000
415.104;   34.575;   38.000;   80.000
415.230;   28.350; -329.000; -330.000
415.356;   33.275; -409.000; -514.000
415.482;  216.350;   13.000;  -35.000
415.608;  258.825; -247.000; -323.000
415.734;  916.625;   67.000;   38.000
415.860;18846.050; -875.000; -767.000
415.986;14249.800; -685.000; -607.000
416.111; 1240.875; -798.000; -652.000
416.237;  244.675; -424.000; -571.000
416.363;  994.575; -765.000; -733.000
416.489; 3937.325; -324.000; -251.000
416.615;  439.625; -707.000; -742.000
416.741;  -23.275; -677.000; -784.000
416.866;  -80.900; -673.000; -736.000
416.992; -123.875; -801.000; -818.000
417.118;  -24.650;  -41.000;  -80.000
417.244;  -60.850; -798.000; -531.000
417.369;  -67.400; -801.000; -612.000
417.495;   -2.350; -325.000; -254.000
417.621;  -79.525;-1015.000; -803.000
417.746;    8.325; -579.000; -572.000
417.872;   53.750; -254.000; -144.000
417.998;   31.225; -515.000; -530.000
418.123;  905.700;-1073.000; -845.000
418.249; 5075.900; -512.000; -601.000
418.374;  732.700; -916.000; -824.000
418.500;  106.275; -383.000; -482.000
418.626;  116.975;   70.000;  -59.000
418.751;  117.000; -549.000; -448.000
418.877;  194.475; -637.000; -643.000
419.002; 1617.500; -688.000; -560.000
419.128;11719.150; -930.000; -721.000
419.253; 3007.125; -967.000; -837.000
419.379;  394.525; -391.000; -338.000
419.504;  372.925;  325.000;  415.000
419.629;  475.350; -393.000; -212.000
419.755; 3126.875; -317.000; -254.000
419.880;19231.550;  -98.000;   67.000
420.006;10566.725; -280.000; -221.000
420.131;27972.200; -662.000; -775.000
420.256; 4227.575; -315.000; -316.000
420.382;  552.950; -665.000; -687.000
420.507;   67.450; -649.000; -778.000
420.632;  194.025; -337.000; -339.000
420.758;  349.075; -251.000; -425.000
420.883;  -70.150; -876.000; -672.000
421.008;  -94.875; -775.000; -619.000
421.133;  -76.000; -509.000; -467.000
421.259;  -41.550; -325.000; -259.000
421.384; -104.450; -834.000; -693.000
421.509;  -22.375;-1052.000; -862.000
421.634; 1526.725; -936.000; -820.000
421.759;  708.500; -359.000; -327.000
421.885;  -31.725; -717.000; -656.000
422.010;  -79.875; -673.000; -542.000
422.135; -144.700; -695.000; -727.000
422.260;   40.250;  340.000;  280.000
422.385;  -35.800;   12.000;  -98.000
422.510;    6.875;  151.000;  -26.000
422.635;   42.300;  -87.000;  -43.000
422.760;  139.850; -766.000; -791.000
422.885;   75.850;  -57.000;  -80.000
423.010;  -35.350; -112.000; -169.000
423.135;  -91.050; -481.000; -561.000
423.260;   -5.925; -150.000; -245.000
423.385;   71.725;  476.000;  222.000
423.510;   36.750;   71.000;  -22.000
423.635;  112.525;  133.000;   45.000
423.760;   51.775;  383.000;  328.000
423.885;   55.350;  336.000;  391.000
424.010;   18.475;  -68.000;  -13.000
424.135;   -9.050;    5.000;  -33.000
424.259;  -98.500; -654.000; -457.000
424.384;  -64.400; -279.000; -272.000
424.509;  -18.975; -260.000; -186.000
424.634;  -91.225; -761.000; -623.000
424.759;  -19.625; -688.000; -544.000
424.883;  -14.825; -506.000; -527.000
425.008;  162.050; -502.000; -410.000
425.133; 1870.100; -679.000; -653.000
425.258;  942.100; -517.000; -381.000
425.382; 1203.775; -867.000; -774.000
425.507; 3220.775; -487.000; -543.000
425.632;  540.750; -802.000; -663.000
425.756;  437.975; -256.000; -146.000
425.881; 5614.225; -831.000; -857.000
426.006;15989.600; -604.000; -355.000
426.130; 2690.000; -696.000; -508.000
426.255;  337.975; -611.000; -491.000
426.379;  160.475; -189.000; -577.000
426.504;  350.525;  660.000;  544.000
426.629; 3811.525; -519.000; -466.000
426.753; 2754.225;   64.000;  -46.000
426.878;  310.450; -252.000; -288.000
427.002;  150.275; -651.000; -668.000
427.127; 1478.550;  -35.000; -158.000
427.251;10615.000;  372.000;  401.000
427.375; 3238.400; -191.000; -173.000
427.500; 2724.950; -616.000; -610.000
427.624;  999.275; -234.000; -400.000
427.749;  117.700; -216.000; -225.000
427.873;  -27.150; -499.000; -412.000
427.997;  -46.550; -222.000; -230.000
428.122;   75.250;  795.000;  703.000
428.246;   93.150;  433.000;  434.000
428.371; -100.975; -869.000; -773.000
428.495;  -96.575; -624.000; -646.000
428.619;  -31.125; -186.000; -117.000
428.743;   30.475;   65.000;  132.000
428.868;   27.950; -732.000; -643.000
428.992; 1727.075; -219.000; -326.000
429.116;  739.600; -329.000; -357.000
429.240;  351.000;  419.000;  426.000
429.365;  -10.975; -454.000; -574.000
429.489;  -30.225; -638.000; -647.000
429.613;   36.350; -236.000; -177.000
429.737;   29.625; -563.000; -432.000
429.861;  271.400; -247.000; -133.000
429.985; 5132.725; -425.000; -305.000
430.109; 5950.250; -770.000; -908.000
430.234;  693.275;   76.000;  -50.000
430.358;   70.450; -250.000; -160.000
430.482;  -73.625; -672.000; -564.000
430.606;  -57.275; -655.000; -375.000
430.730;   13.600; -437.000; -388.000
430.854;  180.175; -909.000; -835.000
430.978;  -59.875; -795.000; -764.000
431.102;  -76.550; -499.000; -422.000
431.226; -108.650; -874.000; -815.000
431.350;   33.250;  345.000;  422.000
431.474;  -55.275; -661.000; -373.000
431.597; -139.950;-1060.000; -848.000
431.721;  -74.775; -276.000; -267.000
431.845; -135.500; -704.000; -472.000
431.969;  -81.675; -304.000; -349.000
432.093;  -92.275; -395.000; -317.000
432.217;  -27.150;   32.000;   82.000
432.341;  -77.175; -523.000; -518.000
432.464;   15.575;   96.000;   40.000
432.588;  279.900; -401.000; -329.000
432.712;  145.450;  -52.000;  -52.000
432.836;   34.200;  213.000;  263.000
432.959;  -13.550; -372.000; -311.000
433.083;   76.750;   11.000;    2.000
433.207;  352.050;  285.000;  930.000
433.330; 4632.375; -391.000; -200.000
433.454; 5910.125; -654.000; -638.000
433.578; 3423.175;  583.000;  278.000
433.701;  682.875; -623.000; -675.000
433.825;  184.675; -292.000; -299.000
433.949;  250.900;   28.000;  -72.000
434.072;  110.600; -410.000; -323.000
434.196;    0.950; -309.000; -117.000
434.319; 3654.675;25482.000;25124.000
434.443;  727.250; -656.000; -603.000
434.566; 2519.300;  281.000;   62.000
434.690;  431.850; -637.000; -383.000
434.813;   58.225; -251.000; -173.000
434.937;  -71.175; -569.000; -696.000
435.060;  -23.175; -423.000; -332.000
435.184;  439.725; -492.000; -217.000
435.307;  252.125;  159.000;  102.000
435.431;    2.200;  -40.000;   24.000
435.554;  -79.000; -399.000; -240.000
435.677;  -90.225; -350.000; -258.000
435.801;  -31.225;  -25.000;   49.000
435.924;   -8.175;    1.000;  -67.000
436.048;  -85.200;-1019.000; -732.000
436.171;  -69.600; -240.000;  -66.000
436.294;  -16.150; -248.000; -229.000
436.417;   81.575; -963.000; -849.000
436.541;  -71.225; -814.000; -840.000
436.664;  -51.300; -242.000; -316.000
436.787;  -27.750;   13.000;  113.000
436.910; -107.800; -792.000; -422.000
437.034;    9.100;  142.000;  143.000
437.157;   89.825;  -11.000;    0.000
437.280;  -34.325; -392.000; -292.000
437.403;  -55.700; -982.000; -869.000
437.526;  845.700; -903.000; -865.000
437.649; 3052.200; -505.000; -332.000
437.772;  530.750; -692.000; -540.000
437.896;  147.625;  700.000;  544.000
438.019;  -89.275; -758.000; -503.000
438.142;  -83.700; -596.000; -506.000
438.265;    6.750; -639.000; -670.000
438.388;  728.725; -520.000; -410.000
438.511;  182.900; -597.000; -394.000
438.634;  -31.450; -247.000; -125.000
438.757; -134.950; -693.000; -619.000
438.880;  -17.450;  -34.000;  -57.000
439.003;  -63.350; -417.000; -437.000
439.126;  -70.350; -287.000; -167.000
439.248;  -60.200;  -98.000; -139.000
439.371;  -37.375;    9.000;  -53.000
439.494;   27.050;  510.000;  439.000
439.617;  -57.450;   65.000;  -88.000
439.740; -168.325; -968.000; -816.000
439.863; -134.800; -755.000; -595.000
439.986; -122.300; -476.000; -431.000
440.108;  -59.275; -161.000; -112.000
440.231; -151.850; -950.000; -836.000
440.354;  -41.850;  -64.000; -150.000
440.477;   84.875; -566.000; -542.000
440.599;   33.500; -200.000; -225.000
440.722; -116.000; -709.000; -586.000
440.845;   61.975;  751.000;  928.000
440.968; -107.200; -415.000; -311.000
441.090;  -62.325; -199.000;  -33.000
441.213; -168.225;-1021.000; -825.000
441.336;  -53.975; -159.000;   -5.000
441.458;  -61.800; -549.000; -396.000
441.581;  -51.325; -628.000; -629.000
441.703;  -59.675; -152.000;   13.000
441.826; -114.625; -557.000; -400.000
441.948;  -51.575;   56.000;   51.000
442.071;   16.300;  555.000;  424.000
442.193; -115.375; -531.000; -485.000
442.316;   14.125;  152.000;   97.000
442.438;   37.675; -233.000;  -10.000
442.561;   73.525;  272.000;  262.000
442.683;  723.425; -809.000; -522.000
442.806; 1559.025;   -8.000;   74.000
442.928;  110.375; -859.000; -604.000
443.051;  -59.125; -577.000; -373.000
443.173;  -75.725; -341.000; -339.000
443.295;  -86.375; -263.000; -371.000
443.418;  -65.825; -321.000;  -29.000
443.540;    6.575; -106.000;   -4.000
443.662; -103.225; -563.000; -465.000
443.785;  -24.350;  335.000;  199.000
443.907;  -98.075; -362.000; -208.000
444.029; -141.800; -767.000; -494.000
444.152; -129.800; -644.000; -554.000
444.274;  -30.375;  -18.000;  -24.000
444.396; -108.725; -461.000; -221.000
444.518; -129.700; -691.000; -454.000
444.640; -107.225; -268.000; -111.000
444.763;  -30.850;  388.000;  249.000
444.885; -121.425; -432.000; -392.000
445.007;  -33.675;   35.000;   86.000
445.129; -109.300; -610.000; -515.000
445.251; -109.825; -372.000; -439.000
445.373; -132.375; -537.000; -386.000
445.495;    8.525;  242.000;  350.000
445.617;   58.375;  853.000;  753.000
445.739;  -54.725; -215.000;  -97.000
445.861;  -22.375; -245.000; -112.000
445.984;  -22.075; -267.000; -101.000
446.105;  280.475; -418.000; -251.000
446.227;  800.925; -176.000;  -19.000
446.349;   52.725; -358.000; -249.000
446.471;  -91.350; -615.000; -448.000
446.593;  -55.175; -316.000;   19.000
446.715;    7.500;  -67.000;   41.000
446.837;   77.225;  697.000;  832.000
446.959; -105.975; -457.000; -478.000
447.081; -132.100; -628.000; -518.000
447.203;   55.425;  862.000;  834.000
447.325;  -92.675; -270.000;   42.000
447.446;   -7.600;  286.000;  530.000
447.568; -151.600; -921.000; -803.000
447.690;  -79.975; -236.000; -245.000
447.812; -137.775; -798.000; -519.000
447.933;  -27.975;  155.000;  127.000
448.055;  -60.625; -306.000; -261.000
448.177;  168.750;   31.000;   79.000
448.299;  162.375; -935.000; -727.000
448.420;   46.675;  -25.000;  159.000
448.542;  -39.925;   -3.000;   33.000
448.664;  -19.775;  109.000;  322.000
448.785;  -35.825;  265.000;   83.000
448.907;  -81.525; -614.000; -353.000
449.028;  -21.775; -771.000; -471.000
449.150;   62.550;  492.000;  589.000
449.272; -164.375;-1044.000; -913.000
449.393;   19.250;  612.000;  694.000
449.515; -136.600; -634.000; -581.000
449.636;  -53.875; -264.000; -155.000
449.758;   94.425;  763.000;  622.000
449.879;  -83.375; -498.000; -396.000
450.001;  -70.475; -149.000;  -49.000
450.122;  -41.525;  -95.000;  162.000
450.244;  -11.650;   37.000;  364.000
450.365;  -86.925; -495.000; -301.000
450.486;  -44.650;   80.000;  268.000
450.608;    4.700;  393.000;  326.000
450.729;   58.525;  578.000;  645.000
450.850;  -16.250; -574.000; -466.000
450.972;  647.975; -552.000; -389.000
451.093; 4447.125;  190.000;  588.000
451.214; 2032.000; -516.000; -337.000
451.336;  374.375;  773.000;  579.000
451.457;   76.325;  264.000;  393.000
451.578;  -47.575; -118.000;  -74.000
451.699; -102.525; -546.000; -540.000
451.821;  -64.900; -284.000;  -50.000
451.942;  -22.425;  278.000;  285.000
452.063;   32.700;  228.000;  419.000
452.184;  487.075;  -54.000;  -49.000
452.305; 1035.975;  103.000;  170.000
452.427;  135.800; -549.000; -301.000
452.548;  -18.600;   23.000;   79.000
452.669;  -47.775; -257.000;  -89.000
452.790;  -49.675;    3.000;  -18.000
452.911;   -0.300;  195.000;  259.000
453.032;  -51.175; -289.000;  -60.000
453.153;  -32.950;  -29.000;   81.000
453.274;   65.275;  737.000;  868.000
453.395;  -46.175;  -51.000;  175.000
453.516;  131.225; 1317.000; 1388.000
453.637;  -45.250; -205.000; -150.000
453.758;  -62.025;   15.000;   69.000
453.879; -116.575; -462.000; -250.000
454.000;   72.175; 1086.000;  948.000
454.121; -113.625; -554.000; -326.000
454.242; -117.600; -599.000; -383.000
454.362;  -53.525;  -99.000;  114.000
454.483;  -49.050; -309.000; -229.000
454.604;   64.675;  512.000;  580.000
454.725; -122.000; -627.000; -555.000
454.846; -116.150; -474.000; -406.000
454.967;  -20.025;  230.000;  539.000
455.087;  -43.975;  179.000;  153.000
455.208;   21.800;  554.000;  856.000
455.329;  -51.925;  -22.000;   82.000
455.450;   28.700;  473.000;  633.000
455.570;  -77.725; -234.000; -211.000
455.691;  -42.175;  201.000;  407.000
455.812; -105.900; -270.000;  -92.000
455.932;  -62.350;  107.000;  -97.000
456.053;  -76.225;   36.000;   24.000
456.173; -114.250; -433.000; -355.000
456.294; -138.350; -476.000; -303.000
456.415;  -64.525;  -73.000;   70.000
456.535;  -38.675;  297.000;  273.000
456.656;  -48.450;  132.000;  240.000
456.776;  -69.275;    3.000;  298.000
456.897;    3.500;  308.000;  513.000
457.017;  -85.575; -153.000;   -3.000
457.138;  -99.700; -402.000; -249.000
457.258;  -17.800;  263.000;  224.000
457.379;  -14.800;  509.000;  521.000
457.499;  -30.075;  443.000;  432.000
457.620; -122.825; -407.000; -231.000
457.740;  -92.500; -132.000;  -11.000
457.860;  -60.525;   87.000;   44.000
457.981;  -37.325;  132.000;  124.000
458.101;  -71.600;  -89.000;   40.000
458.221;   -8.550;  336.000;  402.000
458.342;  -62.425;   -4.000;  -37.000
458.462;   11.025;  617.000;  352.000
458.582;  -40.800; -302.000; -294.000
458.703;    8.975;  303.000;  154.000
458.823;  -35.425;   22.000;  163.000
458.943;   18.325;  341.000;  467.000
459.063;  -16.375; 1124.000;  192.000
459.183;   -9.200;  328.000;  313.000
459.304;   17.275;  315.000;  517.000
459.424;  -58.925; -246.000;  -89.000
459.544;  297.400;  388.000;  764.000
459.664;  757.400;  499.000;  506.000
459.784;  303.150; 1004.000; 1175.000
459.904;   50.175;  867.000;  744.000
460.024;   65.900;  867.000;  684.000
460.144;   10.150;  449.000;  554.000
460.264;    1.100;  515.000;  327.000
460.385;  -88.025; -145.000; -119.000
460.505;   28.325;  905.000;  858.000
460.625;  -91.875;  -17.000;  -68.000
460.745;  -23.125;  396.000;  541.000
460.864;  -54.450;  153.000;  469.000
460.984;   -0.225;  499.000;  573.000
461.104;  143.400; 1656.000; 1775.000
461.224;   25.025;  657.000;  650.000
461.344;  -14.825;  431.000;  360.000
461.464;  -26.825;  258.000;  513.000
461.584;   -8.700;  283.000;  466.000
461.704;  -48.475;   58.000;  108.000
461.824;  -58.250;  238.000;  259.000
461.943;  -31.875;  191.000;  130.000
462.063;  -62.825;    2.000;  324.000
462.183;   13.725;  639.000;  717.000
462.303;  106.950; 1678.000; 1230.000
462.422;   30.550;  781.000;  840.000
462.542;  -44.350;  271.000;  391.000
462.662;   31.975;  353.000;  380.000
462.782;  228.575;  833.000;  572.000
462.901;  452.800;  545.000;  717.000
463.021;  287.250; 1702.000; 1638.000
463.141;  -13.250;  337.000;  770.000
463.260;  -39.500;  614.000;  474.000
463.380;   17.175;  902.000;  884.000
463.499;  -25.300;  342.000;  332.000
463.619;  -28.525;  581.000;  559.000
463.738;  114.750; 1644.000;  903.000
463.858;   22.100;  657.000;  811.000
463.978;  -29.525;  542.000;  396.000
464.097;   49.650;  921.000; 1114.000
464.217;  108.250; 1196.000; 1143.000
464.336;  109.825; 1068.000; 1130.000
464.455;  -29.200;  328.000;  659.000
464.575;   64.100;  597.000;  602.000
464.694;  173.475; 1204.000; 1179.000
464.814;  136.250; 1190.000; 1138.000
464.933;   69.950; 1095.000; 1027.000
465.052;   99.550; 1412.000; 1054.000
465.172;   91.500;  922.000;  799.000
465.291;  155.550; 1376.000; 1320.000
465.410;   16.100;  462.000;  735.000
465.530;   87.075; 1355.000; 1310.000
465.649;   63.800; 1209.000; 1273.000
465.768;  158.600; 1673.000; 1508.000
465.888;   43.625;  941.000; 1174.000
466.007;   81.050; 1335.000; 1440.000
466.126;  -11.375;  721.000;  641.000
466.245;   35.950; 1176.000; 1187.000
466.364;   24.100;  950.000; 1060.000
466.484;   42.325; 1024.000; 1213.000
466.603;   38.925; 1101.000; 1222.000
466.722;  123.775; 1490.000; 1769.000
466.841;   87.825; 1151.000; 1401.000
466.960;   50.975; 1069.000;  972.000
467.079;  132.125; 1971.000; 1786.000
467.198;   44.275; 1238.000; 1181.000
467.317;   82.425; 1768.000; 1162.000
467.436;   60.475; 1709.000; 1261.000
467.555;  118.625; 1796.000; 1746.000
467.674;   62.700; 1227.000; 1329.000
467.793;   54.225; 1376.000; 1374.000
467.912;   80.175; 1658.000; 1539.000
468.031;  144.875; 2038.000; 1930.000
468.150;  140.200; 1842.000; 1837.000
468.269;  191.525; 2313.000; 2090.000
468.388;  176.375; 2168.000; 2339.000
468.507;  264.825; 2884.000; 2903.000
468.626;  269.775; 2555.000; 2541.000
468.744;  140.300; 2018.000; 2174.000
468.863;  191.050; 2312.000; 2523.000
468.982;   97.775; 1503.000; 1555.000
469.101;  227.775; 2788.000; 2692.000
469.220;  151.100; 2333.000; 2176.000
469.338;  257.150; 2935.000; 3051.000
469.457;  205.575; 2719.000; 2545.000
469.576;  357.925; 3953.000; 3784.000
469.695;  234.725; 2877.000; 3066.000
469.813;  415.825; 4148.000; 4192.000
469.932;  424.575; 4255.000; 4485.000
470.051;  403.875; 4075.000; 4161.000
470.169;  815.175; 4470.000; 4338.000
470.288; 1394.800; 4700.000; 4809.000
470.406;  884.075; 5059.000; 5194.000
470.525;  622.175; 6101.000; 5787.000
470.644;  652.350; 6847.000; 6794.000
470.762;  826.100; 8397.000; 7873.000
470.881;  902.625; 8651.000; 8464.000
470.999; 1041.275; 9685.000; 9151.000
471.118; 1099.050;11174.000;10711.000

