
Integration time [ms]: 200.000
Averaging Nr. [scans]: 10
Smoothing Nr. [pixels]: 0
Data measured with spectrometer [name]: 2101012U2
Wave   ;Sample   ;Dark     ;Reference
[nm]   ;[counts] ;[counts] ;[counts] 

197.733;  110.600;  516.000;  404.000
197.879; -156.400; -610.000; -634.000
198.025; -131.500; -475.000; -420.000
198.171; -141.900; -602.000; -612.000
198.317;  -72.100; -401.000; -316.000
198.463; -110.500; -655.000; -404.000
198.609;   65.800;  181.000; -137.000
198.755; -148.400; -644.000; -410.000
198.901; -163.000; -505.000; -424.000
199.047; -119.500; -615.000; -488.000
199.193;  -86.000; -230.000; -468.000
199.339;  -82.500; -222.000; -369.000
199.485;  103.000;  330.000;  271.000
199.631;   79.400;  227.000;  310.000
199.777; -112.300; -466.000; -398.000
199.923; -126.200; -610.000; -424.000
200.069;  -15.300; -141.000;  -58.000
200.215;  136.100;  128.000;  453.000
200.361;   90.600;  243.000;  477.000
200.507; -155.900; -600.000; -373.000
200.653;  -46.000; -371.000; -194.000
200.798;  -54.700; -215.000; -125.000
200.944;    2.700; -146.000;  -41.000
201.090;   90.800;   61.000;  222.000
201.236;  -25.100; -116.000; -158.000
201.382;  305.300;  874.000;  903.000
201.528;   -7.500;  -58.000;  -48.000
201.674;  -84.800; -386.000; -293.000
201.819; -129.100; -540.000; -439.000
201.965; -184.300; -699.000; -447.000
202.111;  -70.100; -273.000; -226.000
202.257;  -99.300; -250.000; -238.000
202.402;   -3.200;   13.000;  -36.000
202.548;  -39.900; -169.000; -116.000
202.694;  187.300;  410.000; -183.000
202.840; -137.200; -603.000; -531.000
202.985; -155.800; -681.000; -639.000
203.131; -179.600; -832.000; -666.000
203.277;  -61.900; -199.000; -262.000
203.423; -128.200; -434.000; -520.000
203.568;  -64.400; -462.000; -237.000
203.714; -108.800; -535.000; -542.000
203.860; -185.700; -682.000; -641.000
204.005;   23.700;  112.000;  167.000
204.151;  132.000;  561.000;  556.000
204.296;  -88.600; -354.000; -221.000
204.442; -139.600; -600.000; -547.000
204.588; -160.000; -592.000; -579.000
204.733;   19.700;  178.000;  168.000
204.879; -276.300;-1018.000; -822.000
205.025;    4.400;  -99.000;  126.000
205.170;   35.800;  -17.000;   94.000
205.316;  151.700;  438.000;  661.000
205.461; -186.000; -698.000; -554.000
205.607;  159.900;  609.000;  665.000
205.752; -130.600; -626.000; -551.000
205.898; -125.600; -501.000; -391.000
206.043;  -95.400; -578.000; -506.000
206.189; -120.700; -243.000; -285.000
206.334;  164.700;  554.000;  606.000
206.480;  148.300;  409.000;  239.000
206.625; -160.800; -529.000; -552.000
206.771; -103.800; -451.000; -373.000
206.916;  -77.500; -210.000; -537.000
207.062; -176.700; -545.000; -591.000
207.207; -111.300; -546.000; -443.000
207.353;  114.200;  185.000;  460.000
207.498;   56.300;  196.000;   85.000
207.643; -102.100; -501.000; -370.000
207.789; -250.000;-1069.000; -910.000
207.934; -215.700; -665.000; -713.000
208.080;  -47.500; -154.000;   66.000
208.225;   -2.800;  -22.000;  -57.000
208.370; -164.900; -727.000; -619.000
208.516; -163.200; -741.000; -487.000
208.661;  -38.600; -127.000;  -69.000
208.806;   -4.500; -165.000; -171.000
208.952; -255.100;-1044.000; -731.000
209.097;  171.800;  378.000;  349.000
209.242; -115.500; -307.000; -382.000
209.387;  110.900;  392.000;  350.000
209.533;  -99.500; -321.000; -350.000
209.678;  154.300;  472.000;  543.000
209.823;  -81.100; -408.000; -310.000
209.969; -237.700; -860.000; -757.000
210.114; -224.200; -907.000; -719.000
210.259; -283.900; -939.000; -889.000
210.404;  -16.100; -171.000;  103.000
210.549;   30.100;  108.000;    3.000
210.695;  -24.000;   -3.000;  -95.000
210.840;   55.000;   94.000;   67.000
210.985; -102.200; -484.000; -303.000
211.130;   96.600;  268.000;  406.000
211.275;   40.400;  207.000;  199.000
211.420; -150.800; -300.000; -289.000
211.566; -141.800; -536.000; -489.000
211.711;   43.300;  218.000;  157.000
211.856; -102.800; -545.000; -519.000
212.001;   -2.400;  151.000;   44.000
212.146;   53.500;  153.000;   49.000
212.291;  -74.000; -210.000; -186.000
212.436;  -55.400; -280.000;   -6.000
212.581; -186.600; -685.000; -653.000
212.726; -129.900; -487.000; -538.000
212.871; -120.000; -552.000; -217.000
213.016; -296.600;-1172.000;-1029.000
213.161;  132.000;  406.000;  291.000
213.306; -117.900; -435.000; -577.000
213.451; -216.000; -778.000; -689.000
213.596;  -77.400; -455.000; -347.000
213.741; -119.700; -448.000; -538.000
213.886; -104.700; -498.000; -517.000
214.031;  -12.100; -294.000; -124.000
214.176;  -81.500; -408.000; -341.000
214.321;   -6.400; -296.000; -157.000
214.466;  -56.000; -163.000;  -43.000
214.611;    1.600;  -61.000;  -10.000
214.756; -250.800; -948.000; -858.000
214.901;  -63.300; -388.000; -226.000
215.046; -231.800; -797.000; -825.000
215.191;   38.400;  128.000;   35.000
215.336;  -21.400; -157.000;  -19.000
215.480; -179.600; -684.000; -505.000
215.625;    6.000; -175.000;  -19.000
215.770; -197.700; -757.000; -662.000
215.915;   -2.300;   -5.000;  -97.000
216.060;  -37.600; -113.000;  -21.000
216.205; -216.000; -731.000; -779.000
216.349; -148.300; -470.000; -533.000
216.494; -245.100; -939.000; -867.000
216.639; -231.600; -823.000; -888.000
216.784; -180.400; -577.000; -525.000
216.929;  126.200;  392.000;  281.000
217.073;    0.700; -244.000;  -31.000
217.218;   18.100;   78.000;  -47.000
217.363; -182.200; -656.000; -618.000
217.507; -168.500; -623.000; -588.000
217.652; -235.100; -845.000; -874.000
217.797; -183.500; -708.000; -659.000
217.942; -196.200; -856.000; -720.000
218.086;  192.700;  608.000;  539.000
218.231;    2.200; -174.000;  -26.000
218.376;  -90.800; -337.000; -229.000
218.520;   21.900;  -41.000;   96.000
218.665;  -75.400; -338.000; -204.000
218.810;  -74.800; -275.000; -233.000
218.954;   50.900;  201.000;   35.000
219.099; -218.700; -713.000; -963.000
219.243; -161.600; -589.000; -554.000
219.388;  -38.700; -264.000; -136.000
219.532;  -36.400; -116.000; -116.000
219.677; -139.500; -564.000; -521.000
219.822;   12.000;   33.000;   89.000
219.966;   22.900;   17.000;  -99.000
220.111;  -65.300; -328.000;  -40.000
220.255; -171.900; -797.000; -750.000
220.400;  -46.500; -180.000; -146.000
220.544; -133.000; -516.000; -450.000
220.689;  -98.600; -422.000; -451.000
220.833;  -32.800; -123.000;  -58.000
220.978; -113.500; -393.000; -563.000
221.122;  119.100;  319.000;  307.000
221.267; -256.400; -906.000; -837.000
221.411; -101.700; -478.000; -394.000
221.555;  -31.000; -104.000;  -23.000
221.700;  -66.400; -329.000; -222.000
221.844;   74.600;  255.000;  272.000
221.989;  -75.400; -328.000; -311.000
222.133; -111.200; -289.000; -307.000
222.277;   -1.900;    5.000;   78.000
222.422;   44.200;  227.000;  113.000
222.566;  -73.800; -381.000; -214.000
222.711; -107.500; -414.000; -479.000
222.855; -165.700; -643.000; -586.000
222.999; -179.500; -642.000; -717.000
223.144;  -65.700; -195.000; -194.000
223.288;  111.800;  423.000;  251.000
223.432;   67.700;  184.000;  230.000
223.576;   49.000;  152.000;  -21.000
223.721;   98.900;  364.000;  273.000
223.865; -111.700; -472.000; -475.000
224.009;  573.300; 1673.000; 1631.000
224.153; -164.100; -660.000; -671.000
224.298; -100.100; -531.000; -489.000
224.442;  -41.000;  -74.000;  -33.000
224.586;  -12.200; -169.000; -106.000
224.730; -207.700; -858.000; -670.000
224.875; -200.200; -739.000; -688.000
225.019;   20.500;  102.000;  188.000
225.163;  169.600;  208.000;  341.000
225.307;   41.200;   97.000;  -91.000
225.451;  119.500;  360.000;  481.000
225.595;   57.400;  264.000;  176.000
225.739;   -0.400; -170.000;  -94.000
225.884;   10.000;   86.000;    5.000
226.028; -211.300; -760.000; -626.000
226.172; -103.900; -260.000; -273.000
226.316; -245.000; -941.000; -902.000
226.460; -140.300; -645.000; -493.000
226.604; -118.400; -406.000; -400.000
226.748; -214.700; -836.000; -733.000
226.892;  -41.100; -227.000; -181.000
227.036;  -92.800; -537.000; -447.000
227.180;  -94.300; -551.000; -375.000
227.324; -136.000; -561.000; -580.000
227.468; -228.400; -819.000; -717.000
227.612;   20.500;  242.000;  -28.000
227.756; -192.900; -845.000; -698.000
227.900;  146.800;  342.000;  441.000
228.044;  -92.800; -509.000; -290.000
228.188;  128.100;  448.000;  568.000
228.332; -160.300; -546.000; -472.000
228.476;  -54.800; -223.000; -149.000
228.620;  -32.200; -210.000; -150.000
228.764;  116.000;  431.000;  349.000
228.908;  -31.200; -155.000;   30.000
229.052; -146.300; -615.000; -528.000
229.195;    3.100; -172.000;   13.000
229.339;  -37.900; -235.000; -305.000
229.483;  -49.600;    5.000; -162.000
229.627;    5.400; -156.000;  139.000
229.771;  -79.100; -218.000; -294.000
229.915;    9.100;  230.000;   79.000
230.059; -173.200; -648.000; -663.000
230.202;  -86.000; -370.000; -317.000
230.346;  -29.800; -107.000;  107.000
230.490; -139.900; -489.000; -521.000
230.634; -224.600; -736.000; -553.000
230.777;  159.000;  478.000;  509.000
230.921;  -86.500; -450.000; -359.000
231.065;  -66.800; -246.000; -286.000
231.209;   89.300;  261.000;  265.000
231.352;   41.400;   54.000;   40.000
231.496;   66.700;  568.000;  188.000
231.640; -171.400; -693.000; -621.000
231.783;  135.700;  546.000;  525.000
231.927; -100.900; -294.000; -365.000
232.071; -241.400; -962.000; -736.000
232.214; -229.700; -980.000; -764.000
232.358; -176.300; -683.000; -599.000
232.502;   34.100;  -19.000;    7.000
232.645; -283.900;-1090.000; -927.000
232.789;  -29.300; -257.000; -218.000
232.933;  -71.400; -407.000; -224.000
233.076; -256.700;-1038.000; -897.000
233.220; -188.400; -752.000; -777.000
233.363; -139.900; -669.000; -477.000
233.507;  142.500;  371.000;  129.000
233.650; -236.100; -764.000; -834.000
233.794;  119.200;  438.000;  461.000
233.938; -114.200; -530.000; -362.000
234.081;   23.800;  -93.000;   31.000
234.225; -123.800; -631.000; -539.000
234.368; -222.300; -773.000; -723.000
234.512; -102.900; -385.000; -299.000
234.655; -153.100; -582.000; -555.000
234.798; -133.100; -493.000; -466.000
234.942; -267.100; -884.000;-1002.000
235.085; -174.000; -651.000; -443.000
235.229; -127.800; -405.000; -410.000
235.372; -112.000; -247.000; -191.000
235.516;  -90.200; -397.000; -321.000
235.659;   43.700;   92.000;  121.000
235.802;   20.200;  -38.000;  -22.000
235.946;   56.200;  335.000;  215.000
236.089;   63.300;  126.000;  250.000
236.233;  124.600;  275.000;  298.000
236.376;  -89.100; -235.000; -378.000
236.519; -111.700; -297.000; -319.000
236.663;   -5.200; -215.000; -117.000
236.806; -279.300;-1029.000; -999.000
236.949;  121.500;  543.000;  431.000
237.092;  137.500;  412.000;  391.000
237.236; -183.900; -589.000; -502.000
237.379;  135.600;  352.000;  428.000
237.522; -237.900; -879.000; -768.000
237.666;  -26.500; -271.000;   18.000
237.809; -226.100; -851.000; -823.000
237.952;   90.600;  469.000;  271.000
238.095; -130.000; -447.000; -442.000
238.238;  206.700;  688.000;  700.000
238.382;   12.300;  166.000;  103.000
238.525; -149.300; -598.000; -511.000
238.668; -286.800;-1060.000; -985.000
238.811; -166.300; -638.000; -643.000
238.954; -100.000; -483.000; -334.000
239.097;  210.000;  617.000;  664.000
239.241;   46.000;  394.000;  326.000
239.384;  -65.400; -254.000; -214.000
239.527; -116.700; -424.000; -224.000
239.670; -319.600; -994.000;-1091.000
239.813; -248.200; -696.000; -658.000
239.956;  160.400;  579.000;  473.000
240.099; -210.400; -778.000; -725.000
240.242;  108.700;  428.000;  432.000
240.385;  134.000;  466.000;  450.000
240.528; -128.900; -706.000; -473.000
240.671;   20.400;  189.000;  134.000
240.814;  -84.200; -441.000; -158.000
240.957; -159.900; -767.000; -578.000
241.100; -195.500; -779.000; -755.000
241.243; -276.500;-1234.000; -893.000
241.386; -123.800; -508.000; -379.000
241.529; -198.900; -735.000; -547.000
241.672; -159.900; -566.000; -495.000
241.815; -207.700; -832.000; -808.000
241.958;  -40.400; -125.000; -182.000
242.101; -133.700; -545.000; -390.000
242.244;  -65.800; -270.000; -325.000
242.387;  -66.900; -304.000; -246.000
242.530;  154.400;  470.000;  134.000
242.673;  -72.900; -381.000; -309.000
242.815; -241.400; -925.000; -899.000
242.958; -105.600; -482.000; -381.000
243.101;   25.100;  132.000;  187.000
243.244; -128.400; -564.000; -521.000
243.387;  -84.300; -313.000; -316.000
243.530; -181.600; -657.000; -674.000
243.672;   15.500;   43.000;  -92.000
243.815; -101.700; -355.000; -283.000
243.958;    6.400;   98.000;  -26.000
244.101;    4.200;   59.000;  -16.000
244.243;    5.700;  -47.000;  101.000
244.386; -221.700; -761.000; -630.000
244.529;  -44.500; -132.000; -139.000
244.672; -289.600;-1154.000; -951.000
244.814; -252.000; -621.000; -794.000
244.957; -118.300; -380.000; -304.000
245.100; -168.500; -489.000; -489.000
245.242;  -90.200; -387.000; -374.000
245.385;    2.900;  -59.000;  -39.000
245.528; -218.100; -871.000; -705.000
245.670;  208.500;  612.000;  634.000
245.813; -167.900; -599.000; -547.000
245.956;  -68.500; -324.000; -275.000
246.098; -125.400; -508.000; -650.000
246.241;   21.200;  194.000;   48.000
246.383;    6.400; -119.000;  -73.000
246.526; -155.300; -454.000; -525.000
246.669; -224.700; -889.000; -780.000
246.811;   31.900;  172.000;   -1.000
246.954; -140.800; -512.000; -426.000
247.096;  -34.200;  -84.000;   -6.000
247.239; -121.500; -482.000; -445.000
247.381; -185.000; -647.000; -488.000
247.524;  197.900;  645.000;  679.000
247.666;  -33.100;   58.000;   11.000
247.809; -225.700; -887.000; -691.000
247.951;  -51.900;  -75.000;  138.000
248.094;   50.800;  432.000;  308.000
248.236; -323.300;-1262.000;-1238.000
248.378;  -65.600; -356.000;  -81.000
248.521; -119.600; -334.000; -337.000
248.663;  -59.200; -236.000; -267.000
248.806;  -74.100; -300.000; -266.000
248.948; -200.600; -886.000; -763.000
249.090; -129.600; -428.000; -398.000
249.233; -114.300; -344.000; -381.000
249.375; -115.500; -474.000; -451.000
249.518;   -4.500;  -83.000; -133.000
249.660;    0.700; -103.000;    3.000
249.802; -351.100;-1303.000;-1189.000
249.945; -141.700; -612.000; -540.000
250.087; -206.700; -834.000; -768.000
250.229;  -99.900; -362.000; -480.000
250.371; -125.800; -494.000; -439.000
250.514; -124.600; -310.000; -244.000
250.656;   11.700;   69.000;  102.000
250.798; -279.000; -849.000; -800.000
250.940; -124.100; -322.000; -322.000
251.083;  -60.600; -335.000; -111.000
251.225;  139.900;  338.000;  310.000
251.367;  -93.200; -274.000; -373.000
251.509;  -25.500; -265.000; -210.000
251.651; -231.800; -731.000; -671.000
251.794;  147.300;  538.000;  632.000
251.936; -224.900; -821.000; -747.000
252.078; -150.200; -540.000; -461.000
252.220; -174.200; -645.000; -477.000
252.362;  101.400;  344.000;  462.000
252.504; -158.700; -677.000; -584.000
252.646; -223.900; -875.000; -722.000
252.788;  -19.000;   14.000; -128.000
252.931;  -77.800; -257.000; -253.000
253.073;  -87.800; -376.000; -317.000
253.215;   20.600;  141.000;  122.000
253.357;  -40.400;   82.000; -153.000
253.499;  -57.300; -374.000; -234.000
253.641; -185.100; -749.000; -594.000
253.783; -169.000; -609.000; -527.000
253.925; -214.800; -586.000; -591.000
254.067; -211.100; -744.000; -667.000
254.209;  -69.300; -391.000; -259.000
254.351; -294.500; -865.000; -883.000
254.493; -136.700; -441.000; -417.000
254.635; -232.900; -936.000; -818.000
254.777; -207.700; -752.000; -687.000
254.918; -137.100; -512.000; -430.000
255.060; -148.200; -551.000; -395.000
255.202;  -95.400; -473.000; -261.000
255.344; -173.100; -658.000; -455.000
255.486; -148.700; -471.000; -406.000
255.628; -210.900; -780.000; -781.000
255.770; -176.900; -676.000; -536.000
255.912; -130.200; -559.000; -468.000
256.053; -184.100; -730.000; -508.000
256.195;  340.700; 1008.000;  903.000
256.337; -201.400; -861.000; -595.000
256.479;  126.000;  532.000;  416.000
256.621;  -84.900; -394.000; -212.000
256.762; -179.500; -789.000; -742.000
256.904;  158.800;  485.000;  487.000
257.046;  -84.900; -381.000; -271.000
257.188;  -67.400; -351.000; -264.000
257.329; -153.100; -525.000; -464.000
257.471; -246.300; -939.000; -807.000
257.613; -114.600; -584.000; -498.000
257.755; -307.000;-1073.000; -982.000
257.896;   83.400;  286.000;  392.000
258.038; -105.800; -403.000; -352.000
258.180;  -83.100; -354.000; -279.000
258.321; -158.700; -581.000; -457.000
258.463;   -4.000;  -71.000;  133.000
258.605; -178.500; -562.000; -570.000
258.746; -209.100; -886.000; -772.000
258.888; -324.000;-1026.000;-1020.000
259.029;   65.300;  121.000;   -8.000
259.171; -173.400; -614.000; -550.000
259.313;   11.400;  -49.000;  -47.000
259.454; -162.000; -536.000; -414.000
259.596; -120.900; -483.000; -390.000
259.737; -124.200; -590.000; -474.000
259.879;  101.700;  217.000;  311.000
260.020;  192.000;  901.000;  636.000
260.162;  -67.800; -146.000; -253.000
260.303; -208.700; -768.000; -687.000
260.445; -183.900; -609.000; -613.000
260.586;   71.400;  392.000;  157.000
260.728;  -65.200; -360.000; -248.000
260.869; -135.900; -350.000; -343.000
261.011;  179.300;  706.000;  537.000
261.152;  -97.200; -479.000; -319.000
261.293; -179.300; -576.000; -595.000
261.435;  -43.300; -219.000; -184.000
261.576; -141.200; -455.000; -325.000
261.718;  127.800;  420.000;  470.000
261.859; -269.600; -940.000; -949.000
262.000; -226.600; -951.000;-1016.000
262.142;  -21.000;  -52.000;  -60.000
262.283; -243.100; -808.000; -691.000
262.424; -204.000; -666.000; -625.000
262.566; -297.100;-1161.000; -983.000
262.707; -228.900; -840.000; -830.000
262.848; -241.200; -769.000; -726.000
262.990; -125.100; -362.000; -345.000
263.131;  216.900;  650.000;  681.000
263.272;  -11.400;  -61.000;  -41.000
263.413; -172.800; -589.000; -561.000
263.555; -148.500; -669.000; -143.000
263.696; -185.000; -550.000; -641.000
263.837; -138.900; -449.000; -551.000
263.978;   27.600;   -5.000;  -77.000
264.119;  -90.300; -283.000; -264.000
264.261; -214.800; -847.000; -630.000
264.402;    8.200;   33.000;   40.000
264.543; -145.400; -509.000; -524.000
264.684;  -23.200;   61.000;  -50.000
264.825; -137.700; -816.000; -538.000
264.966;   26.100;  -84.000;  -67.000
265.107; -217.800; -646.000; -670.000
265.248; -248.000; -825.000; -812.000
265.390;   13.100;  152.000;   -9.000
265.531;  -52.000; -238.000; -107.000
265.672; -136.900; -557.000; -630.000
265.813;  112.600;  563.000;  439.000
265.954; -286.000; -959.000; -940.000
266.095;  -32.800; -372.000; -322.000
266.236; -201.600; -686.000; -548.000
266.377;  -99.800; -243.000; -297.000
266.518; -130.700; -619.000; -547.000
266.659;   63.200;  170.000;  268.000
266.800;   13.800;   83.000;   85.000
266.941; -167.900; -487.000; -478.000
267.082;   44.300;  354.000;   99.000
267.223; -108.100; -344.000; -273.000
267.364; -224.700; -892.000; -686.000
267.504;  -15.400;    3.000;  135.000
267.645;   37.900;  160.000;   67.000
267.786;  -57.600; -147.000;  -86.000
267.927; -130.900; -473.000; -379.000
268.068;   -9.100; -186.000;  -61.000
268.209;  -97.600; -175.000; -413.000
268.350; -124.900; -388.000; -532.000
268.490; -166.200; -648.000; -521.000
268.631;   48.000;  127.000;  225.000
268.772; -224.900; -874.000; -647.000
268.913; -108.300; -328.000; -476.000
269.054;   -8.800; -117.000;   12.000
269.194;  -70.700; -418.000; -402.000
269.335; -281.000;-1137.000;-1074.000
269.476;  -33.200;   33.000;  -35.000
269.617;  -87.900; -347.000; -392.000
269.757; -204.800; -713.000; -646.000
269.898; -208.400; -856.000; -613.000
270.039; -146.600; -415.000; -405.000
270.180; -270.900; -952.000; -816.000
270.320;  -73.700; -190.000; -250.000
270.461;  -85.200; -277.000; -249.000
270.602;  -26.300; -186.000; -156.000
270.742; -252.000; -868.000; -943.000
270.883; -152.100; -442.000; -390.000
271.023; -101.900; -358.000; -357.000
271.164; -160.400; -607.000; -528.000
271.305; -214.600; -666.000; -654.000
271.445; -201.200; -722.000; -683.000
271.586; -132.700; -462.000; -283.000
271.726;  -94.600; -397.000; -322.000
271.867; -192.200; -594.000; -534.000
272.008;  -76.100; -473.000; -285.000
272.148;  134.600;  462.000;  468.000
272.289;  -74.000; -113.000; -181.000
272.429;  -14.700;   19.000;  185.000
272.570; -223.000; -633.000; -737.000
272.710; -193.800; -825.000; -775.000
272.851;  -52.200;  113.000; -130.000
272.991; -309.000;-1173.000;-1077.000
273.131; -148.500; -419.000; -459.000
273.272; -208.500; -683.000; -723.000
273.412;  -25.900; -143.000;  -31.000
273.553; -140.800; -488.000; -507.000
273.693;  259.400;  913.000;  858.000
273.834; -239.300; -894.000; -692.000
273.974; -174.500; -664.000; -615.000
274.114; -179.800; -772.000; -560.000
274.255;   64.400;  414.000;  373.000
274.395;  -77.300; -180.000; -125.000
274.535;   53.300;  199.000;  350.000
274.676;   54.700;  225.000;   94.000
274.816;   23.400;  110.000;   34.000
274.956; -197.400; -624.000; -690.000
275.097; -293.400;-1014.000; -922.000
275.237; -260.600; -913.000; -803.000
275.377; -200.800; -778.000; -689.000
275.517; -306.000; -878.000; -937.000
275.658; -172.400; -590.000; -555.000
275.798; -181.800; -606.000; -413.000
275.938;   48.100;  215.000;  323.000
276.078; -133.400; -626.000; -395.000
276.218;   -0.100;   99.000;  104.000
276.359; -274.900;-1026.000;-1024.000
276.499; -173.900; -605.000; -446.000
276.639;  -40.300; -305.000; -151.000
276.779; -141.500; -475.000; -357.000
276.919; -237.200; -783.000; -624.000
277.059;  -49.700; -261.000; -212.000
277.199; -102.800; -357.000; -259.000
277.340;   64.500;  287.000;  175.000
277.480; -204.600; -840.000; -693.000
277.620;   46.700;  192.000;   16.000
277.760; -417.500;-1533.000;-1294.000
277.900;   -4.100;  113.000;   33.000
278.040;    8.300;  137.000;  159.000
278.180;   28.100;  270.000;  170.000
278.320;   17.000;   21.000;   56.000
278.460; -151.600; -443.000; -469.000
278.600; -169.600; -708.000; -598.000
278.740;  110.400;  448.000;  224.000
278.880; -248.000; -768.000; -791.000
279.020;    8.700; -194.000; -144.000
279.160; -178.800; -672.000; -595.000
279.300; -271.700; -926.000; -873.000
279.440; -207.200; -709.000; -622.000
279.579; -290.700;-1014.000; -929.000
279.719; -119.800; -410.000; -394.000
279.859;   41.000;   -4.000;   41.000
279.999;  -49.100; -208.000;  101.000
280.139; -124.800; -435.000; -387.000
280.279; -196.300; -708.000; -745.000
280.419;  -21.900; -229.000; -147.000
280.559;  -36.500; -259.000; -180.000
280.698; -193.100; -790.000; -639.000
280.838; -230.600; -778.000; -800.000
280.978; -220.700; -846.000; -790.000
281.118; -243.000; -811.000; -704.000
281.257;   28.400;   24.000;    6.000
281.397; -316.300;-1094.000; -960.000
281.537; -225.500; -599.000; -712.000
281.677;  -33.500; -150.000; -101.000
281.816; -201.800; -700.000; -630.000
281.956;  -61.200; -193.000; -257.000
282.096; -132.900; -539.000; -396.000
282.235; -213.800; -672.000; -638.000
282.375;  -48.300; -243.000;  -98.000
282.515; -217.900; -715.000; -707.000
282.654;    8.500;   29.000;  106.000
282.794;   73.300;  388.000;  244.000
282.934; -115.000; -530.000; -491.000
283.073; -282.200;-1030.000; -857.000
283.213; -156.800; -460.000; -467.000
283.353; -107.700; -408.000; -349.000
283.492;  -86.800; -264.000; -296.000
283.632;  -81.100; -254.000; -168.000
283.771; -230.800; -859.000; -730.000
283.911; -105.900; -369.000; -260.000
284.050; -254.400; -794.000; -748.000
284.190; -322.900;-1229.000;-1096.000
284.329; -271.600;-1055.000; -964.000
284.469; -184.200; -516.000; -591.000
284.608; -159.900; -559.000; -598.000
284.748; -150.300; -614.000; -570.000
284.887;  -16.700;  -87.000;  -20.000
285.027; -247.500; -844.000; -892.000
285.166;  -89.200; -192.000; -249.000
285.306;  -28.800; -116.000;  -33.000
285.445;  -78.300; -229.000; -343.000
285.584; -190.000; -630.000; -494.000
285.724;  -90.500; -282.000; -322.000
285.863; -231.200; -857.000; -507.000
286.002; -104.100; -366.000; -276.000
286.142; -207.700; -715.000; -622.000
286.281; -140.300; -525.000; -493.000
286.420; -156.500; -554.000; -417.000
286.560;  211.600;  653.000;  623.000
286.699; -284.900; -958.000; -912.000
286.838; -197.500; -590.000; -591.000
286.978; -193.700; -533.000; -537.000
287.117; -299.700;-1085.000; -950.000
287.256;  -56.700; -228.000; -211.000
287.395; -105.300; -197.000; -378.000
287.535;  -75.600; -370.000; -298.000
287.674; -182.400; -509.000; -484.000
287.813;  127.700;  661.000;  533.000
287.952; -301.100;-1010.000; -871.000
288.091; -306.400;-1049.000; -915.000
288.231;   12.300;   13.000;   15.000
288.370; -373.900;-1217.000;-1200.000
288.509; -204.400; -728.000; -645.000
288.648; -171.200; -770.000; -548.000
288.787;  -62.100; -243.000;  -87.000
288.926; -122.900; -454.000; -475.000
289.065;  205.900;  859.000;  672.000
289.204; -104.800; -377.000; -217.000
289.344; -203.700; -791.000; -690.000
289.483;   42.600;  416.000;  304.000
289.622;  -72.300; -291.000; -149.000
289.761;  -17.600; -309.000; -166.000
289.900; -220.800; -785.000; -626.000
290.039;  -34.900;  -12.000;  -95.000
290.178;  -83.800; -274.000; -180.000
290.317; -165.400; -618.000; -479.000
290.456; -130.400; -463.000; -451.000
290.595; -300.900; -961.000; -833.000
290.734; -326.300; -904.000; -891.000
290.873; -102.800; -456.000; -420.000
291.011; -264.300; -833.000; -843.000
291.150; -215.400; -770.000; -682.000
291.289;  -56.200; -343.000; -110.000
291.428; -206.600; -599.000; -480.000
291.567; -105.000; -370.000; -442.000
291.706;    4.300;  109.000;  154.000
291.845; -203.000; -597.000; -505.000
291.984; -356.100;-1234.000;-1061.000
292.122;  184.700;  602.000;  582.000
292.261;  101.300;  620.000;  463.000
292.400;  -20.200; -144.000;  211.000
292.539; -254.900; -959.000; -813.000
292.678;  -69.700; -325.000; -300.000
292.816; -329.700;-1136.000; -965.000
292.955; -224.800; -844.000; -684.000
293.094;  -25.200; -173.000; -337.000
293.233; -122.000; -556.000; -400.000
293.371;  -25.600; -225.000;  -84.000
293.510; -236.900; -866.000; -780.000
293.649; -293.900; -959.000; -924.000
293.787; -320.700;-1083.000;-1012.000
293.926;  -61.600; -113.000;  -32.000
294.065; -115.000; -379.000; -290.000
294.203;   86.300;  298.000;  406.000
294.342;   11.800;   74.000;  156.000
294.481;11852.500;51180.000; -836.000
294.619;  -79.800; -425.000; -582.000
294.758; -328.100;-1230.000;-1137.000
294.896;  -15.400; -125.000;    5.000
295.035; -308.300;-1040.000;-1006.000
295.174; -296.400;-1082.000; -954.000
295.312;  -90.500; -323.000; -203.000
295.451;  -99.900; -307.000; -428.000
295.589; -142.800; -389.000; -518.000
295.728;   -4.600; -292.000; -165.000
295.866;  -44.100;  -36.000;  -51.000
296.005; -179.300; -584.000; -341.000
296.143; -190.700; -558.000; -596.000
296.282; -278.100; -957.000; -881.000
296.420; -171.800; -657.000; -557.000
296.559; -235.900; -892.000; -633.000
296.697; -210.900; -847.000; -665.000
296.835; -329.100;-1141.000;-1002.000
296.974;   43.700;  -23.000;   39.000
297.112; -143.700; -443.000; -504.000
297.251; -223.600; -815.000; -755.000
297.389; -158.000; -576.000; -438.000
297.527;  -60.700; -145.000;  -83.000
297.666; -155.500; -486.000; -438.000
297.804; -114.900; -404.000; -264.000
297.942;  -68.700; -136.000; -161.000
298.081;  -47.300; -183.000;   63.000
298.219;  -27.300;  -17.000;  -19.000
298.357;  -79.900; -144.000;  -71.000
298.495; -242.800; -810.000; -812.000
298.634;   40.000;  245.000;  219.000
298.772;  -60.900; -220.000; -338.000
298.910;  -99.000; -309.000; -182.000
299.048;  -38.100; -130.000; -153.000
299.187;  -70.300; -350.000; -250.000
299.325;  -34.800;   52.000;  122.000
299.463; -116.100; -389.000; -299.000
299.601;  -82.000; -327.000; -271.000
299.739; -280.800; -908.000; -883.000
299.877; -231.100; -791.000; -703.000
300.016; -305.200;-1095.000; -935.000
300.154;  -45.600;  -19.000; -161.000
300.292; -132.100; -428.000; -348.000
300.430; -100.300; -408.000; -291.000
300.568; -294.400; -940.000; -874.000
300.706; -146.300; -366.000; -469.000
300.844; -296.100;-1108.000; -979.000
300.982;  121.000;  246.000;  282.000
301.120; -274.400; -965.000; -866.000
301.258; -219.000; -812.000; -705.000
301.396;   57.200;  104.000;  -41.000
301.534;  -58.500; -218.000; -293.000
301.672; -161.500; -664.000; -521.000
301.810; -179.400; -613.000; -545.000
301.948;   23.400;   53.000;  149.000
302.086;  -71.900; -250.000;  -32.000
302.224; -183.200; -610.000; -585.000
302.362; -200.400; -558.000; -622.000
302.500; -260.200; -923.000; -893.000
302.638;   15.500;  128.000;  245.000
302.776;  -66.200; -352.000; -408.000
302.913;   76.200;  447.000;  236.000
303.051;  -38.600;  -86.000;  -23.000
303.189;   38.800;   90.000;  118.000
303.327;  -97.200; -341.000; -256.000
303.465; -211.100; -832.000; -588.000
303.603; -192.200; -805.000; -604.000
303.740;   82.400;  417.000;  241.000
303.878; -231.000; -800.000; -759.000
304.016; -227.600; -915.000; -790.000
304.154; -301.500;-1123.000;-1152.000
304.291; -157.300; -505.000; -554.000
304.429;   26.000;  102.000;   74.000
304.567; -312.700; -908.000; -893.000
304.705; -129.100; -408.000; -515.000
304.842; -197.200; -616.000; -540.000
304.980;   34.700;  215.000;   35.000
305.118;  -88.600; -367.000; -365.000
305.255; -303.800; -945.000; -927.000
305.393;   79.800;  178.000;  239.000
305.531; -314.900;-1173.000; -956.000
305.668; -190.900; -663.000; -582.000
305.806; -124.800; -358.000; -439.000
305.943; -172.800; -629.000; -637.000
306.081; -117.100; -378.000; -267.000
306.219; -220.600; -863.000; -748.000
306.356;   40.200;  158.000;   27.000
306.494;  187.500;  981.000;  761.000
306.631;   -6.200;  -11.000;  -55.000
306.769; -145.400; -613.000; -485.000
306.906; -117.300; -284.000; -258.000
307.044; -152.400; -473.000; -488.000
307.181; -148.100; -410.000; -332.000
307.319;   46.100;  112.000;   87.000
307.456; -336.400;-1191.000;-1153.000
307.594; -305.400; -980.000; -727.000
307.731;  -54.600; -371.000; -164.000
307.868;  -28.400;  -15.000;   20.000
308.006; -287.000; -961.000; -847.000
308.143; -181.500; -618.000; -330.000
308.281;  -46.400;  -37.000; -254.000
308.418; -192.900; -748.000; -640.000
308.555; -134.500; -400.000; -250.000
308.693; -178.900; -577.000; -573.000
308.830; -225.400; -712.000; -657.000
308.967;  -45.300; -215.000;  -95.000
309.105; -110.400; -507.000; -396.000
309.242; -129.200; -468.000; -367.000
309.379; -220.600; -577.000; -655.000
309.517; -288.000; -936.000; -948.000
309.654; -234.400; -910.000; -734.000
309.791; -193.600; -662.000; -580.000
309.928; -278.200; -977.000; -914.000
310.065;  207.400;  819.000;  697.000
310.203; -253.100; -825.000; -850.000
310.340; -141.600; -465.000; -321.000
310.477; -189.600; -412.000; -516.000
310.614; -143.300; -383.000; -473.000
310.751; -139.300; -427.000; -518.000
310.889;  -66.600;    1.000;   11.000
311.026; -314.200;-1161.000; -939.000
311.163; -126.300; -386.000; -380.000
311.300; -203.600; -512.000; -479.000
311.437; -193.100; -658.000; -619.000
311.574; -311.800;-1226.000; -985.000
311.711; -156.700; -595.000; -433.000
311.848;  -93.300; -380.000; -388.000
311.985;  -14.800;  270.000;   93.000
312.122; -278.100; -932.000; -762.000
312.259; -309.800; -941.000; -994.000
312.396; -148.100; -508.000; -551.000
312.533; -201.000; -812.000; -790.000
312.670; -318.800;-1070.000; -898.000
312.807; -108.000; -352.000; -367.000
312.944; -176.600; -513.000; -611.000
313.081; -116.200; -150.000; -415.000
313.218; -289.300;-1111.000; -867.000
313.355; -159.400; -531.000; -449.000
313.492; -135.000; -455.000; -292.000
313.629;  210.400;  815.000;  735.000
313.766; -359.300;-1176.000;-1008.000
313.902;  -32.200; -186.000;   21.000
314.039;  -91.700; -372.000; -289.000
314.176;   50.800;  286.000;  192.000
314.313; -171.400; -569.000; -473.000
314.450; -229.100; -788.000; -684.000
314.587; -126.900; -468.000; -480.000
314.723;  -21.100;  -78.000;  130.000
314.860;   39.200;  318.000;  332.000
314.997;   23.000;  223.000;  142.000
315.134; -164.600; -385.000; -368.000
315.270; -163.100; -480.000; -496.000
315.407; -347.100;-1094.000; -967.000
315.544; -196.300; -657.000; -538.000
315.681; -195.800; -681.000; -565.000
315.817;  -60.300; -133.000; -176.000
315.954; -149.000; -613.000; -392.000
316.091; -315.400;-1045.000;-1023.000
316.227;  -34.100;  -71.000; -179.000
316.364;  -39.400;   23.000;    6.000
316.500;  -96.400; -113.000; -300.000
316.637; -109.500; -181.000; -302.000
316.774; -178.700; -625.000; -358.000
316.910; -221.600; -598.000; -629.000
317.047; -175.500; -487.000; -351.000
317.183; -167.900; -435.000; -566.000
317.320; -135.600; -367.000; -321.000
317.456; -261.200; -733.000; -805.000
317.593; -202.300; -598.000; -641.000
317.729;    1.500;  168.000;  -67.000
317.866; -422.300;-1434.000;-1285.000
318.002; -198.700; -708.000; -948.000
318.139; -268.700; -883.000; -867.000
318.275; -256.900;-1003.000; -738.000
318.412; -119.100; -517.000; -336.000
318.548; -197.900; -751.000; -720.000
318.685; -297.300; -985.000; -888.000
318.821; -232.800; -762.000; -735.000
318.957;  -57.900;   34.000;  -23.000
319.094;   86.400;  297.000;  154.000
319.230; -239.400; -756.000; -742.000
319.367; -159.200; -471.000; -520.000
319.503; -138.200; -538.000; -436.000
319.639; -245.800; -877.000; -793.000
319.775; -216.900; -750.000; -685.000
319.912; -158.800; -424.000; -519.000
320.048; -333.600;-1184.000;-1184.000
320.184;   -6.600;   59.000;   70.000
320.321;  -93.000; -497.000; -467.000
320.457;   82.900;  475.000;  662.000
320.593; -121.600; -375.000; -382.000
320.729; -242.500; -732.000; -734.000
320.866; -184.100; -577.000; -635.000
321.002; -237.600; -759.000; -809.000
321.138;  -90.600; -135.000; -211.000
321.274;  -26.400; -148.000; -115.000
321.410; -149.400; -585.000; -353.000
321.546; -312.200;-1011.000; -911.000
321.683;   71.400;  400.000;  185.000
321.819;  -24.500;  -48.000; -117.000
321.955; -237.000; -743.000; -722.000
322.091; -178.500; -585.000; -540.000
322.227;  -78.800; -382.000; -202.000
322.363; -133.300; -320.000; -215.000
322.499;  -91.400; -343.000; -331.000
322.635;  146.600;  636.000;  443.000
322.771;  -52.700; -139.000;   12.000
322.907;   47.400;  129.000;  327.000
323.043;  -55.800; -115.000; -206.000
323.179; -133.500; -394.000; -363.000
323.315; -123.800; -401.000; -371.000
323.451;  -74.300; -328.000; -236.000
323.587;  -47.000;  -60.000;  -77.000
323.723; -205.300; -682.000; -601.000
323.859;  -54.000; -258.000;  -76.000
323.995; -132.600; -467.000; -409.000
324.131; -273.300; -967.000; -892.000
324.267;  -89.500; -254.000; -276.000
324.402; -278.400; -960.000; -983.000
324.538;  -87.800; -279.000; -104.000
324.674;   31.600;  164.000;   77.000
324.810;   18.500;  226.000;  308.000
324.946;  -97.400; -810.000; -658.000
325.082; -172.300; -568.000; -475.000
325.217;  -19.300;  -62.000;   16.000
325.353; -225.300; -764.000; -659.000
325.489; -153.900; -540.000; -506.000
325.625; -164.600; -579.000; -525.000
325.760;   80.800;  517.000;  376.000
325.896; -181.400; -515.000; -702.000
326.032;  -84.800; -403.000; -352.000
326.168; -126.600; -462.000; -369.000
326.303; -113.600; -352.000; -461.000
326.439;  -58.500; -336.000; -276.000
326.575;  -41.700; -190.000;  -29.000
326.710;  -48.100; -156.000;  -30.000
326.846;  -22.900;  146.000;  103.000
326.982; -192.800; -530.000; -548.000
327.117; -157.200; -481.000; -442.000
327.253; -214.100; -745.000; -742.000
327.388; -320.400;-1137.000;-1153.000
327.524; -249.900; -811.000; -578.000
327.659;  -50.700;  -58.000;  -22.000
327.795;  -41.500;   69.000;   45.000
327.931; -179.800; -723.000; -499.000
328.066; -112.900; -417.000; -276.000
328.202;  -35.000;   12.000; -129.000
328.337;  202.500;  957.000;  713.000
328.473;  -43.800;  -12.000;  -74.000
328.608;  -58.900; -256.000; -267.000
328.743; -267.500; -799.000; -664.000
328.879;   46.700;  214.000;  114.000
329.014; -113.800; -102.000; -122.000
329.150; -196.600; -358.000; -483.000
329.285; -187.400; -465.000; -466.000
329.421; -108.500; -548.000; -246.000
329.556;  -33.900;  -36.000;   85.000
329.691; -194.900; -633.000; -615.000
329.827; -163.600; -626.000; -480.000
329.962; -102.100;  131.000; -301.000
330.097; -204.500; -673.000; -585.000
330.233;  -88.600; -410.000; -223.000
330.368; -244.600; -839.000; -628.000
330.503;  -23.100;    3.000;   98.000
330.638;    6.200;  -93.000; -125.000
330.774; -160.500; -609.000; -530.000
330.909;  -61.500; -434.000; -244.000
331.044; -161.400; -714.000; -708.000
331.179; -344.700;-1217.000;-1109.000
331.315;  -20.300;   77.000;   20.000
331.450;   66.900;  157.000;  285.000
331.585; -235.100; -805.000; -706.000
331.720; -175.200; -510.000; -460.000
331.855;  -72.300;  -35.000; -102.000
331.990;  -30.300;   62.000;  138.000
332.126;  -16.900; -110.000;   71.000
332.261; -101.100; -379.000; -265.000
332.396; -123.700; -135.000; -242.000
332.531; -303.300;-1074.000;-1031.000
332.666; -156.300; -519.000; -363.000
332.801; -225.100; -726.000; -807.000
332.936;  -39.600; -192.000; -122.000
333.071; -273.800; -870.000; -817.000
333.206;   51.400;  307.000;  379.000
333.341;   79.300;  344.000;  418.000
333.476; -204.400; -627.000; -623.000
333.611;  -53.400; -251.000; -173.000
333.746; -111.900; -381.000; -464.000
333.881; -273.600; -973.000; -935.000
334.016; -286.600; -936.000; -917.000
334.151; -274.400; -746.000; -702.000
334.286;   18.000;  152.000;  186.000
334.421;  -36.900; -125.000; -178.000
334.556; -206.000; -611.000; -567.000
334.690; -183.500; -631.000; -577.000
334.825;   93.400;  381.000;   83.000
334.960; -107.800; -285.000; -413.000
335.095;   -2.700;  135.000;  -91.000
335.230; -237.600; -722.000; -738.000
335.365; -329.200;-1084.000; -990.000
335.499; -325.000;-1108.000;-1037.000
335.634;  -13.200;    9.000;  534.000
335.769; -257.400; -755.000; -720.000
335.904; -221.300; -603.000; -561.000
336.038; -204.900; -735.000; -657.000
336.173; -357.300;-1206.000;-1194.000
336.308;  -80.700; -116.000; -189.000
336.443; -140.000; -544.000; -634.000
336.577; -263.600; -936.000; -787.000
336.712;   -8.000;   -4.000;  -12.000
336.847; -210.800; -724.000; -607.000
336.981; -130.600; -272.000; -208.000
337.116;  143.500;  615.000;  501.000
337.250; -142.800; -434.000; -421.000
337.385; -107.300; -297.000; -208.000
337.520; -221.200; -632.000; -603.000
337.654;  -88.500; -215.000; -126.000
337.789; -290.900; -989.000; -933.000
337.923;  -56.200; -104.000; -205.000
338.058; -243.000; -673.000; -738.000
338.192; -177.200; -611.000; -488.000
338.327;  -79.800;  -18.000; -155.000
338.461; -152.900; -299.000; -469.000
338.596; -220.800; -780.000; -638.000
338.730; -225.200; -767.000; -803.000
338.865;  -50.500;  -46.000; -140.000
338.999; -271.300; -846.000; -702.000
339.134; -210.900; -634.000; -536.000
339.268; -195.600; -741.000; -603.000
339.403; -234.900; -740.000; -775.000
339.537; -264.700; -894.000; -820.000
339.671; -270.100; -829.000; -813.000
339.806; -167.000; -556.000; -512.000
339.940; -102.200; -261.000; -235.000
340.074; -190.300; -685.000; -510.000
340.209; -130.600; -351.000; -230.000
340.343; -163.100; -517.000; -573.000
340.477;  291.300;  998.000; 1036.000
340.612; -279.300;-1033.000; -900.000
340.746; -105.200; -199.000; -243.000
340.880; -276.600; -924.000; -785.000
341.014;  -58.700;  -45.000; -154.000
341.149; -219.500; -756.000; -718.000
341.283; -272.600; -839.000; -754.000
341.417; -307.100;-1124.000; -938.000
341.551; -210.400; -768.000; -708.000
341.685; -156.600; -633.000; -611.000
341.820; -221.400; -562.000; -493.000
341.954; -139.700; -218.000; -349.000
342.088; -340.500;-1102.000;-1019.000
342.222;  102.700;  565.000;  618.000
342.356; -179.800; -395.000; -335.000
342.490; -262.400; -880.000; -841.000
342.624; -103.300; -339.000; -242.000
342.758; -112.700; -364.000; -312.000
342.892; -198.900; -710.000; -585.000
343.026;  -56.600;  -58.000; -116.000
343.160; -121.800; -426.000; -376.000
343.294; -162.900; -474.000; -337.000
343.428; -192.400; -488.000; -448.000
343.562;  -52.500; -172.000;  -23.000
343.696; -106.300; -385.000; -314.000
343.830;  -99.300; -362.000; -356.000
343.964;  -53.000; -231.000; -168.000
344.098;   -0.700;  199.000;   70.000
344.232;  -76.000; -266.000; -127.000
344.366; -183.400; -567.000; -453.000
344.500; -217.300; -665.000; -744.000
344.634;  -69.600; -324.000; -164.000
344.768; -150.900; -531.000; -341.000
344.902;   22.300;  278.000;  256.000
345.035; -178.700; -556.000; -496.000
345.169; -265.900; -933.000; -656.000
345.303; -113.900; -308.000; -482.000
345.437; -224.900; -826.000; -717.000
345.571; -227.400; -675.000; -594.000
345.704; -147.300; -309.000; -532.000
345.838; -106.500; -331.000; -284.000
345.972; -172.900; -543.000; -495.000
346.106;  -46.100; -179.000; -190.000
346.239;  -62.200; -312.000; -243.000
346.373; -138.800; -343.000; -302.000
346.507; -313.500; -950.000; -962.000
346.640;  -42.800;  -30.000;   13.000
346.774; -216.300; -650.000; -797.000
346.908;  -65.100; -138.000;  -11.000
347.041; -178.200; -646.000; -593.000
347.175;   27.700;  259.000;   27.000
347.309; -240.200; -698.000; -628.000
347.442; -266.000; -883.000; -732.000
347.576;  173.200;  670.000;  668.000
347.709;  -37.100; -123.000;  -52.000
347.843; -268.800; -933.000; -825.000
347.976;   79.300;  235.000;  294.000
348.110; -351.200;-1268.000;-1186.000
348.243; -225.800; -679.000; -772.000
348.377;  -12.800;  -26.000;   60.000
348.510;   73.500;  403.000;  540.000
348.644; -105.600;  -37.000; -159.000
348.777;    9.400;  180.000;  191.000
348.911;  -96.100; -142.000; -112.000
349.044;   86.000;  471.000;  448.000
349.178; -302.300;-1069.000;-1006.000
349.311;   55.300;  141.000;  255.000
349.444; -271.600; -927.000; -813.000
349.578; -108.400; -347.000; -200.000
349.711; -267.900; -959.000; -862.000
349.845; -216.200; -661.000; -591.000
349.978; -370.400;-1224.000;-1137.000
350.111; -194.600; -546.000; -612.000
350.244; -219.500; -596.000; -700.000
350.378; -152.800; -392.000; -393.000
350.511; -127.700; -393.000; -426.000
350.644; -270.300; -808.000; -806.000
350.778;  -14.200;  168.000;  104.000
350.911;   -8.700;  134.000;  140.000
351.044; -260.300; -685.000; -615.000
351.177;  -94.800; -321.000; -281.000
351.310;  -26.300;    3.000; -131.000
351.444; -274.100; -888.000; -788.000
351.577;   14.800;  140.000;   90.000
351.710;  122.800;  593.000;  417.000
351.843;  -63.200; -165.000;  -77.000
351.976;  -29.400;  149.000;  -79.000
352.109; -185.900; -621.000; -612.000
352.242; -139.600; -464.000; -419.000
352.376; -212.400; -580.000; -636.000
352.509; -146.500; -437.000; -356.000
352.642; -322.600; -654.000; -604.000
352.775;  -78.400; -141.000;  -98.000
352.908; -295.400; -933.000; -904.000
353.041; -290.500; -814.000; -824.000
353.174; -144.500; -551.000; -424.000
353.307; -236.400; -753.000; -764.000
353.440;  144.300;  541.000;  453.000
353.573; -307.800; -957.000;-1008.000
353.706; -222.000; -384.000; -558.000
353.839; -119.400; -264.000; -220.000
353.971; -209.200; -657.000; -512.000
354.104; -282.400; -896.000; -835.000
354.237; -216.800; -627.000; -662.000
354.370; -233.400; -846.000; -879.000
354.503; -404.600;-1231.000;-1308.000
354.636; -146.300; -529.000; -348.000
354.769; -317.100; -937.000; -860.000
354.902;  -97.600; -230.000; -139.000
355.034;  -48.100; -164.000; -220.000
355.167;  -85.200; -262.000; -162.000
355.300; -296.800;-1061.000; -880.000
355.433;  -29.600;  -71.000;  -14.000
355.565; -116.600; -402.000; -384.000
355.698; -126.200; -356.000; -296.000
355.831; -288.500; -882.000; -801.000
355.964;  -94.500; -285.000; -170.000
356.096; -262.900; -856.000; -843.000
356.229; -230.400; -523.000; -530.000
356.362; -113.000; -373.000; -266.000
356.494;  -86.100; -229.000; -162.000
356.627;   72.000;  269.000;  377.000
356.760;    2.900;  120.000;   53.000
356.892; -190.400; -286.000; -601.000
357.025;   85.000;  403.000;  389.000
357.157;  -64.200; -167.000; -179.000
357.290; -298.000; -856.000; -713.000
357.423; -191.800; -667.000; -556.000
357.555;  -94.900; -217.000; -228.000
357.688; -144.100; -483.000; -364.000
357.820; -293.400; -870.000; -877.000
357.953; -176.000; -563.000; -589.000
358.085; -212.900; -632.000; -612.000
358.218; -308.200;-1131.000; -932.000
358.350;  -44.900;  -58.000;  312.000
358.483; -381.000;-1300.000;-1187.000
358.615; -360.200;-1182.000;-1078.000
358.747; -348.500;-1187.000;-1058.000
358.880; -248.500; -810.000; -744.000
359.012; -143.700; -376.000; -202.000
359.145; -196.500; -480.000; -511.000
359.277; -292.100; -962.000; -913.000
359.409;   97.800;  536.000;  231.000
359.542; -265.600; -738.000; -688.000
359.674;  -22.300;   46.000;   13.000
359.806; -186.900; -565.000; -438.000
359.939; -186.800; -617.000; -516.000
360.071; -197.900; -583.000; -579.000
360.203; -141.800; -411.000; -364.000
360.335;  -26.800;  164.000;  -16.000
360.468;  -99.500; -249.000; -307.000
360.600; -195.500; -547.000; -454.000
360.732; -207.600; -546.000; -423.000
360.864; -346.300;-1216.000;-1044.000
360.996; -122.400; -516.000; -554.000
361.129; -172.000; -389.000; -598.000
361.261;  -38.700;  110.000; -113.000
361.393;  -75.700; -252.000; -214.000
361.525;  -46.800;   94.000;  244.000
361.657; -231.000; -821.000; -703.000
361.789;  -77.700; -139.000; -155.000
361.921; -202.300; -642.000; -593.000
362.053;   98.400;  524.000;  541.000
362.185;   -1.600;  288.000;   72.000
362.318; -240.900; -709.000; -705.000
362.450;  105.700;  294.000;  444.000
362.582; -315.600; -913.000; -870.000
362.714;  -88.700; -353.000; -332.000
362.846; -180.800; -606.000; -490.000
362.978; -293.000; -941.000; -811.000
363.109; -131.900; -161.000; -260.000
363.241; -226.400; -739.000; -749.000
363.373; -204.200; -649.000; -564.000
363.505;  -45.700; -186.000;  -91.000
363.637; -193.000; -787.000; -601.000
363.769; -329.800;-1067.000;-1080.000
363.901; -197.900; -596.000; -654.000
364.033; -348.400;-1103.000;-1062.000
364.165;  -85.400; -283.000; -283.000
364.296; -124.500; -316.000; -177.000
364.428; -412.000;-1344.000;-1220.000
364.560; -185.500; -679.000; -661.000
364.692; -210.600; -738.000; -835.000
364.824; -169.700; -588.000; -456.000
364.955; -121.800; -402.000; -564.000
365.087; -308.300;-1097.000; -852.000
365.219; -241.400; -686.000; -816.000
365.351; -204.500; -526.000; -572.000
365.482;   55.400;  300.000;  240.000
365.614; -105.000; -402.000; -314.000
365.746; -236.500; -729.000; -752.000
365.877; -204.000; -706.000; -672.000
366.009;  -46.800;  -35.000;  -62.000
366.141; -335.200;-1249.000;-1134.000
366.272; -263.400; -803.000; -719.000
366.404; -250.400;-1005.000; -874.000
366.535;  -53.200; -139.000;  -12.000
366.667; -228.600; -644.000; -649.000
366.799;   52.000;  353.000;  203.000
366.930; -288.000; -862.000; -996.000
367.062; -172.200; -639.000; -613.000
367.193; -244.200; -872.000; -842.000
367.325; -186.800; -580.000; -684.000
367.456;  -67.900; -246.000;   31.000
367.588; -132.500; -371.000; -318.000
367.719;  -67.900;  -44.000;  -45.000
367.851; -114.300; -222.000; -241.000
367.982; -275.900; -875.000; -732.000
368.113; -122.700; -475.000; -358.000
368.245; -310.900; -960.000; -841.000
368.376;  -75.500; -254.000; -302.000
368.508;  -98.200; -188.000; -263.000
368.639; -345.800;-1166.000;-1034.000
368.770; -218.200; -670.000; -589.000
368.902; -260.600; -836.000; -926.000
369.033; -282.900; -906.000; -855.000
369.164; -220.000; -720.000; -653.000
369.296; -226.600; -452.000; -601.000
369.427;  -68.600; -209.000; -144.000
369.558; -132.800; -593.000; -377.000
369.689; -216.600; -721.000; -569.000
369.821; -284.200; -951.000; -845.000
369.952;  -17.600;   42.000; -108.000
370.083; -109.400; -229.000; -108.000
370.214; -226.200; -735.000; -650.000
370.345;  -10.500;   65.000;   81.000
370.477; -242.500; -810.000; -790.000
370.608; -113.700; -328.000; -264.000
370.739; -368.200;-1233.000;-1292.000
370.870; -298.600;-1102.000; -923.000
371.001; -155.400; -378.000; -467.000
371.132; -221.200; -754.000; -735.000
371.263;  -56.400;  -42.000; -148.000
371.394; -285.700; -841.000; -748.000
371.525;   65.100;  345.000;  225.000
371.657; -240.100; -808.000; -670.000
371.788;   25.400;  103.000;  199.000
371.919; -141.700; -384.000; -304.000
372.050;  -56.800;  -91.000; -156.000
372.181;  -47.400; -188.000; -294.000
372.311;   -9.300;   42.000; -127.000
372.442; -145.600; -457.000; -451.000
372.573; -122.800; -444.000; -340.000
372.704; -308.800;-1008.000; -980.000
372.835; -164.400; -228.000; -289.000
372.966; -217.800; -646.000; -554.000
373.097; -227.800; -575.000; -711.000
373.228; -214.100; -717.000; -542.000
373.359; -245.700; -824.000; -536.000
373.490; -271.100; -881.000; -727.000
373.620; -312.900;-1001.000; -803.000
373.751; -163.900; -332.000; -396.000
373.882; -194.100; -663.000; -733.000
374.013; -119.800; -449.000; -262.000
374.143; -200.200; -581.000; -659.000
374.274; -317.900; -987.000; -908.000
374.405; -104.900; -388.000; -276.000
374.536; -168.700; -526.000; -387.000
374.666; -228.100; -759.000; -807.000
374.797; -270.800; -817.000; -868.000
374.928; -241.100; -710.000; -560.000
375.058; -199.400; -535.000; -500.000
375.189;  -92.200;  -59.000;  -93.000
375.320; -283.200; -928.000;-1034.000
375.450; -211.200; -625.000; -616.000
375.581; -155.100; -526.000; -436.000
375.712; -110.200; -574.000; -250.000
375.842; -171.400; -438.000; -415.000
375.973; -201.000; -554.000; -513.000
376.103; -232.500; -665.000; -648.000
376.234; -198.100; -531.000; -552.000
376.364; -328.300; -944.000; -867.000
376.495;  200.200;  925.000;  529.000
376.625; -164.000; -472.000; -485.000
376.756; -237.800; -709.000; -678.000
376.886; -360.500;-1178.000;-1026.000
377.017; -351.300;-1048.000;-1061.000
377.147; -264.400; -786.000; -782.000
377.278;   45.900;  174.000;  228.000
377.408; -258.500; -801.000; -815.000
377.538; -253.000; -707.000; -693.000
377.669; -196.500; -537.000; -613.000
377.799; -240.400; -645.000; -635.000
377.929; -172.900; -610.000; -428.000
378.060; -291.000; -781.000; -847.000
378.190; -235.100; -726.000; -531.000
378.320; -141.800; -401.000; -406.000
378.451;  -46.900; -131.000;  -22.000
378.581;  -45.600;  -67.000; -110.000
378.711;  234.400; 1035.000;  866.000
378.841; -186.900; -533.000; -675.000
378.972; -296.900; -871.000; -751.000
379.102; -195.100; -652.000; -579.000
379.232;  -91.100; -126.000;  -73.000
379.362; -312.700;-1001.000; -885.000
379.492; -156.900; -373.000; -424.000
379.623;    1.700;    0.000;  111.000
379.753; -317.900;-1107.000; -974.000
379.883;  -14.100;   59.000;  156.000
380.013; -335.800;-1081.000;-1017.000
380.143; -344.800;-1097.000;-1056.000
380.273; -289.600; -985.000; -861.000
380.403;  -99.000; -344.000; -257.000
380.533; -268.600; -651.000; -664.000
380.663;   -4.900;  173.000;  128.000
380.793; -355.100;-1027.000;-1074.000
380.923;  -87.700; -103.000;  -34.000
381.053; -218.900; -613.000; -623.000
381.183; -101.900; -106.000; -248.000
381.313; -190.900; -656.000; -470.000
381.443; -182.700; -692.000; -473.000
381.573; -133.200; -402.000; -409.000
381.703; -388.400;-1249.000;-1095.000
381.833; -432.500;-1454.000;-1336.000
381.963;  -37.300; -134.000;  -87.000
382.093; -294.400; -925.000; -909.000
382.223; -246.200; -713.000; -602.000
382.353; -230.800; -801.000; -608.000
382.482; -342.400;-1091.000; -964.000
382.612; -239.800; -872.000; -644.000
382.742; -218.200; -695.000; -622.000
382.872; -207.300; -565.000; -551.000
383.002;    0.300;  347.000; -132.000
383.131; -102.700; -226.000; -160.000
383.261; -270.600; -706.000; -768.000
383.391; -171.000; -552.000; -377.000
383.521;   74.700;  451.000;  263.000
383.650; -270.300; -947.000; -904.000
383.780; -250.100; -783.000; -656.000
383.910;  205.000;  880.000;  802.000
384.039; -274.200; -794.000; -656.000
384.169; -368.600;-1205.000;-1017.000
384.299; -219.000; -650.000; -662.000
384.428; -260.900; -764.000; -680.000
384.558; -120.300; -308.000; -275.000
384.687; -145.200; -414.000; -334.000
384.817;  -50.100;   75.000;   -2.000
384.947;  -77.000; -234.000; -141.000
385.076;  230.500;  982.000;  912.000
385.206;   75.900;  369.000;  480.000
385.335; -157.400; -549.000; -417.000
385.465; -238.600; -655.000; -663.000
385.594;  -32.400;  -53.000;  -44.000
385.724; -298.500; -868.000; -838.000
385.853; -122.300; -296.000; -270.000
385.982; -273.300; -743.000; -787.000
386.112; -309.300;-1052.000; -871.000
386.241; -110.100; -307.000; -312.000
386.371; -107.200; -174.000;  -87.000
386.500; -264.300; -825.000; -789.000
386.629; -285.700; -874.000; -817.000
386.759;   -9.900;  -43.000;   68.000
386.888;  -53.900; -170.000; -250.000
387.017; -240.100; -648.000; -620.000
387.147; -230.400; -771.000; -798.000
387.276; -170.300; -410.000; -397.000
387.405; -146.700; -398.000; -342.000
387.535; -176.200; -452.000; -361.000
387.664; -245.800; -692.000; -620.000
387.793;  -72.100; -198.000; -113.000
387.922;    8.900;  255.000;  200.000
388.052; -193.800; -576.000; -423.000
388.181; -143.000; -342.000; -472.000
388.310; -228.300; -889.000; -710.000
388.439; -277.100; -749.000; -742.000
388.568;   17.700;  365.000;  244.000
388.697; -222.900; -756.000; -653.000
388.826; -186.500; -768.000; -666.000
388.956; -127.600; -285.000; -307.000
389.085; -116.200; -347.000; -287.000
389.214; -257.300; -842.000; -872.000
389.343; -177.800; -645.000; -413.000
389.472;   17.800;  126.000;  149.000
389.601;  -14.500;   91.000;    0.000
389.730; -213.800; -568.000; -687.000
389.859;   47.200;  226.000;   46.000
389.988; -122.300; -423.000; -408.000
390.117;  -82.800; -168.000; -146.000
390.246; -145.400; -331.000; -320.000
390.375; -237.400; -673.000; -626.000
390.504; -203.900; -703.000; -621.000
390.633; -253.800; -672.000; -726.000
390.761; -256.700; -732.000; -645.000
390.890;  -50.000;   -4.000; -130.000
391.019; -154.300; -421.000; -441.000
391.148; -291.400; -826.000; -855.000
391.277; -185.500; -576.000; -493.000
391.406; -288.300; -821.000; -805.000
391.534;   18.800;  574.000; -301.000
391.663; -198.600; -583.000; -645.000
391.792; -232.100; -673.000; -701.000
391.921;    6.700;   -3.000;   15.000
392.050; -117.000; -287.000; -228.000
392.178; -353.800;-1206.000;-1061.000
392.307; -235.600; -758.000; -712.000
392.436; -204.200; -427.000; -641.000
392.564;  -28.400;  166.000;   -6.000
392.693; -278.000; -860.000; -682.000
392.822; -176.200; -529.000; -534.000
392.950; -263.200; -880.000; -714.000
393.079; -150.000; -188.000; -328.000
393.208; -201.700; -488.000; -511.000
393.336;  -66.300; -170.000; -145.000
393.465;  -87.000; -317.000; -199.000
393.593;   -7.100;   62.000;   79.000
393.722; -342.300;-1121.000; -916.000
393.850;  -85.300; -188.000;  -61.000
393.979; -295.900; -926.000; -805.000
394.107; -189.100; -517.000; -537.000
394.236; -160.600; -570.000; -507.000
394.364;   46.800;  383.000;  206.000
394.493; -260.900; -911.000; -767.000
394.621; -288.400; -955.000; -916.000
394.750; -276.700; -873.000; -923.000
394.878;  -95.400; -247.000; -149.000
395.007; -266.300; -721.000; -807.000
395.135; -238.300; -790.000; -721.000
395.263; -340.800;-1038.000;-1040.000
395.392;  -45.400;  -25.000; -107.000
395.520; -279.200; -818.000; -679.000
395.648; -309.600; -865.000; -915.000
395.777; -176.600; -366.000; -405.000
395.905; -189.000; -449.000; -564.000
396.033;    2.700;  217.000;  172.000
396.162; -157.100; -399.000; -453.000
396.290;  -26.600;  -17.000;   -2.000
396.418; -167.800; -555.000; -514.000
396.546; -252.600; -571.000; -466.000
396.674; -293.500; -850.000; -878.000
396.803;  -34.200;  -72.000;  -23.000
396.931;  -93.600; -179.000; -199.000
397.059; -335.300;-1026.000; -989.000
397.187; -271.700;-1026.000; -975.000
397.315; -282.800; -884.000; -649.000
397.443; -191.400; -592.000; -443.000
397.572; -175.700; -578.000; -424.000
397.700; -252.900; -607.000; -614.000
397.828;  -60.500;  120.000;  -90.000
397.956; -194.200; -508.000; -478.000
398.084; -231.400; -767.000; -626.000
398.212;   -7.300;  137.000;  124.000
398.340;  -45.300;  -56.000;  159.000
398.468; -115.800; -390.000; -169.000
398.596; -285.800; -993.000; -953.000
398.724; -279.200; -762.000; -767.000
398.852; -322.700;-1024.000; -976.000
398.980; -194.100; -560.000; -560.000
399.108; -257.000; -982.000; -735.000
399.236;  -59.100;   13.000;    8.000
399.363;    7.100;  222.000;  196.000
399.491; -157.900; -404.000; -398.000
399.619; -260.200; -829.000; -800.000
399.747; -266.800; -859.000; -771.000
399.875;   37.200;  220.000;  234.000
400.003; -151.700; -359.000; -284.000
400.130; -130.800; -421.000; -341.000
400.258;  -35.700;  -83.000;   38.000
400.386; -113.000; -352.000; -168.000
400.514; -195.100; -526.000; -587.000
400.641; -319.900; -928.000; -802.000
400.769; -305.300; -979.000; -888.000
400.897; -243.500; -838.000; -793.000
401.025;  -80.400; -166.000; -152.000
401.152;   13.100;  220.000;   38.000
401.280; -177.600; -430.000; -429.000
401.408; -243.500; -712.000; -576.000
401.535; -221.500; -735.000; -758.000
401.663; -411.100;-1134.000;-1054.000
401.790; -200.300; -514.000; -525.000
401.918;  139.600;  436.000;  405.000
402.046;  -14.000;  134.000;  122.000
402.173;  -58.000;  -18.000;    7.000
402.301; -146.300; -519.000; -397.000
402.428;   92.100;  528.000;  383.000
402.556; -359.500;-1188.000; -913.000
402.683;  -60.900;  -20.000;   -1.000
402.811;  -62.900;  -37.000; -206.000
402.938;   -4.200;   20.000;   27.000
403.066; -211.500; -574.000; -558.000
403.193;    6.700;  299.000;  239.000
403.321; -168.500; -396.000; -574.000
403.448;  -12.400;   83.000;   27.000
403.575;  -49.300;  -90.000;  -46.000
403.703; -239.000; -732.000; -557.000
403.830; -194.900; -531.000; -496.000
403.957; -337.000;-1117.000;-1023.000
404.085;  -87.300;  -61.000; -172.000
404.212;   -5.300;  -50.000;   63.000
404.339; -161.600; -566.000; -306.000
404.467; -164.100; -612.000; -524.000
404.594; -140.400; -287.000; -227.000
404.721; -229.300; -869.000; -764.000
404.848;  -93.900; -113.000; -202.000
404.976; -264.700; -856.000; -783.000
405.103;  -13.300;  -14.000;  -82.000
405.230;  -14.100;  190.000;  226.000
405.357;  -44.900;  117.000;   44.000
405.484;  -51.200;  -49.000;    5.000
405.612; -169.400; -548.000; -563.000
405.739; -132.300; -488.000; -243.000
405.866;  147.800;  669.000;  385.000
405.993;  -98.000; -398.000; -102.000
406.120; -291.500; -801.000; -887.000
406.247; -124.100; -323.000; -342.000
406.374;  145.000;  540.000;  629.000
406.501; -251.300; -632.000; -702.000
406.628; -219.500; -621.000; -589.000
406.755; -228.700; -803.000; -620.000
406.882; -114.100; -228.000; -277.000
407.009; -204.000; -719.000; -628.000
407.136; -143.200; -480.000; -401.000
407.263; -281.200; -939.000; -829.000
407.390; -219.700; -692.000; -614.000
407.517; -357.300;-1139.000;-1187.000
407.644; -154.800; -332.000; -256.000
407.771; -151.900; -249.000; -287.000
407.898;    3.600;  168.000;  328.000
408.025; -173.000; -421.000; -313.000
408.151;  -45.600;   82.000;  153.000
408.278; -104.700; -267.000; -216.000
408.405; -304.300; -931.000; -899.000
408.532; -187.800; -549.000; -542.000
408.659; -227.800; -677.000; -648.000
408.785; -405.000;-1298.000;-1170.000
408.912; -150.800; -412.000; -296.000
409.039; -208.100; -610.000; -686.000
409.166; -183.400; -591.000; -555.000
409.292; -171.600; -571.000; -534.000
409.419; -200.600; -665.000; -649.000
409.546; -136.300; -431.000; -192.000
409.672; -226.600; -713.000; -545.000
409.799;  -50.300;  -36.000;   34.000
409.926; -105.900; -180.000; -179.000
410.052; -349.900;-1127.000;-1091.000
410.179; -184.500; -368.000; -392.000
410.305; -151.500; -375.000; -493.000
410.432; -105.400; -220.000; -333.000
410.558; -180.200; -305.000; -380.000
410.685; -213.700; -688.000; -431.000
410.812; -195.800; -409.000; -588.000
410.938; -275.500; -964.000; -808.000
411.065; -221.100; -671.000; -645.000
411.191;  -86.500; -189.000; -174.000
411.317; -277.600; -823.000; -742.000
411.444; -152.700; -317.000; -246.000
411.570; -102.100; -339.000; -294.000
411.697; -244.400; -758.000; -752.000
411.823; -307.100; -989.000; -999.000
411.949; -115.600;  -56.000;   17.000
412.076; -222.200; -539.000; -519.000
412.202; -257.900; -758.000; -757.000
412.329; -260.300; -798.000; -752.000
412.455; -259.200; -821.000; -657.000
412.581;  -30.100;  -15.000;  172.000
412.707; -198.400; -540.000; -457.000
412.834;   -4.900;  156.000;  219.000
412.960; -263.600; -785.000; -784.000
413.086; -236.000; -743.000; -701.000
413.212;   99.500;  604.000;  578.000
413.339; -273.100; -685.000; -701.000
413.465; -139.600; -364.000; -310.000
413.591; -270.800; -757.000; -474.000
413.717; -140.100; -358.000; -366.000
413.843; -308.600; -839.000; -861.000
413.969; -133.900;  -47.000; -292.000
414.096; -222.500; -679.000; -679.000
414.222;  -48.000;  -33.000;   85.000
414.348; -194.600; -652.000; -385.000
414.474;  -82.400;   38.000;  -52.000
414.600;  -37.200; -126.000; -144.000
414.726;  -62.300;  -96.000;  -55.000
414.852; -148.200; -365.000; -342.000
414.978;  -37.400;  104.000;  -18.000
415.104;  -63.700;   38.000;   80.000
415.230; -162.000; -329.000; -330.000
415.356; -197.400; -409.000; -514.000
415.482;  -75.300;   13.000;  -35.000
415.608; -110.500; -247.000; -323.000
415.734;  -38.100;   67.000;   38.000
415.860; -243.600; -875.000; -767.000
415.986; -252.800; -685.000; -607.000
416.111; -268.300; -798.000; -652.000
416.237; -210.200; -424.000; -571.000
416.363; -240.100; -765.000; -733.000
416.489; -132.200; -324.000; -251.000
416.615; -288.000; -707.000; -742.000
416.741; -235.900; -677.000; -784.000
416.866; -232.800; -673.000; -736.000
416.992; -294.200; -801.000; -818.000
417.118; -122.700;  -41.000;  -80.000
417.244; -266.300; -798.000; -531.000
417.369; -258.800; -801.000; -612.000
417.495; -140.900; -325.000; -254.000
417.621; -316.200;-1015.000; -803.000
417.746; -195.400; -579.000; -572.000
417.872;  -92.800; -254.000; -144.000
417.998; -186.200; -515.000; -530.000
418.123; -321.200;-1073.000; -845.000
418.249; -231.600; -512.000; -601.000
418.374; -313.300; -916.000; -824.000
418.500; -173.300; -383.000; -482.000
418.626;  -16.500;   70.000;  -59.000
418.751; -171.700; -549.000; -448.000
418.877; -234.400; -637.000; -643.000
419.002; -209.400; -688.000; -560.000
419.128; -290.900; -930.000; -721.000
419.253; -283.500; -967.000; -837.000
419.379; -212.800; -391.000; -338.000
419.504;   42.600;  325.000;  415.000
419.629; -101.200; -393.000; -212.000
419.755; -129.200; -317.000; -254.000
419.880; -120.200;  -98.000;   67.000
420.006; -138.900; -280.000; -221.000
420.131; -231.200; -662.000; -775.000
420.256; -123.600; -315.000; -316.000
420.382; -208.100; -665.000; -687.000
420.507; -240.400; -649.000; -778.000
420.632; -159.500; -337.000; -339.000
420.758; -129.200; -251.000; -425.000
420.883; -248.600; -876.000; -672.000
421.008; -252.800; -775.000; -619.000
421.133; -192.700; -509.000; -467.000
421.259; -129.500; -325.000; -259.000
421.384; -246.100; -834.000; -693.000
421.509; -294.000;-1052.000; -862.000
421.634; -316.700; -936.000; -820.000
421.759; -168.500; -359.000; -327.000
421.885; -237.800; -717.000; -656.000
422.010; -221.700; -673.000; -542.000
422.135; -302.200; -695.000; -727.000
422.260;   59.100;  340.000;  280.000
422.385;  -90.300;   12.000;  -98.000
422.510;    1.200;  151.000;  -26.000
422.635;  -43.600;  -87.000;  -43.000
422.760; -244.900; -766.000; -791.000
422.885;  -60.400;  -57.000;  -80.000
423.010;  -98.600; -112.000; -169.000
423.135; -222.400; -481.000; -561.000
423.260;  -87.200; -150.000; -245.000
423.385;   35.700;  476.000;  222.000
423.510;  -19.500;   71.000;  -22.000
423.635;  -51.600;  133.000;   45.000
423.760;   77.900;  383.000;  328.000
423.885;   56.100;  336.000;  391.000
424.010;  -33.100;  -68.000;  -13.000
424.135;  -58.300;    5.000;  -33.000
424.259; -205.700; -654.000; -457.000
424.384; -160.600; -279.000; -272.000
424.509; -128.800; -260.000; -186.000
424.634; -259.200; -761.000; -623.000
424.759; -236.800; -688.000; -544.000
424.883; -176.500; -506.000; -527.000
425.008; -206.100; -502.000; -410.000
425.133; -218.200; -679.000; -653.000
425.258; -202.200; -517.000; -381.000
425.382; -258.300; -867.000; -774.000
425.507; -238.600; -487.000; -543.000
425.632; -291.400; -802.000; -663.000
425.756; -108.400; -256.000; -146.000
425.881; -294.700; -831.000; -857.000
426.006; -180.400; -604.000; -355.000
426.130; -259.700; -696.000; -508.000
426.255; -230.700; -611.000; -491.000
426.379;  -68.200; -189.000; -577.000
426.504;  117.600;  660.000;  544.000
426.629; -229.800; -519.000; -466.000
426.753;  -60.700;   64.000;  -46.000
426.878; -111.800; -252.000; -288.000
427.002; -281.400; -651.000; -668.000
427.127; -119.500;  -35.000; -158.000
427.251;   67.100;  372.000;  401.000
427.375; -104.300; -191.000; -173.000
427.500; -206.800; -616.000; -610.000
427.624; -120.700; -234.000; -400.000
427.749; -121.500; -216.000; -225.000
427.873; -162.000; -499.000; -412.000
427.997; -118.100; -222.000; -230.000
428.122;  160.800;  795.000;  703.000
428.246;   74.400;  433.000;  434.000
428.371; -298.000; -869.000; -773.000
428.495; -224.100; -624.000; -646.000
428.619; -100.700; -186.000; -117.000
428.743;  -31.400;   65.000;  132.000
428.868; -261.100; -732.000; -643.000
428.992; -139.400; -219.000; -326.000
429.116; -144.000; -329.000; -357.000
429.240;   48.700;  419.000;  426.000
429.365; -160.300; -454.000; -574.000
429.489; -245.700; -638.000; -647.000
429.613;  -77.000; -236.000; -177.000
429.737; -205.400; -563.000; -432.000
429.861; -136.200; -247.000; -133.000
429.985; -213.100; -425.000; -305.000
430.109; -326.500; -770.000; -908.000
430.234;   -6.700;   76.000;  -50.000
430.358; -128.200; -250.000; -160.000
430.482; -256.200; -672.000; -564.000
430.606; -214.400; -655.000; -375.000
430.730; -206.200; -437.000; -388.000
430.854; -289.100; -909.000; -835.000
430.978; -291.800; -795.000; -764.000
431.102; -190.700; -499.000; -422.000
431.226; -296.300; -874.000; -815.000
431.350;   59.300;  345.000;  422.000
431.474; -195.400; -661.000; -373.000
431.597; -312.000;-1060.000; -848.000
431.721; -130.300; -276.000; -267.000
431.845; -245.000; -704.000; -472.000
431.969; -150.400; -304.000; -349.000
432.093; -172.900; -395.000; -317.000
432.217;  -40.700;   32.000;   82.000
432.341; -194.500; -523.000; -518.000
432.464;  -45.500;   96.000;   40.000
432.588; -183.500; -401.000; -329.000
432.712;  -67.300;  -52.000;  -52.000
432.836;   10.100;  213.000;  263.000
432.959; -154.900; -372.000; -311.000
433.083;  -59.100;   11.000;    2.000
433.207;   77.300;  285.000;  930.000
433.330; -121.900; -391.000; -200.000
433.454; -233.600; -654.000; -638.000
433.578;  121.700;  583.000;  278.000
433.701; -265.000; -623.000; -675.000
433.825; -143.300; -292.000; -299.000
433.949; -106.600;   28.000;  -72.000
434.072; -117.500; -410.000; -323.000
434.196; -117.700; -309.000; -117.000
434.319; 8338.900;25482.000;25124.000
434.443; -250.800; -656.000; -603.000
434.566;    2.400;  281.000;   62.000
434.690; -247.200; -637.000; -383.000
434.813; -124.200; -251.000; -173.000
434.937; -236.100; -569.000; -696.000
435.060; -165.500; -423.000; -332.000
435.184; -157.400; -492.000; -217.000
435.307;  -13.800;  159.000;  102.000
435.431;  -34.400;  -40.000;   24.000
435.554; -128.000; -399.000; -240.000
435.677; -150.200; -350.000; -258.000
435.801;  -30.400;  -25.000;   49.000
435.924;  -65.200;    1.000;  -67.000
436.048; -304.400;-1019.000; -732.000
436.171; -132.700; -240.000;  -66.000
436.294; -122.600; -248.000; -229.000
436.417; -306.300; -963.000; -849.000
436.541; -281.900; -814.000; -840.000
436.664;  -80.900; -242.000; -316.000
436.787;  -45.900;   13.000;  113.000
436.910; -241.400; -792.000; -422.000
437.034;    7.700;  142.000;  143.000
437.157;  -49.900;  -11.000;    0.000
437.280; -141.300; -392.000; -292.000
437.403; -332.100; -982.000; -869.000
437.526; -306.200; -903.000; -865.000
437.649; -189.300; -505.000; -332.000
437.772; -248.900; -692.000; -540.000
437.896;  135.400;  700.000;  544.000
438.019; -238.500; -758.000; -503.000
438.142; -211.300; -596.000; -506.000
438.265; -273.800; -639.000; -670.000
438.388; -164.200; -520.000; -410.000
438.511; -202.600; -597.000; -394.000
438.634; -154.200; -247.000; -125.000
438.757; -263.600; -693.000; -619.000
438.880;  -93.700;  -34.000;  -57.000
439.003; -151.400; -417.000; -437.000
439.126; -118.300; -287.000; -167.000
439.248;  -77.400;  -98.000; -139.000
439.371;  -45.900;    9.000;  -53.000
439.494;  100.200;  510.000;  439.000
439.617;  -86.500;   65.000;  -88.000
439.740; -318.800; -968.000; -816.000
439.863; -240.400; -755.000; -595.000
439.986; -227.700; -476.000; -431.000
440.108; -121.000; -161.000; -112.000
440.231; -335.500; -950.000; -836.000
440.354;  -86.000;  -64.000; -150.000
440.477; -241.600; -566.000; -542.000
440.599; -162.600; -200.000; -225.000
440.722; -212.000; -709.000; -586.000
440.845;  162.600;  751.000;  928.000
440.968; -175.200; -415.000; -311.000
441.090;  -98.300; -199.000;  -33.000
441.213; -336.300;-1021.000; -825.000
441.336;  -88.400; -159.000;   -5.000
441.458; -164.400; -549.000; -396.000
441.581; -253.900; -628.000; -629.000
441.703; -117.400; -152.000;   13.000
441.826; -211.700; -557.000; -400.000
441.948;  -45.500;   56.000;   51.000
442.071;   98.500;  555.000;  424.000
442.193; -212.700; -531.000; -485.000
442.316;  -27.500;  152.000;   97.000
442.438; -120.900; -233.000;  -10.000
442.561;   24.800;  272.000;  262.000
442.683; -267.800; -809.000; -522.000
442.806;  -99.800;   -8.000;   74.000
442.928; -288.700; -859.000; -604.000
443.051; -189.300; -577.000; -373.000
443.173; -162.600; -341.000; -339.000
443.295; -174.500; -263.000; -371.000
443.418; -157.600; -321.000;  -29.000
443.540;  -67.000; -106.000;   -4.000
443.662; -251.400; -563.000; -465.000
443.785;    0.700;  335.000;  199.000
443.907; -178.500; -362.000; -208.000
444.029; -241.600; -767.000; -494.000
444.152; -226.700; -644.000; -554.000
444.274;  -40.600;  -18.000;  -24.000
444.396; -196.600; -461.000; -221.000
444.518; -229.500; -691.000; -454.000
444.640; -189.600; -268.000; -111.000
444.763;   -8.100;  388.000;  249.000
444.885; -232.200; -432.000; -392.000
445.007;  -36.400;   35.000;   86.000
445.129; -228.400; -610.000; -515.000
445.251; -192.100; -372.000; -439.000
445.373; -252.100; -537.000; -386.000
445.495;    5.100;  242.000;  350.000
445.617;  137.300;  853.000;  753.000
445.739; -136.900; -215.000;  -97.000
445.861;  -82.800; -245.000; -112.000
445.984; -141.800; -267.000; -101.000
446.105; -155.300; -418.000; -251.000
446.227; -121.800; -176.000;  -19.000
446.349; -190.900; -358.000; -249.000
446.471; -221.300; -615.000; -448.000
446.593; -159.700; -316.000;   19.000
446.715;  -88.400;  -67.000;   41.000
446.837;  151.000;  697.000;  832.000
446.959; -232.500; -457.000; -478.000
447.081; -247.600; -628.000; -518.000
447.203;  131.200;  862.000;  834.000
447.325; -123.600; -270.000;   42.000
447.446;  -24.700;  286.000;  530.000
447.568; -330.700; -921.000; -803.000
447.690; -169.400; -236.000; -245.000
447.812; -254.900; -798.000; -519.000
447.933;  -34.100;  155.000;  127.000
448.055; -117.900; -306.000; -261.000
448.177;  -69.300;   31.000;   79.000
448.299; -364.400; -935.000; -727.000
448.420;  -47.400;  -25.000;  159.000
448.542;  -95.300;   -3.000;   33.000
448.664;   -9.900;  109.000;  322.000
448.785;  -36.200;  265.000;   83.000
448.907; -216.800; -614.000; -353.000
449.028; -272.900; -771.000; -471.000
449.150;   76.000;  492.000;  589.000
449.272; -372.900;-1044.000; -913.000
449.393;   99.100;  612.000;  694.000
449.515; -246.500; -634.000; -581.000
449.636; -116.800; -264.000; -155.000
449.758;  139.800;  763.000;  622.000
449.879; -190.000; -498.000; -396.000
450.001; -144.900; -149.000;  -49.000
450.122;  -78.500;  -95.000;  162.000
450.244;  -24.300;   37.000;  364.000
450.365; -194.800; -495.000; -301.000
450.486;  -74.800;   80.000;  268.000
450.608;   27.600;  393.000;  326.000
450.729;   62.100;  578.000;  645.000
450.850; -224.600; -574.000; -466.000
450.972; -278.500; -552.000; -389.000
451.093;   -7.900;  190.000;  588.000
451.214; -236.000; -516.000; -337.000
451.336;  125.900;  773.000;  579.000
451.457;   29.200;  264.000;  393.000
451.578;  -88.700; -118.000;  -74.000
451.699; -234.200; -546.000; -540.000
451.821; -134.400; -284.000;  -50.000
451.942;   13.500;  278.000;  285.000
452.063;   -3.200;  228.000;  419.000
452.184; -107.500;  -54.000;  -49.000
452.305;  -49.300;  103.000;  170.000
452.427; -221.900; -549.000; -301.000
452.548; -106.500;   23.000;   79.000
452.669; -138.300; -257.000;  -89.000
452.790; -115.700;    3.000;  -18.000
452.911;   -9.500;  195.000;  259.000
453.032; -144.900; -289.000;  -60.000
453.153;  -94.500;  -29.000;   81.000
453.274;  169.500;  737.000;  868.000
453.395;  -73.900;  -51.000;  175.000
453.516;  253.600; 1317.000; 1388.000
453.637; -197.100; -205.000; -150.000
453.758;  -97.200;   15.000;   69.000
453.879; -185.200; -462.000; -250.000
454.000;  211.400; 1086.000;  948.000
454.121; -246.300; -554.000; -326.000
454.242; -253.900; -599.000; -383.000
454.362;  -84.500;  -99.000;  114.000
454.483; -190.400; -309.000; -229.000
454.604;   58.400;  512.000;  580.000
454.725; -267.600; -627.000; -555.000
454.846; -234.500; -474.000; -406.000
454.967;   21.600;  230.000;  539.000
455.087;  -12.700;  179.000;  153.000
455.208;   50.000;  554.000;  856.000
455.329; -103.400;  -22.000;   82.000
455.450;   38.600;  473.000;  633.000
455.570; -126.400; -234.000; -211.000
455.691;  -89.000;  201.000;  407.000
455.812; -184.600; -270.000;  -92.000
455.932;  -39.200;  107.000;  -97.000
456.053;  -89.400;   36.000;   24.000
456.173; -217.100; -433.000; -355.000
456.294; -187.200; -476.000; -303.000
456.415; -114.700;  -73.000;   70.000
456.535;  -12.400;  297.000;  273.000
456.656;  -48.500;  132.000;  240.000
456.776;  -50.100;    3.000;  298.000
456.897;   49.900;  308.000;  513.000
457.017; -142.700; -153.000;   -3.000
457.138; -194.100; -402.000; -249.000
457.258;  -33.900;  263.000;  224.000
457.379;   16.500;  509.000;  521.000
457.499;   18.900;  443.000;  432.000
457.620; -221.600; -407.000; -231.000
457.740; -107.700; -132.000;  -11.000
457.860;  -66.700;   87.000;   44.000
457.981;  -88.000;  132.000;  124.000
458.101; -151.900;  -89.000;   40.000
458.221;   11.200;  336.000;  402.000
458.342;  -80.200;   -4.000;  -37.000
458.462;   23.000;  617.000;  352.000
458.582; -139.000; -302.000; -294.000
458.703;  -67.600;  303.000;  154.000
458.823; -105.100;   22.000;  163.000
458.943;   15.600;  341.000;  467.000
459.063;  -94.100; 1124.000;  192.000
459.183;  -34.500;  328.000;  313.000
459.304;   34.500;  315.000;  517.000
459.424; -110.800; -246.000;  -89.000
459.544;   40.500;  388.000;  764.000
459.664;   46.000;  499.000;  506.000
459.784;  168.600; 1004.000; 1175.000
459.904;  114.400;  867.000;  744.000
460.024;  136.600;  867.000;  684.000
460.144;    7.600;  449.000;  554.000
460.264;    9.500;  515.000;  327.000
460.385; -144.800; -145.000; -119.000
460.505;   98.800;  905.000;  858.000
460.625; -171.000;  -17.000;  -68.000
460.745;   -8.000;  396.000;  541.000
460.864;  -77.300;  153.000;  469.000
460.984;   46.000;  499.000;  573.000
461.104;  338.900; 1656.000; 1775.000
461.224;   68.600;  657.000;  650.000
461.344;  -30.400;  431.000;  360.000
461.464;  -68.500;  258.000;  513.000
461.584;  -29.600;  283.000;  466.000
461.704; -104.900;   58.000;  108.000
461.824;  -84.000;  238.000;  259.000
461.943;  -59.700;  191.000;  130.000
462.063; -120.700;    2.000;  324.000
462.183;   59.400;  639.000;  717.000
462.303;  240.300; 1678.000; 1230.000
462.422;   82.000;  781.000;  840.000
462.542;  -60.500;  271.000;  391.000
462.662;  -25.000;  353.000;  380.000
462.782;   49.400;  833.000;  572.000
462.901;   13.700;  545.000;  717.000
463.021;  306.800; 1702.000; 1638.000
463.141;  -28.000;  337.000;  770.000
463.260;   31.500;  614.000;  474.000
463.380;   66.000;  902.000;  884.000
463.499;   -7.700;  342.000;  332.000
463.619;  -26.200;  581.000;  559.000
463.738;  282.100; 1644.000;  903.000
463.858;   53.500;  657.000;  811.000
463.978;    4.800;  542.000;  396.000
464.097;  138.000;  921.000; 1114.000
464.217;  186.000; 1196.000; 1143.000
464.336;  192.100; 1068.000; 1130.000
464.455;   -8.300;  328.000;  659.000
464.575;    8.900;  597.000;  602.000
464.694;  145.200; 1204.000; 1179.000
464.814;  132.200; 1190.000; 1138.000
464.933;  149.800; 1095.000; 1027.000
465.052;  204.500; 1412.000; 1054.000
465.172;  102.500;  922.000;  799.000
465.291;  237.300; 1376.000; 1320.000
465.410;   31.000;  462.000;  735.000
465.530;  195.400; 1355.000; 1310.000
465.649;  177.800; 1209.000; 1273.000
465.768;  290.200; 1673.000; 1508.000
465.888;  124.200;  941.000; 1174.000
466.007;  220.200; 1335.000; 1440.000
466.126;   13.500;  721.000;  641.000
466.245;  134.100; 1176.000; 1187.000
466.364;   72.900;  950.000; 1060.000
466.484;  200.600; 1024.000; 1213.000
466.603;   94.600; 1101.000; 1222.000
466.722;  264.500; 1490.000; 1769.000
466.841;  186.100; 1151.000; 1401.000
466.960;   94.700; 1069.000;  972.000
467.079;  346.500; 1971.000; 1786.000
467.198;  156.500; 1238.000; 1181.000
467.317;  227.300; 1768.000; 1162.000
467.436;  192.300; 1709.000; 1261.000
467.555;  313.100; 1796.000; 1746.000
467.674;  164.700; 1227.000; 1329.000
467.793;  175.500; 1376.000; 1374.000
467.912;  216.700; 1658.000; 1539.000
468.031;  329.500; 2038.000; 1930.000
468.150;  290.700; 1842.000; 1837.000
468.269;  431.900; 2313.000; 2090.000
468.388;  429.200; 2168.000; 2339.000
468.507;  567.200; 2884.000; 2903.000
468.626;  583.800; 2555.000; 2541.000
468.744;  371.900; 2018.000; 2174.000
468.863;  426.300; 2312.000; 2523.000
468.982;  206.900; 1503.000; 1555.000
469.101;  491.900; 2788.000; 2692.000
469.220;  353.300; 2333.000; 2176.000
469.338;  559.800; 2935.000; 3051.000
469.457;  468.500; 2719.000; 2545.000
469.576;  690.500; 3953.000; 3784.000
469.695;  547.600; 2877.000; 3066.000
469.813;  905.400; 4148.000; 4192.000
469.932;  840.000; 4255.000; 4485.000
470.051;  812.000; 4075.000; 4161.000
470.169;  881.200; 4470.000; 4338.000
470.288;  895.200; 4700.000; 4809.000
470.406; 1020.200; 5059.000; 5194.000
470.525; 1246.600; 6101.000; 5787.000
470.644; 1345.400; 6847.000; 6794.000
470.762; 1675.400; 8397.000; 7873.000
470.881; 1781.000; 8651.000; 8464.000
470.999; 2048.100; 9685.000; 9151.000
471.118; 2253.300;11174.000;10711.000

