
Integration time [ms]: 100.000
Averaging Nr. [scans]: 40
Smoothing Nr. [pixels]: 0
Data measured with spectrometer [name]: 2101012U2
Wave   ;Sample   ;Dark     ;Reference
[nm]   ;[counts] ;[counts] ;[counts] 

197.733;   56.675;  516.000;  404.000
197.879;  -78.900; -610.000; -634.000
198.025;  -43.500; -475.000; -420.000
198.171;  -65.300; -602.000; -612.000
198.317;  -23.125; -401.000; -316.000
198.463;  -61.075; -655.000; -404.000
198.609;   37.850;  181.000; -137.000
198.755;  -81.750; -644.000; -410.000
198.901;  -68.375; -505.000; -424.000
199.047;  -64.925; -615.000; -488.000
199.193;  -33.000; -230.000; -468.000
199.339;  -36.700; -222.000; -369.000
199.485;   33.850;  330.000;  271.000
199.631;   18.850;  227.000;  310.000
199.777;  -51.225; -466.000; -398.000
199.923;  -49.375; -610.000; -424.000
200.069;    9.975; -141.000;  -58.000
200.215;   64.050;  128.000;  453.000
200.361;   35.575;  243.000;  477.000
200.507;  -61.250; -600.000; -373.000
200.653;  -19.800; -371.000; -194.000
200.798;  -38.525; -215.000; -125.000
200.944;  -12.150; -146.000;  -41.000
201.090;   37.600;   61.000;  222.000
201.236;   -9.125; -116.000; -158.000
201.382;  138.575;  874.000;  903.000
201.528;    3.950;  -58.000;  -48.000
201.674;  -35.275; -386.000; -293.000
201.819;  -60.575; -540.000; -439.000
201.965;  -79.425; -699.000; -447.000
202.111;  -24.675; -273.000; -226.000
202.257;  -33.725; -250.000; -238.000
202.402;   -2.125;   13.000;  -36.000
202.548;  -32.725; -169.000; -116.000
202.694;   88.400;  410.000; -183.000
202.840;  -70.200; -603.000; -531.000
202.985;  -73.550; -681.000; -639.000
203.131; -117.025; -832.000; -666.000
203.277;  -29.100; -199.000; -262.000
203.423;  -52.025; -434.000; -520.000
203.568;  -35.475; -462.000; -237.000
203.714;  -59.125; -535.000; -542.000
203.860;  -71.775; -682.000; -641.000
204.005;   24.200;  112.000;  167.000
204.151;   86.525;  561.000;  556.000
204.296;  -36.250; -354.000; -221.000
204.442;  -69.875; -600.000; -547.000
204.588;  -75.775; -592.000; -579.000
204.733;   22.775;  178.000;  168.000
204.879; -121.700;-1018.000; -822.000
205.025;    3.425;  -99.000;  126.000
205.170;   12.425;  -17.000;   94.000
205.316;   89.925;  438.000;  661.000
205.461;  -73.550; -698.000; -554.000
205.607;   87.025;  609.000;  665.000
205.752;  -76.750; -626.000; -551.000
205.898;  -48.800; -501.000; -391.000
206.043;  -65.325; -578.000; -506.000
206.189;  -31.000; -243.000; -285.000
206.334;   66.875;  554.000;  606.000
206.480;   76.075;  409.000;  239.000
206.625;  -75.925; -529.000; -552.000
206.771;  -41.075; -451.000; -373.000
206.916;  -21.425; -210.000; -537.000
207.062;  -76.325; -545.000; -591.000
207.207;  -63.175; -546.000; -443.000
207.353;   51.075;  185.000;  460.000
207.498;   33.625;  196.000;   85.000
207.643;  -48.400; -501.000; -370.000
207.789; -123.400;-1069.000; -910.000
207.934;  -93.100; -665.000; -713.000
208.080;  -24.975; -154.000;   66.000
208.225;   -4.025;  -22.000;  -57.000
208.370;  -87.000; -727.000; -619.000
208.516;  -80.900; -741.000; -487.000
208.661;  -19.775; -127.000;  -69.000
208.806;  -24.975; -165.000; -171.000
208.952; -124.325;-1044.000; -731.000
209.097;   70.025;  378.000;  349.000
209.242;  -42.550; -307.000; -382.000
209.387;   60.475;  392.000;  350.000
209.533;  -37.275; -321.000; -350.000
209.678;   88.475;  472.000;  543.000
209.823;  -45.275; -408.000; -310.000
209.969; -107.075; -860.000; -757.000
210.114; -105.250; -907.000; -719.000
210.259; -113.075; -939.000; -889.000
210.404;  -11.450; -171.000;  103.000
210.549;    6.775;  108.000;    3.000
210.695;  -12.150;   -3.000;  -95.000
210.840;   32.650;   94.000;   67.000
210.985;  -62.975; -484.000; -303.000
211.130;   82.800;  268.000;  406.000
211.275;   32.275;  207.000;  199.000
211.420;  -47.300; -300.000; -289.000
211.566;  -61.650; -536.000; -489.000
211.711;   21.050;  218.000;  157.000
211.856;  -57.200; -545.000; -519.000
212.001;   -1.300;  151.000;   44.000
212.146;   33.275;  153.000;   49.000
212.291;  -21.775; -210.000; -186.000
212.436;  -15.125; -280.000;   -6.000
212.581;  -88.575; -685.000; -653.000
212.726;  -60.600; -487.000; -538.000
212.871;  -41.950; -552.000; -217.000
213.016; -141.500;-1172.000;-1029.000
213.161;   61.775;  406.000;  291.000
213.306;  -80.275; -435.000; -577.000
213.451; -100.325; -778.000; -689.000
213.596;  -43.375; -455.000; -347.000
213.741;  -55.550; -448.000; -538.000
213.886;  -73.525; -498.000; -517.000
214.031;  -39.475; -294.000; -124.000
214.176;  -44.050; -408.000; -341.000
214.321;  -19.625; -296.000; -157.000
214.466;  -20.075; -163.000;  -43.000
214.611;   -0.850;  -61.000;  -10.000
214.756; -123.450; -948.000; -858.000
214.901;  -19.800; -388.000; -226.000
215.046; -119.650; -797.000; -825.000
215.191;   18.575;  128.000;   35.000
215.336;  -11.275; -157.000;  -19.000
215.480;  -58.700; -684.000; -505.000
215.625;   -4.075; -175.000;  -19.000
215.770;  -91.325; -757.000; -662.000
215.915;    0.125;   -5.000;  -97.000
216.060;    1.600; -113.000;  -21.000
216.205; -107.625; -731.000; -779.000
216.349;  -62.800; -470.000; -533.000
216.494; -136.525; -939.000; -867.000
216.639; -117.250; -823.000; -888.000
216.784;  -79.600; -577.000; -525.000
216.929;   38.750;  392.000;  281.000
217.073;   -5.100; -244.000;  -31.000
217.218;   -5.775;   78.000;  -47.000
217.363;  -77.300; -656.000; -618.000
217.507;  -94.275; -623.000; -588.000
217.652; -118.750; -845.000; -874.000
217.797;  -86.125; -708.000; -659.000
217.942; -106.375; -856.000; -720.000
218.086;   85.100;  608.000;  539.000
218.231;   -6.850; -174.000;  -26.000
218.376;  -34.650; -337.000; -229.000
218.520;    2.525;  -41.000;   96.000
218.665;  -31.325; -338.000; -204.000
218.810;  -37.600; -275.000; -233.000
218.954;    7.425;  201.000;   35.000
219.099; -112.675; -713.000; -963.000
219.243;  -71.200; -589.000; -554.000
219.388;  -25.500; -264.000; -136.000
219.532;   -4.750; -116.000; -116.000
219.677;  -82.175; -564.000; -521.000
219.822;   10.850;   33.000;   89.000
219.966;   15.950;   17.000;  -99.000
220.111;  -41.500; -328.000;  -40.000
220.255;  -86.600; -797.000; -750.000
220.400;  -27.050; -180.000; -146.000
220.544;  -61.300; -516.000; -450.000
220.689;  -52.400; -422.000; -451.000
220.833;  -18.675; -123.000;  -58.000
220.978;  -49.500; -393.000; -563.000
221.122;   34.050;  319.000;  307.000
221.267; -114.575; -906.000; -837.000
221.411;  -56.425; -478.000; -394.000
221.555;  -14.600; -104.000;  -23.000
221.700;  -38.925; -329.000; -222.000
221.844;   28.850;  255.000;  272.000
221.989;  -42.400; -328.000; -311.000
222.133;  -34.075; -289.000; -307.000
222.277;    9.300;    5.000;   78.000
222.422;   15.775;  227.000;  113.000
222.566;  -41.675; -381.000; -214.000
222.711;  -60.900; -414.000; -479.000
222.855;  -74.225; -643.000; -586.000
222.999;  -90.775; -642.000; -717.000
223.144;  -32.300; -195.000; -194.000
223.288;   67.150;  423.000;  251.000
223.432;   34.350;  184.000;  230.000
223.576;   20.675;  152.000;  -21.000
223.721;   51.900;  364.000;  273.000
223.865;  -58.475; -472.000; -475.000
224.009;  276.525; 1673.000; 1631.000
224.153;  -82.675; -660.000; -671.000
224.298;  -76.200; -531.000; -489.000
224.442;  -13.125;  -74.000;  -33.000
224.586;  -10.375; -169.000; -106.000
224.730; -102.925; -858.000; -670.000
224.875; -111.450; -739.000; -688.000
225.019;   15.800;  102.000;  188.000
225.163;   56.600;  208.000;  341.000
225.307;   14.525;   97.000;  -91.000
225.451;   52.750;  360.000;  481.000
225.595;   27.900;  264.000;  176.000
225.739;  -26.550; -170.000;  -94.000
225.884;    4.125;   86.000;    5.000
226.028;  -93.200; -760.000; -626.000
226.172;  -45.425; -260.000; -273.000
226.316; -113.550; -941.000; -902.000
226.460;  -65.350; -645.000; -493.000
226.604;  -44.075; -406.000; -400.000
226.748;  -94.900; -836.000; -733.000
226.892;  -36.350; -227.000; -181.000
227.036;  -53.100; -537.000; -447.000
227.180;  -46.250; -551.000; -375.000
227.324;  -72.300; -561.000; -580.000
227.468; -120.575; -819.000; -717.000
227.612;    7.025;  242.000;  -28.000
227.756;  -94.600; -845.000; -698.000
227.900;   54.900;  342.000;  441.000
228.044;  -49.575; -509.000; -290.000
228.188;   55.250;  448.000;  568.000
228.332;  -81.425; -546.000; -472.000
228.476;  -16.800; -223.000; -149.000
228.620;  -28.350; -210.000; -150.000
228.764;   67.075;  431.000;  349.000
228.908;  -16.075; -155.000;   30.000
229.052;  -64.200; -615.000; -528.000
229.195;   -3.250; -172.000;   13.000
229.339;  -21.700; -235.000; -305.000
229.483;  -24.775;    5.000; -162.000
229.627;   -2.625; -156.000;  139.000
229.771;  -59.400; -218.000; -294.000
229.915;   23.625;  230.000;   79.000
230.059; -103.100; -648.000; -663.000
230.202;  -38.150; -370.000; -317.000
230.346;  -22.150; -107.000;  107.000
230.490;  -58.825; -489.000; -521.000
230.634; -107.975; -736.000; -553.000
230.777;   95.950;  478.000;  509.000
230.921;  -46.550; -450.000; -359.000
231.065;  -43.100; -246.000; -286.000
231.209;   35.600;  261.000;  265.000
231.352;   13.025;   54.000;   40.000
231.496;   14.425;  568.000;  188.000
231.640;  -85.850; -693.000; -621.000
231.783;   71.100;  546.000;  525.000
231.927;  -37.675; -294.000; -365.000
232.071; -123.275; -962.000; -736.000
232.214; -105.825; -980.000; -764.000
232.358;  -98.225; -683.000; -599.000
232.502;   14.100;  -19.000;    7.000
232.645; -141.075;-1090.000; -927.000
232.789;  -14.900; -257.000; -218.000
232.933;  -46.550; -407.000; -224.000
233.076; -128.075;-1038.000; -897.000
233.220; -101.125; -752.000; -777.000
233.363;  -83.825; -669.000; -477.000
233.507;   60.225;  371.000;  129.000
233.650;  -91.300; -764.000; -834.000
233.794;   52.425;  438.000;  461.000
233.938;  -55.375; -530.000; -362.000
234.081;  -13.825;  -93.000;   31.000
234.225;  -68.500; -631.000; -539.000
234.368; -112.000; -773.000; -723.000
234.512;  -34.150; -385.000; -299.000
234.655;  -83.475; -582.000; -555.000
234.798;  -73.175; -493.000; -466.000
234.942; -119.775; -884.000;-1002.000
235.085;  -78.575; -651.000; -443.000
235.229;  -76.025; -405.000; -410.000
235.372;  -51.450; -247.000; -191.000
235.516;  -52.700; -397.000; -321.000
235.659;   14.950;   92.000;  121.000
235.802;  -14.100;  -38.000;  -22.000
235.946;   20.000;  335.000;  215.000
236.089;   37.650;  126.000;  250.000
236.233;   63.875;  275.000;  298.000
236.376;  -30.725; -235.000; -378.000
236.519;  -47.900; -297.000; -319.000
236.663;  -17.800; -215.000; -117.000
236.806; -135.650;-1029.000; -999.000
236.949;   42.800;  543.000;  431.000
237.092;   62.775;  412.000;  391.000
237.236;  -97.225; -589.000; -502.000
237.379;   60.350;  352.000;  428.000
237.522; -113.675; -879.000; -768.000
237.666;  -10.450; -271.000;   18.000
237.809; -137.875; -851.000; -823.000
237.952;   30.750;  469.000;  271.000
238.095;  -63.375; -447.000; -442.000
238.238;   90.475;  688.000;  700.000
238.382;    4.100;  166.000;  103.000
238.525;  -75.900; -598.000; -511.000
238.668; -128.125;-1060.000; -985.000
238.811;  -86.750; -638.000; -643.000
238.954;  -63.150; -483.000; -334.000
239.097;   98.275;  617.000;  664.000
239.241;   31.900;  394.000;  326.000
239.384;  -40.350; -254.000; -214.000
239.527;  -71.225; -424.000; -224.000
239.670; -148.275; -994.000;-1091.000
239.813; -111.175; -696.000; -658.000
239.956;   81.600;  579.000;  473.000
240.099; -119.900; -778.000; -725.000
240.242;   65.700;  428.000;  432.000
240.385;   52.275;  466.000;  450.000
240.528;  -81.625; -706.000; -473.000
240.671;   14.650;  189.000;  134.000
240.814;  -45.250; -441.000; -158.000
240.957;  -97.675; -767.000; -578.000
241.100; -101.300; -779.000; -755.000
241.243; -137.375;-1234.000; -893.000
241.386;  -67.525; -508.000; -379.000
241.529;  -87.850; -735.000; -547.000
241.672;  -59.100; -566.000; -495.000
241.815; -115.800; -832.000; -808.000
241.958;  -22.225; -125.000; -182.000
242.101;  -79.700; -545.000; -390.000
242.244;  -43.775; -270.000; -325.000
242.387;  -41.900; -304.000; -246.000
242.530;   68.675;  470.000;  134.000
242.673;  -39.800; -381.000; -309.000
242.815; -123.650; -925.000; -899.000
242.958;  -68.575; -482.000; -381.000
243.101;   13.700;  132.000;  187.000
243.244;  -76.825; -564.000; -521.000
243.387;  -56.500; -313.000; -316.000
243.530; -103.975; -657.000; -674.000
243.672;    8.500;   43.000;  -92.000
243.815;  -51.500; -355.000; -283.000
243.958;  -11.650;   98.000;  -26.000
244.101;    0.150;   59.000;  -16.000
244.243;  -14.225;  -47.000;  101.000
244.386; -102.625; -761.000; -630.000
244.529;  -37.325; -132.000; -139.000
244.672; -156.850;-1154.000; -951.000
244.814; -101.500; -621.000; -794.000
244.957;  -66.575; -380.000; -304.000
245.100;  -67.600; -489.000; -489.000
245.242;  -59.050; -387.000; -374.000
245.385;   -9.500;  -59.000;  -39.000
245.528; -119.325; -871.000; -705.000
245.670;   99.450;  612.000;  634.000
245.813;  -81.225; -599.000; -547.000
245.956;  -48.975; -324.000; -275.000
246.098;  -72.700; -508.000; -650.000
246.241;    0.525;  194.000;   48.000
246.383;  -12.375; -119.000;  -73.000
246.526;  -74.450; -454.000; -525.000
246.669; -118.425; -889.000; -780.000
246.811;    1.650;  172.000;   -1.000
246.954;  -69.400; -512.000; -426.000
247.096;  -15.850;  -84.000;   -6.000
247.239;  -69.150; -482.000; -445.000
247.381;  -69.850; -647.000; -488.000
247.524;   78.625;  645.000;  679.000
247.666;    1.000;   58.000;   11.000
247.809; -111.575; -887.000; -691.000
247.951;   -8.100;  -75.000;  138.000
248.094;   32.200;  432.000;  308.000
248.236; -159.875;-1262.000;-1238.000
248.378;    5.500; -356.000;  -81.000
248.521;  -15.200; -334.000; -337.000
248.663;  -39.425; -236.000; -267.000
248.806;  -27.975; -300.000; -266.000
248.948;  -90.225; -886.000; -763.000
249.090;  -55.125; -428.000; -398.000
249.233;  -56.800; -344.000; -381.000
249.375;  -55.875; -474.000; -451.000
249.518;  -19.150;  -83.000; -133.000
249.660;  -20.225; -103.000;    3.000
249.802; -168.850;-1303.000;-1189.000
249.945;  -77.600; -612.000; -540.000
250.087; -114.300; -834.000; -768.000
250.229;  -47.250; -362.000; -480.000
250.371;  -69.250; -494.000; -439.000
250.514;  -45.575; -310.000; -244.000
250.656;  -59.725;   69.000;  102.000
250.798; -117.675; -849.000; -800.000
250.940;  -58.025; -322.000; -322.000
251.083;  -28.450; -335.000; -111.000
251.225;   52.450;  338.000;  310.000
251.367;  -36.175; -274.000; -373.000
251.509;  -37.550; -265.000; -210.000
251.651;  -92.575; -731.000; -671.000
251.794;   53.750;  538.000;  632.000
251.936; -101.400; -821.000; -747.000
252.078;  -81.175; -540.000; -461.000
252.220;  -66.075; -645.000; -477.000
252.362;   82.725;  344.000;  462.000
252.504;  -76.375; -677.000; -584.000
252.646; -110.675; -875.000; -722.000
252.788;   -1.300;   14.000; -128.000
252.931;  -49.625; -257.000; -253.000
253.073;  -46.625; -376.000; -317.000
253.215;   -8.925;  141.000;  122.000
253.357;  -12.025;   82.000; -153.000
253.499;  -46.100; -374.000; -234.000
253.641;  -81.650; -749.000; -594.000
253.783;  -86.375; -609.000; -527.000
253.925;  -94.050; -586.000; -591.000
254.067; -112.100; -744.000; -667.000
254.209;  -25.200; -391.000; -259.000
254.351; -138.875; -865.000; -883.000
254.493;  -66.875; -441.000; -417.000
254.635; -131.150; -936.000; -818.000
254.777;  -88.550; -752.000; -687.000
254.918;  -62.475; -512.000; -430.000
255.060;  -48.975; -551.000; -395.000
255.202;  -73.800; -473.000; -261.000
255.344;  -67.300; -658.000; -455.000
255.486;  -67.575; -471.000; -406.000
255.628; -120.425; -780.000; -781.000
255.770;  -96.700; -676.000; -536.000
255.912;  -62.950; -559.000; -468.000
256.053;  -87.550; -730.000; -508.000
256.195;  152.425; 1008.000;  903.000
256.337;  -99.175; -861.000; -595.000
256.479;   62.875;  532.000;  416.000
256.621;  -42.875; -394.000; -212.000
256.762; -102.400; -789.000; -742.000
256.904;   52.550;  485.000;  487.000
257.046;  -49.075; -381.000; -271.000
257.188;  -55.550; -351.000; -264.000
257.329;  -83.950; -525.000; -464.000
257.471; -117.625; -939.000; -807.000
257.613;  -70.500; -584.000; -498.000
257.755; -134.300;-1073.000; -982.000
257.896;   24.400;  286.000;  392.000
258.038;  -73.350; -403.000; -352.000
258.180;  -42.400; -354.000; -279.000
258.321;  -79.200; -581.000; -457.000
258.463;   -0.650;  -71.000;  133.000
258.605;  -90.900; -562.000; -570.000
258.746; -100.500; -886.000; -772.000
258.888; -157.950;-1026.000;-1020.000
259.029;   19.850;  121.000;   -8.000
259.171;  -84.625; -614.000; -550.000
259.313;  -10.450;  -49.000;  -47.000
259.454;  -74.275; -536.000; -414.000
259.596;  -61.700; -483.000; -390.000
259.737;  -74.350; -590.000; -474.000
259.879;   31.600;  217.000;  311.000
260.020;   93.275;  901.000;  636.000
260.162;  -26.075; -146.000; -253.000
260.303; -122.750; -768.000; -687.000
260.445;  -83.275; -609.000; -613.000
260.586;   29.250;  392.000;  157.000
260.728;  -57.725; -360.000; -248.000
260.869; -105.750; -350.000; -343.000
261.011;   89.750;  706.000;  537.000
261.152;  -51.450; -479.000; -319.000
261.293;  -73.625; -576.000; -595.000
261.435;  -23.300; -219.000; -184.000
261.576;  -44.625; -455.000; -325.000
261.718;   61.200;  420.000;  470.000
261.859; -125.375; -940.000; -949.000
262.000; -125.000; -951.000;-1016.000
262.142;  -34.825;  -52.000;  -60.000
262.283; -114.175; -808.000; -691.000
262.424;  -89.825; -666.000; -625.000
262.566; -153.025;-1161.000; -983.000
262.707; -104.900; -840.000; -830.000
262.848; -125.000; -769.000; -726.000
262.990;  -59.250; -362.000; -345.000
263.131;   89.925;  650.000;  681.000
263.272;    3.750;  -61.000;  -41.000
263.413;  -92.950; -589.000; -561.000
263.555;  -77.125; -669.000; -143.000
263.696;  -86.525; -550.000; -641.000
263.837;  -59.200; -449.000; -551.000
263.978;    5.675;   -5.000;  -77.000
264.119;  -47.275; -283.000; -264.000
264.261; -108.125; -847.000; -630.000
264.402;   -0.450;   33.000;   40.000
264.543;  -73.950; -509.000; -524.000
264.684;   -4.600;   61.000;  -50.000
264.825;  -65.925; -816.000; -538.000
264.966;  -14.100;  -84.000;  -67.000
265.107; -106.425; -646.000; -670.000
265.248; -119.450; -825.000; -812.000
265.390;   -5.300;  152.000;   -9.000
265.531;  -12.550; -238.000; -107.000
265.672;  -87.400; -557.000; -630.000
265.813;   60.850;  563.000;  439.000
265.954; -131.325; -959.000; -940.000
266.095;  -20.000; -372.000; -322.000
266.236;  -96.025; -686.000; -548.000
266.377;  -40.225; -243.000; -297.000
266.518;  -77.250; -619.000; -547.000
266.659;   23.325;  170.000;  268.000
266.800;   -1.925;   83.000;   85.000
266.941;  -76.025; -487.000; -478.000
267.082;   39.250;  354.000;   99.000
267.223;  -53.575; -344.000; -273.000
267.364; -121.975; -892.000; -686.000
267.504;  -13.050;    3.000;  135.000
267.645;   -5.775;  160.000;   67.000
267.786;  -28.900; -147.000;  -86.000
267.927;  -76.825; -473.000; -379.000
268.068;  -22.625; -186.000;  -61.000
268.209;  -49.175; -175.000; -413.000
268.350;  -66.900; -388.000; -532.000
268.490;  -82.000; -648.000; -521.000
268.631;   39.750;  127.000;  225.000
268.772; -102.200; -874.000; -647.000
268.913;  -59.325; -328.000; -476.000
269.054;   -9.575; -117.000;   12.000
269.194;  -45.525; -418.000; -402.000
269.335; -141.625;-1137.000;-1074.000
269.476;  -17.125;   33.000;  -35.000
269.617;  -37.850; -347.000; -392.000
269.757;  -95.275; -713.000; -646.000
269.898; -102.550; -856.000; -613.000
270.039;  -67.200; -415.000; -405.000
270.180; -141.075; -952.000; -816.000
270.320;  -19.725; -190.000; -250.000
270.461;  -41.950; -277.000; -249.000
270.602;  -24.375; -186.000; -156.000
270.742; -123.000; -868.000; -943.000
270.883;  -53.900; -442.000; -390.000
271.023;  -59.475; -358.000; -357.000
271.164;  -87.125; -607.000; -528.000
271.305; -103.025; -666.000; -654.000
271.445; -101.950; -722.000; -683.000
271.586;  -68.925; -462.000; -283.000
271.726;  -55.600; -397.000; -322.000
271.867;  -71.350; -594.000; -534.000
272.008;  143.750; -473.000; -285.000
272.148;  115.875;  462.000;  468.000
272.289;    9.900; -113.000; -181.000
272.429;   15.700;   19.000;  185.000
272.570;  -99.125; -633.000; -737.000
272.710;  -94.425; -825.000; -775.000
272.851;  -34.675;  113.000; -130.000
272.991; -162.875;-1173.000;-1077.000
273.131;  -80.375; -419.000; -459.000
273.272;  -96.050; -683.000; -723.000
273.412;   11.200; -143.000;  -31.000
273.553;  -66.550; -488.000; -507.000
273.693;  135.775;  913.000;  858.000
273.834;  -96.275; -894.000; -692.000
273.974;  -79.675; -664.000; -615.000
274.114; -108.650; -772.000; -560.000
274.255;   87.900;  414.000;  373.000
274.395;    0.525; -180.000; -125.000
274.535;   44.800;  199.000;  350.000
274.676;   27.900;  225.000;   94.000
274.816;  -13.500;  110.000;   34.000
274.956;  -86.250; -624.000; -690.000
275.097;  -79.550;-1014.000; -922.000
275.237; -119.425; -913.000; -803.000
275.377; -102.625; -778.000; -689.000
275.517; -153.850; -878.000; -937.000
275.658;  -44.575; -590.000; -555.000
275.798;  -68.425; -606.000; -413.000
275.938;   19.200;  215.000;  323.000
276.078;  -97.500; -626.000; -395.000
276.218;    1.225;   99.000;  104.000
276.359; -129.875;-1026.000;-1024.000
276.499;  -72.950; -605.000; -446.000
276.639;  -37.525; -305.000; -151.000
276.779;  -51.250; -475.000; -357.000
276.919; -100.875; -783.000; -624.000
277.059;  -21.050; -261.000; -212.000
277.199;  -42.725; -357.000; -259.000
277.340;   53.050;  287.000;  175.000
277.480; -106.750; -840.000; -693.000
277.620;   22.425;  192.000;   16.000
277.760; -196.250;-1533.000;-1294.000
277.900;   14.200;  113.000;   33.000
278.040;   17.850;  137.000;  159.000
278.180;   30.825;  270.000;  170.000
278.320;    2.025;   21.000;   56.000
278.460;  -63.300; -443.000; -469.000
278.600;  -90.150; -708.000; -598.000
278.740;   48.975;  448.000;  224.000
278.880;  -63.450; -768.000; -791.000
279.020;  -12.975; -194.000; -144.000
279.160;  -93.525; -672.000; -595.000
279.300; -122.325; -926.000; -873.000
279.440;  -92.525; -709.000; -622.000
279.579;  -33.625;-1014.000; -929.000
279.719;  -51.200; -410.000; -394.000
279.859;   68.950;   -4.000;   41.000
279.999;   16.825; -208.000;  101.000
280.139;  -21.400; -435.000; -387.000
280.279;  -87.325; -708.000; -745.000
280.419;  -10.050; -229.000; -147.000
280.559;  -26.650; -259.000; -180.000
280.698;  -87.075; -790.000; -639.000
280.838; -114.750; -778.000; -800.000
280.978;  -93.875; -846.000; -790.000
281.118; -102.075; -811.000; -704.000
281.257;    2.850;   24.000;    6.000
281.397; -120.025;-1094.000; -960.000
281.537;  -98.925; -599.000; -712.000
281.677;  -21.875; -150.000; -101.000
281.816; -104.475; -700.000; -630.000
281.956;  -35.950; -193.000; -257.000
282.096;  -74.000; -539.000; -396.000
282.235;  -99.750; -672.000; -638.000
282.375;  -30.550; -243.000;  -98.000
282.515; -105.200; -715.000; -707.000
282.654;   20.225;   29.000;  106.000
282.794;   29.225;  388.000;  244.000
282.934;  -65.000; -530.000; -491.000
283.073; -142.700;-1030.000; -857.000
283.213;  -65.925; -460.000; -467.000
283.353;  -33.475; -408.000; -349.000
283.492;  -32.300; -264.000; -296.000
283.632;  -52.450; -254.000; -168.000
283.771;  -92.675; -859.000; -730.000
283.911;  -62.000; -369.000; -260.000
284.050; -122.850; -794.000; -748.000
284.190; -166.800;-1229.000;-1096.000
284.329; -143.375;-1055.000; -964.000
284.469;  -67.350; -516.000; -591.000
284.608;  -58.675; -559.000; -598.000
284.748;  -84.525; -614.000; -570.000
284.887;   -8.275;  -87.000;  -20.000
285.027; -135.825; -844.000; -892.000
285.166;  -33.250; -192.000; -249.000
285.306;   -1.975; -116.000;  -33.000
285.445;  -49.775; -229.000; -343.000
285.584;  -88.700; -630.000; -494.000
285.724;  -50.800; -282.000; -322.000
285.863; -108.675; -857.000; -507.000
286.002;  -51.425; -366.000; -276.000
286.142; -103.225; -715.000; -622.000
286.281;  -77.325; -525.000; -493.000
286.420;  -83.125; -554.000; -417.000
286.560;   85.225;  653.000;  623.000
286.699; -136.875; -958.000; -912.000
286.838;  -96.325; -590.000; -591.000
286.978; -101.650; -533.000; -537.000
287.117; -142.625;-1085.000; -950.000
287.256;  -33.275; -228.000; -211.000
287.395;  -62.700; -197.000; -378.000
287.535;  -48.750; -370.000; -298.000
287.674;  -92.850; -509.000; -484.000
287.813;   57.500;  661.000;  533.000
287.952; -136.900;-1010.000; -871.000
288.091; -157.500;-1049.000; -915.000
288.231;    4.250;   13.000;   15.000
288.370; -172.450;-1217.000;-1200.000
288.509;  -99.025; -728.000; -645.000
288.648;  -82.550; -770.000; -548.000
288.787;  -47.250; -243.000;  -87.000
288.926;  -71.150; -454.000; -475.000
289.065;  117.850;  859.000;  672.000
289.204;  -53.825; -377.000; -217.000
289.344; -103.825; -791.000; -690.000
289.483;   44.500;  416.000;  304.000
289.622;  -27.075; -291.000; -149.000
289.761;  -14.750; -309.000; -166.000
289.900; -112.425; -785.000; -626.000
290.039;  -22.125;  -12.000;  -95.000
290.178;  -39.125; -274.000; -180.000
290.317;  -73.600; -618.000; -479.000
290.456;  -78.475; -463.000; -451.000
290.595; -131.625; -961.000; -833.000
290.734; -149.050; -904.000; -891.000
290.873;  -73.100; -456.000; -420.000
291.011; -118.725; -833.000; -843.000
291.150; -106.100; -770.000; -682.000
291.289;  -18.425; -343.000; -110.000
291.428;  -97.800; -599.000; -480.000
291.567;  -52.650; -370.000; -442.000
291.706;   -2.600;  109.000;  154.000
291.845;  -90.125; -597.000; -505.000
291.984; -160.175;-1234.000;-1061.000
292.122;   76.725;  602.000;  582.000
292.261;   43.975;  620.000;  463.000
292.400;    3.100; -144.000;  211.000
292.539; -135.100; -959.000; -813.000
292.678;  -38.825; -325.000; -300.000
292.816; -162.225;-1136.000; -965.000
292.955;  -94.750; -844.000; -684.000
293.094;  -26.350; -173.000; -337.000
293.233;  -57.650; -556.000; -400.000
293.371;  -32.575; -225.000;  -84.000
293.510; -103.425; -866.000; -780.000
293.649; -124.900; -959.000; -924.000
293.787;  -79.525;-1083.000;-1012.000
293.926;  -14.925; -113.000;  -32.000
294.065;  -54.825; -379.000; -290.000
294.203;   39.100;  298.000;  406.000
294.342;   10.500;   74.000;  156.000
294.481; 5982.525;51180.000; -836.000
294.619;  -35.475; -425.000; -582.000
294.758; -160.375;-1230.000;-1137.000
294.896;   58.950; -125.000;    5.000
295.035; -123.775;-1040.000;-1006.000
295.174; -133.000;-1082.000; -954.000
295.312;  -49.350; -323.000; -203.000
295.451;  -24.600; -307.000; -428.000
295.589;  -62.125; -389.000; -518.000
295.728;   13.525; -292.000; -165.000
295.866;   -3.325;  -36.000;  -51.000
296.005;  -59.175; -584.000; -341.000
296.143;  -59.925; -558.000; -596.000
296.282; -112.200; -957.000; -881.000
296.420;  -93.725; -657.000; -557.000
296.559;  -94.400; -892.000; -633.000
296.697;   -0.750; -847.000; -665.000
296.835;    6.475;-1141.000;-1002.000
296.974;   39.800;  -23.000;   39.000
297.112;    2.750; -443.000; -504.000
297.251;  -74.025; -815.000; -755.000
297.389;   67.050; -576.000; -438.000
297.527;   34.300; -145.000;  -83.000
297.666;  -68.200; -486.000; -438.000
297.804;  -54.125; -404.000; -264.000
297.942;   -6.250; -136.000; -161.000
298.081;   -1.000; -183.000;   63.000
298.219;   52.300;  -17.000;  -19.000
298.357;   36.200; -144.000;  -71.000
298.495;   14.400; -810.000; -812.000
298.634;   61.125;  245.000;  219.000
298.772;   23.850; -220.000; -338.000
298.910;  -46.875; -309.000; -182.000
299.048;  -18.125; -130.000; -153.000
299.187;  -30.400; -350.000; -250.000
299.325;   -3.500;   52.000;  122.000
299.463;   31.100; -389.000; -299.000
299.601;   82.500; -327.000; -271.000
299.739;  -95.800; -908.000; -883.000
299.877;  -92.625; -791.000; -703.000
300.016;  -73.050;-1095.000; -935.000
300.154;  123.025;  -19.000; -161.000
300.292;   32.900; -428.000; -348.000
300.430;    8.675; -408.000; -291.000
300.568; -110.250; -940.000; -874.000
300.706;  -61.800; -366.000; -469.000
300.844;  -99.675;-1108.000; -979.000
300.982;   91.925;  246.000;  282.000
301.120; -108.800; -965.000; -866.000
301.258;  -80.050; -812.000; -705.000
301.396;   24.150;  104.000;  -41.000
301.534;   48.675; -218.000; -293.000
301.672;  -22.375; -664.000; -521.000
301.810;   -0.175; -613.000; -545.000
301.948;   84.975;   53.000;  149.000
302.086;  514.725; -250.000;  -32.000
302.224;  791.750; -610.000; -585.000
302.362;    3.400; -558.000; -622.000
302.500;  -69.775; -923.000; -893.000
302.638;   87.875;  128.000;  245.000
302.776;   -4.700; -352.000; -408.000
302.913;   42.100;  447.000;  236.000
303.051;   -0.250;  -86.000;  -23.000
303.189;   37.800;   90.000;  118.000
303.327;  -42.075; -341.000; -256.000
303.465;  -88.750; -832.000; -588.000
303.603;  -99.025; -805.000; -604.000
303.740;  101.625;  417.000;  241.000
303.878;   -8.400; -800.000; -759.000
304.016;  -96.800; -915.000; -790.000
304.154; -132.200;-1123.000;-1152.000
304.291;  -47.350; -505.000; -554.000
304.429;    1.375;  102.000;   74.000
304.567; -128.450; -908.000; -893.000
304.705;  -56.175; -408.000; -515.000
304.842;   68.200; -616.000; -540.000
304.980;   44.950;  215.000;   35.000
305.118;   19.025; -367.000; -365.000
305.255;  -87.175; -945.000; -927.000
305.393;   53.350;  178.000;  239.000
305.531; -126.100;-1173.000; -956.000
305.668;  -74.750; -663.000; -582.000
305.806;   86.550; -358.000; -439.000
305.943;   76.400; -629.000; -637.000
306.081;   46.475; -378.000; -267.000
306.219; -103.675; -863.000; -748.000
306.356;    9.325;  158.000;   27.000
306.494;  101.575;  981.000;  761.000
306.631;   -3.025;  -11.000;  -55.000
306.769;  -13.725; -613.000; -485.000
306.906;  -37.050; -284.000; -258.000
307.044;  -64.600; -473.000; -488.000
307.181;  -61.525; -410.000; -332.000
307.319;   -7.375;  112.000;   87.000
307.456; -178.175;-1191.000;-1153.000
307.594; -113.525; -980.000; -727.000
307.731;  -12.525; -371.000; -164.000
307.868;  -13.450;  -15.000;   20.000
308.006; -129.950; -961.000; -847.000
308.143;  -62.525; -618.000; -330.000
308.281;  104.175;  -37.000; -254.000
308.418;  -33.875; -748.000; -640.000
308.555;  -74.725; -400.000; -250.000
308.693;  -83.300; -577.000; -573.000
308.830; -115.400; -712.000; -657.000
308.967;  -26.425; -215.000;  -95.000
309.105;  -53.925; -507.000; -396.000
309.242;   11.000; -468.000; -367.000
309.379;  196.025; -577.000; -655.000
309.517;  -77.475; -936.000; -948.000
309.654; -107.250; -910.000; -734.000
309.791;  -78.875; -662.000; -580.000
309.928; -123.775; -977.000; -914.000
310.065;  162.750;  819.000;  697.000
310.203;  -34.500; -825.000; -850.000
310.340;  -32.400; -465.000; -321.000
310.477;  -77.175; -412.000; -516.000
310.614;  -82.975; -383.000; -473.000
310.751;  -74.100; -427.000; -518.000
310.889;  -12.850;    1.000;   11.000
311.026; -147.225;-1161.000; -939.000
311.163;  -52.175; -386.000; -380.000
311.300;  -86.875; -512.000; -479.000
311.437;  -87.050; -658.000; -619.000
311.574; -152.050;-1226.000; -985.000
311.711;  -73.050; -595.000; -433.000
311.848;  -39.425; -380.000; -388.000
311.985;    1.625;  270.000;   93.000
312.122; -120.775; -932.000; -762.000
312.259; -131.375; -941.000; -994.000
312.396;  -96.200; -508.000; -551.000
312.533;  -92.275; -812.000; -790.000
312.670; -133.300;-1070.000; -898.000
312.807;  -45.575; -352.000; -367.000
312.944;  -91.300; -513.000; -611.000
313.081;  -40.075; -150.000; -415.000
313.218; -117.025;-1111.000; -867.000
313.355;  -12.550; -531.000; -449.000
313.492;   -3.975; -455.000; -292.000
313.629;  122.400;  815.000;  735.000
313.766; -150.600;-1176.000;-1008.000
313.902;  -18.050; -186.000;   21.000
314.039;  -40.450; -372.000; -289.000
314.176;   31.600;  286.000;  192.000
314.313;  -72.725; -569.000; -473.000
314.450;  -92.050; -788.000; -684.000
314.587;  -56.575; -468.000; -480.000
314.723;    3.450;  -78.000;  130.000
314.860;   28.075;  318.000;  332.000
314.997;   23.150;  223.000;  142.000
315.134;  -49.625; -385.000; -368.000
315.270;  -33.825; -480.000; -496.000
315.407; -128.675;-1094.000; -967.000
315.544;  -64.475; -657.000; -538.000
315.681;  -72.125; -681.000; -565.000
315.817;   28.850; -133.000; -176.000
315.954;   -9.325; -613.000; -392.000
316.091; -132.500;-1045.000;-1023.000
316.227;  -29.050;  -71.000; -179.000
316.364;  -23.825;   23.000;    6.000
316.500;  -41.150; -113.000; -300.000
316.637;  -32.150; -181.000; -302.000
316.774;  -82.050; -625.000; -358.000
316.910;  -82.700; -598.000; -629.000
317.047;  -67.900; -487.000; -351.000
317.183;  -56.325; -435.000; -566.000
317.320;  -21.725; -367.000; -321.000
317.456;  -69.025; -733.000; -805.000
317.593;  -92.475; -598.000; -641.000
317.729;   -2.550;  168.000;  -67.000
317.866; -194.775;-1434.000;-1285.000
318.002;  -93.700; -708.000; -948.000
318.139; -103.425; -883.000; -867.000
318.275; -123.425;-1003.000; -738.000
318.412;  -62.575; -517.000; -336.000
318.548;  -45.125; -751.000; -720.000
318.685; -104.550; -985.000; -888.000
318.821;  -99.550; -762.000; -735.000
318.957;  -30.650;   34.000;  -23.000
319.094;   32.550;  297.000;  154.000
319.230;  -64.100; -756.000; -742.000
319.367;   83.525; -471.000; -520.000
319.503;   34.200; -538.000; -436.000
319.639;  -93.675; -877.000; -793.000
319.775;  -73.175; -750.000; -685.000
319.912;  -56.775; -424.000; -519.000
320.048;  -98.550;-1184.000;-1184.000
320.184;   57.750;   59.000;   70.000
320.321;  -70.775; -497.000; -467.000
320.457;   70.200;  475.000;  662.000
320.593;  -53.300; -375.000; -382.000
320.729; -113.550; -732.000; -734.000
320.866;  -76.150; -577.000; -635.000
321.002; -103.350; -759.000; -809.000
321.138;  -16.325; -135.000; -211.000
321.274;   59.825; -148.000; -115.000
321.410;  -44.575; -585.000; -353.000
321.546;  -57.075;-1011.000; -911.000
321.683;   60.225;  400.000;  185.000
321.819;    3.800;  -48.000; -117.000
321.955; -123.225; -743.000; -722.000
322.091;  -52.475; -585.000; -540.000
322.227;   -5.850; -382.000; -202.000
322.363;  -31.100; -320.000; -215.000
322.499;  -45.000; -343.000; -331.000
322.635;  141.100;  636.000;  443.000
322.771;    8.750; -139.000;   12.000
322.907;   80.800;  129.000;  327.000
323.043;  -31.825; -115.000; -206.000
323.179;  -43.000; -394.000; -363.000
323.315;   -3.000; -401.000; -371.000
323.451;   53.375; -328.000; -236.000
323.587;   47.150;  -60.000;  -77.000
323.723;   -6.650; -682.000; -601.000
323.859;  -16.550; -258.000;  -76.000
323.995;  -30.525; -467.000; -409.000
324.131; -137.025; -967.000; -892.000
324.267;  -48.550; -254.000; -276.000
324.402; -137.825; -960.000; -983.000
324.538;  -27.025; -279.000; -104.000
324.674;   21.000;  164.000;   77.000
324.810;   94.450;  226.000;  308.000
324.946;  -19.800; -810.000; -658.000
325.082;  -68.875; -568.000; -475.000
325.217;  -14.050;  -62.000;   16.000
325.353; -107.700; -764.000; -659.000
325.489; -101.275; -540.000; -506.000
325.625;  -78.725; -579.000; -525.000
325.760;   56.600;  517.000;  376.000
325.896;  -33.725; -515.000; -702.000
326.032;  -43.975; -403.000; -352.000
326.168;  -75.675; -462.000; -369.000
326.303;  -62.550; -352.000; -461.000
326.439;  -10.275; -336.000; -276.000
326.575;    4.900; -190.000;  -29.000
326.710;  -13.275; -156.000;  -30.000
326.846;   -7.675;  146.000;  103.000
326.982;  -97.950; -530.000; -548.000
327.117;  -82.225; -481.000; -442.000
327.253;  -86.425; -745.000; -742.000
327.388; -145.650;-1137.000;-1153.000
327.524;  -61.525; -811.000; -578.000
327.659;  -26.550;  -58.000;  -22.000
327.795;   -4.700;   69.000;   45.000
327.931;  -88.925; -723.000; -499.000
328.066;  -25.700; -417.000; -276.000
328.202;  -19.750;   12.000; -129.000
328.337;   95.175;  957.000;  713.000
328.473;   49.700;  -12.000;  -74.000
328.608;  -22.700; -256.000; -267.000
328.743;  -95.150; -799.000; -664.000
328.879;   11.625;  214.000;  114.000
329.014;  -43.850; -102.000; -122.000
329.150;  -84.700; -358.000; -483.000
329.285;  -82.175; -465.000; -466.000
329.421;  -51.775; -548.000; -246.000
329.556;  -21.425;  -36.000;   85.000
329.691;  -94.300; -633.000; -615.000
329.827;  -88.850; -626.000; -480.000
329.962;  -50.825;  131.000; -301.000
330.097;  -83.350; -673.000; -585.000
330.233;  -51.525; -410.000; -223.000
330.368; -124.000; -839.000; -628.000
330.503;  -22.675;    3.000;   98.000
330.638;    3.825;  -93.000; -125.000
330.774;  -65.375; -609.000; -530.000
330.909;  -49.000; -434.000; -244.000
331.044; -104.475; -714.000; -708.000
331.179; -181.800;-1217.000;-1109.000
331.315;    1.825;   77.000;   20.000
331.450;   14.150;  157.000;  285.000
331.585;  -99.225; -805.000; -706.000
331.720;  -85.225; -510.000; -460.000
331.855;  -13.850;  -35.000; -102.000
331.990;  241.400;   62.000;  138.000
332.126;  135.775; -110.000;   71.000
332.261;  -26.250; -379.000; -265.000
332.396;    1.750; -135.000; -242.000
332.531;  -94.375;-1074.000;-1031.000
332.666;   38.100; -519.000; -363.000
332.801;  -99.275; -726.000; -807.000
332.936;  -22.925; -192.000; -122.000
333.071; -147.150; -870.000; -817.000
333.206;    9.700;  307.000;  379.000
333.341;   31.325;  344.000;  418.000
333.476;  -92.900; -627.000; -623.000
333.611;  -46.400; -251.000; -173.000
333.746;  -57.000; -381.000; -464.000
333.881; -124.425; -973.000; -935.000
334.016; -126.375; -936.000; -917.000
334.151; -133.575; -746.000; -702.000
334.286;   10.550;  152.000;  186.000
334.421;  -12.575; -125.000; -178.000
334.556;  -76.600; -611.000; -567.000
334.690;  -88.300; -631.000; -577.000
334.825;   47.075;  381.000;   83.000
334.960;  -54.025; -285.000; -413.000
335.095;    0.175;  135.000;  -91.000
335.230; -113.800; -722.000; -738.000
335.365; -136.025;-1084.000; -990.000
335.499; -143.300;-1108.000;-1037.000
335.634;    0.025;    9.000;  534.000
335.769; -102.325; -755.000; -720.000
335.904;  -76.375; -603.000; -561.000
336.038;  -81.800; -735.000; -657.000
336.173; -127.700;-1206.000;-1194.000
336.308;   -5.200; -116.000; -189.000
336.443;  -12.675; -544.000; -634.000
336.577;  -84.100; -936.000; -787.000
336.712;   57.500;   -4.000;  -12.000
336.847;  -36.475; -724.000; -607.000
336.981;   51.300; -272.000; -208.000
337.116;  240.325;  615.000;  501.000
337.250;  115.150; -434.000; -421.000
337.385;  259.350; -297.000; -208.000
337.520;  105.950; -632.000; -603.000
337.654;  -38.850; -215.000; -126.000
337.789; -142.875; -989.000; -933.000
337.923;  -42.025; -104.000; -205.000
338.058;  -99.500; -673.000; -738.000
338.192;  -41.525; -611.000; -488.000
338.327;  -24.175;  -18.000; -155.000
338.461;  -81.775; -299.000; -469.000
338.596;  -96.600; -780.000; -638.000
338.730; -102.350; -767.000; -803.000
338.865;   95.650;  -46.000; -140.000
338.999;  -57.275; -846.000; -702.000
339.134;  -32.300; -634.000; -536.000
339.268;    4.875; -741.000; -603.000
339.403;  350.450; -740.000; -775.000
339.537;  128.650; -894.000; -820.000
339.671; -127.625; -829.000; -813.000
339.806;  -51.800; -556.000; -512.000
339.940;   20.275; -261.000; -235.000
340.074; -102.825; -685.000; -510.000
340.209;  -45.800; -351.000; -230.000
340.343;  -99.300; -517.000; -573.000
340.477;  140.000;  998.000; 1036.000
340.612;  -30.200;-1033.000; -900.000
340.746;  149.250; -199.000; -243.000
340.880;  -85.975; -924.000; -785.000
341.014;  -31.825;  -45.000; -154.000
341.149; -121.450; -756.000; -718.000
341.283; -115.825; -839.000; -754.000
341.417; -110.625;-1124.000; -938.000
341.551;   81.100; -768.000; -708.000
341.685;  -55.025; -633.000; -611.000
341.820;  -52.000; -562.000; -493.000
341.954;  -59.125; -218.000; -349.000
342.088; -158.125;-1102.000;-1019.000
342.222;   58.525;  565.000;  618.000
342.356;  -62.050; -395.000; -335.000
342.490;  -95.850; -880.000; -841.000
342.624;  -49.175; -339.000; -242.000
342.758;  -22.250; -364.000; -312.000
342.892;  -77.500; -710.000; -585.000
343.026;  -43.150;  -58.000; -116.000
343.160;  -62.275; -426.000; -376.000
343.294;  -78.825; -474.000; -337.000
343.428;  -35.850; -488.000; -448.000
343.562;  -10.300; -172.000;  -23.000
343.696;  -38.375; -385.000; -314.000
343.830;  -29.075; -362.000; -356.000
343.964;   -6.650; -231.000; -168.000
344.098;  757.100;  199.000;   70.000
344.232;  646.375; -266.000; -127.000
344.366;   65.500; -567.000; -453.000
344.500;   26.575; -665.000; -744.000
344.634;   12.500; -324.000; -164.000
344.768;  -41.800; -531.000; -341.000
344.902;   16.725;  278.000;  256.000
345.035;  -88.275; -556.000; -496.000
345.169; -128.975; -933.000; -656.000
345.303;  -72.600; -308.000; -482.000
345.437;  -78.075; -826.000; -717.000
345.571;  -78.375; -675.000; -594.000
345.704;  -65.650; -309.000; -532.000
345.838;  -16.225; -331.000; -284.000
345.972;  -49.325; -543.000; -495.000
346.106;  165.250; -179.000; -190.000
346.239;  382.375; -312.000; -243.000
346.373;    1.125; -343.000; -302.000
346.507; -142.025; -950.000; -962.000
346.640;   97.625;  -30.000;   13.000
346.774;  -69.725; -650.000; -797.000
346.908;  -36.875; -138.000;  -11.000
347.041; -114.275; -646.000; -593.000
347.175;    9.675;  259.000;   27.000
347.309;  -79.000; -698.000; -628.000
347.442; -119.550; -883.000; -732.000
347.576;  246.525;  670.000;  668.000
347.709;  157.975; -123.000;  -52.000
347.843; -112.750; -933.000; -825.000
347.976;   42.900;  235.000;  294.000
348.110; -176.375;-1268.000;-1186.000
348.243; -122.650; -679.000; -772.000
348.377;   -6.250;  -26.000;   60.000
348.510;   46.275;  403.000;  540.000
348.644;  -35.900;  -37.000; -159.000
348.777;    2.875;  180.000;  191.000
348.911;  -49.200; -142.000; -112.000
349.044;  161.575;  471.000;  448.000
349.178;   97.200;-1069.000;-1006.000
349.311;  101.075;  141.000;  255.000
349.444;  -11.975; -927.000; -813.000
349.578;  -28.325; -347.000; -200.000
349.711; -111.450; -959.000; -862.000
349.845;  -10.025; -661.000; -591.000
349.978; -146.300;-1224.000;-1137.000
350.111;  -82.575; -546.000; -612.000
350.244;  -90.225; -596.000; -700.000
350.378;  -19.300; -392.000; -393.000
350.511;  -68.350; -393.000; -426.000
350.644; -110.700; -808.000; -806.000
350.778;   18.350;  168.000;  104.000
350.911;   -4.850;  134.000;  140.000
351.044; -101.700; -685.000; -615.000
351.177;  -26.925; -321.000; -281.000
351.310;  -25.650;    3.000; -131.000
351.444;  -92.925; -888.000; -788.000
351.577;   92.000;  140.000;   90.000
351.710;   96.050;  593.000;  417.000
351.843;  -41.025; -165.000;  -77.000
351.976;  -14.900;  149.000;  -79.000
352.109;  -98.625; -621.000; -612.000
352.242;  -45.050; -464.000; -419.000
352.376;  -81.650; -580.000; -636.000
352.509;  109.350; -437.000; -356.000
352.642;  -21.625; -654.000; -604.000
352.775;   44.325; -141.000;  -98.000
352.908; -103.375; -933.000; -904.000
353.041; -106.500; -814.000; -824.000
353.174;  -73.900; -551.000; -424.000
353.307;  -79.075; -753.000; -764.000
353.440;   59.725;  541.000;  453.000
353.573; -115.000; -957.000;-1008.000
353.706;  -70.650; -384.000; -558.000
353.839;  -31.475; -264.000; -220.000
353.971;  -97.550; -657.000; -512.000
354.104; -103.050; -896.000; -835.000
354.237;  -53.750; -627.000; -662.000
354.370; -105.250; -846.000; -879.000
354.503; -188.875;-1231.000;-1308.000
354.636;  -40.425; -529.000; -348.000
354.769; -136.550; -937.000; -860.000
354.902;  -20.275; -230.000; -139.000
355.034;  -10.625; -164.000; -220.000
355.167;  -20.800; -262.000; -162.000
355.300;  -99.250;-1061.000; -880.000
355.433;  971.650;  -71.000;  -14.000
355.565; 1544.475; -402.000; -384.000
355.698;  401.300; -356.000; -296.000
355.831;  -15.075; -882.000; -801.000
355.964;   45.700; -285.000; -170.000
356.096;  -99.925; -856.000; -843.000
356.229;  -18.075; -523.000; -530.000
356.362;  328.175; -373.000; -266.000
356.494;  614.725; -229.000; -162.000
356.627;  413.275;  269.000;  377.000
356.760;  662.825;  120.000;   53.000
356.892;  980.300; -286.000; -601.000
357.025;  571.825;  403.000;  389.000
357.157;  499.525; -167.000; -179.000
357.290;  715.425; -856.000; -713.000
357.423;  197.075; -667.000; -556.000
357.555;   87.450; -217.000; -228.000
357.688;   90.850; -483.000; -364.000
357.820;  361.375; -870.000; -877.000
357.953; 3344.050; -563.000; -589.000
358.085;  668.025; -632.000; -612.000
358.218;  857.225;-1131.000; -932.000
358.350;  156.250;  -58.000;  312.000
358.483; -141.825;-1300.000;-1187.000
358.615;  -52.425;-1182.000;-1078.000
358.747;  -92.275;-1187.000;-1058.000
358.880;  -16.300; -810.000; -744.000
359.012;   -7.325; -376.000; -202.000
359.145;  -47.575; -480.000; -511.000
359.277;   38.125; -962.000; -913.000
359.409; 2692.525;  536.000;  231.000
359.542;  679.800; -738.000; -688.000
359.674;   39.825;   46.000;   13.000
359.806;  -58.675; -565.000; -438.000
359.939;  -45.375; -617.000; -516.000
360.071;   -0.050; -583.000; -579.000
360.203;  -25.800; -411.000; -364.000
360.335;   36.050;  164.000;  -16.000
360.468;  168.050; -249.000; -307.000
360.600; 2240.325; -547.000; -454.000
360.732; 2953.425; -546.000; -423.000
360.864;  383.200;-1216.000;-1044.000
360.996;  199.950; -516.000; -554.000
361.129;   14.000; -389.000; -598.000
361.261;   22.075;  110.000; -113.000
361.393;  -38.700; -252.000; -214.000
361.525;   24.725;   94.000;  244.000
361.657;  -60.125; -821.000; -703.000
361.789;  -12.400; -139.000; -155.000
361.921;  150.300; -642.000; -593.000
362.053;  206.075;  524.000;  541.000
362.185;   24.725;  288.000;   72.000
362.318;  -99.625; -709.000; -705.000
362.450;   85.075;  294.000;  444.000
362.582;   26.275; -913.000; -870.000
362.714;  -39.100; -353.000; -332.000
362.846;  -87.100; -606.000; -490.000
362.978; -144.025; -941.000; -811.000
363.109;   12.250; -161.000; -260.000
363.241;  343.575; -739.000; -749.000
363.373;  418.575; -649.000; -564.000
363.505;  707.675; -186.000;  -91.000
363.637;  145.700; -787.000; -601.000
363.769; -129.900;-1067.000;-1080.000
363.901;  -83.650; -596.000; -654.000
364.033; -139.975;-1103.000;-1062.000
364.165;  -21.700; -283.000; -283.000
364.296;   61.250; -316.000; -177.000
364.428;   61.150;-1344.000;-1220.000
364.560;  -69.050; -679.000; -661.000
364.692;  -69.275; -738.000; -835.000
364.824;  192.625; -588.000; -456.000
364.955;  420.225; -402.000; -564.000
365.087;  997.925;-1097.000; -852.000
365.219;   32.050; -686.000; -816.000
365.351;  -78.450; -526.000; -572.000
365.482;   52.275;  300.000;  240.000
365.614;  -53.075; -402.000; -314.000
365.746;  -99.350; -729.000; -752.000
365.877;  -96.400; -706.000; -672.000
366.009;  281.825;  -35.000;  -62.000
366.141;  -92.125;-1249.000;-1134.000
366.272; -107.175; -803.000; -719.000
366.404; -113.375;-1005.000; -874.000
366.535;  -14.100; -139.000;  -12.000
366.667; -107.725; -644.000; -649.000
366.799;   39.600;  353.000;  203.000
366.930; -130.225; -862.000; -996.000
367.062;  112.975; -639.000; -613.000
367.193;  154.000; -872.000; -842.000
367.325;  -59.900; -580.000; -684.000
367.456;   21.000; -246.000;   31.000
367.588;  165.900; -371.000; -318.000
367.719;   18.125;  -44.000;  -45.000
367.851;  -35.900; -222.000; -241.000
367.982;  -75.000; -875.000; -732.000
368.113;   54.900; -475.000; -358.000
368.245; -128.375; -960.000; -841.000
368.376;  -27.075; -254.000; -302.000
368.508;  -45.975; -188.000; -263.000
368.639; -155.775;-1166.000;-1034.000
368.770;  -32.625; -670.000; -589.000
368.902;  -75.575; -836.000; -926.000
369.033; -118.725; -906.000; -855.000
369.164;  -53.200; -720.000; -653.000
369.296; -112.500; -452.000; -601.000
369.427;   -2.500; -209.000; -144.000
369.558;  -66.700; -593.000; -377.000
369.689;  -89.700; -721.000; -569.000
369.821; -136.075; -951.000; -845.000
369.952;  -22.125;   42.000; -108.000
370.083;  -58.850; -229.000; -108.000
370.214;  -94.500; -735.000; -650.000
370.345;   -7.825;   65.000;   81.000
370.477; -106.525; -810.000; -790.000
370.608;  184.125; -328.000; -264.000
370.739;  -81.875;-1233.000;-1292.000
370.870;  -68.500;-1102.000; -923.000
371.001;   63.900; -378.000; -467.000
371.132;  -86.625; -754.000; -735.000
371.263;  -31.750;  -42.000; -148.000
371.394; -145.375; -841.000; -748.000
371.525;   26.925;  345.000;  225.000
371.657;  -95.350; -808.000; -670.000
371.788;   56.575;  103.000;  199.000
371.919;  119.850; -384.000; -304.000
372.050; 3117.500;  -91.000; -156.000
372.181;  902.175; -188.000; -294.000
372.311;  304.150;   42.000; -127.000
372.442;    2.000; -457.000; -451.000
372.573;  -42.325; -444.000; -340.000
372.704; -139.775;-1008.000; -980.000
372.835;   49.300; -228.000; -289.000
372.966;  -67.600; -646.000; -554.000
373.097;  -83.550; -575.000; -711.000
373.228;  -63.550; -717.000; -542.000
373.359;   76.600; -824.000; -536.000
373.490;  777.625; -881.000; -727.000
373.620;  926.125;-1001.000; -803.000
373.751; 1460.625; -332.000; -396.000
373.882;  616.500; -663.000; -733.000
374.013;   26.650; -449.000; -262.000
374.143;  -71.525; -581.000; -659.000
374.274; -109.175; -987.000; -908.000
374.405;  117.075; -388.000; -276.000
374.536;  347.550; -526.000; -387.000
374.666;  893.575; -759.000; -807.000
374.797;  166.775; -817.000; -868.000
374.928;  664.625; -710.000; -560.000
375.058;  714.900; -535.000; -500.000
375.189;   52.425;  -59.000;  -93.000
375.320; -107.800; -928.000;-1034.000
375.450;  -45.625; -625.000; -616.000
375.581;  -53.625; -526.000; -436.000
375.712;  -39.075; -574.000; -250.000
375.842;  229.925; -438.000; -415.000
375.973;  158.200; -554.000; -513.000
376.103;  -65.850; -665.000; -648.000
376.234;  -86.775; -531.000; -552.000
376.364;  -58.225; -944.000; -867.000
376.495;  277.700;  925.000;  529.000
376.625;  -34.475; -472.000; -485.000
376.756;   25.500; -709.000; -678.000
376.886;  -95.725;-1178.000;-1026.000
377.017;   63.175;-1048.000;-1061.000
377.147;  366.925; -786.000; -782.000
377.278;   52.000;  174.000;  228.000
377.408; -125.525; -801.000; -815.000
377.538; -114.875; -707.000; -693.000
377.669;  -88.550; -537.000; -613.000
377.799; -108.900; -645.000; -635.000
377.929;  -77.725; -610.000; -428.000
378.060; -127.625; -781.000; -847.000
378.190;  -58.325; -726.000; -531.000
378.320;  -64.000; -401.000; -406.000
378.451;   -6.350; -131.000;  -22.000
378.581;  -19.300;  -67.000; -110.000
378.711;  151.150; 1035.000;  866.000
378.841;  -36.500; -533.000; -675.000
378.972;  -92.975; -871.000; -751.000
379.102;  -35.825; -652.000; -579.000
379.232;  -24.825; -126.000;  -73.000
379.362; -125.275;-1001.000; -885.000
379.492;   -8.550; -373.000; -424.000
379.623;   75.950;    0.000;  111.000
379.753; -113.475;-1107.000; -974.000
379.883;  166.225;   59.000;  156.000
380.013;  -32.075;-1081.000;-1017.000
380.143; -120.150;-1097.000;-1056.000
380.273; -115.900; -985.000; -861.000
380.403;  -17.775; -344.000; -257.000
380.533;  -44.150; -651.000; -664.000
380.663;   54.450;  173.000;  128.000
380.793; -121.300;-1027.000;-1074.000
380.923;  -28.350; -103.000;  -34.000
381.053; -104.325; -613.000; -623.000
381.183;  -39.100; -106.000; -248.000
381.313;   12.225; -656.000; -470.000
381.443;    7.300; -692.000; -473.000
381.573;  147.100; -402.000; -409.000
381.703;  174.375;-1249.000;-1095.000
381.833; -157.325;-1454.000;-1336.000
381.963;   81.150; -134.000;  -87.000
382.093; 1234.025; -925.000; -909.000
382.223;  348.325; -713.000; -602.000
382.353;  -31.925; -801.000; -608.000
382.482;  269.150;-1091.000; -964.000
382.612;  647.200; -872.000; -644.000
382.742;  342.750; -695.000; -622.000
382.872;  167.225; -565.000; -551.000
383.002;   48.850;  347.000; -132.000
383.131;  -27.675; -226.000; -160.000
383.261;  -69.075; -706.000; -768.000
383.391;  255.750; -552.000; -377.000
383.521; 3383.225;  451.000;  263.000
383.650;  792.725; -947.000; -904.000
383.780;  -12.525; -783.000; -656.000
383.910;  104.325;  880.000;  802.000
384.039;  -12.625; -794.000; -656.000
384.169;  129.225;-1205.000;-1017.000
384.299;  -52.700; -650.000; -662.000
384.428; -104.600; -764.000; -680.000
384.558;  -46.675; -308.000; -275.000
384.687;  -46.825; -414.000; -334.000
384.817;   -4.025;   75.000;   -2.000
384.947;    4.900; -234.000; -141.000
385.076;  239.525;  982.000;  912.000
385.206;   76.225;  369.000;  480.000
385.335;  -51.700; -549.000; -417.000
385.465;  -98.075; -655.000; -663.000
385.594;  111.700;  -53.000;  -44.000
385.724;  317.675; -868.000; -838.000
385.853;   87.025; -296.000; -270.000
385.982; 1113.375; -743.000; -787.000
386.112; 1754.975;-1052.000; -871.000
386.241;   99.550; -307.000; -312.000
386.371;   -0.575; -174.000;  -87.000
386.500;  -18.150; -825.000; -789.000
386.629;    4.550; -874.000; -817.000
386.759;   50.950;  -43.000;   68.000
386.888;  -29.425; -170.000; -250.000
387.017;  -94.700; -648.000; -620.000
387.147;  -95.950; -771.000; -798.000
387.276;  -11.825; -410.000; -397.000
387.405;    1.425; -398.000; -342.000
387.535;  -46.775; -452.000; -361.000
387.664;  -74.050; -692.000; -620.000
387.793;   41.975; -198.000; -113.000
387.922;  415.925;  255.000;  200.000
388.052;  -10.350; -576.000; -423.000
388.181;  -34.275; -342.000; -472.000
388.310;  -27.800; -889.000; -710.000
388.439;  -83.600; -749.000; -742.000
388.568;  157.925;  365.000;  244.000
388.697;  858.425; -756.000; -653.000
388.826;  158.225; -768.000; -666.000
388.956;   28.325; -285.000; -307.000
389.085;  -42.675; -347.000; -287.000
389.214; -126.725; -842.000; -872.000
389.343;  -61.225; -645.000; -413.000
389.472;  402.425;  126.000;  149.000
389.601;  488.775;   91.000;    0.000
389.730;   -0.050; -568.000; -687.000
389.859;   37.900;  226.000;   46.000
389.988;  153.175; -423.000; -408.000
390.117;   94.300; -168.000; -146.000
390.246;  -37.150; -331.000; -320.000
390.375;   52.025; -673.000; -626.000
390.504;  -72.400; -703.000; -621.000
390.633; -111.650; -672.000; -726.000
390.761;  -83.675; -732.000; -645.000
390.890;   -0.600;   -4.000; -130.000
391.019;  -48.925; -421.000; -441.000
391.148; -122.325; -826.000; -855.000
391.277;  -82.925; -576.000; -493.000
391.406; -106.100; -821.000; -805.000
391.534;    7.950;  574.000; -301.000
391.663;  -70.525; -583.000; -645.000
391.792; -100.175; -673.000; -701.000
391.921;   58.600;   -3.000;   15.000
392.050;  118.825; -287.000; -228.000
392.178;  -80.950;-1206.000;-1061.000
392.307;   84.425; -758.000; -712.000
392.436;   47.450; -427.000; -641.000
392.564;    9.550;  166.000;   -6.000
392.693; -102.275; -860.000; -682.000
392.822;  143.575; -529.000; -534.000
392.950;   36.250; -880.000; -714.000
393.079;  254.925; -188.000; -328.000
393.208;    2.750; -488.000; -511.000
393.336;  -28.275; -170.000; -145.000
393.465;  -44.650; -317.000; -199.000
393.593;  -10.025;   62.000;   79.000
393.722; -154.050;-1121.000; -916.000
393.850;  -39.950; -188.000;  -61.000
393.979; -168.000; -926.000; -805.000
394.107;  -64.400; -517.000; -537.000
394.236;  -48.725; -570.000; -507.000
394.364;  162.050;  383.000;  206.000
394.493;  212.050; -911.000; -767.000
394.621;  -39.600; -955.000; -916.000
394.750;  744.950; -873.000; -923.000
394.878; 3084.125; -247.000; -149.000
395.007; 4122.425; -721.000; -807.000
395.135;  318.000; -790.000; -721.000
395.263;  -88.425;-1038.000;-1040.000
395.392;   -4.075;  -25.000; -107.000
395.520; -136.950; -818.000; -679.000
395.648; -115.600; -865.000; -915.000
395.777;  -47.550; -366.000; -405.000
395.905;  -65.925; -449.000; -564.000
396.033;   -6.575;  217.000;  172.000
396.162;  376.100; -399.000; -453.000
396.290;  331.425;  -17.000;   -2.000
396.418;   53.650; -555.000; -514.000
396.546;  -97.475; -571.000; -466.000
396.674; -114.925; -850.000; -878.000
396.803;   -5.125;  -72.000;  -23.000
396.931;   51.975; -179.000; -199.000
397.059;   -0.125;-1026.000; -989.000
397.187; -122.825;-1026.000; -975.000
397.315; -139.000; -884.000; -649.000
397.443; -109.950; -592.000; -443.000
397.572;  -96.000; -578.000; -424.000
397.700;  -43.750; -607.000; -614.000
397.828;    1.775;  120.000;  -90.000
397.956;  -55.725; -508.000; -478.000
398.084;  -74.650; -767.000; -626.000
398.212;    2.225;  137.000;  124.000
398.340;   -6.100;  -56.000;  159.000
398.468;   -3.000; -390.000; -169.000
398.596; -136.325; -993.000; -953.000
398.724; -130.250; -762.000; -767.000
398.852; -158.075;-1024.000; -976.000
398.980;  -71.625; -560.000; -560.000
399.108;  -82.350; -982.000; -735.000
399.236;   23.600;   13.000;    8.000
399.363;    9.675;  222.000;  196.000
399.491;  -80.675; -404.000; -398.000
399.619; -133.925; -829.000; -800.000
399.747; -118.275; -859.000; -771.000
399.875;   59.650;  220.000;  234.000
400.003;  -47.025; -359.000; -284.000
400.130;  -96.125; -421.000; -341.000
400.258;  -38.750;  -83.000;   38.000
400.386;  -73.875; -352.000; -168.000
400.514;  -64.625; -526.000; -587.000
400.641; -118.225; -928.000; -802.000
400.769; -160.050; -979.000; -888.000
400.897; -131.850; -838.000; -793.000
401.025;  -47.475; -166.000; -152.000
401.152;   -9.125;  220.000;   38.000
401.280;  -81.125; -430.000; -429.000
401.408; -124.050; -712.000; -576.000
401.535; -112.275; -735.000; -758.000
401.663; -184.025;-1134.000;-1054.000
401.790;  -94.425; -514.000; -525.000
401.918;   39.450;  436.000;  405.000
402.046;  -30.300;  134.000;  122.000
402.173;  -38.900;  -18.000;    7.000
402.301;  -76.500; -519.000; -397.000
402.428;   32.325;  528.000;  383.000
402.556; -147.475;-1188.000; -913.000
402.683;  -49.325;  -20.000;   -1.000
402.811;  -25.125;  -37.000; -206.000
402.938;   -7.250;   20.000;   27.000
403.066;  142.225; -574.000; -558.000
403.193;  268.750;  299.000;  239.000
403.321;  200.275; -396.000; -574.000
403.448;  278.425;   83.000;   27.000
403.575;  106.800;  -90.000;  -46.000
403.703; -114.375; -732.000; -557.000
403.830;  -85.275; -531.000; -496.000
403.957; -153.525;-1117.000;-1023.000
404.085;    2.550;  -61.000; -172.000
404.212;   97.675;  -50.000;   63.000
404.339;  280.925; -566.000; -306.000
404.467; 6044.600; -612.000; -524.000
404.594; 3686.950; -287.000; -227.000
404.721;  787.825; -869.000; -764.000
404.848;   63.700; -113.000; -202.000
404.976; -113.225; -856.000; -783.000
405.103;  -18.625;  -14.000;  -82.000
405.230;   -4.425;  190.000;  226.000
405.357;   15.500;  117.000;   44.000
405.484;  283.875;  -49.000;    5.000
405.612;   27.825; -548.000; -563.000
405.739;  -70.425; -488.000; -243.000
405.866;   63.775;  669.000;  385.000
405.993;  -57.275; -398.000; -102.000
406.120; -149.900; -801.000; -887.000
406.247;  -57.700; -323.000; -342.000
406.374;  354.375;  540.000;  629.000
406.501;   38.450; -632.000; -702.000
406.628;  -88.675; -621.000; -589.000
406.755; -105.375; -803.000; -620.000
406.882;  -54.200; -228.000; -277.000
407.009; -127.900; -719.000; -628.000
407.136;   24.775; -480.000; -401.000
407.263;   48.100; -939.000; -829.000
407.390;  -95.000; -692.000; -614.000
407.517; -191.400;-1139.000;-1187.000
407.644;  -66.325; -332.000; -256.000
407.771;  -80.775; -249.000; -287.000
407.898;   -2.575;  168.000;  328.000
408.025;  -65.775; -421.000; -313.000
408.151;  -10.950;   82.000;  153.000
408.278;  -58.550; -267.000; -216.000
408.405; -119.125; -931.000; -899.000
408.532;  -70.725; -549.000; -542.000
408.659; -127.275; -677.000; -648.000
408.785; -201.050;-1298.000;-1170.000
408.912;  -61.800; -412.000; -296.000
409.039; -122.075; -610.000; -686.000
409.166; -100.375; -591.000; -555.000
409.292; -112.900; -571.000; -534.000
409.419; -129.150; -665.000; -649.000
409.546;  -76.050; -431.000; -192.000
409.672; -122.525; -713.000; -545.000
409.799;  -31.325;  -36.000;   34.000
409.926;  -51.625; -180.000; -179.000
410.052; -189.200;-1127.000;-1091.000
410.179;  -77.775; -368.000; -392.000
410.305;  -95.275; -375.000; -493.000
410.432;  -49.550; -220.000; -333.000
410.558;  -99.525; -305.000; -380.000
410.685; -112.700; -688.000; -431.000
410.812; -100.900; -409.000; -588.000
410.938; -136.450; -964.000; -808.000
411.065; -106.025; -671.000; -645.000
411.191;  -29.875; -189.000; -174.000
411.317; -131.525; -823.000; -742.000
411.444;  -60.850; -317.000; -246.000
411.570;  -76.975; -339.000; -294.000
411.697; -112.250; -758.000; -752.000
411.823; -178.000; -989.000; -999.000
411.949;  -44.800;  -56.000;   17.000
412.076; -114.650; -539.000; -519.000
412.202; -110.550; -758.000; -757.000
412.329; -140.975; -798.000; -752.000
412.455; -121.200; -821.000; -657.000
412.581;  -21.375;  -15.000;  172.000
412.707;  -80.100; -540.000; -457.000
412.834;   12.825;  156.000;  219.000
412.960;  -84.925; -785.000; -784.000
413.086; -101.350; -743.000; -701.000
413.212;  118.975;  604.000;  578.000
413.339;  -91.700; -685.000; -701.000
413.465;  -29.500; -364.000; -310.000
413.591; -106.750; -757.000; -474.000
413.717;  -56.850; -358.000; -366.000
413.843; -147.725; -839.000; -861.000
413.969;  -71.050;  -47.000; -292.000
414.096; -106.525; -679.000; -679.000
414.222;   -6.350;  -33.000;   85.000
414.348;  -45.800; -652.000; -385.000
414.474;   70.600;   38.000;  -52.000
414.600;  -28.150; -126.000; -144.000
414.726;  -29.200;  -96.000;  -55.000
414.852;  -63.950; -365.000; -342.000
414.978;   27.225;  104.000;  -18.000
415.104;   33.075;   38.000;   80.000
415.230;   10.075; -329.000; -330.000
415.356;   33.575; -409.000; -514.000
415.482;  180.200;   13.000;  -35.000
415.608;  267.175; -247.000; -323.000
415.734;  978.525;   67.000;   38.000
415.860;20564.750; -875.000; -767.000
415.986;14606.875; -685.000; -607.000
416.111; 1231.425; -798.000; -652.000
416.237;  248.325; -424.000; -571.000
416.363; 1221.225; -765.000; -733.000
416.489; 4340.725; -324.000; -251.000
416.615;  457.875; -707.000; -742.000
416.741;  -26.675; -677.000; -784.000
416.866;  -87.325; -673.000; -736.000
416.992; -116.850; -801.000; -818.000
417.118;  -31.200;  -41.000;  -80.000
417.244;  -93.900; -798.000; -531.000
417.369;  -88.500; -801.000; -612.000
417.495;   -9.375; -325.000; -254.000
417.621;  -91.450;-1015.000; -803.000
417.746;  -16.350; -579.000; -572.000
417.872;   35.525; -254.000; -144.000
417.998;   34.200; -515.000; -530.000
418.123; 1094.600;-1073.000; -845.000
418.249; 5590.100; -512.000; -601.000
418.374;  765.200; -916.000; -824.000
418.500;   99.525; -383.000; -482.000
418.626;  117.650;   70.000;  -59.000
418.751;   89.625; -549.000; -448.000
418.877;  199.950; -637.000; -643.000
419.002; 1904.000; -688.000; -560.000
419.128;13111.150; -930.000; -721.000
419.253; 3114.875; -967.000; -837.000
419.379;  402.700; -391.000; -338.000
419.504;  402.175;  325.000;  415.000
419.629;  552.700; -393.000; -212.000
419.755; 3841.850; -317.000; -254.000
419.880;22509.375;  -98.000;   67.000
420.006;11972.500; -280.000; -221.000
420.131;30311.600; -662.000; -775.000
420.256; 4279.900; -315.000; -316.000
420.382;  559.250; -665.000; -687.000
420.507;   75.675; -649.000; -778.000
420.632;   91.350; -337.000; -339.000
420.758;  155.375; -251.000; -425.000
420.883;  -88.400; -876.000; -672.000
421.008; -109.650; -775.000; -619.000
421.133;  -76.450; -509.000; -467.000
421.259;  -65.150; -325.000; -259.000
421.384; -115.550; -834.000; -693.000
421.509;  -87.500;-1052.000; -862.000
421.634;  837.275; -936.000; -820.000
421.759;  339.025; -359.000; -327.000
421.885;  -62.175; -717.000; -656.000
422.010;  -89.600; -673.000; -542.000
422.135; -149.950; -695.000; -727.000
422.260;    7.700;  340.000;  280.000
422.385;  -44.025;   12.000;  -98.000
422.510;   -2.325;  151.000;  -26.000
422.635;   -1.450;  -87.000;  -43.000
422.760;   58.625; -766.000; -791.000
422.885;   42.500;  -57.000;  -80.000
423.010;  -44.100; -112.000; -169.000
423.135; -101.250; -481.000; -561.000
423.260;  -23.000; -150.000; -245.000
423.385;   51.400;  476.000;  222.000
423.510;   27.550;   71.000;  -22.000
423.635;   63.425;  133.000;   45.000
423.760;   54.125;  383.000;  328.000
423.885;   43.575;  336.000;  391.000
424.010;   17.325;  -68.000;  -13.000
424.135;  -25.000;    5.000;  -33.000
424.259; -101.025; -654.000; -457.000
424.384;  -63.275; -279.000; -272.000
424.509;  -27.950; -260.000; -186.000
424.634;  -90.375; -761.000; -623.000
424.759;  -41.200; -688.000; -544.000
424.883;  -13.275; -506.000; -527.000
425.008;  162.100; -502.000; -410.000
425.133; 2054.975; -679.000; -653.000
425.258;  935.050; -517.000; -381.000
425.382;  915.600; -867.000; -774.000
425.507; 2238.775; -487.000; -543.000
425.632;  380.925; -802.000; -663.000
425.756;  471.175; -256.000; -146.000
425.881; 7200.525; -831.000; -857.000
426.006;19144.675; -604.000; -355.000
426.130; 2870.750; -696.000; -508.000
426.255;  363.725; -611.000; -491.000
426.379;  153.925; -189.000; -577.000
426.504;  388.250;  660.000;  544.000
426.629; 4150.925; -519.000; -466.000
426.753; 2774.825;   64.000;  -46.000
426.878;  314.425; -252.000; -288.000
427.002;  134.225; -651.000; -668.000
427.127; 1651.350;  -35.000; -158.000
427.251;12042.975;  372.000;  401.000
427.375; 3274.700; -191.000; -173.000
427.500; 2002.800; -616.000; -610.000
427.624;  667.775; -234.000; -400.000
427.749;   59.600; -216.000; -225.000
427.873;  -55.875; -499.000; -412.000
427.997;  -50.300; -222.000; -230.000
428.122;   66.000;  795.000;  703.000
428.246;   52.725;  433.000;  434.000
428.371; -125.125; -869.000; -773.000
428.495; -110.600; -624.000; -646.000
428.619;  -52.250; -186.000; -117.000
428.743;   13.025;   65.000;  132.000
428.868;    2.725; -732.000; -643.000
428.992; 1152.225; -219.000; -326.000
429.116;  455.300; -329.000; -357.000
429.240;  208.875;  419.000;  426.000
429.365;  -41.000; -454.000; -574.000
429.489;  -54.275; -638.000; -647.000
429.613;   12.875; -236.000; -177.000
429.737;   30.875; -563.000; -432.000
429.861;  280.725; -247.000; -133.000
429.985; 5827.575; -425.000; -305.000
430.109; 6269.925; -770.000; -908.000
430.234;  693.775;   76.000;  -50.000
430.358;   52.900; -250.000; -160.000
430.482;  -69.675; -672.000; -564.000
430.606;  -69.425; -655.000; -375.000
430.730;  -12.750; -437.000; -388.000
430.854;   50.150; -909.000; -835.000
430.978;  -89.575; -795.000; -764.000
431.102;  -81.775; -499.000; -422.000
431.226; -120.025; -874.000; -815.000
431.350;   14.475;  345.000;  422.000
431.474;  -84.475; -661.000; -373.000
431.597; -152.175;-1060.000; -848.000
431.721;  -80.450; -276.000; -267.000
431.845; -130.575; -704.000; -472.000
431.969;  -86.675; -304.000; -349.000
432.093;  -97.425; -395.000; -317.000
432.217;   -9.750;   32.000;   82.000
432.341;  -96.500; -523.000; -518.000
432.464;    7.150;   96.000;   40.000
432.588;  130.150; -401.000; -329.000
432.712;   64.425;  -52.000;  -52.000
432.836;   51.600;  213.000;  263.000
432.959;  -21.975; -372.000; -311.000
433.083;   78.475;   11.000;    2.000
433.207;  390.225;  285.000;  930.000
433.330; 5384.500; -391.000; -200.000
433.454; 6475.675; -654.000; -638.000
433.578; 3715.325;  583.000;  278.000
433.701;  673.925; -623.000; -675.000
433.825;  112.475; -292.000; -299.000
433.949;  116.200;   28.000;  -72.000
434.072;   21.100; -410.000; -323.000
434.196;  -23.575; -309.000; -117.000
434.319; 3860.250;25482.000;25124.000
434.443;  709.350; -656.000; -603.000
434.566; 2784.900;  281.000;   62.000
434.690;  452.975; -637.000; -383.000
434.813;   41.775; -251.000; -173.000
434.937;  -81.200; -569.000; -696.000
435.060;  -56.575; -423.000; -332.000
435.184;  177.750; -492.000; -217.000
435.307;   98.750;  159.000;  102.000
435.431;  -23.950;  -40.000;   24.000
435.554;  -72.200; -399.000; -240.000
435.677;  -96.450; -350.000; -258.000
435.801;  -49.500;  -25.000;   49.000
435.924;  -38.800;    1.000;  -67.000
436.048; -139.175;-1019.000; -732.000
436.171;  -69.625; -240.000;  -66.000
436.294;  -24.000; -248.000; -229.000
436.417;  101.650; -963.000; -849.000
436.541;  -81.450; -814.000; -840.000
436.664;  -50.400; -242.000; -316.000
436.787;  -31.075;   13.000;  113.000
436.910; -122.525; -792.000; -422.000
437.034;   -9.200;  142.000;  143.000
437.157;   11.325;  -11.000;    0.000
437.280;  -67.325; -392.000; -292.000
437.403; -111.300; -982.000; -869.000
437.526;  419.475; -903.000; -865.000
437.649; 1656.225; -505.000; -332.000
437.772;  211.700; -692.000; -540.000
437.896;   94.450;  700.000;  544.000
438.019; -120.100; -758.000; -503.000
438.142;  -98.200; -596.000; -506.000
438.265;  -64.650; -639.000; -670.000
438.388;  393.075; -520.000; -410.000
438.511;   27.050; -597.000; -394.000
438.634;  -69.275; -247.000; -125.000
438.757; -136.975; -693.000; -619.000
438.880;  -51.550;  -34.000;  -57.000
439.003;  -82.400; -417.000; -437.000
439.126;  -79.600; -287.000; -167.000
439.248;  -64.175;  -98.000; -139.000
439.371;  -41.175;    9.000;  -53.000
439.494;   24.875;  510.000;  439.000
439.617;  -56.250;   65.000;  -88.000
439.740; -185.650; -968.000; -816.000
439.863; -153.975; -755.000; -595.000
439.986; -133.350; -476.000; -431.000
440.108;  -52.125; -161.000; -112.000
440.231; -178.700; -950.000; -836.000
440.354;  -49.825;  -64.000; -150.000
440.477;  -21.350; -566.000; -542.000
440.599;  -30.400; -200.000; -225.000
440.722; -125.425; -709.000; -586.000
440.845;   59.175;  751.000;  928.000
440.968; -114.100; -415.000; -311.000
441.090;  -76.300; -199.000;  -33.000
441.213; -182.150;-1021.000; -825.000
441.336;  -64.000; -159.000;   -5.000
441.458;  -83.450; -549.000; -396.000
441.581; -107.325; -628.000; -629.000
441.703;  -61.925; -152.000;   13.000
441.826; -117.000; -557.000; -400.000
441.948;  -50.425;   56.000;   51.000
442.071;   25.050;  555.000;  424.000
442.193; -111.425; -531.000; -485.000
442.316;   14.550;  152.000;   97.000
442.438;   47.225; -233.000;  -10.000
442.561;   65.475;  272.000;  262.000
442.683;  367.800; -809.000; -522.000
442.806;  870.550;   -8.000;   74.000
442.928;  -29.825; -859.000; -604.000
443.051;  -81.000; -577.000; -373.000
443.173; -104.175; -341.000; -339.000
443.295;  -95.825; -263.000; -371.000
443.418;  -77.850; -321.000;  -29.000
443.540;  -25.450; -106.000;   -4.000
443.662; -116.550; -563.000; -465.000
443.785;  -24.550;  335.000;  199.000
443.907;  -95.925; -362.000; -208.000
444.029; -142.575; -767.000; -494.000
444.152; -153.500; -644.000; -554.000
444.274;  -37.900;  -18.000;  -24.000
444.396; -105.775; -461.000; -221.000
444.518; -137.575; -691.000; -454.000
444.640; -107.850; -268.000; -111.000
444.763;  -31.550;  388.000;  249.000
444.885; -132.025; -432.000; -392.000
445.007;  -28.700;   35.000;   86.000
445.129; -113.475; -610.000; -515.000
445.251; -116.175; -372.000; -439.000
445.373; -146.250; -537.000; -386.000
445.495;  -13.400;  242.000;  350.000
445.617;   52.300;  853.000;  753.000
445.739;  -62.825; -215.000;  -97.000
445.861;  -52.775; -245.000; -112.000
445.984;  -60.325; -267.000; -101.000
446.105;  137.650; -418.000; -251.000
446.227;  470.000; -176.000;  -19.000
446.349;  -34.425; -358.000; -249.000
446.471; -113.525; -615.000; -448.000
446.593;  -62.075; -316.000;   19.000
446.715;  -21.900;  -67.000;   41.000
446.837;   49.000;  697.000;  832.000
446.959; -106.650; -457.000; -478.000
447.081; -133.100; -628.000; -518.000
447.203;   58.350;  862.000;  834.000
447.325;  -91.950; -270.000;   42.000
447.446;   -8.800;  286.000;  530.000
447.568; -154.100; -921.000; -803.000
447.690;  -77.475; -236.000; -245.000
447.812; -150.575; -798.000; -519.000
447.933;  -32.125;  155.000;  127.000
448.055;  -59.900; -306.000; -261.000
448.177;  102.350;   31.000;   79.000
448.299;   21.225; -935.000; -727.000
448.420;   -2.350;  -25.000;  159.000
448.542;  -54.625;   -3.000;   33.000
448.664;  -31.700;  109.000;  322.000
448.785;  -37.875;  265.000;   83.000
448.907;  -81.700; -614.000; -353.000
449.028;  -63.250; -771.000; -471.000
449.150;   47.650;  492.000;  589.000
449.272; -178.425;-1044.000; -913.000
449.393;   30.950;  612.000;  694.000
449.515; -155.875; -634.000; -581.000
449.636;  -60.900; -264.000; -155.000
449.758;   63.800;  763.000;  622.000
449.879;  -88.475; -498.000; -396.000
450.001;  -78.900; -149.000;  -49.000
450.122;  -49.575;  -95.000;  162.000
450.244;  -17.350;   37.000;  364.000
450.365;  -96.350; -495.000; -301.000
450.486;  -33.875;   80.000;  268.000
450.608;   17.850;  393.000;  326.000
450.729;   60.325;  578.000;  645.000
450.850;   26.800; -574.000; -466.000
450.972;  833.000; -552.000; -389.000
451.093; 5276.025;  190.000;  588.000
451.214; 2214.275; -516.000; -337.000
451.336;  413.050;  773.000;  579.000
451.457;   54.325;  264.000;  393.000
451.578;  -53.650; -118.000;  -74.000
451.699; -114.000; -546.000; -540.000
451.821;  -76.000; -284.000;  -50.000
451.942;  -13.225;  278.000;  285.000
452.063;   42.525;  228.000;  419.000
452.184;  577.775;  -54.000;  -49.000
452.305; 1138.050;  103.000;  170.000
452.427;  121.300; -549.000; -301.000
452.548;  -11.525;   23.000;   79.000
452.669;  -63.250; -257.000;  -89.000
452.790;  -48.250;    3.000;  -18.000
452.911;   -7.575;  195.000;  259.000
453.032;  -73.675; -289.000;  -60.000
453.153;  -59.600;  -29.000;   81.000
453.274;   74.625;  737.000;  868.000
453.395;  -78.075;  -51.000;  175.000
453.516;  123.450; 1317.000; 1388.000
453.637;  -76.900; -205.000; -150.000
453.758;  -71.975;   15.000;   69.000
453.879; -132.225; -462.000; -250.000
454.000;   73.175; 1086.000;  948.000
454.121; -129.300; -554.000; -326.000
454.242; -122.650; -599.000; -383.000
454.362;  -66.350;  -99.000;  114.000
454.483;  -37.250; -309.000; -229.000
454.604;   50.125;  512.000;  580.000
454.725; -148.100; -627.000; -555.000
454.846; -112.325; -474.000; -406.000
454.967;  -14.350;  230.000;  539.000
455.087;  -37.375;  179.000;  153.000
455.208;   13.275;  554.000;  856.000
455.329;  -73.050;  -22.000;   82.000
455.450;   40.575;  473.000;  633.000
455.570;  -79.650; -234.000; -211.000
455.691;  -48.200;  201.000;  407.000
455.812; -105.650; -270.000;  -92.000
455.932;  -56.775;  107.000;  -97.000
456.053;  -84.900;   36.000;   24.000
456.173; -111.125; -433.000; -355.000
456.294; -133.675; -476.000; -303.000
456.415;  -71.825;  -73.000;   70.000
456.535;  -50.175;  297.000;  273.000
456.656;  -53.100;  132.000;  240.000
456.776;  -63.775;    3.000;  298.000
456.897;  -14.850;  308.000;  513.000
457.017;  -93.725; -153.000;   -3.000
457.138; -128.025; -402.000; -249.000
457.258;  -32.175;  263.000;  224.000
457.379;  -12.825;  509.000;  521.000
457.499;  -24.675;  443.000;  432.000
457.620; -122.750; -407.000; -231.000
457.740;  -89.275; -132.000;  -11.000
457.860;  -64.275;   87.000;   44.000
457.981;  -54.700;  132.000;  124.000
458.101;  -77.175;  -89.000;   40.000
458.221;  -23.925;  336.000;  402.000
458.342;  -62.075;   -4.000;  -37.000
458.462;   17.775;  617.000;  352.000
458.582;  -35.850; -302.000; -294.000
458.703;   24.000;  303.000;  154.000
458.823;  -27.600;   22.000;  163.000
458.943;   33.100;  341.000;  467.000
459.063;  -11.750; 1124.000;  192.000
459.183;  -29.650;  328.000;  313.000
459.304;   20.300;  315.000;  517.000
459.424;  -59.800; -246.000;  -89.000
459.544;  343.850;  388.000;  764.000
459.664;  882.575;  499.000;  506.000
459.784;  317.675; 1004.000; 1175.000
459.904;   56.775;  867.000;  744.000
460.024;   64.175;  867.000;  684.000
460.144;   22.200;  449.000;  554.000
460.264;  -15.400;  515.000;  327.000
460.385;  -85.250; -145.000; -119.000
460.505;   30.525;  905.000;  858.000
460.625; -100.000;  -17.000;  -68.000
460.745;  -17.175;  396.000;  541.000
460.864;  -49.200;  153.000;  469.000
460.984;    8.100;  499.000;  573.000
461.104;  133.100; 1656.000; 1775.000
461.224;   10.050;  657.000;  650.000
461.344;  -32.275;  431.000;  360.000
461.464;  -34.650;  258.000;  513.000
461.584;  -20.400;  283.000;  466.000
461.704;  -57.875;   58.000;  108.000
461.824;  -66.250;  238.000;  259.000
461.943;  -51.275;  191.000;  130.000
462.063;  -77.500;    2.000;  324.000
462.183;   19.325;  639.000;  717.000
462.303;  106.825; 1678.000; 1230.000
462.422;   26.700;  781.000;  840.000
462.542;  -49.325;  271.000;  391.000
462.662;   28.175;  353.000;  380.000
462.782;  239.425;  833.000;  572.000
462.901;  497.200;  545.000;  717.000
463.021;  280.175; 1702.000; 1638.000
463.141;  -13.600;  337.000;  770.000
463.260;  -17.950;  614.000;  474.000
463.380;   19.150;  902.000;  884.000
463.499;  -33.225;  342.000;  332.000
463.619;  -38.625;  581.000;  559.000
463.738;  112.225; 1644.000;  903.000
463.858;   -0.925;  657.000;  811.000
463.978;  -45.575;  542.000;  396.000
464.097;   36.075;  921.000; 1114.000
464.217;  129.250; 1196.000; 1143.000
464.336;  116.525; 1068.000; 1130.000
464.455;  -29.550;  328.000;  659.000
464.575;   45.600;  597.000;  602.000
464.694;  153.575; 1204.000; 1179.000
464.814;  127.250; 1190.000; 1138.000
464.933;   84.650; 1095.000; 1027.000
465.052;  103.725; 1412.000; 1054.000
465.172;   72.100;  922.000;  799.000
465.291;  126.725; 1376.000; 1320.000
465.410;   12.975;  462.000;  735.000
465.530;   87.100; 1355.000; 1310.000
465.649;   57.300; 1209.000; 1273.000
465.768;  132.650; 1673.000; 1508.000
465.888;   41.450;  941.000; 1174.000
466.007;   98.700; 1335.000; 1440.000
466.126;  -11.425;  721.000;  641.000
466.245;   52.500; 1176.000; 1187.000
466.364;    7.825;  950.000; 1060.000
466.484;   48.025; 1024.000; 1213.000
466.603;   24.050; 1101.000; 1222.000
466.722;  103.625; 1490.000; 1769.000
466.841;   65.475; 1151.000; 1401.000
466.960;   30.425; 1069.000;  972.000
467.079;  131.325; 1971.000; 1786.000
467.198;   44.675; 1238.000; 1181.000
467.317;   90.050; 1768.000; 1162.000
467.436;   72.675; 1709.000; 1261.000
467.555;  120.700; 1796.000; 1746.000
467.674;   64.475; 1227.000; 1329.000
467.793;   49.650; 1376.000; 1374.000
467.912;   72.900; 1658.000; 1539.000
468.031;  138.300; 2038.000; 1930.000
468.150;  145.125; 1842.000; 1837.000
468.269;  198.575; 2313.000; 2090.000
468.388;  198.050; 2168.000; 2339.000
468.507;  253.700; 2884.000; 2903.000
468.626;  236.175; 2555.000; 2541.000
468.744;  133.525; 2018.000; 2174.000
468.863;  209.025; 2312.000; 2523.000
468.982;  100.875; 1503.000; 1555.000
469.101;  221.625; 2788.000; 2692.000
469.220;  149.550; 2333.000; 2176.000
469.338;  242.925; 2935.000; 3051.000
469.457;  193.750; 2719.000; 2545.000
469.576;  345.400; 3953.000; 3784.000
469.695;  237.200; 2877.000; 3066.000
469.813;  432.775; 4148.000; 4192.000
469.932;  388.475; 4255.000; 4485.000
470.051;  435.925; 4075.000; 4161.000
470.169;  866.525; 4470.000; 4338.000
470.288; 1500.400; 4700.000; 4809.000
470.406;  898.075; 5059.000; 5194.000
470.525;  646.075; 6101.000; 5787.000
470.644;  651.825; 6847.000; 6794.000
470.762;  794.800; 8397.000; 7873.000
470.881;  911.075; 8651.000; 8464.000
470.999; 1040.275; 9685.000; 9151.000
471.118; 1133.025;11174.000;10711.000

