
Integration time [ms]: 100.000
Averaging Nr. [scans]: 40
Smoothing Nr. [pixels]: 0
Data measured with spectrometer [name]: 2101012U2
Wave   ;Sample   ;Dark     ;Reference
[nm]   ;[counts] ;[counts] ;[counts] 

197.733;   62.750;  516.000;  404.000
197.879;  -81.000; -610.000; -634.000
198.025;  -59.775; -475.000; -420.000
198.171;  -81.950; -602.000; -612.000
198.317;  -40.075; -401.000; -316.000
198.463;  -64.150; -655.000; -404.000
198.609;   22.425;  181.000; -137.000
198.755;  -67.775; -644.000; -410.000
198.901;  -65.950; -505.000; -424.000
199.047;  -58.375; -615.000; -488.000
199.193;  -47.800; -230.000; -468.000
199.339;  -41.200; -222.000; -369.000
199.485;   31.025;  330.000;  271.000
199.631;   12.325;  227.000;  310.000
199.777;  -44.175; -466.000; -398.000
199.923;  -69.700; -610.000; -424.000
200.069;  -10.850; -141.000;  -58.000
200.215;   51.800;  128.000;  453.000
200.361;   46.250;  243.000;  477.000
200.507;  -57.075; -600.000; -373.000
200.653;  -27.000; -371.000; -194.000
200.798;  -29.825; -215.000; -125.000
200.944;   -2.875; -146.000;  -41.000
201.090;   38.025;   61.000;  222.000
201.236;   14.500; -116.000; -158.000
201.382;  118.950;  874.000;  903.000
201.528;   13.500;  -58.000;  -48.000
201.674;  -42.625; -386.000; -293.000
201.819;  -62.750; -540.000; -439.000
201.965;  -78.950; -699.000; -447.000
202.111;  -28.475; -273.000; -226.000
202.257;  -41.950; -250.000; -238.000
202.402;    4.250;   13.000;  -36.000
202.548;  -22.300; -169.000; -116.000
202.694;   87.075;  410.000; -183.000
202.840;  -68.175; -603.000; -531.000
202.985;  -71.950; -681.000; -639.000
203.131; -106.675; -832.000; -666.000
203.277;  -33.050; -199.000; -262.000
203.423;  -51.075; -434.000; -520.000
203.568;  -47.475; -462.000; -237.000
203.714;  -59.175; -535.000; -542.000
203.860;  -84.775; -682.000; -641.000
204.005;   11.775;  112.000;  167.000
204.151;   85.525;  561.000;  556.000
204.296;  -53.325; -354.000; -221.000
204.442;  -75.150; -600.000; -547.000
204.588;  -78.525; -592.000; -579.000
204.733;   20.700;  178.000;  168.000
204.879; -137.675;-1018.000; -822.000
205.025;   15.175;  -99.000;  126.000
205.170;   -9.950;  -17.000;   94.000
205.316;   69.675;  438.000;  661.000
205.461;  -82.450; -698.000; -554.000
205.607;   89.575;  609.000;  665.000
205.752;  -76.775; -626.000; -551.000
205.898;  -53.800; -501.000; -391.000
206.043;  -58.175; -578.000; -506.000
206.189;  -47.725; -243.000; -285.000
206.334;   74.350;  554.000;  606.000
206.480;   71.500;  409.000;  239.000
206.625;  -80.575; -529.000; -552.000
206.771;  -48.025; -451.000; -373.000
206.916;  -40.325; -210.000; -537.000
207.062;  -80.575; -545.000; -591.000
207.207;  -64.650; -546.000; -443.000
207.353;   49.575;  185.000;  460.000
207.498;    7.750;  196.000;   85.000
207.643;  -57.350; -501.000; -370.000
207.789; -132.700;-1069.000; -910.000
207.934;  -83.000; -665.000; -713.000
208.080;  -28.225; -154.000;   66.000
208.225;    3.325;  -22.000;  -57.000
208.370;  -82.900; -727.000; -619.000
208.516;  -74.825; -741.000; -487.000
208.661;  -33.025; -127.000;  -69.000
208.806;  -24.700; -165.000; -171.000
208.952; -134.850;-1044.000; -731.000
209.097;   72.225;  378.000;  349.000
209.242;  -49.500; -307.000; -382.000
209.387;   73.425;  392.000;  350.000
209.533;  -45.850; -321.000; -350.000
209.678;   75.150;  472.000;  543.000
209.823;  -57.200; -408.000; -310.000
209.969;  -97.600; -860.000; -757.000
210.114;  -98.775; -907.000; -719.000
210.259; -115.875; -939.000; -889.000
210.404;  -12.975; -171.000;  103.000
210.549;    6.575;  108.000;    3.000
210.695;  -26.825;   -3.000;  -95.000
210.840;   10.375;   94.000;   67.000
210.985;  -67.575; -484.000; -303.000
211.130;   66.425;  268.000;  406.000
211.275;   17.775;  207.000;  199.000
211.420;  -49.000; -300.000; -289.000
211.566;  -73.950; -536.000; -489.000
211.711;   25.625;  218.000;  157.000
211.856;  -57.450; -545.000; -519.000
212.001;    7.125;  151.000;   44.000
212.146;   20.875;  153.000;   49.000
212.291;  -29.975; -210.000; -186.000
212.436;  -31.650; -280.000;   -6.000
212.581;  -94.550; -685.000; -653.000
212.726;  -79.075; -487.000; -538.000
212.871;  -45.675; -552.000; -217.000
213.016; -162.075;-1172.000;-1029.000
213.161;   72.325;  406.000;  291.000
213.306;  -78.025; -435.000; -577.000
213.451; -100.300; -778.000; -689.000
213.596;  -43.575; -455.000; -347.000
213.741;  -56.125; -448.000; -538.000
213.886;  -88.300; -498.000; -517.000
214.031;  -29.825; -294.000; -124.000
214.176;  -40.350; -408.000; -341.000
214.321;  -17.875; -296.000; -157.000
214.466;  -21.350; -163.000;  -43.000
214.611;   -7.800;  -61.000;  -10.000
214.756; -116.225; -948.000; -858.000
214.901;  -31.475; -388.000; -226.000
215.046; -130.550; -797.000; -825.000
215.191;   15.600;  128.000;   35.000
215.336;  -17.850; -157.000;  -19.000
215.480;  -72.150; -684.000; -505.000
215.625;  -24.825; -175.000;  -19.000
215.770;  -90.550; -757.000; -662.000
215.915;   -3.000;   -5.000;  -97.000
216.060;    4.050; -113.000;  -21.000
216.205; -109.075; -731.000; -779.000
216.349;  -83.525; -470.000; -533.000
216.494; -135.200; -939.000; -867.000
216.639; -126.300; -823.000; -888.000
216.784;  -85.450; -577.000; -525.000
216.929;   52.275;  392.000;  281.000
217.073;  -11.800; -244.000;  -31.000
217.218;    1.275;   78.000;  -47.000
217.363;  -93.775; -656.000; -618.000
217.507;  -76.050; -623.000; -588.000
217.652; -118.225; -845.000; -874.000
217.797;  -93.775; -708.000; -659.000
217.942; -111.750; -856.000; -720.000
218.086;   77.300;  608.000;  539.000
218.231;  -30.950; -174.000;  -26.000
218.376;  -32.800; -337.000; -229.000
218.520;   -4.675;  -41.000;   96.000
218.665;  -27.825; -338.000; -204.000
218.810;  -45.575; -275.000; -233.000
218.954;   12.125;  201.000;   35.000
219.099; -115.900; -713.000; -963.000
219.243;  -76.400; -589.000; -554.000
219.388;  -26.125; -264.000; -136.000
219.532;  -15.500; -116.000; -116.000
219.677;  -77.050; -564.000; -521.000
219.822;   10.150;   33.000;   89.000
219.966;   15.625;   17.000;  -99.000
220.111;  -29.000; -328.000;  -40.000
220.255; -100.400; -797.000; -750.000
220.400;   -9.200; -180.000; -146.000
220.544;  -72.100; -516.000; -450.000
220.689;  -55.225; -422.000; -451.000
220.833;  -14.050; -123.000;  -58.000
220.978;  -47.475; -393.000; -563.000
221.122;   32.550;  319.000;  307.000
221.267; -118.250; -906.000; -837.000
221.411;  -60.475; -478.000; -394.000
221.555;   -7.825; -104.000;  -23.000
221.700;  -53.075; -329.000; -222.000
221.844;   37.200;  255.000;  272.000
221.989;  -48.275; -328.000; -311.000
222.133;  -25.225; -289.000; -307.000
222.277;   -3.075;    5.000;   78.000
222.422;   11.400;  227.000;  113.000
222.566;  -48.750; -381.000; -214.000
222.711;  -60.975; -414.000; -479.000
222.855;  -87.750; -643.000; -586.000
222.999;  -88.050; -642.000; -717.000
223.144;  -39.125; -195.000; -194.000
223.288;   53.575;  423.000;  251.000
223.432;   19.500;  184.000;  230.000
223.576;   20.550;  152.000;  -21.000
223.721;   37.450;  364.000;  273.000
223.865;  -51.600; -472.000; -475.000
224.009;  239.000; 1673.000; 1631.000
224.153;  -81.550; -660.000; -671.000
224.298;  -63.625; -531.000; -489.000
224.442;  -23.825;  -74.000;  -33.000
224.586;  -12.900; -169.000; -106.000
224.730;  -90.650; -858.000; -670.000
224.875; -113.075; -739.000; -688.000
225.019;   13.950;  102.000;  188.000
225.163;   41.150;  208.000;  341.000
225.307;   14.925;   97.000;  -91.000
225.451;   42.275;  360.000;  481.000
225.595;   24.300;  264.000;  176.000
225.739;  -17.575; -170.000;  -94.000
225.884;   -0.725;   86.000;    5.000
226.028; -109.100; -760.000; -626.000
226.172;  -36.375; -260.000; -273.000
226.316; -108.000; -941.000; -902.000
226.460;  -72.650; -645.000; -493.000
226.604;  -53.050; -406.000; -400.000
226.748;  -99.550; -836.000; -733.000
226.892;  -37.425; -227.000; -181.000
227.036;  -49.025; -537.000; -447.000
227.180;  -63.550; -551.000; -375.000
227.324;  -62.875; -561.000; -580.000
227.468; -114.925; -819.000; -717.000
227.612;   10.400;  242.000;  -28.000
227.756; -103.000; -845.000; -698.000
227.900;   47.500;  342.000;  441.000
228.044;  -48.150; -509.000; -290.000
228.188;   60.425;  448.000;  568.000
228.332;  -86.150; -546.000; -472.000
228.476;  -36.475; -223.000; -149.000
228.620;  -33.025; -210.000; -150.000
228.764;   63.175;  431.000;  349.000
228.908;  -27.450; -155.000;   30.000
229.052;  -57.775; -615.000; -528.000
229.195;  -11.100; -172.000;   13.000
229.339;  -24.575; -235.000; -305.000
229.483;  -19.925;    5.000; -162.000
229.627;   -8.775; -156.000;  139.000
229.771;  -51.075; -218.000; -294.000
229.915;   -0.875;  230.000;   79.000
230.059;  -86.475; -648.000; -663.000
230.202;  -46.050; -370.000; -317.000
230.346;  -14.400; -107.000;  107.000
230.490;  -67.525; -489.000; -521.000
230.634; -112.650; -736.000; -553.000
230.777;   71.975;  478.000;  509.000
230.921;  -53.425; -450.000; -359.000
231.065;  -35.150; -246.000; -286.000
231.209;   26.400;  261.000;  265.000
231.352;   19.650;   54.000;   40.000
231.496;   15.850;  568.000;  188.000
231.640;  -89.500; -693.000; -621.000
231.783;   52.950;  546.000;  525.000
231.927;  -30.900; -294.000; -365.000
232.071; -125.975; -962.000; -736.000
232.214; -100.175; -980.000; -764.000
232.358;  -99.175; -683.000; -599.000
232.502;   -0.450;  -19.000;    7.000
232.645; -142.000;-1090.000; -927.000
232.789;  -23.100; -257.000; -218.000
232.933;  -44.750; -407.000; -224.000
233.076; -123.025;-1038.000; -897.000
233.220; -110.150; -752.000; -777.000
233.363;  -74.650; -669.000; -477.000
233.507;   39.825;  371.000;  129.000
233.650;  -94.325; -764.000; -834.000
233.794;   27.900;  438.000;  461.000
233.938;  -67.850; -530.000; -362.000
234.081;  -21.300;  -93.000;   31.000
234.225;  -65.825; -631.000; -539.000
234.368; -110.275; -773.000; -723.000
234.512;  -46.400; -385.000; -299.000
234.655;  -94.900; -582.000; -555.000
234.798;  -75.275; -493.000; -466.000
234.942; -126.900; -884.000;-1002.000
235.085;  -86.575; -651.000; -443.000
235.229;  -67.075; -405.000; -410.000
235.372;  -43.550; -247.000; -191.000
235.516;  -51.975; -397.000; -321.000
235.659;    8.650;   92.000;  121.000
235.802;  -26.625;  -38.000;  -22.000
235.946;   19.900;  335.000;  215.000
236.089;   29.900;  126.000;  250.000
236.233;   42.650;  275.000;  298.000
236.376;  -61.300; -235.000; -378.000
236.519;  -44.625; -297.000; -319.000
236.663;  -22.850; -215.000; -117.000
236.806; -134.050;-1029.000; -999.000
236.949;   54.900;  543.000;  431.000
237.092;   59.250;  412.000;  391.000
237.236;  -82.325; -589.000; -502.000
237.379;   58.850;  352.000;  428.000
237.522; -129.075; -879.000; -768.000
237.666;  -10.675; -271.000;   18.000
237.809; -117.175; -851.000; -823.000
237.952;   30.425;  469.000;  271.000
238.095;  -68.250; -447.000; -442.000
238.238;   69.800;  688.000;  700.000
238.382;   -6.800;  166.000;  103.000
238.525;  -75.625; -598.000; -511.000
238.668; -153.850;-1060.000; -985.000
238.811;  -79.600; -638.000; -643.000
238.954;  -62.875; -483.000; -334.000
239.097;   87.500;  617.000;  664.000
239.241;   23.100;  394.000;  326.000
239.384;  -44.200; -254.000; -214.000
239.527;  -69.250; -424.000; -224.000
239.670; -159.900; -994.000;-1091.000
239.813; -123.250; -696.000; -658.000
239.956;   72.225;  579.000;  473.000
240.099; -114.725; -778.000; -725.000
240.242;   55.125;  428.000;  432.000
240.385;   35.675;  466.000;  450.000
240.528;  -68.675; -706.000; -473.000
240.671;    4.175;  189.000;  134.000
240.814;  -51.875; -441.000; -158.000
240.957; -117.375; -767.000; -578.000
241.100; -103.875; -779.000; -755.000
241.243; -148.725;-1234.000; -893.000
241.386;  -74.200; -508.000; -379.000
241.529;  -99.025; -735.000; -547.000
241.672;  -71.050; -566.000; -495.000
241.815; -131.250; -832.000; -808.000
241.958;  -25.125; -125.000; -182.000
242.101;  -83.400; -545.000; -390.000
242.244;  -58.575; -270.000; -325.000
242.387;  -53.350; -304.000; -246.000
242.530;   61.300;  470.000;  134.000
242.673;  -42.750; -381.000; -309.000
242.815; -125.625; -925.000; -899.000
242.958;  -61.050; -482.000; -381.000
243.101;    3.750;  132.000;  187.000
243.244;  -83.125; -564.000; -521.000
243.387;  -59.600; -313.000; -316.000
243.530; -108.900; -657.000; -674.000
243.672;   -0.475;   43.000;  -92.000
243.815;  -56.000; -355.000; -283.000
243.958;   -3.125;   98.000;  -26.000
244.101;   11.400;   59.000;  -16.000
244.243;  -23.725;  -47.000;  101.000
244.386; -119.050; -761.000; -630.000
244.529;  -23.250; -132.000; -139.000
244.672; -172.850;-1154.000; -951.000
244.814; -101.250; -621.000; -794.000
244.957;  -68.950; -380.000; -304.000
245.100;  -86.675; -489.000; -489.000
245.242;  -61.400; -387.000; -374.000
245.385;  -16.950;  -59.000;  -39.000
245.528; -126.175; -871.000; -705.000
245.670;   79.025;  612.000;  634.000
245.813;  -91.825; -599.000; -547.000
245.956;  -36.200; -324.000; -275.000
246.098;  -69.850; -508.000; -650.000
246.241;    0.275;  194.000;   48.000
246.383;  -11.050; -119.000;  -73.000
246.526;  -76.125; -454.000; -525.000
246.669; -117.850; -889.000; -780.000
246.811;   14.325;  172.000;   -1.000
246.954;  -57.450; -512.000; -426.000
247.096;  -22.300;  -84.000;   -6.000
247.239;  -82.225; -482.000; -445.000
247.381;  -73.750; -647.000; -488.000
247.524;   71.125;  645.000;  679.000
247.666;  -14.125;   58.000;   11.000
247.809; -108.325; -887.000; -691.000
247.951;  -22.875;  -75.000;  138.000
248.094;   21.400;  432.000;  308.000
248.236; -160.900;-1262.000;-1238.000
248.378;    0.150; -356.000;  -81.000
248.521;  -25.325; -334.000; -337.000
248.663;  -40.550; -236.000; -267.000
248.806;  -22.200; -300.000; -266.000
248.948;  -82.825; -886.000; -763.000
249.090;  -45.200; -428.000; -398.000
249.233;  -42.825; -344.000; -381.000
249.375;  -66.325; -474.000; -451.000
249.518;  -32.400;  -83.000; -133.000
249.660;  -19.550; -103.000;    3.000
249.802; -173.125;-1303.000;-1189.000
249.945;  -71.300; -612.000; -540.000
250.087; -121.975; -834.000; -768.000
250.229;  -65.625; -362.000; -480.000
250.371;  -66.400; -494.000; -439.000
250.514;  -57.625; -310.000; -244.000
250.656;  -67.475;   69.000;  102.000
250.798; -123.675; -849.000; -800.000
250.940;  -72.275; -322.000; -322.000
251.083;  -49.325; -335.000; -111.000
251.225;   48.325;  338.000;  310.000
251.367;  -42.400; -274.000; -373.000
251.509;  -46.425; -265.000; -210.000
251.651;  -96.200; -731.000; -671.000
251.794;   77.300;  538.000;  632.000
251.936; -105.925; -821.000; -747.000
252.078;  -80.700; -540.000; -461.000
252.220;  -76.625; -645.000; -477.000
252.362;   91.475;  344.000;  462.000
252.504;  -67.425; -677.000; -584.000
252.646; -112.750; -875.000; -722.000
252.788;    4.200;   14.000; -128.000
252.931;  -39.100; -257.000; -253.000
253.073;  -48.925; -376.000; -317.000
253.215;   -5.625;  141.000;  122.000
253.357;  -16.025;   82.000; -153.000
253.499;  -41.800; -374.000; -234.000
253.641;  -90.325; -749.000; -594.000
253.783;  -89.950; -609.000; -527.000
253.925;  -83.550; -586.000; -591.000
254.067; -120.000; -744.000; -667.000
254.209;  -19.225; -391.000; -259.000
254.351; -140.200; -865.000; -883.000
254.493;  -72.050; -441.000; -417.000
254.635; -127.900; -936.000; -818.000
254.777; -102.800; -752.000; -687.000
254.918;  -83.400; -512.000; -430.000
255.060;  -56.125; -551.000; -395.000
255.202;  -58.900; -473.000; -261.000
255.344;  -86.800; -658.000; -455.000
255.486;  -85.000; -471.000; -406.000
255.628; -116.850; -780.000; -781.000
255.770;  -83.025; -676.000; -536.000
255.912;  -72.650; -559.000; -468.000
256.053;  -86.225; -730.000; -508.000
256.195;  159.600; 1008.000;  903.000
256.337; -113.175; -861.000; -595.000
256.479;   75.900;  532.000;  416.000
256.621;  -48.975; -394.000; -212.000
256.762;  -93.025; -789.000; -742.000
256.904;   43.725;  485.000;  487.000
257.046;  -44.975; -381.000; -271.000
257.188;  -40.225; -351.000; -264.000
257.329;  -80.450; -525.000; -464.000
257.471; -101.550; -939.000; -807.000
257.613;  -66.575; -584.000; -498.000
257.755; -151.625;-1073.000; -982.000
257.896;   21.575;  286.000;  392.000
258.038;  -70.550; -403.000; -352.000
258.180;  -47.700; -354.000; -279.000
258.321;  -86.400; -581.000; -457.000
258.463;   -1.375;  -71.000;  133.000
258.605;  -86.625; -562.000; -570.000
258.746; -106.625; -886.000; -772.000
258.888; -155.575;-1026.000;-1020.000
259.029;   15.925;  121.000;   -8.000
259.171;  -88.225; -614.000; -550.000
259.313;   -3.250;  -49.000;  -47.000
259.454;  -70.275; -536.000; -414.000
259.596;  -57.000; -483.000; -390.000
259.737;  -75.075; -590.000; -474.000
259.879;   29.025;  217.000;  311.000
260.020;   95.325;  901.000;  636.000
260.162;  -42.225; -146.000; -253.000
260.303; -114.800; -768.000; -687.000
260.445;  -75.850; -609.000; -613.000
260.586;   27.925;  392.000;  157.000
260.728;  -40.875; -360.000; -248.000
260.869;  -70.475; -350.000; -343.000
261.011;   80.150;  706.000;  537.000
261.152;  -61.975; -479.000; -319.000
261.293;  -80.850; -576.000; -595.000
261.435;  -27.975; -219.000; -184.000
261.576;  -46.600; -455.000; -325.000
261.718;   44.025;  420.000;  470.000
261.859; -123.700; -940.000; -949.000
262.000; -139.300; -951.000;-1016.000
262.142;  -21.775;  -52.000;  -60.000
262.283; -128.150; -808.000; -691.000
262.424;  -94.000; -666.000; -625.000
262.566; -151.750;-1161.000; -983.000
262.707; -108.850; -840.000; -830.000
262.848; -131.325; -769.000; -726.000
262.990;  -46.825; -362.000; -345.000
263.131;   74.925;  650.000;  681.000
263.272;  -24.775;  -61.000;  -41.000
263.413;  -84.275; -589.000; -561.000
263.555;  -62.950; -669.000; -143.000
263.696;  -83.500; -550.000; -641.000
263.837;  -49.250; -449.000; -551.000
263.978;   -7.825;   -5.000;  -77.000
264.119;  -39.300; -283.000; -264.000
264.261; -114.300; -847.000; -630.000
264.402;    2.500;   33.000;   40.000
264.543;  -81.225; -509.000; -524.000
264.684;  -21.050;   61.000;  -50.000
264.825;  -80.025; -816.000; -538.000
264.966;   -9.500;  -84.000;  -67.000
265.107; -104.200; -646.000; -670.000
265.248; -119.925; -825.000; -812.000
265.390;  -19.300;  152.000;   -9.000
265.531;  -26.875; -238.000; -107.000
265.672;  -88.525; -557.000; -630.000
265.813;   58.625;  563.000;  439.000
265.954; -152.075; -959.000; -940.000
266.095;   -7.000; -372.000; -322.000
266.236; -107.825; -686.000; -548.000
266.377;  -35.025; -243.000; -297.000
266.518;  -73.350; -619.000; -547.000
266.659;   29.500;  170.000;  268.000
266.800;   -0.775;   83.000;   85.000
266.941;  -79.350; -487.000; -478.000
267.082;   18.275;  354.000;   99.000
267.223;  -54.375; -344.000; -273.000
267.364; -120.450; -892.000; -686.000
267.504;  -10.900;    3.000;  135.000
267.645;  -10.125;  160.000;   67.000
267.786;  -36.375; -147.000;  -86.000
267.927;  -72.325; -473.000; -379.000
268.068;  -13.300; -186.000;  -61.000
268.209;  -47.100; -175.000; -413.000
268.350;  -59.825; -388.000; -532.000
268.490;  -80.250; -648.000; -521.000
268.631;   47.100;  127.000;  225.000
268.772; -104.700; -874.000; -647.000
268.913;  -44.450; -328.000; -476.000
269.054;  -18.300; -117.000;   12.000
269.194;  -49.600; -418.000; -402.000
269.335; -156.250;-1137.000;-1074.000
269.476;  -24.825;   33.000;  -35.000
269.617;  -51.800; -347.000; -392.000
269.757;  -83.300; -713.000; -646.000
269.898; -104.900; -856.000; -613.000
270.039;  -52.825; -415.000; -405.000
270.180; -146.225; -952.000; -816.000
270.320;  -22.425; -190.000; -250.000
270.461;  -38.100; -277.000; -249.000
270.602;  -11.400; -186.000; -156.000
270.742; -130.100; -868.000; -943.000
270.883;  -53.100; -442.000; -390.000
271.023;  -72.975; -358.000; -357.000
271.164;  -70.700; -607.000; -528.000
271.305; -109.475; -666.000; -654.000
271.445;  -91.775; -722.000; -683.000
271.586;  -62.750; -462.000; -283.000
271.726;  -45.275; -397.000; -322.000
271.867;  -51.775; -594.000; -534.000
272.008;  187.625; -473.000; -285.000
272.148;  127.450;  462.000;  468.000
272.289;   -1.175; -113.000; -181.000
272.429;   13.200;   19.000;  185.000
272.570; -105.450; -633.000; -737.000
272.710;  -99.650; -825.000; -775.000
272.851;  -12.075;  113.000; -130.000
272.991; -163.325;-1173.000;-1077.000
273.131;  -62.050; -419.000; -459.000
273.272;  -94.225; -683.000; -723.000
273.412;   11.450; -143.000;  -31.000
273.553;  -66.525; -488.000; -507.000
273.693;  151.950;  913.000;  858.000
273.834;  -69.825; -894.000; -692.000
273.974;  -72.125; -664.000; -615.000
274.114; -100.525; -772.000; -560.000
274.255;   74.525;  414.000;  373.000
274.395;   21.575; -180.000; -125.000
274.535;   47.525;  199.000;  350.000
274.676;   25.400;  225.000;   94.000
274.816;    0.725;  110.000;   34.000
274.956;  -79.250; -624.000; -690.000
275.097;  -48.900;-1014.000; -922.000
275.237; -112.775; -913.000; -803.000
275.377;  -99.475; -778.000; -689.000
275.517; -138.625; -878.000; -937.000
275.658;  -39.975; -590.000; -555.000
275.798;  -68.425; -606.000; -413.000
275.938;   19.050;  215.000;  323.000
276.078; -107.675; -626.000; -395.000
276.218;   10.575;   99.000;  104.000
276.359; -129.200;-1026.000;-1024.000
276.499;  -63.250; -605.000; -446.000
276.639;  -31.925; -305.000; -151.000
276.779;  -43.650; -475.000; -357.000
276.919; -101.975; -783.000; -624.000
277.059;  -26.575; -261.000; -212.000
277.199;  -41.575; -357.000; -259.000
277.340;   50.675;  287.000;  175.000
277.480; -108.850; -840.000; -693.000
277.620;   30.725;  192.000;   16.000
277.760; -186.175;-1533.000;-1294.000
277.900;   22.525;  113.000;   33.000
278.040;   23.625;  137.000;  159.000
278.180;   34.475;  270.000;  170.000
278.320;  -15.350;   21.000;   56.000
278.460;  -76.400; -443.000; -469.000
278.600;  -85.025; -708.000; -598.000
278.740;   43.375;  448.000;  224.000
278.880;  -30.950; -768.000; -791.000
279.020;   -8.050; -194.000; -144.000
279.160;  -81.650; -672.000; -595.000
279.300; -120.175; -926.000; -873.000
279.440;  -81.900; -709.000; -622.000
279.579;    3.650;-1014.000; -929.000
279.719;  -49.700; -410.000; -394.000
279.859;   83.875;   -4.000;   41.000
279.999;   33.625; -208.000;  101.000
280.139;  -16.975; -435.000; -387.000
280.279;  -70.525; -708.000; -745.000
280.419;  -10.375; -229.000; -147.000
280.559;  -27.325; -259.000; -180.000
280.698;  -83.025; -790.000; -639.000
280.838;  -94.150; -778.000; -800.000
280.978; -107.500; -846.000; -790.000
281.118; -119.200; -811.000; -704.000
281.257;    0.575;   24.000;    6.000
281.397;  -96.625;-1094.000; -960.000
281.537;  -79.250; -599.000; -712.000
281.677;  -24.350; -150.000; -101.000
281.816;  -89.850; -700.000; -630.000
281.956;  -41.150; -193.000; -257.000
282.096;  -50.400; -539.000; -396.000
282.235; -102.675; -672.000; -638.000
282.375;  -35.550; -243.000;  -98.000
282.515; -106.700; -715.000; -707.000
282.654;   29.025;   29.000;  106.000
282.794;   14.325;  388.000;  244.000
282.934;  -57.000; -530.000; -491.000
283.073; -128.525;-1030.000; -857.000
283.213;  -53.350; -460.000; -467.000
283.353;  -25.500; -408.000; -349.000
283.492;  -20.925; -264.000; -296.000
283.632;  -42.050; -254.000; -168.000
283.771;  -96.825; -859.000; -730.000
283.911;  -47.775; -369.000; -260.000
284.050; -115.700; -794.000; -748.000
284.190; -158.075;-1229.000;-1096.000
284.329; -141.700;-1055.000; -964.000
284.469;  -53.325; -516.000; -591.000
284.608;  -59.675; -559.000; -598.000
284.748;  -83.725; -614.000; -570.000
284.887;    2.450;  -87.000;  -20.000
285.027; -127.450; -844.000; -892.000
285.166;  -31.275; -192.000; -249.000
285.306;    4.875; -116.000;  -33.000
285.445;  -27.575; -229.000; -343.000
285.584;  -95.800; -630.000; -494.000
285.724;  -30.725; -282.000; -322.000
285.863; -113.625; -857.000; -507.000
286.002;  -51.275; -366.000; -276.000
286.142;  -95.050; -715.000; -622.000
286.281;  -69.300; -525.000; -493.000
286.420;  -65.000; -554.000; -417.000
286.560;  116.425;  653.000;  623.000
286.699; -122.000; -958.000; -912.000
286.838;  -78.700; -590.000; -591.000
286.978;  -88.900; -533.000; -537.000
287.117; -129.275;-1085.000; -950.000
287.256;  -31.300; -228.000; -211.000
287.395;  -33.300; -197.000; -378.000
287.535;  -51.025; -370.000; -298.000
287.674;  -83.925; -509.000; -484.000
287.813;   45.725;  661.000;  533.000
287.952; -117.000;-1010.000; -871.000
288.091; -141.625;-1049.000; -915.000
288.231;   21.575;   13.000;   15.000
288.370; -167.425;-1217.000;-1200.000
288.509;  -91.050; -728.000; -645.000
288.648; -100.275; -770.000; -548.000
288.787;  -25.875; -243.000;  -87.000
288.926;  -77.100; -454.000; -475.000
289.065;  121.950;  859.000;  672.000
289.204;  -57.125; -377.000; -217.000
289.344;  -81.200; -791.000; -690.000
289.483;   31.675;  416.000;  304.000
289.622;  -19.100; -291.000; -149.000
289.761;   -8.400; -309.000; -166.000
289.900; -110.225; -785.000; -626.000
290.039;  -26.075;  -12.000;  -95.000
290.178;  -36.450; -274.000; -180.000
290.317;  -79.500; -618.000; -479.000
290.456;  -60.925; -463.000; -451.000
290.595; -136.550; -961.000; -833.000
290.734; -137.900; -904.000; -891.000
290.873;  -77.075; -456.000; -420.000
291.011; -106.500; -833.000; -843.000
291.150; -103.450; -770.000; -682.000
291.289;  -18.025; -343.000; -110.000
291.428;  -90.275; -599.000; -480.000
291.567;  -63.350; -370.000; -442.000
291.706;    4.450;  109.000;  154.000
291.845;  -81.725; -597.000; -505.000
291.984; -158.100;-1234.000;-1061.000
292.122;   70.700;  602.000;  582.000
292.261;   47.500;  620.000;  463.000
292.400;    7.675; -144.000;  211.000
292.539; -118.375; -959.000; -813.000
292.678;  -25.500; -325.000; -300.000
292.816; -147.300;-1136.000; -965.000
292.955;  -87.075; -844.000; -684.000
293.094;  -19.225; -173.000; -337.000
293.233;  -64.225; -556.000; -400.000
293.371;  -39.375; -225.000;  -84.000
293.510; -114.825; -866.000; -780.000
293.649; -130.100; -959.000; -924.000
293.787;  -34.825;-1083.000;-1012.000
293.926;    0.450; -113.000;  -32.000
294.065;  -24.575; -379.000; -290.000
294.203;   60.150;  298.000;  406.000
294.342;   20.825;   74.000;  156.000
294.481; 5597.025;51180.000; -836.000
294.619;  -32.525; -425.000; -582.000
294.758; -126.225;-1230.000;-1137.000
294.896;   83.775; -125.000;    5.000
295.035; -114.150;-1040.000;-1006.000
295.174; -118.075;-1082.000; -954.000
295.312;  -27.125; -323.000; -203.000
295.451;   -5.250; -307.000; -428.000
295.589;  -62.575; -389.000; -518.000
295.728;   17.875; -292.000; -165.000
295.866;    7.825;  -36.000;  -51.000
296.005;  -53.925; -584.000; -341.000
296.143;  -71.325; -558.000; -596.000
296.282; -107.700; -957.000; -881.000
296.420;  -79.850; -657.000; -557.000
296.559;  -70.325; -892.000; -633.000
296.697;   47.775; -847.000; -665.000
296.835;  100.675;-1141.000;-1002.000
296.974;   57.425;  -23.000;   39.000
297.112;   26.600; -443.000; -504.000
297.251;  -81.275; -815.000; -755.000
297.389;  126.800; -576.000; -438.000
297.527;   52.500; -145.000;  -83.000
297.666;  -43.200; -486.000; -438.000
297.804;  -66.050; -404.000; -264.000
297.942;    2.975; -136.000; -161.000
298.081;   -2.825; -183.000;   63.000
298.219;   96.575;  -17.000;  -19.000
298.357;   72.450; -144.000;  -71.000
298.495;   67.825; -810.000; -812.000
298.634;  115.800;  245.000;  219.000
298.772;   94.025; -220.000; -338.000
298.910;  -40.575; -309.000; -182.000
299.048;  -12.325; -130.000; -153.000
299.187;  -24.550; -350.000; -250.000
299.325;   23.250;   52.000;  122.000
299.463;   74.275; -389.000; -299.000
299.601;  144.775; -327.000; -271.000
299.739;  -98.125; -908.000; -883.000
299.877;  -79.550; -791.000; -703.000
300.016;  -32.400;-1095.000; -935.000
300.154;  190.050;  -19.000; -161.000
300.292;   78.750; -428.000; -348.000
300.430;   54.700; -408.000; -291.000
300.568;  -94.350; -940.000; -874.000
300.706;  -23.200; -366.000; -469.000
300.844;  -54.200;-1108.000; -979.000
300.982;  125.100;  246.000;  282.000
301.120;  -97.775; -965.000; -866.000
301.258;  -66.000; -812.000; -705.000
301.396;   33.825;  104.000;  -41.000
301.534;  121.425; -218.000; -293.000
301.672;   20.575; -664.000; -521.000
301.810;   65.800; -613.000; -545.000
301.948;  157.650;   53.000;  149.000
302.086;  736.350; -250.000;  -32.000
302.224; 1164.975; -610.000; -585.000
302.362;   50.500; -558.000; -622.000
302.500;   -9.500; -923.000; -893.000
302.638;  132.850;  128.000;  245.000
302.776;   15.975; -352.000; -408.000
302.913;   47.700;  447.000;  236.000
303.051;    5.425;  -86.000;  -23.000
303.189;   64.150;   90.000;  118.000
303.327;  -42.900; -341.000; -256.000
303.465;  -78.825; -832.000; -588.000
303.603;  -88.550; -805.000; -604.000
303.740;  118.375;  417.000;  241.000
303.878;   51.150; -800.000; -759.000
304.016;  -82.825; -915.000; -790.000
304.154; -107.475;-1123.000;-1152.000
304.291;  -33.175; -505.000; -554.000
304.429;    8.525;  102.000;   74.000
304.567; -117.675; -908.000; -893.000
304.705;  -46.175; -408.000; -515.000
304.842;  149.250; -616.000; -540.000
304.980;   66.125;  215.000;   35.000
305.118;   68.000; -367.000; -365.000
305.255;  -50.725; -945.000; -927.000
305.393;   59.575;  178.000;  239.000
305.531;  -96.900;-1173.000; -956.000
305.668;  -62.950; -663.000; -582.000
305.806;  127.975; -358.000; -439.000
305.943;  141.225; -629.000; -637.000
306.081;   81.525; -378.000; -267.000
306.219; -100.750; -863.000; -748.000
306.356;   -8.200;  158.000;   27.000
306.494;  125.625;  981.000;  761.000
306.631;   -4.400;  -11.000;  -55.000
306.769;   15.150; -613.000; -485.000
306.906;   -8.675; -284.000; -258.000
307.044;  -61.050; -473.000; -488.000
307.181;  -55.300; -410.000; -332.000
307.319;   16.500;  112.000;   87.000
307.456; -174.550;-1191.000;-1153.000
307.594;  -91.175; -980.000; -727.000
307.731;  -10.100; -371.000; -164.000
307.868;   -1.900;  -15.000;   20.000
308.006; -131.200; -961.000; -847.000
308.143;  -54.650; -618.000; -330.000
308.281;  176.325;  -37.000; -254.000
308.418;    7.175; -748.000; -640.000
308.555;  -56.550; -400.000; -250.000
308.693;  -68.000; -577.000; -573.000
308.830; -103.150; -712.000; -657.000
308.967;   -5.750; -215.000;  -95.000
309.105;  -46.675; -507.000; -396.000
309.242;   56.100; -468.000; -367.000
309.379;  324.975; -577.000; -655.000
309.517;  -59.375; -936.000; -948.000
309.654; -105.200; -910.000; -734.000
309.791;  -57.975; -662.000; -580.000
309.928; -117.150; -977.000; -914.000
310.065;  198.825;  819.000;  697.000
310.203;   20.400; -825.000; -850.000
310.340;   -8.850; -465.000; -321.000
310.477;  -73.000; -412.000; -516.000
310.614;  -70.350; -383.000; -473.000
310.751;  -70.700; -427.000; -518.000
310.889;  -24.575;    1.000;   11.000
311.026; -149.975;-1161.000; -939.000
311.163;  -44.375; -386.000; -380.000
311.300;  -73.225; -512.000; -479.000
311.437;  -72.000; -658.000; -619.000
311.574; -148.350;-1226.000; -985.000
311.711;  -58.350; -595.000; -433.000
311.848;  -42.375; -380.000; -388.000
311.985;    9.525;  270.000;   93.000
312.122; -110.825; -932.000; -762.000
312.259; -130.625; -941.000; -994.000
312.396;  -77.675; -508.000; -551.000
312.533;  -75.975; -812.000; -790.000
312.670; -122.800;-1070.000; -898.000
312.807;  -35.075; -352.000; -367.000
312.944;  -69.125; -513.000; -611.000
313.081;  -33.000; -150.000; -415.000
313.218; -108.975;-1111.000; -867.000
313.355;   16.175; -531.000; -449.000
313.492;   11.725; -455.000; -292.000
313.629;  142.225;  815.000;  735.000
313.766; -157.200;-1176.000;-1008.000
313.902;   -6.550; -186.000;   21.000
314.039;  -43.575; -372.000; -289.000
314.176;   38.950;  286.000;  192.000
314.313;  -70.300; -569.000; -473.000
314.450;  -70.300; -788.000; -684.000
314.587;  -65.225; -468.000; -480.000
314.723;   12.450;  -78.000;  130.000
314.860;   40.025;  318.000;  332.000
314.997;   29.450;  223.000;  142.000
315.134;  -37.225; -385.000; -368.000
315.270;  -20.425; -480.000; -496.000
315.407; -123.900;-1094.000; -967.000
315.544;  -46.325; -657.000; -538.000
315.681;  -57.425; -681.000; -565.000
315.817;   31.625; -133.000; -176.000
315.954;   20.100; -613.000; -392.000
316.091; -114.775;-1045.000;-1023.000
316.227;  -24.000;  -71.000; -179.000
316.364;   -3.475;   23.000;    6.000
316.500;  -40.775; -113.000; -300.000
316.637;  -41.225; -181.000; -302.000
316.774;  -88.175; -625.000; -358.000
316.910;  -93.450; -598.000; -629.000
317.047;  -76.300; -487.000; -351.000
317.183;  -39.275; -435.000; -566.000
317.320;  -11.700; -367.000; -321.000
317.456;  -68.150; -733.000; -805.000
317.593;  -87.975; -598.000; -641.000
317.729;    9.575;  168.000;  -67.000
317.866; -197.975;-1434.000;-1285.000
318.002;  -84.700; -708.000; -948.000
318.139;  -77.675; -883.000; -867.000
318.275; -106.175;-1003.000; -738.000
318.412;  -48.700; -517.000; -336.000
318.548;   -9.125; -751.000; -720.000
318.685;  -88.450; -985.000; -888.000
318.821; -105.000; -762.000; -735.000
318.957;  -15.825;   34.000;  -23.000
319.094;   45.475;  297.000;  154.000
319.230;  -53.175; -756.000; -742.000
319.367;  179.300; -471.000; -520.000
319.503;   79.650; -538.000; -436.000
319.639;  -85.150; -877.000; -793.000
319.775;  -47.800; -750.000; -685.000
319.912;  -53.400; -424.000; -519.000
320.048;  -73.825;-1184.000;-1184.000
320.184;   62.575;   59.000;   70.000
320.321;  -69.300; -497.000; -467.000
320.457;   59.175;  475.000;  662.000
320.593;  -63.000; -375.000; -382.000
320.729; -104.350; -732.000; -734.000
320.866;  -76.375; -577.000; -635.000
321.002;  -68.800; -759.000; -809.000
321.138;  -10.850; -135.000; -211.000
321.274;   84.975; -148.000; -115.000
321.410;    3.150; -585.000; -353.000
321.546;   -8.325;-1011.000; -911.000
321.683;   73.125;  400.000;  185.000
321.819;   11.525;  -48.000; -117.000
321.955; -106.250; -743.000; -722.000
322.091;  -30.800; -585.000; -540.000
322.227;   -1.425; -382.000; -202.000
322.363;  -13.050; -320.000; -215.000
322.499;  -40.425; -343.000; -331.000
322.635;  184.000;  636.000;  443.000
322.771;   36.500; -139.000;   12.000
322.907;  102.775;  129.000;  327.000
323.043;   -9.925; -115.000; -206.000
323.179;  -33.600; -394.000; -363.000
323.315;   67.800; -401.000; -371.000
323.451;  133.025; -328.000; -236.000
323.587;   83.525;  -60.000;  -77.000
323.723;   40.825; -682.000; -601.000
323.859;   -8.850; -258.000;  -76.000
323.995;  -21.175; -467.000; -409.000
324.131; -117.900; -967.000; -892.000
324.267;  -38.175; -254.000; -276.000
324.402; -129.100; -960.000; -983.000
324.538;   -7.250; -279.000; -104.000
324.674;    9.800;  164.000;   77.000
324.810;  158.300;  226.000;  308.000
324.946;   16.375; -810.000; -658.000
325.082;  -81.400; -568.000; -475.000
325.217;   -9.100;  -62.000;   16.000
325.353;  -98.825; -764.000; -659.000
325.489;  -81.075; -540.000; -506.000
325.625;  -74.400; -579.000; -525.000
325.760;   50.500;  517.000;  376.000
325.896;  -33.725; -515.000; -702.000
326.032;  -55.625; -403.000; -352.000
326.168;  -68.125; -462.000; -369.000
326.303;  -71.475; -352.000; -461.000
326.439;  -13.525; -336.000; -276.000
326.575;    6.275; -190.000;  -29.000
326.710;   -2.700; -156.000;  -30.000
326.846;  -11.675;  146.000;  103.000
326.982;  -98.275; -530.000; -548.000
327.117;  -73.875; -481.000; -442.000
327.253;  -78.800; -745.000; -742.000
327.388; -112.975;-1137.000;-1153.000
327.524;  -42.525; -811.000; -578.000
327.659;  -19.175;  -58.000;  -22.000
327.795;  -21.425;   69.000;   45.000
327.931;  -99.975; -723.000; -499.000
328.066;  -25.925; -417.000; -276.000
328.202;   -2.550;   12.000; -129.000
328.337;  100.325;  957.000;  713.000
328.473;   46.975;  -12.000;  -74.000
328.608;  -13.225; -256.000; -267.000
328.743;  -65.825; -799.000; -664.000
328.879;   29.625;  214.000;  114.000
329.014;  -21.975; -102.000; -122.000
329.150;  -76.950; -358.000; -483.000
329.285;  -68.050; -465.000; -466.000
329.421;  -52.275; -548.000; -246.000
329.556;  -20.450;  -36.000;   85.000
329.691;  -91.900; -633.000; -615.000
329.827;  -94.600; -626.000; -480.000
329.962;  -50.925;  131.000; -301.000
330.097;  -92.175; -673.000; -585.000
330.233;  -53.600; -410.000; -223.000
330.368; -129.250; -839.000; -628.000
330.503;  -14.525;    3.000;   98.000
330.638;    4.175;  -93.000; -125.000
330.774;  -46.425; -609.000; -530.000
330.909;  -50.600; -434.000; -244.000
331.044;  -91.925; -714.000; -708.000
331.179; -174.475;-1217.000;-1109.000
331.315;    4.125;   77.000;   20.000
331.450;   15.450;  157.000;  285.000
331.585;  -91.650; -805.000; -706.000
331.720;  -91.350; -510.000; -460.000
331.855;  -16.075;  -35.000; -102.000
331.990;  218.750;   62.000;  138.000
332.126;   91.900; -110.000;   71.000
332.261;   -5.475; -379.000; -265.000
332.396;   -4.975; -135.000; -242.000
332.531; -106.000;-1074.000;-1031.000
332.666;   23.725; -519.000; -363.000
332.801; -107.225; -726.000; -807.000
332.936;  -26.050; -192.000; -122.000
333.071; -137.725; -870.000; -817.000
333.206;   15.325;  307.000;  379.000
333.341;   26.675;  344.000;  418.000
333.476;  -80.225; -627.000; -623.000
333.611;  -38.675; -251.000; -173.000
333.746;  -42.250; -381.000; -464.000
333.881; -108.525; -973.000; -935.000
334.016; -120.225; -936.000; -917.000
334.151; -118.700; -746.000; -702.000
334.286;   39.750;  152.000;  186.000
334.421;   -8.175; -125.000; -178.000
334.556;  -73.700; -611.000; -567.000
334.690;  -79.475; -631.000; -577.000
334.825;   60.700;  381.000;   83.000
334.960;  -47.750; -285.000; -413.000
335.095;   13.775;  135.000;  -91.000
335.230;  -89.400; -722.000; -738.000
335.365; -131.100;-1084.000; -990.000
335.499; -119.750;-1108.000;-1037.000
335.634;   34.675;    9.000;  534.000
335.769;  -94.150; -755.000; -720.000
335.904;  -50.075; -603.000; -561.000
336.038;  -48.050; -735.000; -657.000
336.173; -107.275;-1206.000;-1194.000
336.308;   21.975; -116.000; -189.000
336.443;   26.875; -544.000; -634.000
336.577;  -54.400; -936.000; -787.000
336.712;   85.400;   -4.000;  -12.000
336.847;  -17.550; -724.000; -607.000
336.981;  100.275; -272.000; -208.000
337.116;  328.300;  615.000;  501.000
337.250;  200.850; -434.000; -421.000
337.385;  202.150; -297.000; -208.000
337.520;   61.925; -632.000; -603.000
337.654;  -39.475; -215.000; -126.000
337.789; -134.250; -989.000; -933.000
337.923;  -26.150; -104.000; -205.000
338.058;  -82.875; -673.000; -738.000
338.192;  -11.050; -611.000; -488.000
338.327;   -1.275;  -18.000; -155.000
338.461;  -51.275; -299.000; -469.000
338.596;  -93.800; -780.000; -638.000
338.730; -108.700; -767.000; -803.000
338.865;   70.250;  -46.000; -140.000
338.999;  -55.325; -846.000; -702.000
339.134;  -21.650; -634.000; -536.000
339.268;   16.050; -741.000; -603.000
339.403;  347.000; -740.000; -775.000
339.537;   73.675; -894.000; -820.000
339.671; -121.450; -829.000; -813.000
339.806;  -70.175; -556.000; -512.000
339.940;   13.800; -261.000; -235.000
340.074;  -95.400; -685.000; -510.000
340.209;  -49.975; -351.000; -230.000
340.343;  -76.975; -517.000; -573.000
340.477;  141.650;  998.000; 1036.000
340.612;  -58.225;-1033.000; -900.000
340.746;  114.725; -199.000; -243.000
340.880;  -52.675; -924.000; -785.000
341.014;  -19.475;  -45.000; -154.000
341.149; -117.150; -756.000; -718.000
341.283; -109.500; -839.000; -754.000
341.417;  -79.850;-1124.000; -938.000
341.551;  195.725; -768.000; -708.000
341.685;  -21.825; -633.000; -611.000
341.820;  -52.900; -562.000; -493.000
341.954;  -48.075; -218.000; -349.000
342.088; -148.225;-1102.000;-1019.000
342.222;   46.050;  565.000;  618.000
342.356;  -52.200; -395.000; -335.000
342.490;  -82.225; -880.000; -841.000
342.624;  -36.325; -339.000; -242.000
342.758;    4.725; -364.000; -312.000
342.892;  -58.450; -710.000; -585.000
343.026;  -39.350;  -58.000; -116.000
343.160;  -57.425; -426.000; -376.000
343.294;  -50.675; -474.000; -337.000
343.428;  -10.625; -488.000; -448.000
343.562;  -14.500; -172.000;  -23.000
343.696;  -15.625; -385.000; -314.000
343.830;    2.825; -362.000; -356.000
343.964;   28.875; -231.000; -168.000
344.098; 1136.875;  199.000;   70.000
344.232;  951.600; -266.000; -127.000
344.366;  122.625; -567.000; -453.000
344.500;   98.000; -665.000; -744.000
344.634;   41.825; -324.000; -164.000
344.768;    8.775; -531.000; -341.000
344.902;   25.100;  278.000;  256.000
345.035;  -71.725; -556.000; -496.000
345.169; -133.900; -933.000; -656.000
345.303;  -15.250; -308.000; -482.000
345.437;  -70.150; -826.000; -717.000
345.571;  -82.400; -675.000; -594.000
345.704;  -62.775; -309.000; -532.000
345.838;   -3.500; -331.000; -284.000
345.972;  -32.675; -543.000; -495.000
346.106;  151.625; -179.000; -190.000
346.239;  442.425; -312.000; -243.000
346.373;   19.350; -343.000; -302.000
346.507; -131.275; -950.000; -962.000
346.640;  184.925;  -30.000;   13.000
346.774;  -32.000; -650.000; -797.000
346.908;  -17.650; -138.000;  -11.000
347.041;  -85.800; -646.000; -593.000
347.175;   16.500;  259.000;   27.000
347.309;  -50.350; -698.000; -628.000
347.442;  -92.000; -883.000; -732.000
347.576;  336.475;  670.000;  668.000
347.709;  249.325; -123.000;  -52.000
347.843;  -80.700; -933.000; -825.000
347.976;   34.975;  235.000;  294.000
348.110; -179.625;-1268.000;-1186.000
348.243; -106.325; -679.000; -772.000
348.377;    6.675;  -26.000;   60.000
348.510;   71.425;  403.000;  540.000
348.644;  -30.375;  -37.000; -159.000
348.777;   -2.675;  180.000;  191.000
348.911;  -50.875; -142.000; -112.000
349.044;  193.625;  471.000;  448.000
349.178;  218.025;-1069.000;-1006.000
349.311;  113.200;  141.000;  255.000
349.444;   -9.150; -927.000; -813.000
349.578;   -6.225; -347.000; -200.000
349.711;  -76.450; -959.000; -862.000
349.845;   18.850; -661.000; -591.000
349.978; -130.675;-1224.000;-1137.000
350.111;  -84.175; -546.000; -612.000
350.244;  -71.100; -596.000; -700.000
350.378;   21.125; -392.000; -393.000
350.511;  -60.575; -393.000; -426.000
350.644;  -99.650; -808.000; -806.000
350.778;   10.650;  168.000;  104.000
350.911;   20.475;  134.000;  140.000
351.044;  -68.200; -685.000; -615.000
351.177;  -25.850; -321.000; -281.000
351.310;  -19.450;    3.000; -131.000
351.444;  -57.325; -888.000; -788.000
351.577;  166.250;  140.000;   90.000
351.710;  113.475;  593.000;  417.000
351.843;  -29.950; -165.000;  -77.000
351.976;    3.225;  149.000;  -79.000
352.109;  -75.000; -621.000; -612.000
352.242;  -17.550; -464.000; -419.000
352.376;  -54.525; -580.000; -636.000
352.509;  238.375; -437.000; -356.000
352.642;   59.650; -654.000; -604.000
352.775;   73.225; -141.000;  -98.000
352.908; -118.100; -933.000; -904.000
353.041;  -92.000; -814.000; -824.000
353.174;  -45.150; -551.000; -424.000
353.307;  -72.025; -753.000; -764.000
353.440;   68.650;  541.000;  453.000
353.573; -111.275; -957.000;-1008.000
353.706;  -20.525; -384.000; -558.000
353.839;  -10.325; -264.000; -220.000
353.971;  -79.350; -657.000; -512.000
354.104;  -82.275; -896.000; -835.000
354.237;  -11.775; -627.000; -662.000
354.370;  -81.800; -846.000; -879.000
354.503; -184.950;-1231.000;-1308.000
354.636;  -43.950; -529.000; -348.000
354.769; -127.075; -937.000; -860.000
354.902;   -3.500; -230.000; -139.000
355.034;  -17.875; -164.000; -220.000
355.167;  -28.875; -262.000; -162.000
355.300;  -75.650;-1061.000; -880.000
355.433;  900.250;  -71.000;  -14.000
355.565; 1363.200; -402.000; -384.000
355.698;  353.275; -356.000; -296.000
355.831;   11.225; -882.000; -801.000
355.964;  126.225; -285.000; -170.000
356.096;  -64.375; -856.000; -843.000
356.229;   39.100; -523.000; -530.000
356.362;  285.950; -373.000; -266.000
356.494;  541.350; -229.000; -162.000
356.627;  569.100;  269.000;  377.000
356.760;  652.750;  120.000;   53.000
356.892;  853.725; -286.000; -601.000
357.025;  775.475;  403.000;  389.000
357.157;  725.050; -167.000; -179.000
357.290;  576.125; -856.000; -713.000
357.423;  197.125; -667.000; -556.000
357.555;  155.050; -217.000; -228.000
357.688;  155.925; -483.000; -364.000
357.820;  545.025; -870.000; -877.000
357.953; 4244.175; -563.000; -589.000
358.085;  988.625; -632.000; -612.000
358.218; 1496.700;-1131.000; -932.000
358.350;  270.400;  -58.000;  312.000
358.483; -108.775;-1300.000;-1187.000
358.615;   22.750;-1182.000;-1078.000
358.747;  -24.275;-1187.000;-1058.000
358.880;   55.000; -810.000; -744.000
359.012;   11.350; -376.000; -202.000
359.145;  -42.600; -480.000; -511.000
359.277;   91.975; -962.000; -913.000
359.409; 3546.800;  536.000;  231.000
359.542;  930.950; -738.000; -688.000
359.674;   82.875;   46.000;   13.000
359.806;  -47.775; -565.000; -438.000
359.939;  -41.950; -617.000; -516.000
360.071;  -13.200; -583.000; -579.000
360.203;  -19.975; -411.000; -364.000
360.335;   57.900;  164.000;  -16.000
360.468;  218.475; -249.000; -307.000
360.600; 2794.500; -547.000; -454.000
360.732; 2556.175; -546.000; -423.000
360.864;  344.975;-1216.000;-1044.000
360.996;  380.175; -516.000; -554.000
361.129;   71.075; -389.000; -598.000
361.261;   40.200;  110.000; -113.000
361.393;  -31.000; -252.000; -214.000
361.525;   32.425;   94.000;  244.000
361.657;  -27.575; -821.000; -703.000
361.789;    8.950; -139.000; -155.000
361.921;  320.400; -642.000; -593.000
362.053;  314.650;  524.000;  541.000
362.185;   61.175;  288.000;   72.000
362.318;  -54.975; -709.000; -705.000
362.450;  158.900;  294.000;  444.000
362.582;  203.925; -913.000; -870.000
362.714;  -27.925; -353.000; -332.000
362.846;  -90.175; -606.000; -490.000
362.978; -143.725; -941.000; -811.000
363.109;   84.525; -161.000; -260.000
363.241;  541.300; -739.000; -749.000
363.373;  416.000; -649.000; -564.000
363.505;  589.425; -186.000;  -91.000
363.637;  144.500; -787.000; -601.000
363.769; -116.600;-1067.000;-1080.000
363.901;  -75.850; -596.000; -654.000
364.033; -112.100;-1103.000;-1062.000
364.165;   10.350; -283.000; -283.000
364.296;   76.325; -316.000; -177.000
364.428;   47.125;-1344.000;-1220.000
364.560;  -70.775; -679.000; -661.000
364.692;  -54.525; -738.000; -835.000
364.824;  370.825; -588.000; -456.000
364.955;  451.650; -402.000; -564.000
365.087;  763.575;-1097.000; -852.000
365.219;   16.500; -686.000; -816.000
365.351;  -68.950; -526.000; -572.000
365.482;   76.075;  300.000;  240.000
365.614;  -46.650; -402.000; -314.000
365.746;  -98.050; -729.000; -752.000
365.877;  -95.850; -706.000; -672.000
366.009;  220.375;  -35.000;  -62.000
366.141;  -92.875;-1249.000;-1134.000
366.272;  -99.650; -803.000; -719.000
366.404; -112.050;-1005.000; -874.000
366.535;  -17.275; -139.000;  -12.000
366.667;  -99.950; -644.000; -649.000
366.799;   40.950;  353.000;  203.000
366.930; -116.650; -862.000; -996.000
367.062;  116.875; -639.000; -613.000
367.193;  133.675; -872.000; -842.000
367.325;  -64.700; -580.000; -684.000
367.456;   94.275; -246.000;   31.000
367.588;  159.925; -371.000; -318.000
367.719;   27.600;  -44.000;  -45.000
367.851;   -9.400; -222.000; -241.000
367.982;  -28.150; -875.000; -732.000
368.113;  155.950; -475.000; -358.000
368.245; -120.550; -960.000; -841.000
368.376;  -15.375; -254.000; -302.000
368.508;  -18.450; -188.000; -263.000
368.639; -127.225;-1166.000;-1034.000
368.770;   12.025; -670.000; -589.000
368.902;  -44.000; -836.000; -926.000
369.033;  -95.125; -906.000; -855.000
369.164;  -39.975; -720.000; -653.000
369.296;  -99.375; -452.000; -601.000
369.427;    4.725; -209.000; -144.000
369.558;  -37.800; -593.000; -377.000
369.689;  -81.825; -721.000; -569.000
369.821; -123.675; -951.000; -845.000
369.952;  -10.800;   42.000; -108.000
370.083;  -57.275; -229.000; -108.000
370.214;  -66.725; -735.000; -650.000
370.345;   -5.500;   65.000;   81.000
370.477;  -73.725; -810.000; -790.000
370.608;  306.900; -328.000; -264.000
370.739;  -14.100;-1233.000;-1292.000
370.870;   -9.575;-1102.000; -923.000
371.001;  143.625; -378.000; -467.000
371.132;  -61.150; -754.000; -735.000
371.263;  -19.450;  -42.000; -148.000
371.394; -135.500; -841.000; -748.000
371.525;   33.700;  345.000;  225.000
371.657;  -82.750; -808.000; -670.000
371.788;   97.275;  103.000;  199.000
371.919;  237.800; -384.000; -304.000
372.050; 4370.975;  -91.000; -156.000
372.181; 1318.375; -188.000; -294.000
372.311;  474.375;   42.000; -127.000
372.442;   71.475; -457.000; -451.000
372.573;    5.275; -444.000; -340.000
372.704; -112.450;-1008.000; -980.000
372.835;  121.725; -228.000; -289.000
372.966;  -45.450; -646.000; -554.000
373.097;  -57.575; -575.000; -711.000
373.228;  -20.950; -717.000; -542.000
373.359;  192.775; -824.000; -536.000
373.490; 1184.325; -881.000; -727.000
373.620; 1453.525;-1001.000; -803.000
373.751; 2255.550; -332.000; -396.000
373.882;  985.450; -663.000; -733.000
374.013;  110.150; -449.000; -262.000
374.143;  -24.150; -581.000; -659.000
374.274;  -92.375; -987.000; -908.000
374.405;  219.725; -388.000; -276.000
374.536;  553.350; -526.000; -387.000
374.666; 1414.300; -759.000; -807.000
374.797;  312.700; -817.000; -868.000
374.928; 1107.750; -710.000; -560.000
375.058; 1135.700; -535.000; -500.000
375.189;  100.950;  -59.000;  -93.000
375.320;  -90.500; -928.000;-1034.000
375.450;  -29.925; -625.000; -616.000
375.581;  -39.725; -526.000; -436.000
375.712;  -31.975; -574.000; -250.000
375.842;  407.475; -438.000; -415.000
375.973;  296.700; -554.000; -513.000
376.103;   -9.875; -665.000; -648.000
376.234;  -70.800; -531.000; -552.000
376.364;  -10.350; -944.000; -867.000
376.495;  371.750;  925.000;  529.000
376.625;   22.875; -472.000; -485.000
376.756;  109.400; -709.000; -678.000
376.886;  -47.375;-1178.000;-1026.000
377.017;   33.675;-1048.000;-1061.000
377.147;  297.025; -786.000; -782.000
377.278;   62.300;  174.000;  228.000
377.408; -122.600; -801.000; -815.000
377.538;  -98.800; -707.000; -693.000
377.669;  -77.775; -537.000; -613.000
377.799;  -76.325; -645.000; -635.000
377.929;  -48.150; -610.000; -428.000
378.060; -129.475; -781.000; -847.000
378.190;  -55.850; -726.000; -531.000
378.320;  -43.100; -401.000; -406.000
378.451;   -4.225; -131.000;  -22.000
378.581;   -4.600;  -67.000; -110.000
378.711;  166.850; 1035.000;  866.000
378.841;   18.300; -533.000; -675.000
378.972;  -45.300; -871.000; -751.000
379.102;   12.400; -652.000; -579.000
379.232;  -10.800; -126.000;  -73.000
379.362;  -92.100;-1001.000; -885.000
379.492;   33.025; -373.000; -424.000
379.623;  138.625;    0.000;  111.000
379.753;  -75.575;-1107.000; -974.000
379.883;  243.825;   59.000;  156.000
380.013;   25.175;-1081.000;-1017.000
380.143;  -83.250;-1097.000;-1056.000
380.273; -100.175; -985.000; -861.000
380.403;   -8.750; -344.000; -257.000
380.533;   -0.225; -651.000; -664.000
380.663;  103.250;  173.000;  128.000
380.793;  -69.300;-1027.000;-1074.000
380.923;  -17.075; -103.000;  -34.000
381.053;  -89.375; -613.000; -623.000
381.183;  -20.825; -106.000; -248.000
381.313;   62.050; -656.000; -470.000
381.443;   70.525; -692.000; -473.000
381.573;  282.350; -402.000; -409.000
381.703;  408.000;-1249.000;-1095.000
381.833; -103.350;-1454.000;-1336.000
381.963;  133.325; -134.000;  -87.000
382.093; 1654.450; -925.000; -909.000
382.223;  542.675; -713.000; -602.000
382.353;    8.925; -801.000; -608.000
382.482;  517.200;-1091.000; -964.000
382.612;  956.675; -872.000; -644.000
382.742;  515.025; -695.000; -622.000
382.872;  359.150; -565.000; -551.000
383.002;   71.450;  347.000; -132.000
383.131;  -10.250; -226.000; -160.000
383.261;  -29.500; -706.000; -768.000
383.391;  298.725; -552.000; -377.000
383.521; 2828.100;  451.000;  263.000
383.650;  640.350; -947.000; -904.000
383.780;  -19.325; -783.000; -656.000
383.910;  122.725;  880.000;  802.000
384.039;   65.250; -794.000; -656.000
384.169;  301.175;-1205.000;-1017.000
384.299;   10.025; -650.000; -662.000
384.428;  -84.375; -764.000; -680.000
384.558;  -29.425; -308.000; -275.000
384.687;  -37.125; -414.000; -334.000
384.817;   44.650;   75.000;   -2.000
384.947;   48.750; -234.000; -141.000
385.076;  348.350;  982.000;  912.000
385.206;  118.050;  369.000;  480.000
385.335;  -16.625; -549.000; -417.000
385.465;  -70.950; -655.000; -663.000
385.594;  177.525;  -53.000;  -44.000
385.724;  591.400; -868.000; -838.000
385.853;  175.300; -296.000; -270.000
385.982; 1703.275; -743.000; -787.000
386.112; 2693.125;-1052.000; -871.000
386.241;  200.875; -307.000; -312.000
386.371;   34.875; -174.000;  -87.000
386.500;   25.950; -825.000; -789.000
386.629;   35.725; -874.000; -817.000
386.759;   78.275;  -43.000;   68.000
386.888;   12.875; -170.000; -250.000
387.017;  -67.700; -648.000; -620.000
387.147;  -81.825; -771.000; -798.000
387.276;   22.125; -410.000; -397.000
387.405;   21.525; -398.000; -342.000
387.535;  -26.600; -452.000; -361.000
387.664;  -64.100; -692.000; -620.000
387.793;   91.675; -198.000; -113.000
387.922;  652.900;  255.000;  200.000
388.052;   56.100; -576.000; -423.000
388.181;   52.200; -342.000; -472.000
388.310;   39.100; -889.000; -710.000
388.439;  -22.100; -749.000; -742.000
388.568;  226.875;  365.000;  244.000
388.697; 1333.625; -756.000; -653.000
388.826;  308.950; -768.000; -666.000
388.956;   73.450; -285.000; -307.000
389.085;    7.625; -347.000; -287.000
389.214; -106.375; -842.000; -872.000
389.343;  -48.525; -645.000; -413.000
389.472;  383.375;  126.000;  149.000
389.601;  519.600;   91.000;    0.000
389.730;   28.100; -568.000; -687.000
389.859;   71.025;  226.000;   46.000
389.988;  244.125; -423.000; -408.000
390.117;  179.650; -168.000; -146.000
390.246;   14.000; -331.000; -320.000
390.375;  147.425; -673.000; -626.000
390.504;  -72.600; -703.000; -621.000
390.633;  -81.900; -672.000; -726.000
390.761;  -41.875; -732.000; -645.000
390.890;   48.500;   -4.000; -130.000
391.019;  -25.200; -421.000; -441.000
391.148; -113.700; -826.000; -855.000
391.277;  -61.025; -576.000; -493.000
391.406;  -58.525; -821.000; -805.000
391.534;   21.050;  574.000; -301.000
391.663;  -58.250; -583.000; -645.000
391.792;  -70.300; -673.000; -701.000
391.921;  139.500;   -3.000;   15.000
392.050;  262.500; -287.000; -228.000
392.178;   -9.025;-1206.000;-1061.000
392.307;  213.775; -758.000; -712.000
392.436;  116.325; -427.000; -641.000
392.564;   22.050;  166.000;   -6.000
392.693;  -71.450; -860.000; -682.000
392.822;  278.250; -529.000; -534.000
392.950;  143.950; -880.000; -714.000
393.079;  416.550; -188.000; -328.000
393.208;   58.900; -488.000; -511.000
393.336;   -1.025; -170.000; -145.000
393.465;  -43.600; -317.000; -199.000
393.593;   16.975;   62.000;   79.000
393.722; -156.450;-1121.000; -916.000
393.850;  -27.625; -188.000;  -61.000
393.979; -146.825; -926.000; -805.000
394.107;  -60.250; -517.000; -537.000
394.236;   -4.475; -570.000; -507.000
394.364;  227.825;  383.000;  206.000
394.493;  363.175; -911.000; -767.000
394.621;   -7.950; -955.000; -916.000
394.750;  614.250; -873.000; -923.000
394.878; 2680.825; -247.000; -149.000
395.007; 3635.425; -721.000; -807.000
395.135;  265.100; -790.000; -721.000
395.263;  -96.275;-1038.000;-1040.000
395.392;   -1.350;  -25.000; -107.000
395.520; -139.625; -818.000; -679.000
395.648;  -71.350; -865.000; -915.000
395.777;    1.100; -366.000; -405.000
395.905;  -29.725; -449.000; -564.000
396.033;   18.300;  217.000;  172.000
396.162;  603.600; -399.000; -453.000
396.290;  545.850;  -17.000;   -2.000
396.418;  148.250; -555.000; -514.000
396.546;  -66.975; -571.000; -466.000
396.674;  -88.100; -850.000; -878.000
396.803;   14.850;  -72.000;  -23.000
396.931;  141.225; -179.000; -199.000
397.059;  135.300;-1026.000; -989.000
397.187;  -95.425;-1026.000; -975.000
397.315; -122.475; -884.000; -649.000
397.443;  -96.850; -592.000; -443.000
397.572;  -83.975; -578.000; -424.000
397.700;   23.275; -607.000; -614.000
397.828;   25.075;  120.000;  -90.000
397.956;  -44.725; -508.000; -478.000
398.084;  -73.400; -767.000; -626.000
398.212;   47.550;  137.000;  124.000
398.340;   21.025;  -56.000;  159.000
398.468;   58.200; -390.000; -169.000
398.596; -127.200; -993.000; -953.000
398.724; -101.925; -762.000; -767.000
398.852; -174.700;-1024.000; -976.000
398.980;  -60.525; -560.000; -560.000
399.108;  -29.425; -982.000; -735.000
399.236;   62.825;   13.000;    8.000
399.363;    5.575;  222.000;  196.000
399.491;  -61.425; -404.000; -398.000
399.619; -120.500; -829.000; -800.000
399.747;  -90.475; -859.000; -771.000
399.875;   94.350;  220.000;  234.000
400.003;  -55.350; -359.000; -284.000
400.130;  -95.450; -421.000; -341.000
400.258;  -21.475;  -83.000;   38.000
400.386;  -67.050; -352.000; -168.000
400.514;  -29.525; -526.000; -587.000
400.641;  -66.875; -928.000; -802.000
400.769; -129.825; -979.000; -888.000
400.897; -105.725; -838.000; -793.000
401.025;    6.950; -166.000; -152.000
401.152;    2.900;  220.000;   38.000
401.280;  -93.825; -430.000; -429.000
401.408; -104.800; -712.000; -576.000
401.535;  -99.775; -735.000; -758.000
401.663; -198.700;-1134.000;-1054.000
401.790;  -87.700; -514.000; -525.000
401.918;   45.850;  436.000;  405.000
402.046;  -19.100;  134.000;  122.000
402.173;  -31.050;  -18.000;    7.000
402.301;  -63.575; -519.000; -397.000
402.428;   36.825;  528.000;  383.000
402.556; -141.325;-1188.000; -913.000
402.683;  -32.425;  -20.000;   -1.000
402.811;  -12.075;  -37.000; -206.000
402.938;   -5.675;   20.000;   27.000
403.066;  276.650; -574.000; -558.000
403.193;  414.950;  299.000;  239.000
403.321;  333.200; -396.000; -574.000
403.448;  401.950;   83.000;   27.000
403.575;  181.500;  -90.000;  -46.000
403.703;  -88.650; -732.000; -557.000
403.830;  -53.600; -531.000; -496.000
403.957; -143.575;-1117.000;-1023.000
404.085;    5.425;  -61.000; -172.000
404.212;  121.550;  -50.000;   63.000
404.339;  260.700; -566.000; -306.000
404.467; 5269.675; -612.000; -524.000
404.594; 3740.825; -287.000; -227.000
404.721;  985.875; -869.000; -764.000
404.848;   89.725; -113.000; -202.000
404.976;  -88.100; -856.000; -783.000
405.103;  -13.000;  -14.000;  -82.000
405.230;    4.375;  190.000;  226.000
405.357;   20.650;  117.000;   44.000
405.484;  243.900;  -49.000;    5.000
405.612;   38.725; -548.000; -563.000
405.739;  -76.850; -488.000; -243.000
405.866;   80.250;  669.000;  385.000
405.993;  -40.375; -398.000; -102.000
406.120; -137.200; -801.000; -887.000
406.247;  -55.550; -323.000; -342.000
406.374;  550.325;  540.000;  629.000
406.501;  168.450; -632.000; -702.000
406.628;  -67.525; -621.000; -589.000
406.755;  -82.775; -803.000; -620.000
406.882;  -23.600; -228.000; -277.000
407.009; -113.700; -719.000; -628.000
407.136;   78.500; -480.000; -401.000
407.263;  215.900; -939.000; -829.000
407.390;  -74.050; -692.000; -614.000
407.517; -171.025;-1139.000;-1187.000
407.644;  -56.025; -332.000; -256.000
407.771;  -61.575; -249.000; -287.000
407.898;   16.700;  168.000;  328.000
408.025;  -59.400; -421.000; -313.000
408.151;  -20.425;   82.000;  153.000
408.278;  -70.850; -267.000; -216.000
408.405; -122.925; -931.000; -899.000
408.532;  -62.700; -549.000; -542.000
408.659; -114.725; -677.000; -648.000
408.785; -204.800;-1298.000;-1170.000
408.912;  -67.975; -412.000; -296.000
409.039; -107.200; -610.000; -686.000
409.166; -108.225; -591.000; -555.000
409.292; -117.700; -571.000; -534.000
409.419; -118.450; -665.000; -649.000
409.546;  -90.200; -431.000; -192.000
409.672; -105.825; -713.000; -545.000
409.799;  -12.575;  -36.000;   34.000
409.926;  -42.600; -180.000; -179.000
410.052; -180.350;-1127.000;-1091.000
410.179;  -55.775; -368.000; -392.000
410.305;  -89.275; -375.000; -493.000
410.432;  -48.650; -220.000; -333.000
410.558;  -89.525; -305.000; -380.000
410.685; -103.600; -688.000; -431.000
410.812;  -98.375; -409.000; -588.000
410.938; -130.225; -964.000; -808.000
411.065;  -99.900; -671.000; -645.000
411.191;  -15.500; -189.000; -174.000
411.317; -115.575; -823.000; -742.000
411.444;  -63.950; -317.000; -246.000
411.570;  -67.425; -339.000; -294.000
411.697; -114.800; -758.000; -752.000
411.823; -172.625; -989.000; -999.000
411.949;  -25.450;  -56.000;   17.000
412.076; -115.125; -539.000; -519.000
412.202; -123.825; -758.000; -757.000
412.329; -122.275; -798.000; -752.000
412.455; -127.300; -821.000; -657.000
412.581;   -9.475;  -15.000;  172.000
412.707;  -44.325; -540.000; -457.000
412.834;   15.425;  156.000;  219.000
412.960;  -92.725; -785.000; -784.000
413.086;  -92.675; -743.000; -701.000
413.212;  172.725;  604.000;  578.000
413.339;  -52.300; -685.000; -701.000
413.465;   21.700; -364.000; -310.000
413.591;  -82.875; -757.000; -474.000
413.717;  -44.825; -358.000; -366.000
413.843; -137.400; -839.000; -861.000
413.969;  -55.050;  -47.000; -292.000
414.096; -105.850; -679.000; -679.000
414.222;   -8.975;  -33.000;   85.000
414.348;  -16.175; -652.000; -385.000
414.474;  116.950;   38.000;  -52.000
414.600;  -18.875; -126.000; -144.000
414.726;  -23.600;  -96.000;  -55.000
414.852;  -56.325; -365.000; -342.000
414.978;   44.175;  104.000;  -18.000
415.104;   50.825;   38.000;   80.000
415.230;   21.850; -329.000; -330.000
415.356;   45.950; -409.000; -514.000
415.482;  208.275;   13.000;  -35.000
415.608;  275.425; -247.000; -323.000
415.734;  929.875;   67.000;   38.000
415.860;18887.500; -875.000; -767.000
415.986;13756.175; -685.000; -607.000
416.111; 1189.425; -798.000; -652.000
416.237;  231.600; -424.000; -571.000
416.363; 1005.050; -765.000; -733.000
416.489; 3792.150; -324.000; -251.000
416.615;  390.050; -707.000; -742.000
416.741;  -23.400; -677.000; -784.000
416.866;  -86.225; -673.000; -736.000
416.992; -125.500; -801.000; -818.000
417.118;  -26.425;  -41.000;  -80.000
417.244;  -61.075; -798.000; -531.000
417.369;  -87.400; -801.000; -612.000
417.495;    1.250; -325.000; -254.000
417.621;  -71.625;-1015.000; -803.000
417.746;   10.925; -579.000; -572.000
417.872;   55.625; -254.000; -144.000
417.998;   35.600; -515.000; -530.000
418.123;  949.975;-1073.000; -845.000
418.249; 4944.425; -512.000; -601.000
418.374;  679.975; -916.000; -824.000
418.500;   84.800; -383.000; -482.000
418.626;  106.125;   70.000;  -59.000
418.751;  127.475; -549.000; -448.000
418.877;  180.450; -637.000; -643.000
419.002; 1628.475; -688.000; -560.000
419.128;11471.175; -930.000; -721.000
419.253; 2785.300; -967.000; -837.000
419.379;  365.100; -391.000; -338.000
419.504;  357.675;  325.000;  415.000
419.629;  455.175; -393.000; -212.000
419.755; 3169.975; -317.000; -254.000
419.880;18753.325;  -98.000;   67.000
420.006;10445.125; -280.000; -221.000
420.131;27288.800; -662.000; -775.000
420.256; 3967.950; -315.000; -316.000
420.382;  500.800; -665.000; -687.000
420.507;   52.750; -649.000; -778.000
420.632;  181.175; -337.000; -339.000
420.758;  347.400; -251.000; -425.000
420.883;  -74.000; -876.000; -672.000
421.008; -109.775; -775.000; -619.000
421.133;  -73.775; -509.000; -467.000
421.259;  -45.700; -325.000; -259.000
421.384; -102.650; -834.000; -693.000
421.509;  -23.075;-1052.000; -862.000
421.634; 1540.000; -936.000; -820.000
421.759;  688.775; -359.000; -327.000
421.885;  -31.950; -717.000; -656.000
422.010;  -59.675; -673.000; -542.000
422.135; -145.675; -695.000; -727.000
422.260;   31.975;  340.000;  280.000
422.385;  -35.725;   12.000;  -98.000
422.510;   20.050;  151.000;  -26.000
422.635;   27.150;  -87.000;  -43.000
422.760;  128.675; -766.000; -791.000
422.885;   52.175;  -57.000;  -80.000
423.010;  -30.400; -112.000; -169.000
423.135; -100.725; -481.000; -561.000
423.260;    2.375; -150.000; -245.000
423.385;   99.275;  476.000;  222.000
423.510;   45.525;   71.000;  -22.000
423.635;   97.850;  133.000;   45.000
423.760;   69.875;  383.000;  328.000
423.885;   54.475;  336.000;  391.000
424.010;    7.125;  -68.000;  -13.000
424.135;   -7.075;    5.000;  -33.000
424.259;  -96.775; -654.000; -457.000
424.384;  -69.500; -279.000; -272.000
424.509;  -14.750; -260.000; -186.000
424.634;  -90.325; -761.000; -623.000
424.759;  -25.750; -688.000; -544.000
424.883;  -21.000; -506.000; -527.000
425.008;  157.750; -502.000; -410.000
425.133; 1860.700; -679.000; -653.000
425.258;  853.550; -517.000; -381.000
425.382; 1211.825; -867.000; -774.000
425.507; 3133.725; -487.000; -543.000
425.632;  493.575; -802.000; -663.000
425.756;  415.025; -256.000; -146.000
425.881; 5742.750; -831.000; -857.000
426.006;15339.775; -604.000; -355.000
426.130; 2525.425; -696.000; -508.000
426.255;  316.375; -611.000; -491.000
426.379;  134.575; -189.000; -577.000
426.504;  347.525;  660.000;  544.000
426.629; 3827.850; -519.000; -466.000
426.753; 2642.550;   64.000;  -46.000
426.878;  302.100; -252.000; -288.000
427.002;  178.375; -651.000; -668.000
427.127; 1512.475;  -35.000; -158.000
427.251;10489.950;  372.000;  401.000
427.375; 3023.250; -191.000; -173.000
427.500; 2702.375; -616.000; -610.000
427.624;  915.300; -234.000; -400.000
427.749;  125.850; -216.000; -225.000
427.873;  -37.900; -499.000; -412.000
427.997;  -38.775; -222.000; -230.000
428.122;   72.975;  795.000;  703.000
428.246;   84.300;  433.000;  434.000
428.371; -119.725; -869.000; -773.000
428.495; -101.125; -624.000; -646.000
428.619;  -18.525; -186.000; -117.000
428.743;   27.425;   65.000;  132.000
428.868;   36.400; -732.000; -643.000
428.992; 1712.500; -219.000; -326.000
429.116;  741.850; -329.000; -357.000
429.240;  338.075;  419.000;  426.000
429.365;  -14.125; -454.000; -574.000
429.489;  -39.600; -638.000; -647.000
429.613;   15.825; -236.000; -177.000
429.737;   27.650; -563.000; -432.000
429.861;  247.325; -247.000; -133.000
429.985; 5146.125; -425.000; -305.000
430.109; 5668.275; -770.000; -908.000
430.234;  681.675;   76.000;  -50.000
430.358;   56.500; -250.000; -160.000
430.482;  -71.275; -672.000; -564.000
430.606;  -70.625; -655.000; -375.000
430.730;   33.450; -437.000; -388.000
430.854;  208.025; -909.000; -835.000
430.978;  -49.175; -795.000; -764.000
431.102; -106.550; -499.000; -422.000
431.226; -115.525; -874.000; -815.000
431.350;   31.725;  345.000;  422.000
431.474;  -71.175; -661.000; -373.000
431.597; -149.725;-1060.000; -848.000
431.721;  -87.400; -276.000; -267.000
431.845; -136.125; -704.000; -472.000
431.969;  -74.450; -304.000; -349.000
432.093;  -83.925; -395.000; -317.000
432.217;  -14.875;   32.000;   82.000
432.341;  -94.300; -523.000; -518.000
432.464;   17.250;   96.000;   40.000
432.588;  284.875; -401.000; -329.000
432.712;  117.325;  -52.000;  -52.000
432.836;   38.825;  213.000;  263.000
432.959;  -17.025; -372.000; -311.000
433.083;   71.825;   11.000;    2.000
433.207;  357.625;  285.000;  930.000
433.330; 4602.550; -391.000; -200.000
433.454; 5714.125; -654.000; -638.000
433.578; 3299.750;  583.000;  278.000
433.701;  644.425; -623.000; -675.000
433.825;  177.900; -292.000; -299.000
433.949;  247.025;   28.000;  -72.000
434.072;  112.500; -410.000; -323.000
434.196;  -10.550; -309.000; -117.000
434.319; 3753.600;25482.000;25124.000
434.443;  755.000; -656.000; -603.000
434.566; 2497.900;  281.000;   62.000
434.690;  401.800; -637.000; -383.000
434.813;   53.925; -251.000; -173.000
434.937;  -75.375; -569.000; -696.000
435.060;  -24.400; -423.000; -332.000
435.184;  460.050; -492.000; -217.000
435.307;  232.650;  159.000;  102.000
435.431;   10.650;  -40.000;   24.000
435.554;  -67.375; -399.000; -240.000
435.677;  -87.275; -350.000; -258.000
435.801;  -47.400;  -25.000;   49.000
435.924;    4.375;    1.000;  -67.000
436.048;  -97.925;-1019.000; -732.000
436.171;  -68.675; -240.000;  -66.000
436.294;  -31.575; -248.000; -229.000
436.417;   75.900; -963.000; -849.000
436.541;  -92.325; -814.000; -840.000
436.664;  -55.000; -242.000; -316.000
436.787;  -21.625;   13.000;  113.000
436.910; -109.225; -792.000; -422.000
437.034;   24.425;  142.000;  143.000
437.157;   85.475;  -11.000;    0.000
437.280;  -35.300; -392.000; -292.000
437.403;  -58.525; -982.000; -869.000
437.526;  893.675; -903.000; -865.000
437.649; 3071.650; -505.000; -332.000
437.772;  504.200; -692.000; -540.000
437.896;  149.700;  700.000;  544.000
438.019;  -78.975; -758.000; -503.000
438.142;  -73.275; -596.000; -506.000
438.265;   19.575; -639.000; -670.000
438.388;  755.050; -520.000; -410.000
438.511;  172.950; -597.000; -394.000
438.634;  -39.025; -247.000; -125.000
438.757; -125.400; -693.000; -619.000
438.880;  -31.500;  -34.000;  -57.000
439.003;  -77.500; -417.000; -437.000
439.126;  -70.700; -287.000; -167.000
439.248;  -70.450;  -98.000; -139.000
439.371;  -45.450;    9.000;  -53.000
439.494;   38.225;  510.000;  439.000
439.617;  -53.625;   65.000;  -88.000
439.740; -181.075; -968.000; -816.000
439.863; -162.075; -755.000; -595.000
439.986; -119.125; -476.000; -431.000
440.108;  -49.675; -161.000; -112.000
440.231; -171.000; -950.000; -836.000
440.354;  -31.625;  -64.000; -150.000
440.477;   70.225; -566.000; -542.000
440.599;   29.600; -200.000; -225.000
440.722; -114.675; -709.000; -586.000
440.845;   61.500;  751.000;  928.000
440.968; -118.625; -415.000; -311.000
441.090;  -80.650; -199.000;  -33.000
441.213; -167.525;-1021.000; -825.000
441.336;  -49.525; -159.000;   -5.000
441.458;  -72.950; -549.000; -396.000
441.581;  -70.275; -628.000; -629.000
441.703;  -72.175; -152.000;   13.000
441.826; -115.825; -557.000; -400.000
441.948;  -53.150;   56.000;   51.000
442.071;    9.225;  555.000;  424.000
442.193; -110.675; -531.000; -485.000
442.316;   15.000;  152.000;   97.000
442.438;   34.125; -233.000;  -10.000
442.561;   80.225;  272.000;  262.000
442.683;  742.350; -809.000; -522.000
442.806; 1566.475;   -8.000;   74.000
442.928;   83.175; -859.000; -604.000
443.051;  -60.775; -577.000; -373.000
443.173;  -94.200; -341.000; -339.000
443.295;  -92.675; -263.000; -371.000
443.418;  -57.950; -321.000;  -29.000
443.540;   10.900; -106.000;   -4.000
443.662; -119.475; -563.000; -465.000
443.785;  -25.100;  335.000;  199.000
443.907; -109.825; -362.000; -208.000
444.029; -133.425; -767.000; -494.000
444.152; -137.950; -644.000; -554.000
444.274;  -22.275;  -18.000;  -24.000
444.396; -119.750; -461.000; -221.000
444.518; -138.150; -691.000; -454.000
444.640; -109.875; -268.000; -111.000
444.763;  -21.175;  388.000;  249.000
444.885; -116.400; -432.000; -392.000
445.007;  -44.175;   35.000;   86.000
445.129; -123.400; -610.000; -515.000
445.251;  -93.375; -372.000; -439.000
445.373; -135.950; -537.000; -386.000
445.495;  -13.325;  242.000;  350.000
445.617;   51.850;  853.000;  753.000
445.739;  -62.700; -215.000;  -97.000
445.861;  -27.825; -245.000; -112.000
445.984;  -22.425; -267.000; -101.000
446.105;  271.975; -418.000; -251.000
446.227;  812.825; -176.000;  -19.000
446.349;   54.200; -358.000; -249.000
446.471;  -99.675; -615.000; -448.000
446.593;  -56.525; -316.000;   19.000
446.715;    5.875;  -67.000;   41.000
446.837;   73.300;  697.000;  832.000
446.959; -104.225; -457.000; -478.000
447.081; -130.575; -628.000; -518.000
447.203;   56.725;  862.000;  834.000
447.325;  -78.550; -270.000;   42.000
447.446;  -11.700;  286.000;  530.000
447.568; -156.400; -921.000; -803.000
447.690;  -66.075; -236.000; -245.000
447.812; -135.725; -798.000; -519.000
447.933;  -37.750;  155.000;  127.000
448.055;  -77.875; -306.000; -261.000
448.177;  203.150;   31.000;   79.000
448.299;  154.575; -935.000; -727.000
448.420;   29.925;  -25.000;  159.000
448.542;  -46.150;   -3.000;   33.000
448.664;  -27.700;  109.000;  322.000
448.785;  -43.475;  265.000;   83.000
448.907;  -82.725; -614.000; -353.000
449.028;  -17.025; -771.000; -471.000
449.150;   73.375;  492.000;  589.000
449.272; -185.050;-1044.000; -913.000
449.393;   23.450;  612.000;  694.000
449.515; -141.675; -634.000; -581.000
449.636;  -55.725; -264.000; -155.000
449.758;   73.950;  763.000;  622.000
449.879;  -89.850; -498.000; -396.000
450.001;  -80.275; -149.000;  -49.000
450.122;  -33.900;  -95.000;  162.000
450.244;  -32.625;   37.000;  364.000
450.365; -105.600; -495.000; -301.000
450.486;  -41.375;   80.000;  268.000
450.608;   17.625;  393.000;  326.000
450.729;   59.250;  578.000;  645.000
450.850;    1.050; -574.000; -466.000
450.972;  641.425; -552.000; -389.000
451.093; 4349.375;  190.000;  588.000
451.214; 1874.200; -516.000; -337.000
451.336;  355.900;  773.000;  579.000
451.457;   49.100;  264.000;  393.000
451.578;  -41.100; -118.000;  -74.000
451.699; -114.825; -546.000; -540.000
451.821;  -63.975; -284.000;  -50.000
451.942;   -2.275;  278.000;  285.000
452.063;   36.700;  228.000;  419.000
452.184;  502.700;  -54.000;  -49.000
452.305;  989.750;  103.000;  170.000
452.427;   96.350; -549.000; -301.000
452.548;  -23.950;   23.000;   79.000
452.669;  -35.050; -257.000;  -89.000
452.790;  -26.475;    3.000;  -18.000
452.911;   -5.775;  195.000;  259.000
453.032;  -58.600; -289.000;  -60.000
453.153;  -34.025;  -29.000;   81.000
453.274;   63.475;  737.000;  868.000
453.395;  -60.950;  -51.000;  175.000
453.516;  132.250; 1317.000; 1388.000
453.637;  -57.450; -205.000; -150.000
453.758;  -50.650;   15.000;   69.000
453.879; -124.800; -462.000; -250.000
454.000;   74.550; 1086.000;  948.000
454.121; -105.725; -554.000; -326.000
454.242; -119.525; -599.000; -383.000
454.362;  -66.825;  -99.000;  114.000
454.483;  -38.700; -309.000; -229.000
454.604;   55.975;  512.000;  580.000
454.725; -123.100; -627.000; -555.000
454.846; -124.225; -474.000; -406.000
454.967;  -25.050;  230.000;  539.000
455.087;  -47.900;  179.000;  153.000
455.208;   22.725;  554.000;  856.000
455.329;  -73.550;  -22.000;   82.000
455.450;   28.950;  473.000;  633.000
455.570;  -90.675; -234.000; -211.000
455.691;  -44.475;  201.000;  407.000
455.812; -106.200; -270.000;  -92.000
455.932;  -68.075;  107.000;  -97.000
456.053;  -87.450;   36.000;   24.000
456.173; -123.200; -433.000; -355.000
456.294; -136.825; -476.000; -303.000
456.415;  -59.875;  -73.000;   70.000
456.535;  -30.100;  297.000;  273.000
456.656;  -52.925;  132.000;  240.000
456.776;  -72.825;    3.000;  298.000
456.897;   -4.350;  308.000;  513.000
457.017;  -81.425; -153.000;   -3.000
457.138;  -92.500; -402.000; -249.000
457.258;  -12.000;  263.000;  224.000
457.379;   -5.900;  509.000;  521.000
457.499;  -37.525;  443.000;  432.000
457.620; -140.900; -407.000; -231.000
457.740;  -99.200; -132.000;  -11.000
457.860;  -59.775;   87.000;   44.000
457.981;  -41.850;  132.000;  124.000
458.101;  -70.975;  -89.000;   40.000
458.221;  -17.850;  336.000;  402.000
458.342;  -71.050;   -4.000;  -37.000
458.462;    8.800;  617.000;  352.000
458.582;  -43.975; -302.000; -294.000
458.703;   -7.925;  303.000;  154.000
458.823;  -33.225;   22.000;  163.000
458.943;   15.600;  341.000;  467.000
459.063;  -21.650; 1124.000;  192.000
459.183;  -17.500;  328.000;  313.000
459.304;    0.375;  315.000;  517.000
459.424;  -65.750; -246.000;  -89.000
459.544;  308.875;  388.000;  764.000
459.664;  761.350;  499.000;  506.000
459.784;  301.650; 1004.000; 1175.000
459.904;   58.850;  867.000;  744.000
460.024;   64.250;  867.000;  684.000
460.144;    7.425;  449.000;  554.000
460.264;   -8.575;  515.000;  327.000
460.385;  -84.250; -145.000; -119.000
460.505;   38.325;  905.000;  858.000
460.625;  -89.700;  -17.000;  -68.000
460.745;  -22.300;  396.000;  541.000
460.864;  -53.325;  153.000;  469.000
460.984;    1.475;  499.000;  573.000
461.104;  137.325; 1656.000; 1775.000
461.224;   15.950;  657.000;  650.000
461.344;  -38.875;  431.000;  360.000
461.464;  -37.900;  258.000;  513.000
461.584;  -13.825;  283.000;  466.000
461.704;  -37.800;   58.000;  108.000
461.824;  -57.825;  238.000;  259.000
461.943;  -40.200;  191.000;  130.000
462.063;  -75.350;    2.000;  324.000
462.183;   25.750;  639.000;  717.000
462.303;  120.375; 1678.000; 1230.000
462.422;   24.725;  781.000;  840.000
462.542;  -28.025;  271.000;  391.000
462.662;   45.925;  353.000;  380.000
462.782;  234.925;  833.000;  572.000
462.901;  429.950;  545.000;  717.000
463.021;  276.400; 1702.000; 1638.000
463.141;  -16.825;  337.000;  770.000
463.260;  -35.225;  614.000;  474.000
463.380;   24.325;  902.000;  884.000
463.499;  -38.450;  342.000;  332.000
463.619;  -37.250;  581.000;  559.000
463.738;  115.325; 1644.000;  903.000
463.858;   26.050;  657.000;  811.000
463.978;  -31.900;  542.000;  396.000
464.097;   49.850;  921.000; 1114.000
464.217;  103.325; 1196.000; 1143.000
464.336;   98.100; 1068.000; 1130.000
464.455;  -39.625;  328.000;  659.000
464.575;   40.600;  597.000;  602.000
464.694;  169.750; 1204.000; 1179.000
464.814;  124.450; 1190.000; 1138.000
464.933;   75.475; 1095.000; 1027.000
465.052;  104.850; 1412.000; 1054.000
465.172;   97.875;  922.000;  799.000
465.291;  137.675; 1376.000; 1320.000
465.410;   28.500;  462.000;  735.000
465.530;   78.900; 1355.000; 1310.000
465.649;   60.925; 1209.000; 1273.000
465.768;  127.325; 1673.000; 1508.000
465.888;   57.675;  941.000; 1174.000
466.007;   84.500; 1335.000; 1440.000
466.126;   -4.775;  721.000;  641.000
466.245;   25.500; 1176.000; 1187.000
466.364;   28.900;  950.000; 1060.000
466.484;   72.225; 1024.000; 1213.000
466.603;   42.350; 1101.000; 1222.000
466.722;  127.000; 1490.000; 1769.000
466.841;   79.275; 1151.000; 1401.000
466.960;   44.125; 1069.000;  972.000
467.079;  129.975; 1971.000; 1786.000
467.198;   50.550; 1238.000; 1181.000
467.317;   89.750; 1768.000; 1162.000
467.436;   64.050; 1709.000; 1261.000
467.555;  121.975; 1796.000; 1746.000
467.674;   57.175; 1227.000; 1329.000
467.793;   48.175; 1376.000; 1374.000
467.912;   95.575; 1658.000; 1539.000
468.031;  117.800; 2038.000; 1930.000
468.150;  155.300; 1842.000; 1837.000
468.269;  214.850; 2313.000; 2090.000
468.388;  187.300; 2168.000; 2339.000
468.507;  256.325; 2884.000; 2903.000
468.626;  238.600; 2555.000; 2541.000
468.744;  138.200; 2018.000; 2174.000
468.863;  188.550; 2312.000; 2523.000
468.982;   87.200; 1503.000; 1555.000
469.101;  211.075; 2788.000; 2692.000
469.220;  137.450; 2333.000; 2176.000
469.338;  251.175; 2935.000; 3051.000
469.457;  190.400; 2719.000; 2545.000
469.576;  362.900; 3953.000; 3784.000
469.695;  242.125; 2877.000; 3066.000
469.813;  407.300; 4148.000; 4192.000
469.932;  422.325; 4255.000; 4485.000
470.051;  416.500; 4075.000; 4161.000
470.169;  823.675; 4470.000; 4338.000
470.288; 1402.400; 4700.000; 4809.000
470.406;  849.025; 5059.000; 5194.000
470.525;  626.875; 6101.000; 5787.000
470.644;  642.925; 6847.000; 6794.000
470.762;  818.400; 8397.000; 7873.000
470.881;  899.475; 8651.000; 8464.000
470.999; 1046.575; 9685.000; 9151.000
471.118; 1083.725;11174.000;10711.000

