
Integration time [ms]: 200.000
Averaging Nr. [scans]: 10
Smoothing Nr. [pixels]: 0
Data measured with spectrometer [name]: 2101012U2
Wave   ;Sample   ;Dark     ;Reference
[nm]   ;[counts] ;[counts] ;[counts] 

197.733;  137.600;  516.000;  404.000
197.879; -179.900; -610.000; -634.000
198.025; -129.900; -475.000; -420.000
198.171; -150.700; -602.000; -612.000
198.317;  -54.100; -401.000; -316.000
198.463; -123.800; -655.000; -404.000
198.609;   62.200;  181.000; -137.000
198.755; -166.300; -644.000; -410.000
198.901; -128.500; -505.000; -424.000
199.047; -121.500; -615.000; -488.000
199.193;  -79.100; -230.000; -468.000
199.339;  -80.300; -222.000; -369.000
199.485;   89.200;  330.000;  271.000
199.631;   69.300;  227.000;  310.000
199.777; -120.100; -466.000; -398.000
199.923; -109.500; -610.000; -424.000
200.069;    0.100; -141.000;  -58.000
200.215;  127.000;  128.000;  453.000
200.361;   93.500;  243.000;  477.000
200.507; -125.000; -600.000; -373.000
200.653;  -70.700; -371.000; -194.000
200.798;  -52.500; -215.000; -125.000
200.944;   -1.600; -146.000;  -41.000
201.090;   94.400;   61.000;  222.000
201.236;  -36.400; -116.000; -158.000
201.382;  281.900;  874.000;  903.000
201.528;    5.600;  -58.000;  -48.000
201.674; -117.700; -386.000; -293.000
201.819; -159.100; -540.000; -439.000
201.965; -170.000; -699.000; -447.000
202.111;  -63.300; -273.000; -226.000
202.257;  -43.100; -250.000; -238.000
202.402;   23.200;   13.000;  -36.000
202.548;  -37.600; -169.000; -116.000
202.694;  167.300;  410.000; -183.000
202.840; -134.800; -603.000; -531.000
202.985; -151.800; -681.000; -639.000
203.131; -198.900; -832.000; -666.000
203.277;  -53.400; -199.000; -262.000
203.423;  -84.900; -434.000; -520.000
203.568;  -74.800; -462.000; -237.000
203.714;  -91.300; -535.000; -542.000
203.860; -163.500; -682.000; -641.000
204.005;   36.200;  112.000;  167.000
204.151;  173.400;  561.000;  556.000
204.296;  -82.700; -354.000; -221.000
204.442; -121.300; -600.000; -547.000
204.588; -161.100; -592.000; -579.000
204.733;   59.200;  178.000;  168.000
204.879; -251.700;-1018.000; -822.000
205.025;   14.000;  -99.000;  126.000
205.170;   23.600;  -17.000;   94.000
205.316;  182.400;  438.000;  661.000
205.461; -186.000; -698.000; -554.000
205.607;  187.200;  609.000;  665.000
205.752; -163.700; -626.000; -551.000
205.898; -101.000; -501.000; -391.000
206.043; -132.800; -578.000; -506.000
206.189;  -94.400; -243.000; -285.000
206.334;  214.400;  554.000;  606.000
206.480;  190.600;  409.000;  239.000
206.625; -138.100; -529.000; -552.000
206.771; -102.300; -451.000; -373.000
206.916;  -64.700; -210.000; -537.000
207.062; -151.400; -545.000; -591.000
207.207; -121.800; -546.000; -443.000
207.353;  121.300;  185.000;  460.000
207.498;   55.600;  196.000;   85.000
207.643; -106.700; -501.000; -370.000
207.789; -249.500;-1069.000; -910.000
207.934; -205.300; -665.000; -713.000
208.080;  -33.600; -154.000;   66.000
208.225;  -15.500;  -22.000;  -57.000
208.370; -183.600; -727.000; -619.000
208.516; -154.500; -741.000; -487.000
208.661;  -50.600; -127.000;  -69.000
208.806;  -56.400; -165.000; -171.000
208.952; -250.100;-1044.000; -731.000
209.097;  156.000;  378.000;  349.000
209.242;  -82.000; -307.000; -382.000
209.387;  130.100;  392.000;  350.000
209.533;  -75.800; -321.000; -350.000
209.678;  181.000;  472.000;  543.000
209.823;  -66.500; -408.000; -310.000
209.969; -223.100; -860.000; -757.000
210.114; -199.300; -907.000; -719.000
210.259; -238.900; -939.000; -889.000
210.404;    5.500; -171.000;  103.000
210.549;   23.200;  108.000;    3.000
210.695;  -38.600;   -3.000;  -95.000
210.840;   74.700;   94.000;   67.000
210.985; -133.200; -484.000; -303.000
211.130;  129.100;  268.000;  406.000
211.275;   55.900;  207.000;  199.000
211.420; -111.600; -300.000; -289.000
211.566; -121.100; -536.000; -489.000
211.711;   47.900;  218.000;  157.000
211.856; -108.100; -545.000; -519.000
212.001;   27.600;  151.000;   44.000
212.146;   33.600;  153.000;   49.000
212.291;  -60.400; -210.000; -186.000
212.436;  -24.400; -280.000;   -6.000
212.581; -182.800; -685.000; -653.000
212.726; -151.400; -487.000; -538.000
212.871;  -94.000; -552.000; -217.000
213.016; -308.800;-1172.000;-1029.000
213.161;  145.900;  406.000;  291.000
213.306; -177.700; -435.000; -577.000
213.451; -195.200; -778.000; -689.000
213.596; -111.200; -455.000; -347.000
213.741; -113.700; -448.000; -538.000
213.886; -160.700; -498.000; -517.000
214.031;  -44.400; -294.000; -124.000
214.176; -103.400; -408.000; -341.000
214.321;  -32.700; -296.000; -157.000
214.466;  -35.000; -163.000;  -43.000
214.611;    7.400;  -61.000;  -10.000
214.756; -243.200; -948.000; -858.000
214.901;  -36.400; -388.000; -226.000
215.046; -242.900; -797.000; -825.000
215.191;   83.900;  128.000;   35.000
215.336;   14.900; -157.000;  -19.000
215.480; -139.700; -684.000; -505.000
215.625;  -11.400; -175.000;  -19.000
215.770; -183.000; -757.000; -662.000
215.915;   24.200;   -5.000;  -97.000
216.060;    3.400; -113.000;  -21.000
216.205; -198.600; -731.000; -779.000
216.349; -134.900; -470.000; -533.000
216.494; -289.100; -939.000; -867.000
216.639; -237.200; -823.000; -888.000
216.784; -185.700; -577.000; -525.000
216.929;  122.800;  392.000;  281.000
217.073;  -16.700; -244.000;  -31.000
217.218;    8.600;   78.000;  -47.000
217.363; -164.100; -656.000; -618.000
217.507; -161.800; -623.000; -588.000
217.652; -240.000; -845.000; -874.000
217.797; -198.600; -708.000; -659.000
217.942; -225.500; -856.000; -720.000
218.086;  171.200;  608.000;  539.000
218.231;   -4.900; -174.000;  -26.000
218.376;  -33.100; -337.000; -229.000
218.520;    3.500;  -41.000;   96.000
218.665;  -39.800; -338.000; -204.000
218.810;  -63.900; -275.000; -233.000
218.954;   65.700;  201.000;   35.000
219.099; -222.500; -713.000; -963.000
219.243; -131.200; -589.000; -554.000
219.388;  -42.200; -264.000; -136.000
219.532;  -26.500; -116.000; -116.000
219.677; -160.700; -564.000; -521.000
219.822;   65.600;   33.000;   89.000
219.966;   27.200;   17.000;  -99.000
220.111;  -34.500; -328.000;  -40.000
220.255; -194.900; -797.000; -750.000
220.400;  -36.100; -180.000; -146.000
220.544; -107.900; -516.000; -450.000
220.689; -107.100; -422.000; -451.000
220.833;  -30.000; -123.000;  -58.000
220.978;  -83.500; -393.000; -563.000
221.122;   59.700;  319.000;  307.000
221.267; -225.600; -906.000; -837.000
221.411; -147.100; -478.000; -394.000
221.555;   -0.800; -104.000;  -23.000
221.700;  -84.700; -329.000; -222.000
221.844;   94.300;  255.000;  272.000
221.989;  -70.400; -328.000; -311.000
222.133;  -40.000; -289.000; -307.000
222.277;   -5.300;    5.000;   78.000
222.422;   15.300;  227.000;  113.000
222.566;  -80.300; -381.000; -214.000
222.711; -149.400; -414.000; -479.000
222.855; -165.500; -643.000; -586.000
222.999; -176.200; -642.000; -717.000
223.144;  -35.500; -195.000; -194.000
223.288;  125.400;  423.000;  251.000
223.432;   82.700;  184.000;  230.000
223.576;   38.300;  152.000;  -21.000
223.721;   92.400;  364.000;  273.000
223.865; -105.200; -472.000; -475.000
224.009;  524.100; 1673.000; 1631.000
224.153; -166.000; -660.000; -671.000
224.298; -125.200; -531.000; -489.000
224.442;   12.000;  -74.000;  -33.000
224.586;  -18.600; -169.000; -106.000
224.730; -192.500; -858.000; -670.000
224.875; -225.100; -739.000; -688.000
225.019;   35.200;  102.000;  188.000
225.163;  128.200;  208.000;  341.000
225.307;   68.100;   97.000;  -91.000
225.451;  109.200;  360.000;  481.000
225.595;   75.900;  264.000;  176.000
225.739;  -25.500; -170.000;  -94.000
225.884;   13.300;   86.000;    5.000
226.028; -170.000; -760.000; -626.000
226.172;  -63.700; -260.000; -273.000
226.316; -217.300; -941.000; -902.000
226.460; -174.900; -645.000; -493.000
226.604; -101.300; -406.000; -400.000
226.748; -200.600; -836.000; -733.000
226.892;  -64.400; -227.000; -181.000
227.036; -101.300; -537.000; -447.000
227.180;  -84.200; -551.000; -375.000
227.324; -123.000; -561.000; -580.000
227.468; -233.400; -819.000; -717.000
227.612;   44.300;  242.000;  -28.000
227.756; -190.800; -845.000; -698.000
227.900;  140.700;  342.000;  441.000
228.044; -113.700; -509.000; -290.000
228.188;  121.800;  448.000;  568.000
228.332; -160.100; -546.000; -472.000
228.476;  -61.200; -223.000; -149.000
228.620;  -62.000; -210.000; -150.000
228.764;  157.500;  431.000;  349.000
228.908;  -53.400; -155.000;   30.000
229.052; -100.700; -615.000; -528.000
229.195;   -6.500; -172.000;   13.000
229.339;  -72.200; -235.000; -305.000
229.483;  -37.000;    5.000; -162.000
229.627;    7.900; -156.000;  139.000
229.771; -107.000; -218.000; -294.000
229.915;   46.500;  230.000;   79.000
230.059; -161.900; -648.000; -663.000
230.202;  -51.200; -370.000; -317.000
230.346;  -49.800; -107.000;  107.000
230.490; -121.200; -489.000; -521.000
230.634; -199.700; -736.000; -553.000
230.777;  155.900;  478.000;  509.000
230.921; -102.400; -450.000; -359.000
231.065;  -83.100; -246.000; -286.000
231.209;   44.000;  261.000;  265.000
231.352;   71.600;   54.000;   40.000
231.496;   75.800;  568.000;  188.000
231.640; -162.900; -693.000; -621.000
231.783;  183.800;  546.000;  525.000
231.927;  -37.400; -294.000; -365.000
232.071; -248.800; -962.000; -736.000
232.214; -266.900; -980.000; -764.000
232.358; -184.000; -683.000; -599.000
232.502;    6.800;  -19.000;    7.000
232.645; -261.700;-1090.000; -927.000
232.789;  -52.600; -257.000; -218.000
232.933;  -93.400; -407.000; -224.000
233.076; -222.300;-1038.000; -897.000
233.220; -188.600; -752.000; -777.000
233.363; -121.000; -669.000; -477.000
233.507;  179.900;  371.000;  129.000
233.650; -187.100; -764.000; -834.000
233.794;  115.100;  438.000;  461.000
233.938;  -97.700; -530.000; -362.000
234.081;  -23.600;  -93.000;   31.000
234.225; -135.800; -631.000; -539.000
234.368; -217.500; -773.000; -723.000
234.512;  -72.000; -385.000; -299.000
234.655; -165.300; -582.000; -555.000
234.798; -102.500; -493.000; -466.000
234.942; -267.000; -884.000;-1002.000
235.085; -142.200; -651.000; -443.000
235.229; -123.700; -405.000; -410.000
235.372;  -80.500; -247.000; -191.000
235.516;  -93.800; -397.000; -321.000
235.659;   72.400;   92.000;  121.000
235.802;    3.600;  -38.000;  -22.000
235.946;   74.600;  335.000;  215.000
236.089;   68.600;  126.000;  250.000
236.233;  113.600;  275.000;  298.000
236.376;  -64.000; -235.000; -378.000
236.519; -108.800; -297.000; -319.000
236.663;  -25.600; -215.000; -117.000
236.806; -271.700;-1029.000; -999.000
236.949;  121.500;  543.000;  431.000
237.092;  127.000;  412.000;  391.000
237.236; -149.100; -589.000; -502.000
237.379;  138.500;  352.000;  428.000
237.522; -224.400; -879.000; -768.000
237.666;  -17.600; -271.000;   18.000
237.809; -257.500; -851.000; -823.000
237.952;   95.800;  469.000;  271.000
238.095;  -94.200; -447.000; -442.000
238.238;  173.100;  688.000;  700.000
238.382;    2.600;  166.000;  103.000
238.525; -130.100; -598.000; -511.000
238.668; -277.000;-1060.000; -985.000
238.811; -165.500; -638.000; -643.000
238.954;  -99.500; -483.000; -334.000
239.097;  235.400;  617.000;  664.000
239.241;   63.400;  394.000;  326.000
239.384;  -59.200; -254.000; -214.000
239.527;  -80.400; -424.000; -224.000
239.670; -311.400; -994.000;-1091.000
239.813; -206.800; -696.000; -658.000
239.956;  195.300;  579.000;  473.000
240.099; -233.900; -778.000; -725.000
240.242;  175.600;  428.000;  432.000
240.385;  106.200;  466.000;  450.000
240.528; -176.400; -706.000; -473.000
240.671;   48.400;  189.000;  134.000
240.814;  -92.500; -441.000; -158.000
240.957; -219.200; -767.000; -578.000
241.100; -188.800; -779.000; -755.000
241.243; -295.200;-1234.000; -893.000
241.386; -127.600; -508.000; -379.000
241.529; -179.600; -735.000; -547.000
241.672; -119.700; -566.000; -495.000
241.815; -214.500; -832.000; -808.000
241.958;  -43.300; -125.000; -182.000
242.101; -160.400; -545.000; -390.000
242.244;  -61.200; -270.000; -325.000
242.387;  -69.100; -304.000; -246.000
242.530;  155.500;  470.000;  134.000
242.673;  -62.600; -381.000; -309.000
242.815; -240.200; -925.000; -899.000
242.958; -139.000; -482.000; -381.000
243.101;   71.500;  132.000;  187.000
243.244; -144.900; -564.000; -521.000
243.387;  -55.800; -313.000; -316.000
243.530; -172.700; -657.000; -674.000
243.672;   34.900;   43.000;  -92.000
243.815; -100.000; -355.000; -283.000
243.958;   22.300;   98.000;  -26.000
244.101;    5.800;   59.000;  -16.000
244.243;   -3.800;  -47.000;  101.000
244.386; -200.700; -761.000; -630.000
244.529;  -39.600; -132.000; -139.000
244.672; -310.200;-1154.000; -951.000
244.814; -186.900; -621.000; -794.000
244.957;  -73.500; -380.000; -304.000
245.100; -148.300; -489.000; -489.000
245.242; -100.500; -387.000; -374.000
245.385;   -4.700;  -59.000;  -39.000
245.528; -263.000; -871.000; -705.000
245.670;  232.300;  612.000;  634.000
245.813; -173.200; -599.000; -547.000
245.956;  -40.500; -324.000; -275.000
246.098; -125.300; -508.000; -650.000
246.241;   14.700;  194.000;   48.000
246.383;   -5.900; -119.000;  -73.000
246.526; -147.400; -454.000; -525.000
246.669; -236.600; -889.000; -780.000
246.811;   54.000;  172.000;   -1.000
246.954; -115.400; -512.000; -426.000
247.096;  -26.200;  -84.000;   -6.000
247.239; -144.900; -482.000; -445.000
247.381; -139.400; -647.000; -488.000
247.524;  179.400;  645.000;  679.000
247.666;  -17.000;   58.000;   11.000
247.809; -214.800; -887.000; -691.000
247.951;  -28.000;  -75.000;  138.000
248.094;   47.100;  432.000;  308.000
248.236; -320.100;-1262.000;-1238.000
248.378;  -69.800; -356.000;  -81.000
248.521;  -63.600; -334.000; -337.000
248.663;  -72.900; -236.000; -267.000
248.806;  -60.000; -300.000; -266.000
248.948; -249.100; -886.000; -763.000
249.090; -129.900; -428.000; -398.000
249.233; -116.200; -344.000; -381.000
249.375; -144.100; -474.000; -451.000
249.518;  -15.800;  -83.000; -133.000
249.660;   -2.500; -103.000;    3.000
249.802; -357.300;-1303.000;-1189.000
249.945; -140.900; -612.000; -540.000
250.087; -204.600; -834.000; -768.000
250.229; -100.600; -362.000; -480.000
250.371; -158.500; -494.000; -439.000
250.514;  -80.000; -310.000; -244.000
250.656;   35.000;   69.000;  102.000
250.798; -241.900; -849.000; -800.000
250.940; -105.000; -322.000; -322.000
251.083;  -20.000; -335.000; -111.000
251.225;  119.500;  338.000;  310.000
251.367;  -79.100; -274.000; -373.000
251.509;  -70.200; -265.000; -210.000
251.651; -185.900; -731.000; -671.000
251.794;  158.400;  538.000;  632.000
251.936; -220.200; -821.000; -747.000
252.078; -130.900; -540.000; -461.000
252.220; -185.600; -645.000; -477.000
252.362;   80.000;  344.000;  462.000
252.504; -166.400; -677.000; -584.000
252.646; -210.300; -875.000; -722.000
252.788;  -28.500;   14.000; -128.000
252.931;  -77.800; -257.000; -253.000
253.073; -100.500; -376.000; -317.000
253.215;  -17.300;  141.000;  122.000
253.357;    3.700;   82.000; -153.000
253.499;  -85.200; -374.000; -234.000
253.641; -198.000; -749.000; -594.000
253.783; -198.200; -609.000; -527.000
253.925; -175.600; -586.000; -591.000
254.067; -249.400; -744.000; -667.000
254.209;  -46.200; -391.000; -259.000
254.351; -278.800; -865.000; -883.000
254.493; -108.900; -441.000; -417.000
254.635; -252.800; -936.000; -818.000
254.777; -196.800; -752.000; -687.000
254.918; -141.900; -512.000; -430.000
255.060; -146.800; -551.000; -395.000
255.202; -117.600; -473.000; -261.000
255.344; -134.400; -658.000; -455.000
255.486; -116.600; -471.000; -406.000
255.628; -227.900; -780.000; -781.000
255.770; -154.300; -676.000; -536.000
255.912; -117.900; -559.000; -468.000
256.053; -177.600; -730.000; -508.000
256.195;  375.400; 1008.000;  903.000
256.337; -199.800; -861.000; -595.000
256.479;  162.900;  532.000;  416.000
256.621;  -73.300; -394.000; -212.000
256.762; -188.300; -789.000; -742.000
256.904;  119.700;  485.000;  487.000
257.046;  -64.000; -381.000; -271.000
257.188;  -85.600; -351.000; -264.000
257.329; -133.600; -525.000; -464.000
257.471; -210.200; -939.000; -807.000
257.613; -135.300; -584.000; -498.000
257.755; -284.000;-1073.000; -982.000
257.896;  104.400;  286.000;  392.000
258.038; -109.400; -403.000; -352.000
258.180;  -95.000; -354.000; -279.000
258.321; -187.000; -581.000; -457.000
258.463;    4.100;  -71.000;  133.000
258.605; -180.000; -562.000; -570.000
258.746; -219.700; -886.000; -772.000
258.888; -329.300;-1026.000;-1020.000
259.029;   52.700;  121.000;   -8.000
259.171; -170.500; -614.000; -550.000
259.313;    2.900;  -49.000;  -47.000
259.454; -132.100; -536.000; -414.000
259.596; -125.700; -483.000; -390.000
259.737; -155.300; -590.000; -474.000
259.879;   90.700;  217.000;  311.000
260.020;  171.200;  901.000;  636.000
260.162;  -48.700; -146.000; -253.000
260.303; -234.700; -768.000; -687.000
260.445; -194.500; -609.000; -613.000
260.586;  107.000;  392.000;  157.000
260.728;  -79.900; -360.000; -248.000
260.869; -141.000; -350.000; -343.000
261.011;  157.600;  706.000;  537.000
261.152;  -87.500; -479.000; -319.000
261.293; -167.200; -576.000; -595.000
261.435;  -47.400; -219.000; -184.000
261.576; -125.100; -455.000; -325.000
261.718;  144.400;  420.000;  470.000
261.859; -249.500; -940.000; -949.000
262.000; -261.800; -951.000;-1016.000
262.142;  -53.500;  -52.000;  -60.000
262.283; -215.200; -808.000; -691.000
262.424; -173.000; -666.000; -625.000
262.566; -301.200;-1161.000; -983.000
262.707; -229.000; -840.000; -830.000
262.848; -243.000; -769.000; -726.000
262.990;  -82.000; -362.000; -345.000
263.131;  205.700;  650.000;  681.000
263.272;   -7.400;  -61.000;  -41.000
263.413; -159.800; -589.000; -561.000
263.555; -165.700; -669.000; -143.000
263.696; -140.100; -550.000; -641.000
263.837; -132.400; -449.000; -551.000
263.978;   32.700;   -5.000;  -77.000
264.119;  -94.200; -283.000; -264.000
264.261; -233.400; -847.000; -630.000
264.402;   -7.200;   33.000;   40.000
264.543; -167.600; -509.000; -524.000
264.684;  -13.600;   61.000;  -50.000
264.825; -138.800; -816.000; -538.000
264.966;   17.100;  -84.000;  -67.000
265.107; -222.500; -646.000; -670.000
265.248; -244.100; -825.000; -812.000
265.390;   39.300;  152.000;   -9.000
265.531;  -17.400; -238.000; -107.000
265.672; -151.500; -557.000; -630.000
265.813;  152.000;  563.000;  439.000
265.954; -307.600; -959.000; -940.000
266.095;   13.000; -372.000; -322.000
266.236; -184.900; -686.000; -548.000
266.377;  -73.800; -243.000; -297.000
266.518; -155.800; -619.000; -547.000
266.659;  106.400;  170.000;  268.000
266.800;  -22.300;   83.000;   85.000
266.941; -161.800; -487.000; -478.000
267.082;   96.600;  354.000;   99.000
267.223;  -92.100; -344.000; -273.000
267.364; -239.400; -892.000; -686.000
267.504;  -36.300;    3.000;  135.000
267.645;   16.600;  160.000;   67.000
267.786;  -50.800; -147.000;  -86.000
267.927; -138.400; -473.000; -379.000
268.068;  -12.300; -186.000;  -61.000
268.209;  -85.300; -175.000; -413.000
268.350; -102.700; -388.000; -532.000
268.490; -159.400; -648.000; -521.000
268.631;   84.900;  127.000;  225.000
268.772; -227.400; -874.000; -647.000
268.913;  -72.700; -328.000; -476.000
269.054;  -65.000; -117.000;   12.000
269.194;  -88.900; -418.000; -402.000
269.335; -289.100;-1137.000;-1074.000
269.476;  -25.400;   33.000;  -35.000
269.617;  -90.600; -347.000; -392.000
269.757; -208.100; -713.000; -646.000
269.898; -227.700; -856.000; -613.000
270.039; -105.800; -415.000; -405.000
270.180; -268.600; -952.000; -816.000
270.320;  -56.600; -190.000; -250.000
270.461;  -55.800; -277.000; -249.000
270.602;   -6.300; -186.000; -156.000
270.742; -261.500; -868.000; -943.000
270.883;  -99.400; -442.000; -390.000
271.023; -112.300; -358.000; -357.000
271.164; -146.700; -607.000; -528.000
271.305; -197.500; -666.000; -654.000
271.445; -185.700; -722.000; -683.000
271.586; -127.700; -462.000; -283.000
271.726;  -74.400; -397.000; -322.000
271.867; -157.900; -594.000; -534.000
272.008;  -71.300; -473.000; -285.000
272.148;  106.700;  462.000;  468.000
272.289;  -13.700; -113.000; -181.000
272.429;   -6.600;   19.000;  185.000
272.570; -188.000; -633.000; -737.000
272.710; -192.900; -825.000; -775.000
272.851;  -39.400;  113.000; -130.000
272.991; -342.700;-1173.000;-1077.000
273.131; -118.000; -419.000; -459.000
273.272; -195.300; -683.000; -723.000
273.412;  -33.700; -143.000;  -31.000
273.553; -143.400; -488.000; -507.000
273.693;  279.100;  913.000;  858.000
273.834; -245.100; -894.000; -692.000
273.974; -196.200; -664.000; -615.000
274.114; -185.800; -772.000; -560.000
274.255;   90.200;  414.000;  373.000
274.395;  -82.500; -180.000; -125.000
274.535;   75.800;  199.000;  350.000
274.676;   49.200;  225.000;   94.000
274.816;  -31.500;  110.000;   34.000
274.956; -185.200; -624.000; -690.000
275.097; -274.800;-1014.000; -922.000
275.237; -261.100; -913.000; -803.000
275.377; -210.200; -778.000; -689.000
275.517; -327.100; -878.000; -937.000
275.658; -166.300; -590.000; -555.000
275.798; -145.800; -606.000; -413.000
275.938;   60.600;  215.000;  323.000
276.078; -180.700; -626.000; -395.000
276.218;  -14.300;   99.000;  104.000
276.359; -279.300;-1026.000;-1024.000
276.499; -161.200; -605.000; -446.000
276.639;  -41.200; -305.000; -151.000
276.779;  -99.600; -475.000; -357.000
276.919; -210.600; -783.000; -624.000
277.059;  -51.200; -261.000; -212.000
277.199;  -77.100; -357.000; -259.000
277.340;   50.300;  287.000;  175.000
277.480; -234.700; -840.000; -693.000
277.620;   60.800;  192.000;   16.000
277.760; -419.200;-1533.000;-1294.000
277.900;   11.400;  113.000;   33.000
278.040;   43.800;  137.000;  159.000
278.180;   54.800;  270.000;  170.000
278.320;   14.600;   21.000;   56.000
278.460; -122.400; -443.000; -469.000
278.600; -179.300; -708.000; -598.000
278.740;  148.200;  448.000;  224.000
278.880; -251.600; -768.000; -791.000
279.020;  -30.700; -194.000; -144.000
279.160; -207.800; -672.000; -595.000
279.300; -250.300; -926.000; -873.000
279.440; -202.700; -709.000; -622.000
279.579; -263.100;-1014.000; -929.000
279.719; -132.700; -410.000; -394.000
279.859;   63.900;   -4.000;   41.000
279.999;  -46.200; -208.000;  101.000
280.139; -120.200; -435.000; -387.000
280.279; -207.500; -708.000; -745.000
280.419;  -33.500; -229.000; -147.000
280.559;  -83.900; -259.000; -180.000
280.698; -231.300; -790.000; -639.000
280.838; -219.100; -778.000; -800.000
280.978; -194.900; -846.000; -790.000
281.118; -246.400; -811.000; -704.000
281.257;   38.800;   24.000;    6.000
281.397; -318.200;-1094.000; -960.000
281.537; -215.800; -599.000; -712.000
281.677;  -52.500; -150.000; -101.000
281.816; -174.600; -700.000; -630.000
281.956;  -68.200; -193.000; -257.000
282.096; -110.400; -539.000; -396.000
282.235; -195.400; -672.000; -638.000
282.375;  -69.900; -243.000;  -98.000
282.515; -225.200; -715.000; -707.000
282.654;   45.300;   29.000;  106.000
282.794;   78.600;  388.000;  244.000
282.934; -142.200; -530.000; -491.000
283.073; -278.900;-1030.000; -857.000
283.213;  -98.100; -460.000; -467.000
283.353;  -90.800; -408.000; -349.000
283.492;  -71.900; -264.000; -296.000
283.632;  -94.900; -254.000; -168.000
283.771; -233.600; -859.000; -730.000
283.911;  -77.000; -369.000; -260.000
284.050; -233.800; -794.000; -748.000
284.190; -325.900;-1229.000;-1096.000
284.329; -298.300;-1055.000; -964.000
284.469; -196.900; -516.000; -591.000
284.608; -134.000; -559.000; -598.000
284.748; -162.900; -614.000; -570.000
284.887;   25.000;  -87.000;  -20.000
285.027; -276.800; -844.000; -892.000
285.166;  -92.500; -192.000; -249.000
285.306;  -48.400; -116.000;  -33.000
285.445;  -96.100; -229.000; -343.000
285.584; -161.000; -630.000; -494.000
285.724; -102.900; -282.000; -322.000
285.863; -222.100; -857.000; -507.000
286.002; -111.400; -366.000; -276.000
286.142; -232.000; -715.000; -622.000
286.281; -154.900; -525.000; -493.000
286.420; -163.400; -554.000; -417.000
286.560;  199.400;  653.000;  623.000
286.699; -280.400; -958.000; -912.000
286.838; -172.200; -590.000; -591.000
286.978; -174.700; -533.000; -537.000
287.117; -284.500;-1085.000; -950.000
287.256;  -46.700; -228.000; -211.000
287.395;  -94.700; -197.000; -378.000
287.535;  -94.100; -370.000; -298.000
287.674; -186.900; -509.000; -484.000
287.813;  110.800;  661.000;  533.000
287.952; -266.700;-1010.000; -871.000
288.091; -318.800;-1049.000; -915.000
288.231;   31.800;   13.000;   15.000
288.370; -342.800;-1217.000;-1200.000
288.509; -193.100; -728.000; -645.000
288.648; -193.100; -770.000; -548.000
288.787;  -64.900; -243.000;  -87.000
288.926; -144.000; -454.000; -475.000
289.065;  238.400;  859.000;  672.000
289.204; -103.900; -377.000; -217.000
289.344; -220.200; -791.000; -690.000
289.483;   65.200;  416.000;  304.000
289.622;  -61.000; -291.000; -149.000
289.761;   -4.300; -309.000; -166.000
289.900; -213.600; -785.000; -626.000
290.039;    7.300;  -12.000;  -95.000
290.178;  -49.900; -274.000; -180.000
290.317; -175.300; -618.000; -479.000
290.456; -120.000; -463.000; -451.000
290.595; -289.600; -961.000; -833.000
290.734; -272.800; -904.000; -891.000
290.873; -143.700; -456.000; -420.000
291.011; -225.600; -833.000; -843.000
291.150; -235.300; -770.000; -682.000
291.289;  -88.600; -343.000; -110.000
291.428; -197.900; -599.000; -480.000
291.567; -100.500; -370.000; -442.000
291.706;   21.100;  109.000;  154.000
291.845; -166.900; -597.000; -505.000
291.984; -352.100;-1234.000;-1061.000
292.122;  136.900;  602.000;  582.000
292.261;  117.800;  620.000;  463.000
292.400;   -9.800; -144.000;  211.000
292.539; -259.600; -959.000; -813.000
292.678;  -73.500; -325.000; -300.000
292.816; -330.100;-1136.000; -965.000
292.955; -218.800; -844.000; -684.000
293.094;  -61.900; -173.000; -337.000
293.233; -101.600; -556.000; -400.000
293.371;  -72.900; -225.000;  -84.000
293.510; -230.900; -866.000; -780.000
293.649; -301.700; -959.000; -924.000
293.787; -297.900;-1083.000;-1012.000
293.926;  -53.700; -113.000;  -32.000
294.065;  -85.600; -379.000; -290.000
294.203;  115.300;  298.000;  406.000
294.342;    7.500;   74.000;  156.000
294.481;12419.700;51180.000; -836.000
294.619;  -62.800; -425.000; -582.000
294.758; -341.700;-1230.000;-1137.000
294.896;   12.200; -125.000;    5.000
295.035; -317.200;-1040.000;-1006.000
295.174; -296.000;-1082.000; -954.000
295.312; -100.300; -323.000; -203.000
295.451; -113.500; -307.000; -428.000
295.589; -153.700; -389.000; -518.000
295.728;    6.100; -292.000; -165.000
295.866;  -30.300;  -36.000;  -51.000
296.005; -151.200; -584.000; -341.000
296.143; -170.200; -558.000; -596.000
296.282; -270.300; -957.000; -881.000
296.420; -190.900; -657.000; -557.000
296.559; -208.200; -892.000; -633.000
296.697; -207.700; -847.000; -665.000
296.835; -313.200;-1141.000;-1002.000
296.974;   44.400;  -23.000;   39.000
297.112; -138.700; -443.000; -504.000
297.251; -216.200; -815.000; -755.000
297.389; -131.800; -576.000; -438.000
297.527;  -12.100; -145.000;  -83.000
297.666; -181.100; -486.000; -438.000
297.804; -132.600; -404.000; -264.000
297.942;  -42.700; -136.000; -161.000
298.081;  -47.400; -183.000;   63.000
298.219;  -31.100;  -17.000;  -19.000
298.357;  -73.700; -144.000;  -71.000
298.495; -241.900; -810.000; -812.000
298.634;   44.300;  245.000;  219.000
298.772;  -67.000; -220.000; -338.000
298.910; -116.000; -309.000; -182.000
299.048;  -49.500; -130.000; -153.000
299.187;  -70.500; -350.000; -250.000
299.325;   28.200;   52.000;  122.000
299.463; -120.100; -389.000; -299.000
299.601;  -80.800; -327.000; -271.000
299.739; -256.800; -908.000; -883.000
299.877; -189.900; -791.000; -703.000
300.016; -324.000;-1095.000; -935.000
300.154;   -7.600;  -19.000; -161.000
300.292; -136.200; -428.000; -348.000
300.430;  -96.200; -408.000; -291.000
300.568; -281.800; -940.000; -874.000
300.706; -144.900; -366.000; -469.000
300.844; -312.200;-1108.000; -979.000
300.982;  104.200;  246.000;  282.000
301.120; -277.700; -965.000; -866.000
301.258; -218.300; -812.000; -705.000
301.396;   26.600;  104.000;  -41.000
301.534;  -92.100; -218.000; -293.000
301.672; -191.600; -664.000; -521.000
301.810; -196.100; -613.000; -545.000
301.948;   44.100;   53.000;  149.000
302.086;  -22.600; -250.000;  -32.000
302.224; -179.500; -610.000; -585.000
302.362; -191.000; -558.000; -622.000
302.500; -262.200; -923.000; -893.000
302.638;   22.500;  128.000;  245.000
302.776;  -73.000; -352.000; -408.000
302.913;   94.400;  447.000;  236.000
303.051;  -60.600;  -86.000;  -23.000
303.189;   35.000;   90.000;  118.000
303.327;  -94.300; -341.000; -256.000
303.465; -185.000; -832.000; -588.000
303.603; -214.400; -805.000; -604.000
303.740;   72.700;  417.000;  241.000
303.878; -224.800; -800.000; -759.000
304.016; -281.000; -915.000; -790.000
304.154; -346.800;-1123.000;-1152.000
304.291; -160.700; -505.000; -554.000
304.429;   20.600;  102.000;   74.000
304.567; -316.600; -908.000; -893.000
304.705; -135.500; -408.000; -515.000
304.842; -186.300; -616.000; -540.000
304.980;   61.200;  215.000;   35.000
305.118;  -97.400; -367.000; -365.000
305.255; -280.600; -945.000; -927.000
305.393;   34.900;  178.000;  239.000
305.531; -296.000;-1173.000; -956.000
305.668; -218.000; -663.000; -582.000
305.806; -111.800; -358.000; -439.000
305.943; -173.000; -629.000; -637.000
306.081;  -45.900; -378.000; -267.000
306.219; -214.000; -863.000; -748.000
306.356;   28.100;  158.000;   27.000
306.494;  178.000;  981.000;  761.000
306.631;  -28.800;  -11.000;  -55.000
306.769; -138.800; -613.000; -485.000
306.906; -136.200; -284.000; -258.000
307.044; -156.600; -473.000; -488.000
307.181; -132.900; -410.000; -332.000
307.319;   89.500;  112.000;   87.000
307.456; -367.400;-1191.000;-1153.000
307.594; -252.000; -980.000; -727.000
307.731;  -67.200; -371.000; -164.000
307.868;    2.500;  -15.000;   20.000
308.006; -267.200; -961.000; -847.000
308.143; -180.900; -618.000; -330.000
308.281;  -69.100;  -37.000; -254.000
308.418; -187.700; -748.000; -640.000
308.555; -176.600; -400.000; -250.000
308.693; -192.800; -577.000; -573.000
308.830; -208.900; -712.000; -657.000
308.967;  -16.400; -215.000;  -95.000
309.105; -139.500; -507.000; -396.000
309.242; -108.000; -468.000; -367.000
309.379; -181.900; -577.000; -655.000
309.517; -270.500; -936.000; -948.000
309.654; -263.000; -910.000; -734.000
309.791; -181.300; -662.000; -580.000
309.928; -282.400; -977.000; -914.000
310.065;  210.600;  819.000;  697.000
310.203; -249.500; -825.000; -850.000
310.340; -162.900; -465.000; -321.000
310.477; -160.200; -412.000; -516.000
310.614; -139.500; -383.000; -473.000
310.751; -152.300; -427.000; -518.000
310.889;  -47.300;    1.000;   11.000
311.026; -320.000;-1161.000; -939.000
311.163; -137.500; -386.000; -380.000
311.300; -153.200; -512.000; -479.000
311.437; -188.300; -658.000; -619.000
311.574; -351.900;-1226.000; -985.000
311.711; -133.700; -595.000; -433.000
311.848;  -92.200; -380.000; -388.000
311.985;   27.200;  270.000;   93.000
312.122; -237.500; -932.000; -762.000
312.259; -268.300; -941.000; -994.000
312.396; -181.300; -508.000; -551.000
312.533; -212.800; -812.000; -790.000
312.670; -307.800;-1070.000; -898.000
312.807;  -72.400; -352.000; -367.000
312.944; -207.300; -513.000; -611.000
313.081; -132.600; -150.000; -415.000
313.218; -279.800;-1111.000; -867.000
313.355; -126.500; -531.000; -449.000
313.492; -106.200; -455.000; -292.000
313.629;  210.400;  815.000;  735.000
313.766; -349.800;-1176.000;-1008.000
313.902;  -31.500; -186.000;   21.000
314.039;  -88.900; -372.000; -289.000
314.176;   37.400;  286.000;  192.000
314.313; -177.300; -569.000; -473.000
314.450; -214.100; -788.000; -684.000
314.587; -150.000; -468.000; -480.000
314.723;   -7.500;  -78.000;  130.000
314.860;   27.100;  318.000;  332.000
314.997;   26.900;  223.000;  142.000
315.134; -123.600; -385.000; -368.000
315.270; -128.100; -480.000; -496.000
315.407; -313.100;-1094.000; -967.000
315.544; -187.900; -657.000; -538.000
315.681; -192.100; -681.000; -565.000
315.817;  -49.300; -133.000; -176.000
315.954; -165.500; -613.000; -392.000
316.091; -321.600;-1045.000;-1023.000
316.227;  -35.800;  -71.000; -179.000
316.364;   -2.400;   23.000;    6.000
316.500; -112.600; -113.000; -300.000
316.637;  -91.200; -181.000; -302.000
316.774; -157.900; -625.000; -358.000
316.910; -205.900; -598.000; -629.000
317.047; -174.700; -487.000; -351.000
317.183; -140.400; -435.000; -566.000
317.320; -131.200; -367.000; -321.000
317.456; -247.000; -733.000; -805.000
317.593; -204.800; -598.000; -641.000
317.729;   27.200;  168.000;  -67.000
317.866; -427.400;-1434.000;-1285.000
318.002; -198.300; -708.000; -948.000
318.139; -284.900; -883.000; -867.000
318.275; -232.400;-1003.000; -738.000
318.412; -170.800; -517.000; -336.000
318.548; -203.500; -751.000; -720.000
318.685; -294.600; -985.000; -888.000
318.821; -243.800; -762.000; -735.000
318.957;  -50.400;   34.000;  -23.000
319.094;   57.300;  297.000;  154.000
319.230; -256.100; -756.000; -742.000
319.367; -155.100; -471.000; -520.000
319.503; -161.400; -538.000; -436.000
319.639; -240.600; -877.000; -793.000
319.775; -215.100; -750.000; -685.000
319.912; -152.700; -424.000; -519.000
320.048; -374.100;-1184.000;-1184.000
320.184;   45.700;   59.000;   70.000
320.321; -157.500; -497.000; -467.000
320.457;  108.500;  475.000;  662.000
320.593; -144.800; -375.000; -382.000
320.729; -210.000; -732.000; -734.000
320.866; -173.000; -577.000; -635.000
321.002; -221.900; -759.000; -809.000
321.138; -107.300; -135.000; -211.000
321.274;  -61.600; -148.000; -115.000
321.410; -146.300; -585.000; -353.000
321.546; -289.200;-1011.000; -911.000
321.683;   63.000;  400.000;  185.000
321.819;   -1.800;  -48.000; -117.000
321.955; -267.700; -743.000; -722.000
322.091; -162.100; -585.000; -540.000
322.227; -108.700; -382.000; -202.000
322.363;  -99.300; -320.000; -215.000
322.499; -106.900; -343.000; -331.000
322.635;  133.100;  636.000;  443.000
322.771;  -52.000; -139.000;   12.000
322.907;   79.500;  129.000;  327.000
323.043;  -60.500; -115.000; -206.000
323.179; -125.000; -394.000; -363.000
323.315; -153.600; -401.000; -371.000
323.451;  -62.400; -328.000; -236.000
323.587;  -50.100;  -60.000;  -77.000
323.723; -202.100; -682.000; -601.000
323.859;  -62.500; -258.000;  -76.000
323.995; -128.100; -467.000; -409.000
324.131; -270.700; -967.000; -892.000
324.267;  -88.200; -254.000; -276.000
324.402; -300.200; -960.000; -983.000
324.538; -105.500; -279.000; -104.000
324.674;  -14.800;  164.000;   77.000
324.810;   30.500;  226.000;  308.000
324.946; -127.900; -810.000; -658.000
325.082; -170.900; -568.000; -475.000
325.217;  -36.300;  -62.000;   16.000
325.353; -214.400; -764.000; -659.000
325.489; -197.600; -540.000; -506.000
325.625; -151.400; -579.000; -525.000
325.760;   49.900;  517.000;  376.000
325.896; -179.000; -515.000; -702.000
326.032; -101.400; -403.000; -352.000
326.168; -138.400; -462.000; -369.000
326.303; -136.300; -352.000; -461.000
326.439;  -40.100; -336.000; -276.000
326.575;  -46.700; -190.000;  -29.000
326.710;  -19.700; -156.000;  -30.000
326.846;   -6.700;  146.000;  103.000
326.982; -156.000; -530.000; -548.000
327.117; -168.200; -481.000; -442.000
327.253; -230.100; -745.000; -742.000
327.388; -290.100;-1137.000;-1153.000
327.524; -196.000; -811.000; -578.000
327.659;  -65.200;  -58.000;  -22.000
327.795;  -20.700;   69.000;   45.000
327.931; -194.400; -723.000; -499.000
328.066;  -83.900; -417.000; -276.000
328.202;  -40.000;   12.000; -129.000
328.337;  215.700;  957.000;  713.000
328.473;  -34.100;  -12.000;  -74.000
328.608;  -76.300; -256.000; -267.000
328.743; -226.100; -799.000; -664.000
328.879;   11.000;  214.000;  114.000
329.014; -117.000; -102.000; -122.000
329.150; -146.700; -358.000; -483.000
329.285; -167.300; -465.000; -466.000
329.421; -130.900; -548.000; -246.000
329.556;  -21.700;  -36.000;   85.000
329.691; -188.200; -633.000; -615.000
329.827; -168.800; -626.000; -480.000
329.962; -108.100;  131.000; -301.000
330.097; -200.300; -673.000; -585.000
330.233; -115.000; -410.000; -223.000
330.368; -253.500; -839.000; -628.000
330.503;  -28.400;    3.000;   98.000
330.638;  -25.500;  -93.000; -125.000
330.774; -170.400; -609.000; -530.000
330.909; -100.200; -434.000; -244.000
331.044; -212.300; -714.000; -708.000
331.179; -343.900;-1217.000;-1109.000
331.315;   -8.100;   77.000;   20.000
331.450;   18.200;  157.000;  285.000
331.585; -232.900; -805.000; -706.000
331.720; -181.400; -510.000; -460.000
331.855;  -37.900;  -35.000; -102.000
331.990;   -1.500;   62.000;  138.000
332.126;   -5.600; -110.000;   71.000
332.261; -139.500; -379.000; -265.000
332.396;  -89.700; -135.000; -242.000
332.531; -319.200;-1074.000;-1031.000
332.666; -167.300; -519.000; -363.000
332.801; -218.700; -726.000; -807.000
332.936;  -28.400; -192.000; -122.000
333.071; -266.100; -870.000; -817.000
333.206;   30.800;  307.000;  379.000
333.341;   82.400;  344.000;  418.000
333.476; -174.500; -627.000; -623.000
333.611;  -67.500; -251.000; -173.000
333.746; -111.700; -381.000; -464.000
333.881; -264.400; -973.000; -935.000
334.016; -273.600; -936.000; -917.000
334.151; -256.900; -746.000; -702.000
334.286;   17.700;  152.000;  186.000
334.421;  -39.300; -125.000; -178.000
334.556; -200.600; -611.000; -567.000
334.690; -180.500; -631.000; -577.000
334.825;  105.900;  381.000;   83.000
334.960; -131.600; -285.000; -413.000
335.095;  -31.200;  135.000;  -91.000
335.230; -221.200; -722.000; -738.000
335.365; -312.400;-1084.000; -990.000
335.499; -327.000;-1108.000;-1037.000
335.634;   11.600;    9.000;  534.000
335.769; -254.400; -755.000; -720.000
335.904; -210.600; -603.000; -561.000
336.038; -212.800; -735.000; -657.000
336.173; -333.300;-1206.000;-1194.000
336.308;  -62.800; -116.000; -189.000
336.443; -171.200; -544.000; -634.000
336.577; -273.300; -936.000; -787.000
336.712;   -9.100;   -4.000;  -12.000
336.847; -236.900; -724.000; -607.000
336.981; -132.700; -272.000; -208.000
337.116;  149.400;  615.000;  501.000
337.250; -151.900; -434.000; -421.000
337.385;  -95.700; -297.000; -208.000
337.520; -210.700; -632.000; -603.000
337.654; -118.200; -215.000; -126.000
337.789; -280.200; -989.000; -933.000
337.923;  -38.400; -104.000; -205.000
338.058; -220.500; -673.000; -738.000
338.192; -173.500; -611.000; -488.000
338.327;  -40.800;  -18.000; -155.000
338.461; -153.000; -299.000; -469.000
338.596; -179.600; -780.000; -638.000
338.730; -224.600; -767.000; -803.000
338.865;  -19.400;  -46.000; -140.000
338.999; -273.400; -846.000; -702.000
339.134; -177.100; -634.000; -536.000
339.268; -212.200; -741.000; -603.000
339.403; -244.200; -740.000; -775.000
339.537; -284.000; -894.000; -820.000
339.671; -237.900; -829.000; -813.000
339.806; -185.900; -556.000; -512.000
339.940;  -78.600; -261.000; -235.000
340.074; -215.100; -685.000; -510.000
340.209;  -98.800; -351.000; -230.000
340.343; -183.600; -517.000; -573.000
340.477;  278.500;  998.000; 1036.000
340.612; -289.700;-1033.000; -900.000
340.746; -104.900; -199.000; -243.000
340.880; -257.700; -924.000; -785.000
341.014;  -49.500;  -45.000; -154.000
341.149; -218.500; -756.000; -718.000
341.283; -220.200; -839.000; -754.000
341.417; -306.900;-1124.000; -938.000
341.551; -191.100; -768.000; -708.000
341.685; -162.000; -633.000; -611.000
341.820; -181.000; -562.000; -493.000
341.954; -122.000; -218.000; -349.000
342.088; -314.300;-1102.000;-1019.000
342.222;   75.400;  565.000;  618.000
342.356; -164.200; -395.000; -335.000
342.490; -252.900; -880.000; -841.000
342.624; -119.500; -339.000; -242.000
342.758; -101.700; -364.000; -312.000
342.892; -232.400; -710.000; -585.000
343.026;  -71.000;  -58.000; -116.000
343.160; -114.300; -426.000; -376.000
343.294; -152.400; -474.000; -337.000
343.428; -164.400; -488.000; -448.000
343.562;  -36.700; -172.000;  -23.000
343.696;  -66.700; -385.000; -314.000
343.830;  -92.200; -362.000; -356.000
343.964;  -76.600; -231.000; -168.000
344.098;   -2.400;  199.000;   70.000
344.232; -122.300; -266.000; -127.000
344.366; -183.600; -567.000; -453.000
344.500; -208.000; -665.000; -744.000
344.634;  -96.800; -324.000; -164.000
344.768; -133.500; -531.000; -341.000
344.902;   38.300;  278.000;  256.000
345.035; -159.300; -556.000; -496.000
345.169; -290.000; -933.000; -656.000
345.303; -157.000; -308.000; -482.000
345.437; -236.200; -826.000; -717.000
345.571; -219.500; -675.000; -594.000
345.704; -142.900; -309.000; -532.000
345.838; -104.500; -331.000; -284.000
345.972; -156.700; -543.000; -495.000
346.106;  -13.600; -179.000; -190.000
346.239; -110.000; -312.000; -243.000
346.373; -116.800; -343.000; -302.000
346.507; -351.000; -950.000; -962.000
346.640;  -36.700;  -30.000;   13.000
346.774; -231.800; -650.000; -797.000
346.908;  -38.300; -138.000;  -11.000
347.041; -184.500; -646.000; -593.000
347.175;   12.700;  259.000;   27.000
347.309; -217.600; -698.000; -628.000
347.442; -284.600; -883.000; -732.000
347.576;  190.500;  670.000;  668.000
347.709;  -37.500; -123.000;  -52.000
347.843; -251.900; -933.000; -825.000
347.976;   62.700;  235.000;  294.000
348.110; -348.700;-1268.000;-1186.000
348.243; -220.300; -679.000; -772.000
348.377;  -29.900;  -26.000;   60.000
348.510;   73.300;  403.000;  540.000
348.644;  -75.100;  -37.000; -159.000
348.777;   22.500;  180.000;  191.000
348.911; -100.800; -142.000; -112.000
349.044;  144.500;  471.000;  448.000
349.178; -337.500;-1069.000;-1006.000
349.311;   67.100;  141.000;  255.000
349.444; -286.400; -927.000; -813.000
349.578;  -72.900; -347.000; -200.000
349.711; -276.000; -959.000; -862.000
349.845; -221.300; -661.000; -591.000
349.978; -373.400;-1224.000;-1137.000
350.111; -193.700; -546.000; -612.000
350.244; -221.900; -596.000; -700.000
350.378; -126.900; -392.000; -393.000
350.511; -155.000; -393.000; -426.000
350.644; -214.900; -808.000; -806.000
350.778;  -44.700;  168.000;  104.000
350.911;  -11.400;  134.000;  140.000
351.044; -204.200; -685.000; -615.000
351.177; -100.600; -321.000; -281.000
351.310;  -13.800;    3.000; -131.000
351.444; -265.800; -888.000; -788.000
351.577;    9.600;  140.000;   90.000
351.710;  149.600;  593.000;  417.000
351.843;  -61.700; -165.000;  -77.000
351.976;   -2.000;  149.000;  -79.000
352.109; -229.600; -621.000; -612.000
352.242; -158.300; -464.000; -419.000
352.376; -209.300; -580.000; -636.000
352.509; -128.400; -437.000; -356.000
352.642; -335.500; -654.000; -604.000
352.775;  -37.900; -141.000;  -98.000
352.908; -307.500; -933.000; -904.000
353.041; -246.300; -814.000; -824.000
353.174; -137.200; -551.000; -424.000
353.307; -268.300; -753.000; -764.000
353.440;  123.500;  541.000;  453.000
353.573; -285.400; -957.000;-1008.000
353.706; -249.000; -384.000; -558.000
353.839;  -92.800; -264.000; -220.000
353.971; -200.700; -657.000; -512.000
354.104; -272.100; -896.000; -835.000
354.237; -225.600; -627.000; -662.000
354.370; -239.600; -846.000; -879.000
354.503; -391.200;-1231.000;-1308.000
354.636; -139.800; -529.000; -348.000
354.769; -293.300; -937.000; -860.000
354.902;  -74.600; -230.000; -139.000
355.034;  -59.400; -164.000; -220.000
355.167;  -59.000; -262.000; -162.000
355.300; -329.700;-1061.000; -880.000
355.433;   14.200;  -71.000;  -14.000
355.565; -142.400; -402.000; -384.000
355.698;  -91.000; -356.000; -296.000
355.831; -254.900; -882.000; -801.000
355.964;  -97.600; -285.000; -170.000
356.096; -265.500; -856.000; -843.000
356.229; -177.200; -523.000; -530.000
356.362;  -90.200; -373.000; -266.000
356.494;  -91.200; -229.000; -162.000
356.627;   30.300;  269.000;  377.000
356.760;    0.300;  120.000;   53.000
356.892; -204.500; -286.000; -601.000
357.025;   98.900;  403.000;  389.000
357.157;  -59.600; -167.000; -179.000
357.290; -223.700; -856.000; -713.000
357.423; -237.700; -667.000; -556.000
357.555;  -61.400; -217.000; -228.000
357.688; -154.900; -483.000; -364.000
357.820; -289.600; -870.000; -877.000
357.953; -201.400; -563.000; -589.000
358.085; -225.700; -632.000; -612.000
358.218; -322.100;-1131.000; -932.000
358.350;  -41.400;  -58.000;  312.000
358.483; -363.400;-1300.000;-1187.000
358.615; -316.300;-1182.000;-1078.000
358.747; -362.300;-1187.000;-1058.000
358.880; -219.000; -810.000; -744.000
359.012; -124.300; -376.000; -202.000
359.145; -163.300; -480.000; -511.000
359.277; -302.600; -962.000; -913.000
359.409;   64.700;  536.000;  231.000
359.542; -240.500; -738.000; -688.000
359.674;   -3.500;   46.000;   13.000
359.806; -158.900; -565.000; -438.000
359.939; -169.000; -617.000; -516.000
360.071; -195.900; -583.000; -579.000
360.203; -116.400; -411.000; -364.000
360.335;  -23.600;  164.000;  -16.000
360.468;  -79.400; -249.000; -307.000
360.600; -195.400; -547.000; -454.000
360.732; -186.500; -546.000; -423.000
360.864; -345.600;-1216.000;-1044.000
360.996; -155.200; -516.000; -554.000
361.129; -149.300; -389.000; -598.000
361.261;  -28.800;  110.000; -113.000
361.393;  -95.300; -252.000; -214.000
361.525;   -6.200;   94.000;  244.000
361.657; -245.700; -821.000; -703.000
361.789;  -50.200; -139.000; -155.000
361.921; -171.400; -642.000; -593.000
362.053;  135.400;  524.000;  541.000
362.185;  -12.400;  288.000;   72.000
362.318; -260.200; -709.000; -705.000
362.450;   71.800;  294.000;  444.000
362.582; -280.700; -913.000; -870.000
362.714; -106.200; -353.000; -332.000
362.846; -161.900; -606.000; -490.000
362.978; -281.200; -941.000; -811.000
363.109; -103.300; -161.000; -260.000
363.241; -231.600; -739.000; -749.000
363.373; -209.700; -649.000; -564.000
363.505;  -75.800; -186.000;  -91.000
363.637; -193.900; -787.000; -601.000
363.769; -346.800;-1067.000;-1080.000
363.901; -205.000; -596.000; -654.000
364.033; -352.200;-1103.000;-1062.000
364.165;  -86.400; -283.000; -283.000
364.296; -139.900; -316.000; -177.000
364.428; -380.100;-1344.000;-1220.000
364.560; -210.900; -679.000; -661.000
364.692; -220.900; -738.000; -835.000
364.824; -171.200; -588.000; -456.000
364.955; -137.300; -402.000; -564.000
365.087; -325.200;-1097.000; -852.000
365.219; -238.000; -686.000; -816.000
365.351; -187.400; -526.000; -572.000
365.482;   50.700;  300.000;  240.000
365.614; -109.600; -402.000; -314.000
365.746; -240.100; -729.000; -752.000
365.877; -231.300; -706.000; -672.000
366.009;  -36.100;  -35.000;  -62.000
366.141; -373.700;-1249.000;-1134.000
366.272; -240.100; -803.000; -719.000
366.404; -244.100;-1005.000; -874.000
366.535;  -14.100; -139.000;  -12.000
366.667; -209.100; -644.000; -649.000
366.799;   56.600;  353.000;  203.000
366.930; -291.700; -862.000; -996.000
367.062; -207.800; -639.000; -613.000
367.193; -282.100; -872.000; -842.000
367.325; -165.700; -580.000; -684.000
367.456;  -80.100; -246.000;   31.000
367.588; -131.400; -371.000; -318.000
367.719;  -53.300;  -44.000;  -45.000
367.851;  -72.000; -222.000; -241.000
367.982; -278.100; -875.000; -732.000
368.113; -126.800; -475.000; -358.000
368.245; -307.900; -960.000; -841.000
368.376;  -92.900; -254.000; -302.000
368.508; -125.400; -188.000; -263.000
368.639; -333.700;-1166.000;-1034.000
368.770; -215.200; -670.000; -589.000
368.902; -265.100; -836.000; -926.000
369.033; -284.800; -906.000; -855.000
369.164; -210.400; -720.000; -653.000
369.296; -210.600; -452.000; -601.000
369.427;  -86.800; -209.000; -144.000
369.558; -175.400; -593.000; -377.000
369.689; -212.300; -721.000; -569.000
369.821; -274.000; -951.000; -845.000
369.952;  -29.500;   42.000; -108.000
370.083; -105.700; -229.000; -108.000
370.214; -202.200; -735.000; -650.000
370.345;  -66.500;   65.000;   81.000
370.477; -258.900; -810.000; -790.000
370.608; -125.400; -328.000; -264.000
370.739; -326.900;-1233.000;-1292.000
370.870; -319.300;-1102.000; -923.000
371.001; -159.900; -378.000; -467.000
371.132; -243.300; -754.000; -735.000
371.263;  -37.400;  -42.000; -148.000
371.394; -270.600; -841.000; -748.000
371.525;   41.000;  345.000;  225.000
371.657; -262.500; -808.000; -670.000
371.788;    5.900;  103.000;  199.000
371.919; -150.100; -384.000; -304.000
372.050;  -57.600;  -91.000; -156.000
372.181;  -52.700; -188.000; -294.000
372.311;  -22.600;   42.000; -127.000
372.442; -165.200; -457.000; -451.000
372.573;  -77.700; -444.000; -340.000
372.704; -285.400;-1008.000; -980.000
372.835; -100.900; -228.000; -289.000
372.966; -206.600; -646.000; -554.000
373.097; -242.000; -575.000; -711.000
373.228; -228.000; -717.000; -542.000
373.359; -249.000; -824.000; -536.000
373.490; -276.600; -881.000; -727.000
373.620; -303.600;-1001.000; -803.000
373.751; -162.800; -332.000; -396.000
373.882; -208.100; -663.000; -733.000
374.013; -130.000; -449.000; -262.000
374.143; -165.700; -581.000; -659.000
374.274; -306.700; -987.000; -908.000
374.405;  -90.700; -388.000; -276.000
374.536; -161.900; -526.000; -387.000
374.666; -266.900; -759.000; -807.000
374.797; -249.500; -817.000; -868.000
374.928; -234.100; -710.000; -560.000
375.058; -171.000; -535.000; -500.000
375.189;  -49.900;  -59.000;  -93.000
375.320; -297.800; -928.000;-1034.000
375.450; -199.200; -625.000; -616.000
375.581; -172.400; -526.000; -436.000
375.712; -102.700; -574.000; -250.000
375.842; -174.500; -438.000; -415.000
375.973; -185.600; -554.000; -513.000
376.103; -221.500; -665.000; -648.000
376.234; -204.400; -531.000; -552.000
376.364; -315.400; -944.000; -867.000
376.495;  197.600;  925.000;  529.000
376.625; -164.000; -472.000; -485.000
376.756; -206.700; -709.000; -678.000
376.886; -356.600;-1178.000;-1026.000
377.017; -341.100;-1048.000;-1061.000
377.147; -300.600; -786.000; -782.000
377.278;   35.500;  174.000;  228.000
377.408; -269.600; -801.000; -815.000
377.538; -248.800; -707.000; -693.000
377.669; -189.800; -537.000; -613.000
377.799; -209.400; -645.000; -635.000
377.929; -189.500; -610.000; -428.000
378.060; -290.400; -781.000; -847.000
378.190; -196.900; -726.000; -531.000
378.320; -131.200; -401.000; -406.000
378.451;  -28.900; -131.000;  -22.000
378.581;  -35.100;  -67.000; -110.000
378.711;  221.100; 1035.000;  866.000
378.841; -191.800; -533.000; -675.000
378.972; -285.000; -871.000; -751.000
379.102; -196.700; -652.000; -579.000
379.232;  -88.000; -126.000;  -73.000
379.362; -319.700;-1001.000; -885.000
379.492; -184.200; -373.000; -424.000
379.623;    9.100;    0.000;  111.000
379.753; -294.600;-1107.000; -974.000
379.883;   -3.900;   59.000;  156.000
380.013; -341.300;-1081.000;-1017.000
380.143; -331.100;-1097.000;-1056.000
380.273; -300.100; -985.000; -861.000
380.403; -124.400; -344.000; -257.000
380.533; -240.300; -651.000; -664.000
380.663;    2.800;  173.000;  128.000
380.793; -336.700;-1027.000;-1074.000
380.923;  -76.200; -103.000;  -34.000
381.053; -217.700; -613.000; -623.000
381.183;  -69.500; -106.000; -248.000
381.313; -180.300; -656.000; -470.000
381.443; -193.600; -692.000; -473.000
381.573; -152.300; -402.000; -409.000
381.703; -367.100;-1249.000;-1095.000
381.833; -420.100;-1454.000;-1336.000
381.963;  -33.400; -134.000;  -87.000
382.093; -297.200; -925.000; -909.000
382.223; -213.700; -713.000; -602.000
382.353; -243.500; -801.000; -608.000
382.482; -333.900;-1091.000; -964.000
382.612; -232.500; -872.000; -644.000
382.742; -218.900; -695.000; -622.000
382.872; -208.600; -565.000; -551.000
383.002;   -1.500;  347.000; -132.000
383.131; -140.000; -226.000; -160.000
383.261; -229.500; -706.000; -768.000
383.391; -192.000; -552.000; -377.000
383.521;   75.900;  451.000;  263.000
383.650; -313.500; -947.000; -904.000
383.780; -229.500; -783.000; -656.000
383.910;  172.700;  880.000;  802.000
384.039; -274.000; -794.000; -656.000
384.169; -342.900;-1205.000;-1017.000
384.299; -226.300; -650.000; -662.000
384.428; -210.600; -764.000; -680.000
384.558; -102.400; -308.000; -275.000
384.687; -138.700; -414.000; -334.000
384.817;  -70.300;   75.000;   -2.000
384.947;  -89.300; -234.000; -141.000
385.076;  256.200;  982.000;  912.000
385.206;   75.700;  369.000;  480.000
385.335; -152.900; -549.000; -417.000
385.465; -244.400; -655.000; -663.000
385.594;  -57.800;  -53.000;  -44.000
385.724; -279.900; -868.000; -838.000
385.853; -110.200; -296.000; -270.000
385.982; -243.900; -743.000; -787.000
386.112; -291.700;-1052.000; -871.000
386.241; -124.900; -307.000; -312.000
386.371;  -95.300; -174.000;  -87.000
386.500; -290.800; -825.000; -789.000
386.629; -256.700; -874.000; -817.000
386.759;  -43.800;  -43.000;   68.000
386.888;  -89.500; -170.000; -250.000
387.017; -212.800; -648.000; -620.000
387.147; -234.800; -771.000; -798.000
387.276; -184.400; -410.000; -397.000
387.405; -115.300; -398.000; -342.000
387.535; -152.200; -452.000; -361.000
387.664; -228.900; -692.000; -620.000
387.793;  -87.900; -198.000; -113.000
387.922;   11.300;  255.000;  200.000
388.052; -197.800; -576.000; -423.000
388.181; -165.000; -342.000; -472.000
388.310; -249.200; -889.000; -710.000
388.439; -267.500; -749.000; -742.000
388.568;   42.200;  365.000;  244.000
388.697; -194.600; -756.000; -653.000
388.826; -211.900; -768.000; -666.000
388.956; -100.400; -285.000; -307.000
389.085; -133.100; -347.000; -287.000
389.214; -276.400; -842.000; -872.000
389.343; -197.100; -645.000; -413.000
389.472;   29.000;  126.000;  149.000
389.601;  -41.700;   91.000;    0.000
389.730; -169.700; -568.000; -687.000
389.859;   27.900;  226.000;   46.000
389.988; -140.600; -423.000; -408.000
390.117;  -94.100; -168.000; -146.000
390.246; -106.900; -331.000; -320.000
390.375; -231.800; -673.000; -626.000
390.504; -198.100; -703.000; -621.000
390.633; -249.000; -672.000; -726.000
390.761; -265.900; -732.000; -645.000
390.890;  -67.900;   -4.000; -130.000
391.019; -191.500; -421.000; -441.000
391.148; -258.300; -826.000; -855.000
391.277; -199.100; -576.000; -493.000
391.406; -285.000; -821.000; -805.000
391.534;   36.400;  574.000; -301.000
391.663; -206.600; -583.000; -645.000
391.792; -244.600; -673.000; -701.000
391.921;  -40.700;   -3.000;   15.000
392.050;  -96.900; -287.000; -228.000
392.178; -345.700;-1206.000;-1061.000
392.307; -261.900; -758.000; -712.000
392.436; -240.100; -427.000; -641.000
392.564;   -8.400;  166.000;   -6.000
392.693; -229.900; -860.000; -682.000
392.822; -194.100; -529.000; -534.000
392.950; -289.600; -880.000; -714.000
393.079; -140.800; -188.000; -328.000
393.208; -166.600; -488.000; -511.000
393.336;  -78.400; -170.000; -145.000
393.465;  -79.700; -317.000; -199.000
393.593;   30.500;   62.000;   79.000
393.722; -349.800;-1121.000; -916.000
393.850;  -83.300; -188.000;  -61.000
393.979; -300.200; -926.000; -805.000
394.107; -200.000; -517.000; -537.000
394.236; -194.900; -570.000; -507.000
394.364;   70.100;  383.000;  206.000
394.493; -279.900; -911.000; -767.000
394.621; -285.400; -955.000; -916.000
394.750; -300.300; -873.000; -923.000
394.878; -114.700; -247.000; -149.000
395.007; -262.700; -721.000; -807.000
395.135; -244.200; -790.000; -721.000
395.263; -323.800;-1038.000;-1040.000
395.392;  -19.300;  -25.000; -107.000
395.520; -272.600; -818.000; -679.000
395.648; -276.200; -865.000; -915.000
395.777; -164.800; -366.000; -405.000
395.905; -173.500; -449.000; -564.000
396.033;   37.100;  217.000;  172.000
396.162; -128.800; -399.000; -453.000
396.290;  -18.300;  -17.000;   -2.000
396.418; -172.500; -555.000; -514.000
396.546; -247.000; -571.000; -466.000
396.674; -287.400; -850.000; -878.000
396.803;  -47.100;  -72.000;  -23.000
396.931;  -76.000; -179.000; -199.000
397.059; -339.000;-1026.000; -989.000
397.187; -288.100;-1026.000; -975.000
397.315; -274.100; -884.000; -649.000
397.443; -177.700; -592.000; -443.000
397.572; -188.200; -578.000; -424.000
397.700; -214.200; -607.000; -614.000
397.828;  -49.900;  120.000;  -90.000
397.956; -153.500; -508.000; -478.000
398.084; -232.500; -767.000; -626.000
398.212;  -25.600;  137.000;  124.000
398.340;  -28.400;  -56.000;  159.000
398.468; -123.200; -390.000; -169.000
398.596; -302.500; -993.000; -953.000
398.724; -270.100; -762.000; -767.000
398.852; -328.300;-1024.000; -976.000
398.980; -165.800; -560.000; -560.000
399.108; -242.000; -982.000; -735.000
399.236;  -34.400;   13.000;    8.000
399.363;    3.400;  222.000;  196.000
399.491; -156.300; -404.000; -398.000
399.619; -273.800; -829.000; -800.000
399.747; -268.800; -859.000; -771.000
399.875;   72.600;  220.000;  234.000
400.003; -126.800; -359.000; -284.000
400.130; -150.500; -421.000; -341.000
400.258;  -48.500;  -83.000;   38.000
400.386; -103.700; -352.000; -168.000
400.514; -180.300; -526.000; -587.000
400.641; -321.200; -928.000; -802.000
400.769; -311.900; -979.000; -888.000
400.897; -253.900; -838.000; -793.000
401.025;  -60.500; -166.000; -152.000
401.152;   -6.900;  220.000;   38.000
401.280; -183.500; -430.000; -429.000
401.408; -239.900; -712.000; -576.000
401.535; -209.500; -735.000; -758.000
401.663; -360.300;-1134.000;-1054.000
401.790; -195.500; -514.000; -525.000
401.918;   84.100;  436.000;  405.000
402.046;   -2.900;  134.000;  122.000
402.173;  -37.800;  -18.000;    7.000
402.301; -162.900; -519.000; -397.000
402.428;   78.400;  528.000;  383.000
402.556; -346.400;-1188.000; -913.000
402.683; -118.900;  -20.000;   -1.000
402.811;  -55.200;  -37.000; -206.000
402.938;  -46.900;   20.000;   27.000
403.066; -211.100; -574.000; -558.000
403.193;  -13.500;  299.000;  239.000
403.321; -143.800; -396.000; -574.000
403.448;    9.900;   83.000;   27.000
403.575;  -25.800;  -90.000;  -46.000
403.703; -228.000; -732.000; -557.000
403.830; -159.900; -531.000; -496.000
403.957; -335.200;-1117.000;-1023.000
404.085;  -96.600;  -61.000; -172.000
404.212;  -30.400;  -50.000;   63.000
404.339; -149.800; -566.000; -306.000
404.467; -165.600; -612.000; -524.000
404.594; -136.400; -287.000; -227.000
404.721; -236.200; -869.000; -764.000
404.848;  -76.400; -113.000; -202.000
404.976; -299.500; -856.000; -783.000
405.103;  -46.600;  -14.000;  -82.000
405.230;    9.500;  190.000;  226.000
405.357;   15.200;  117.000;   44.000
405.484;  -71.000;  -49.000;    5.000
405.612; -199.600; -548.000; -563.000
405.739; -141.500; -488.000; -243.000
405.866;  135.000;  669.000;  385.000
405.993; -119.900; -398.000; -102.000
406.120; -284.100; -801.000; -887.000
406.247; -148.200; -323.000; -342.000
406.374;  118.500;  540.000;  629.000
406.501; -237.800; -632.000; -702.000
406.628; -196.400; -621.000; -589.000
406.755; -240.600; -803.000; -620.000
406.882;  -95.400; -228.000; -277.000
407.009; -245.700; -719.000; -628.000
407.136; -137.000; -480.000; -401.000
407.263; -291.000; -939.000; -829.000
407.390; -234.200; -692.000; -614.000
407.517; -371.200;-1139.000;-1187.000
407.644; -171.200; -332.000; -256.000
407.771; -166.500; -249.000; -287.000
407.898;   25.800;  168.000;  328.000
408.025; -148.500; -421.000; -313.000
408.151;   -9.500;   82.000;  153.000
408.278; -123.800; -267.000; -216.000
408.405; -253.100; -931.000; -899.000
408.532; -200.500; -549.000; -542.000
408.659; -236.200; -677.000; -648.000
408.785; -400.300;-1298.000;-1170.000
408.912; -113.800; -412.000; -296.000
409.039; -172.200; -610.000; -686.000
409.166; -204.800; -591.000; -555.000
409.292; -198.900; -571.000; -534.000
409.419; -238.800; -665.000; -649.000
409.546; -147.500; -431.000; -192.000
409.672; -226.000; -713.000; -545.000
409.799;  -47.900;  -36.000;   34.000
409.926;  -91.800; -180.000; -179.000
410.052; -366.600;-1127.000;-1091.000
410.179; -151.700; -368.000; -392.000
410.305; -170.200; -375.000; -493.000
410.432;  -96.200; -220.000; -333.000
410.558; -176.100; -305.000; -380.000
410.685; -210.000; -688.000; -431.000
410.812; -219.300; -409.000; -588.000
410.938; -275.600; -964.000; -808.000
411.065; -219.200; -671.000; -645.000
411.191;  -56.400; -189.000; -174.000
411.317; -261.400; -823.000; -742.000
411.444; -135.600; -317.000; -246.000
411.570; -136.800; -339.000; -294.000
411.697; -267.700; -758.000; -752.000
411.823; -363.200; -989.000; -999.000
411.949;  -90.300;  -56.000;   17.000
412.076; -196.900; -539.000; -519.000
412.202; -245.600; -758.000; -757.000
412.329; -272.900; -798.000; -752.000
412.455; -245.900; -821.000; -657.000
412.581;  -43.300;  -15.000;  172.000
412.707; -182.100; -540.000; -457.000
412.834;    9.200;  156.000;  219.000
412.960; -272.000; -785.000; -784.000
413.086; -246.000; -743.000; -701.000
413.212;  117.400;  604.000;  578.000
413.339; -254.800; -685.000; -701.000
413.465; -173.200; -364.000; -310.000
413.591; -231.300; -757.000; -474.000
413.717; -139.900; -358.000; -366.000
413.843; -314.000; -839.000; -861.000
413.969; -124.700;  -47.000; -292.000
414.096; -243.000; -679.000; -679.000
414.222;  -10.800;  -33.000;   85.000
414.348; -216.400; -652.000; -385.000
414.474;  -54.300;   38.000;  -52.000
414.600;  -56.800; -126.000; -144.000
414.726;  -31.100;  -96.000;  -55.000
414.852; -183.400; -365.000; -342.000
414.978;  -30.400;  104.000;  -18.000
415.104;  -14.200;   38.000;   80.000
415.230; -137.400; -329.000; -330.000
415.356; -182.700; -409.000; -514.000
415.482;  -51.000;   13.000;  -35.000
415.608;  -99.700; -247.000; -323.000
415.734;  -23.500;   67.000;   38.000
415.860; -274.300; -875.000; -767.000
415.986; -245.600; -685.000; -607.000
416.111; -252.200; -798.000; -652.000
416.237; -182.800; -424.000; -571.000
416.363; -261.100; -765.000; -733.000
416.489; -130.700; -324.000; -251.000
416.615; -266.000; -707.000; -742.000
416.741; -251.000; -677.000; -784.000
416.866; -217.500; -673.000; -736.000
416.992; -272.400; -801.000; -818.000
417.118; -106.700;  -41.000;  -80.000
417.244; -223.500; -798.000; -531.000
417.369; -266.800; -801.000; -612.000
417.495; -135.300; -325.000; -254.000
417.621; -330.100;-1015.000; -803.000
417.746; -183.600; -579.000; -572.000
417.872;  -87.500; -254.000; -144.000
417.998; -186.600; -515.000; -530.000
418.123; -297.700;-1073.000; -845.000
418.249; -194.800; -512.000; -601.000
418.374; -322.900; -916.000; -824.000
418.500; -170.800; -383.000; -482.000
418.626;  -40.500;   70.000;  -59.000
418.751; -197.900; -549.000; -448.000
418.877; -236.300; -637.000; -643.000
419.002; -147.700; -688.000; -560.000
419.128; -282.900; -930.000; -721.000
419.253; -310.900; -967.000; -837.000
419.379; -182.000; -391.000; -338.000
419.504;   46.100;  325.000;  415.000
419.629; -123.600; -393.000; -212.000
419.755;  -96.200; -317.000; -254.000
419.880;  -89.500;  -98.000;   67.000
420.006; -120.000; -280.000; -221.000
420.131; -202.000; -662.000; -775.000
420.256; -132.600; -315.000; -316.000
420.382; -219.400; -665.000; -687.000
420.507; -245.000; -649.000; -778.000
420.632; -170.800; -337.000; -339.000
420.758; -134.900; -251.000; -425.000
420.883; -233.300; -876.000; -672.000
421.008; -249.700; -775.000; -619.000
421.133; -191.300; -509.000; -467.000
421.259; -102.500; -325.000; -259.000
421.384; -263.900; -834.000; -693.000
421.509; -290.400;-1052.000; -862.000
421.634; -348.300; -936.000; -820.000
421.759; -149.600; -359.000; -327.000
421.885; -187.000; -717.000; -656.000
422.010; -206.600; -673.000; -542.000
422.135; -320.300; -695.000; -727.000
422.260;   61.800;  340.000;  280.000
422.385;  -51.500;   12.000;  -98.000
422.510;  -11.200;  151.000;  -26.000
422.635;  -66.200;  -87.000;  -43.000
422.760; -248.800; -766.000; -791.000
422.885;  -39.800;  -57.000;  -80.000
423.010;  -85.100; -112.000; -169.000
423.135; -193.800; -481.000; -561.000
423.260;  -89.600; -150.000; -245.000
423.385;   31.000;  476.000;  222.000
423.510;  -18.100;   71.000;  -22.000
423.635;  -37.100;  133.000;   45.000
423.760;   51.900;  383.000;  328.000
423.885;   41.800;  336.000;  391.000
424.010;  -50.600;  -68.000;  -13.000
424.135;  -34.200;    5.000;  -33.000
424.259; -197.300; -654.000; -457.000
424.384; -153.600; -279.000; -272.000
424.509;  -79.900; -260.000; -186.000
424.634; -289.000; -761.000; -623.000
424.759; -205.300; -688.000; -544.000
424.883; -188.500; -506.000; -527.000
425.008; -192.400; -502.000; -410.000
425.133; -221.300; -679.000; -653.000
425.258; -187.700; -517.000; -381.000
425.382; -273.800; -867.000; -774.000
425.507; -189.500; -487.000; -543.000
425.632; -244.400; -802.000; -663.000
425.756; -105.100; -256.000; -146.000
425.881; -290.800; -831.000; -857.000
426.006; -163.200; -604.000; -355.000
426.130; -265.300; -696.000; -508.000
426.255; -217.700; -611.000; -491.000
426.379;  -94.500; -189.000; -577.000
426.504;  136.900;  660.000;  544.000
426.629; -210.700; -519.000; -466.000
426.753;  -38.700;   64.000;  -46.000
426.878; -123.500; -252.000; -288.000
427.002; -182.300; -651.000; -668.000
427.127; -102.800;  -35.000; -158.000
427.251;   54.300;  372.000;  401.000
427.375; -132.700; -191.000; -173.000
427.500; -234.100; -616.000; -610.000
427.624; -134.400; -234.000; -400.000
427.749; -109.200; -216.000; -225.000
427.873; -198.400; -499.000; -412.000
427.997; -105.800; -222.000; -230.000
428.122;  121.800;  795.000;  703.000
428.246;   84.600;  433.000;  434.000
428.371; -277.300; -869.000; -773.000
428.495; -238.900; -624.000; -646.000
428.619; -112.700; -186.000; -117.000
428.743;  -36.200;   65.000;  132.000
428.868; -251.000; -732.000; -643.000
428.992; -153.300; -219.000; -326.000
429.116; -164.500; -329.000; -357.000
429.240;   29.200;  419.000;  426.000
429.365; -177.200; -454.000; -574.000
429.489; -228.400; -638.000; -647.000
429.613;  -89.000; -236.000; -177.000
429.737; -207.800; -563.000; -432.000
429.861; -133.900; -247.000; -133.000
429.985; -161.200; -425.000; -305.000
430.109; -338.400; -770.000; -908.000
430.234;   -8.100;   76.000;  -50.000
430.358; -131.500; -250.000; -160.000
430.482; -226.900; -672.000; -564.000
430.606; -225.300; -655.000; -375.000
430.730; -198.000; -437.000; -388.000
430.854; -323.400; -909.000; -835.000
430.978; -262.400; -795.000; -764.000
431.102; -215.700; -499.000; -422.000
431.226; -305.900; -874.000; -815.000
431.350;   50.300;  345.000;  422.000
431.474; -173.700; -661.000; -373.000
431.597; -313.700;-1060.000; -848.000
431.721; -144.200; -276.000; -267.000
431.845; -271.900; -704.000; -472.000
431.969; -160.000; -304.000; -349.000
432.093; -173.500; -395.000; -317.000
432.217;  -29.100;   32.000;   82.000
432.341; -189.800; -523.000; -518.000
432.464; -107.000;   96.000;   40.000
432.588; -146.100; -401.000; -329.000
432.712;  -66.600;  -52.000;  -52.000
432.836;   22.400;  213.000;  263.000
432.959; -128.800; -372.000; -311.000
433.083;  -47.700;   11.000;    2.000
433.207;   84.700;  285.000;  930.000
433.330; -113.400; -391.000; -200.000
433.454; -242.300; -654.000; -638.000
433.578;   73.900;  583.000;  278.000
433.701; -226.100; -623.000; -675.000
433.825; -194.100; -292.000; -299.000
433.949;  -48.500;   28.000;  -72.000
434.072; -159.100; -410.000; -323.000
434.196; -120.400; -309.000; -117.000
434.319; 7815.800;25482.000;25124.000
434.443; -243.300; -656.000; -603.000
434.566;   -1.000;  281.000;   62.000
434.690; -191.900; -637.000; -383.000
434.813;  -96.500; -251.000; -173.000
434.937; -216.200; -569.000; -696.000
435.060; -188.800; -423.000; -332.000
435.184; -161.300; -492.000; -217.000
435.307;  -12.000;  159.000;  102.000
435.431;  -16.600;  -40.000;   24.000
435.554; -129.000; -399.000; -240.000
435.677; -176.100; -350.000; -258.000
435.801;  -38.300;  -25.000;   49.000
435.924;  -60.500;    1.000;  -67.000
436.048; -283.600;-1019.000; -732.000
436.171; -153.000; -240.000;  -66.000
436.294; -129.600; -248.000; -229.000
436.417; -336.900; -963.000; -849.000
436.541; -284.000; -814.000; -840.000
436.664;  -71.400; -242.000; -316.000
436.787;  -33.800;   13.000;  113.000
436.910; -234.900; -792.000; -422.000
437.034;   -2.300;  142.000;  143.000
437.157;  -40.200;  -11.000;    0.000
437.280; -163.800; -392.000; -292.000
437.403; -321.700; -982.000; -869.000
437.526; -301.400; -903.000; -865.000
437.649; -183.600; -505.000; -332.000
437.772; -225.500; -692.000; -540.000
437.896;  133.200;  700.000;  544.000
438.019; -265.800; -758.000; -503.000
438.142; -218.200; -596.000; -506.000
438.265; -275.700; -639.000; -670.000
438.388; -158.300; -520.000; -410.000
438.511; -212.500; -597.000; -394.000
438.634; -126.300; -247.000; -125.000
438.757; -242.900; -693.000; -619.000
438.880;  -80.100;  -34.000;  -57.000
439.003; -210.300; -417.000; -437.000
439.126; -122.500; -287.000; -167.000
439.248;  -75.200;  -98.000; -139.000
439.371;  -35.000;    9.000;  -53.000
439.494;   92.900;  510.000;  439.000
439.617;  -94.900;   65.000;  -88.000
439.740; -311.900; -968.000; -816.000
439.863; -254.600; -755.000; -595.000
439.986; -163.900; -476.000; -431.000
440.108; -101.200; -161.000; -112.000
440.231; -328.400; -950.000; -836.000
440.354; -110.400;  -64.000; -150.000
440.477; -240.000; -566.000; -542.000
440.599; -188.200; -200.000; -225.000
440.722; -244.600; -709.000; -586.000
440.845;  163.900;  751.000;  928.000
440.968; -191.300; -415.000; -311.000
441.090; -113.700; -199.000;  -33.000
441.213; -334.300;-1021.000; -825.000
441.336;  -73.000; -159.000;   -5.000
441.458; -149.400; -549.000; -396.000
441.581; -248.200; -628.000; -629.000
441.703; -128.800; -152.000;   13.000
441.826; -201.600; -557.000; -400.000
441.948;  -35.100;   56.000;   51.000
442.071;  114.300;  555.000;  424.000
442.193; -232.800; -531.000; -485.000
442.316;  -31.100;  152.000;   97.000
442.438; -125.900; -233.000;  -10.000
442.561;   10.100;  272.000;  262.000
442.683; -253.000; -809.000; -522.000
442.806;  -70.100;   -8.000;   74.000
442.928; -291.400; -859.000; -604.000
443.051; -190.300; -577.000; -373.000
443.173; -182.200; -341.000; -339.000
443.295; -156.400; -263.000; -371.000
443.418; -141.800; -321.000;  -29.000
443.540;  -57.900; -106.000;   -4.000
443.662; -248.900; -563.000; -465.000
443.785;   -6.900;  335.000;  199.000
443.907; -171.600; -362.000; -208.000
444.029; -231.500; -767.000; -494.000
444.152; -244.700; -644.000; -554.000
444.274;  -55.500;  -18.000;  -24.000
444.396; -192.200; -461.000; -221.000
444.518; -263.400; -691.000; -454.000
444.640; -197.300; -268.000; -111.000
444.763;   16.500;  388.000;  249.000
444.885; -221.400; -432.000; -392.000
445.007;   -2.200;   35.000;   86.000
445.129; -220.600; -610.000; -515.000
445.251; -194.700; -372.000; -439.000
445.373; -266.700; -537.000; -386.000
445.495;   39.000;  242.000;  350.000
445.617;  151.700;  853.000;  753.000
445.739; -139.700; -215.000;  -97.000
445.861;  -76.100; -245.000; -112.000
445.984; -163.400; -267.000; -101.000
446.105; -174.700; -418.000; -251.000
446.227;  -88.700; -176.000;  -19.000
446.349; -220.900; -358.000; -249.000
446.471; -248.300; -615.000; -448.000
446.593; -149.900; -316.000;   19.000
446.715;  -89.200;  -67.000;   41.000
446.837;  174.600;  697.000;  832.000
446.959; -187.900; -457.000; -478.000
447.081; -243.900; -628.000; -518.000
447.203;  147.900;  862.000;  834.000
447.325; -133.400; -270.000;   42.000
447.446;   20.100;  286.000;  530.000
447.568; -344.200; -921.000; -803.000
447.690; -152.100; -236.000; -245.000
447.812; -271.300; -798.000; -519.000
447.933;  -10.500;  155.000;  127.000
448.055; -127.500; -306.000; -261.000
448.177;  -25.000;   31.000;   79.000
448.299; -362.600; -935.000; -727.000
448.420;  -38.600;  -25.000;  159.000
448.542;  -73.100;   -3.000;   33.000
448.664;  -22.300;  109.000;  322.000
448.785;   -2.800;  265.000;   83.000
448.907; -250.800; -614.000; -353.000
449.028; -286.700; -771.000; -471.000
449.150;  115.800;  492.000;  589.000
449.272; -341.600;-1044.000; -913.000
449.393;   88.500;  612.000;  694.000
449.515; -265.300; -634.000; -581.000
449.636; -136.200; -264.000; -155.000
449.758;  138.300;  763.000;  622.000
449.879; -155.700; -498.000; -396.000
450.001; -152.900; -149.000;  -49.000
450.122;  -58.400;  -95.000;  162.000
450.244;  -45.100;   37.000;  364.000
450.365; -210.500; -495.000; -301.000
450.486;  -91.400;   80.000;  268.000
450.608;   22.300;  393.000;  326.000
450.729;   99.800;  578.000;  645.000
450.850; -220.900; -574.000; -466.000
450.972; -261.700; -552.000; -389.000
451.093;   27.300;  190.000;  588.000
451.214; -183.900; -516.000; -337.000
451.336;   63.900;  773.000;  579.000
451.457;   24.400;  264.000;  393.000
451.578; -102.300; -118.000;  -74.000
451.699; -218.400; -546.000; -540.000
451.821; -140.400; -284.000;  -50.000
451.942;    2.200;  278.000;  285.000
452.063;  -17.600;  228.000;  419.000
452.184; -123.700;  -54.000;  -49.000
452.305;    9.600;  103.000;  170.000
452.427; -193.800; -549.000; -301.000
452.548;  -85.400;   23.000;   79.000
452.669; -106.700; -257.000;  -89.000
452.790; -119.500;    3.000;  -18.000
452.911;  -41.600;  195.000;  259.000
453.032; -124.800; -289.000;  -60.000
453.153; -109.200;  -29.000;   81.000
453.274;  132.600;  737.000;  868.000
453.395;  -92.100;  -51.000;  175.000
453.516;  250.900; 1317.000; 1388.000
453.637; -179.600; -205.000; -150.000
453.758;  -86.500;   15.000;   69.000
453.879; -209.200; -462.000; -250.000
454.000;  181.000; 1086.000;  948.000
454.121; -259.700; -554.000; -326.000
454.242; -254.000; -599.000; -383.000
454.362;  -79.900;  -99.000;  114.000
454.483; -147.800; -309.000; -229.000
454.604;   30.700;  512.000;  580.000
454.725; -243.800; -627.000; -555.000
454.846; -250.100; -474.000; -406.000
454.967;    1.600;  230.000;  539.000
455.087;  -67.200;  179.000;  153.000
455.208;   59.100;  554.000;  856.000
455.329;  -82.900;  -22.000;   82.000
455.450;   96.100;  473.000;  633.000
455.570; -197.200; -234.000; -211.000
455.691;  -50.500;  201.000;  407.000
455.812; -195.900; -270.000;  -92.000
455.932;  -82.200;  107.000;  -97.000
456.053;  -91.100;   36.000;   24.000
456.173; -196.500; -433.000; -355.000
456.294; -231.000; -476.000; -303.000
456.415; -106.600;  -73.000;   70.000
456.535;  -14.300;  297.000;  273.000
456.656;  -30.600;  132.000;  240.000
456.776;  -84.600;    3.000;  298.000
456.897;   35.200;  308.000;  513.000
457.017; -131.100; -153.000;   -3.000
457.138; -214.500; -402.000; -249.000
457.258;  -11.900;  263.000;  224.000
457.379;    4.900;  509.000;  521.000
457.499;  -23.900;  443.000;  432.000
457.620; -225.700; -407.000; -231.000
457.740; -147.200; -132.000;  -11.000
457.860;  -79.600;   87.000;   44.000
457.981;  -89.300;  132.000;  124.000
458.101; -179.900;  -89.000;   40.000
458.221;   14.900;  336.000;  402.000
458.342; -111.600;   -4.000;  -37.000
458.462;   31.400;  617.000;  352.000
458.582; -154.200; -302.000; -294.000
458.703;  -50.200;  303.000;  154.000
458.823;  -85.400;   22.000;  163.000
458.943;   -7.400;  341.000;  467.000
459.063;  -92.100; 1124.000;  192.000
459.183;  -27.600;  328.000;  313.000
459.304;   42.200;  315.000;  517.000
459.424; -144.800; -246.000;  -89.000
459.544;   54.700;  388.000;  764.000
459.664;   37.700;  499.000;  506.000
459.784;  184.100; 1004.000; 1175.000
459.904;  108.700;  867.000;  744.000
460.024;  129.800;  867.000;  684.000
460.144;   17.200;  449.000;  554.000
460.264;   32.000;  515.000;  327.000
460.385; -137.500; -145.000; -119.000
460.505;  122.100;  905.000;  858.000
460.625; -149.200;  -17.000;  -68.000
460.745;   35.300;  396.000;  541.000
460.864;  -52.900;  153.000;  469.000
460.984;   -4.300;  499.000;  573.000
461.104;  314.100; 1656.000; 1775.000
461.224;   90.300;  657.000;  650.000
461.344;  -39.600;  431.000;  360.000
461.464;  -41.600;  258.000;  513.000
461.584;    6.800;  283.000;  466.000
461.704;  -91.700;   58.000;  108.000
461.824;  -98.200;  238.000;  259.000
461.943;  -57.000;  191.000;  130.000
462.063; -110.300;    2.000;  324.000
462.183;   97.500;  639.000;  717.000
462.303;  247.100; 1678.000; 1230.000
462.422;   94.100;  781.000;  840.000
462.542;  -99.600;  271.000;  391.000
462.662;  -17.900;  353.000;  380.000
462.782;   38.100;  833.000;  572.000
462.901;   23.500;  545.000;  717.000
463.021;  323.300; 1702.000; 1638.000
463.141;   22.500;  337.000;  770.000
463.260;    1.000;  614.000;  474.000
463.380;   65.000;  902.000;  884.000
463.499;  -36.600;  342.000;  332.000
463.619;    6.100;  581.000;  559.000
463.738;  288.000; 1644.000;  903.000
463.858;   67.000;  657.000;  811.000
463.978;   -7.900;  542.000;  396.000
464.097;  158.300;  921.000; 1114.000
464.217;  170.500; 1196.000; 1143.000
464.336;  186.300; 1068.000; 1130.000
464.455;  -33.200;  328.000;  659.000
464.575;   34.000;  597.000;  602.000
464.694;  180.800; 1204.000; 1179.000
464.814;  112.300; 1190.000; 1138.000
464.933;  117.100; 1095.000; 1027.000
465.052;  224.000; 1412.000; 1054.000
465.172;  125.300;  922.000;  799.000
465.291;  253.600; 1376.000; 1320.000
465.410;   69.200;  462.000;  735.000
465.530;  186.900; 1355.000; 1310.000
465.649;  200.600; 1209.000; 1273.000
465.768;  321.800; 1673.000; 1508.000
465.888;  132.700;  941.000; 1174.000
466.007;  226.900; 1335.000; 1440.000
466.126;   16.900;  721.000;  641.000
466.245;  169.900; 1176.000; 1187.000
466.364;   79.200;  950.000; 1060.000
466.484;  153.800; 1024.000; 1213.000
466.603;  111.000; 1101.000; 1222.000
466.722;  277.700; 1490.000; 1769.000
466.841;  136.700; 1151.000; 1401.000
466.960;   97.200; 1069.000;  972.000
467.079;  297.300; 1971.000; 1786.000
467.198;  162.900; 1238.000; 1181.000
467.317;  232.500; 1768.000; 1162.000
467.436;  206.300; 1709.000; 1261.000
467.555;  335.700; 1796.000; 1746.000
467.674;  197.000; 1227.000; 1329.000
467.793;  136.200; 1376.000; 1374.000
467.912;  242.500; 1658.000; 1539.000
468.031;  343.400; 2038.000; 1930.000
468.150;  302.600; 1842.000; 1837.000
468.269;  456.400; 2313.000; 2090.000
468.388;  404.800; 2168.000; 2339.000
468.507;  613.400; 2884.000; 2903.000
468.626;  605.900; 2555.000; 2541.000
468.744;  373.900; 2018.000; 2174.000
468.863;  439.000; 2312.000; 2523.000
468.982;  224.300; 1503.000; 1555.000
469.101;  517.100; 2788.000; 2692.000
469.220;  318.300; 2333.000; 2176.000
469.338;  598.700; 2935.000; 3051.000
469.457;  430.700; 2719.000; 2545.000
469.576;  754.200; 3953.000; 3784.000
469.695;  519.200; 2877.000; 3066.000
469.813;  864.600; 4148.000; 4192.000
469.932;  856.700; 4255.000; 4485.000
470.051;  747.800; 4075.000; 4161.000
470.169;  885.200; 4470.000; 4338.000
470.288;  925.500; 4700.000; 4809.000
470.406; 1059.500; 5059.000; 5194.000
470.525; 1214.800; 6101.000; 5787.000
470.644; 1374.600; 6847.000; 6794.000
470.762; 1696.600; 8397.000; 7873.000
470.881; 1789.500; 8651.000; 8464.000
470.999; 2057.600; 9685.000; 9151.000
471.118; 2267.200;11174.000;10711.000

