
Integration time [ms]: 100.000
Averaging Nr. [scans]: 40
Smoothing Nr. [pixels]: 0
Data measured with spectrometer [name]: 2101012U2
Wave   ;Sample   ;Dark     ;Reference
[nm]   ;[counts] ;[counts] ;[counts] 

197.733;   52.875;  516.000;  404.000
197.879;  -83.775; -610.000; -634.000
198.025;  -50.625; -475.000; -420.000
198.171;  -79.500; -602.000; -612.000
198.317;  -33.750; -401.000; -316.000
198.463;  -61.075; -655.000; -404.000
198.609;   21.675;  181.000; -137.000
198.755;  -77.025; -644.000; -410.000
198.901;  -67.500; -505.000; -424.000
199.047;  -66.600; -615.000; -488.000
199.193;  -38.500; -230.000; -468.000
199.339;  -51.800; -222.000; -369.000
199.485;   33.725;  330.000;  271.000
199.631;   10.875;  227.000;  310.000
199.777;  -61.675; -466.000; -398.000
199.923;  -60.800; -610.000; -424.000
200.069;   -1.550; -141.000;  -58.000
200.215;   71.250;  128.000;  453.000
200.361;   40.850;  243.000;  477.000
200.507;  -57.500; -600.000; -373.000
200.653;  -37.025; -371.000; -194.000
200.798;  -42.425; -215.000; -125.000
200.944;  -12.875; -146.000;  -41.000
201.090;   36.275;   61.000;  222.000
201.236;   -5.625; -116.000; -158.000
201.382;  120.875;  874.000;  903.000
201.528;   -2.575;  -58.000;  -48.000
201.674;  -40.300; -386.000; -293.000
201.819;  -72.875; -540.000; -439.000
201.965;  -95.125; -699.000; -447.000
202.111;  -26.225; -273.000; -226.000
202.257;  -39.125; -250.000; -238.000
202.402;    3.525;   13.000;  -36.000
202.548;  -30.550; -169.000; -116.000
202.694;   80.125;  410.000; -183.000
202.840;  -82.275; -603.000; -531.000
202.985;  -82.125; -681.000; -639.000
203.131;  -99.575; -832.000; -666.000
203.277;  -28.725; -199.000; -262.000
203.423;  -51.675; -434.000; -520.000
203.568;  -50.500; -462.000; -237.000
203.714;  -56.350; -535.000; -542.000
203.860;  -84.175; -682.000; -641.000
204.005;   31.625;  112.000;  167.000
204.151;   70.925;  561.000;  556.000
204.296;  -36.200; -354.000; -221.000
204.442;  -78.350; -600.000; -547.000
204.588;  -74.950; -592.000; -579.000
204.733;   20.400;  178.000;  168.000
204.879; -128.375;-1018.000; -822.000
205.025;    1.950;  -99.000;  126.000
205.170;   -8.200;  -17.000;   94.000
205.316;   77.775;  438.000;  661.000
205.461;  -89.250; -698.000; -554.000
205.607;   76.650;  609.000;  665.000
205.752;  -87.475; -626.000; -551.000
205.898;  -51.650; -501.000; -391.000
206.043;  -59.950; -578.000; -506.000
206.189;  -50.125; -243.000; -285.000
206.334;   74.150;  554.000;  606.000
206.480;   81.100;  409.000;  239.000
206.625;  -87.350; -529.000; -552.000
206.771;  -44.675; -451.000; -373.000
206.916;  -31.075; -210.000; -537.000
207.062;  -73.500; -545.000; -591.000
207.207;  -53.775; -546.000; -443.000
207.353;   57.225;  185.000;  460.000
207.498;    0.075;  196.000;   85.000
207.643;  -56.925; -501.000; -370.000
207.789; -141.425;-1069.000; -910.000
207.934; -102.300; -665.000; -713.000
208.080;  -38.175; -154.000;   66.000
208.225;  -15.600;  -22.000;  -57.000
208.370;  -74.700; -727.000; -619.000
208.516;  -74.700; -741.000; -487.000
208.661;  -29.550; -127.000;  -69.000
208.806;  -26.200; -165.000; -171.000
208.952; -122.100;-1044.000; -731.000
209.097;   72.800;  378.000;  349.000
209.242;  -47.300; -307.000; -382.000
209.387;   65.650;  392.000;  350.000
209.533;  -36.300; -321.000; -350.000
209.678;   75.950;  472.000;  543.000
209.823;  -54.875; -408.000; -310.000
209.969;  -96.675; -860.000; -757.000
210.114; -105.175; -907.000; -719.000
210.259; -116.500; -939.000; -889.000
210.404;   -4.900; -171.000;  103.000
210.549;    2.550;  108.000;    3.000
210.695;  -16.925;   -3.000;  -95.000
210.840;   37.850;   94.000;   67.000
210.985;  -63.550; -484.000; -303.000
211.130;   75.075;  268.000;  406.000
211.275;   10.950;  207.000;  199.000
211.420;  -50.825; -300.000; -289.000
211.566;  -69.900; -536.000; -489.000
211.711;   15.625;  218.000;  157.000
211.856;  -56.500; -545.000; -519.000
212.001;   22.100;  151.000;   44.000
212.146;   16.200;  153.000;   49.000
212.291;  -19.200; -210.000; -186.000
212.436;  -23.550; -280.000;   -6.000
212.581;  -68.600; -685.000; -653.000
212.726;  -71.400; -487.000; -538.000
212.871;  -51.350; -552.000; -217.000
213.016; -151.875;-1172.000;-1029.000
213.161;   49.175;  406.000;  291.000
213.306;  -69.525; -435.000; -577.000
213.451;  -95.275; -778.000; -689.000
213.596;  -69.175; -455.000; -347.000
213.741;  -64.675; -448.000; -538.000
213.886;  -67.125; -498.000; -517.000
214.031;  -33.450; -294.000; -124.000
214.176;  -50.850; -408.000; -341.000
214.321;  -17.550; -296.000; -157.000
214.466;  -22.000; -163.000;  -43.000
214.611;   -8.775;  -61.000;  -10.000
214.756; -119.075; -948.000; -858.000
214.901;  -29.225; -388.000; -226.000
215.046; -118.175; -797.000; -825.000
215.191;   16.850;  128.000;   35.000
215.336;  -13.825; -157.000;  -19.000
215.480;  -75.400; -684.000; -505.000
215.625;   -5.750; -175.000;  -19.000
215.770;  -78.100; -757.000; -662.000
215.915;   -7.250;   -5.000;  -97.000
216.060;  -11.300; -113.000;  -21.000
216.205; -107.875; -731.000; -779.000
216.349;  -74.275; -470.000; -533.000
216.494; -139.175; -939.000; -867.000
216.639; -122.550; -823.000; -888.000
216.784;  -99.000; -577.000; -525.000
216.929;   52.700;  392.000;  281.000
217.073;   -3.350; -244.000;  -31.000
217.218;    8.625;   78.000;  -47.000
217.363;  -87.375; -656.000; -618.000
217.507;  -81.975; -623.000; -588.000
217.652; -125.850; -845.000; -874.000
217.797;  -91.425; -708.000; -659.000
217.942; -112.075; -856.000; -720.000
218.086;   68.775;  608.000;  539.000
218.231;   -3.100; -174.000;  -26.000
218.376;  -27.875; -337.000; -229.000
218.520;   -5.250;  -41.000;   96.000
218.665;  -44.625; -338.000; -204.000
218.810;  -43.650; -275.000; -233.000
218.954;   12.825;  201.000;   35.000
219.099; -115.350; -713.000; -963.000
219.243;  -71.700; -589.000; -554.000
219.388;  -40.975; -264.000; -136.000
219.532;  -18.325; -116.000; -116.000
219.677;  -76.625; -564.000; -521.000
219.822;    5.975;   33.000;   89.000
219.966;   -1.575;   17.000;  -99.000
220.111;  -34.525; -328.000;  -40.000
220.255; -104.950; -797.000; -750.000
220.400;  -26.725; -180.000; -146.000
220.544;  -73.275; -516.000; -450.000
220.689;  -58.975; -422.000; -451.000
220.833;  -39.325; -123.000;  -58.000
220.978;  -38.850; -393.000; -563.000
221.122;   15.400;  319.000;  307.000
221.267; -118.775; -906.000; -837.000
221.411;  -63.325; -478.000; -394.000
221.555;  -23.150; -104.000;  -23.000
221.700;  -40.675; -329.000; -222.000
221.844;   29.375;  255.000;  272.000
221.989;  -57.925; -328.000; -311.000
222.133;  -42.775; -289.000; -307.000
222.277;   -3.725;    5.000;   78.000
222.422;    4.700;  227.000;  113.000
222.566;  -43.650; -381.000; -214.000
222.711;  -54.275; -414.000; -479.000
222.855;  -88.225; -643.000; -586.000
222.999;  -97.950; -642.000; -717.000
223.144;  -31.700; -195.000; -194.000
223.288;   45.650;  423.000;  251.000
223.432;   23.225;  184.000;  230.000
223.576;   28.100;  152.000;  -21.000
223.721;   36.100;  364.000;  273.000
223.865;  -55.675; -472.000; -475.000
224.009;  216.650; 1673.000; 1631.000
224.153;  -81.525; -660.000; -671.000
224.298;  -78.225; -531.000; -489.000
224.442;  -24.800;  -74.000;  -33.000
224.586;  -12.025; -169.000; -106.000
224.730;  -87.400; -858.000; -670.000
224.875; -110.500; -739.000; -688.000
225.019;   10.500;  102.000;  188.000
225.163;   35.025;  208.000;  341.000
225.307;   15.300;   97.000;  -91.000
225.451;   37.350;  360.000;  481.000
225.595;   29.225;  264.000;  176.000
225.739;  -12.075; -170.000;  -94.000
225.884;   11.950;   86.000;    5.000
226.028; -110.675; -760.000; -626.000
226.172;  -35.350; -260.000; -273.000
226.316; -128.075; -941.000; -902.000
226.460;  -78.725; -645.000; -493.000
226.604;  -59.675; -406.000; -400.000
226.748; -103.850; -836.000; -733.000
226.892;  -28.350; -227.000; -181.000
227.036;  -57.700; -537.000; -447.000
227.180;  -59.850; -551.000; -375.000
227.324;  -74.525; -561.000; -580.000
227.468; -118.250; -819.000; -717.000
227.612;    0.900;  242.000;  -28.000
227.756;  -97.350; -845.000; -698.000
227.900;   57.575;  342.000;  441.000
228.044;  -63.950; -509.000; -290.000
228.188;   53.775;  448.000;  568.000
228.332;  -87.475; -546.000; -472.000
228.476;  -28.800; -223.000; -149.000
228.620;  -23.100; -210.000; -150.000
228.764;   60.750;  431.000;  349.000
228.908;  -24.725; -155.000;   30.000
229.052;  -69.400; -615.000; -528.000
229.195;  -15.800; -172.000;   13.000
229.339;  -33.225; -235.000; -305.000
229.483;  -21.875;    5.000; -162.000
229.627;   -4.900; -156.000;  139.000
229.771;  -59.875; -218.000; -294.000
229.915;   11.925;  230.000;   79.000
230.059;  -93.275; -648.000; -663.000
230.202;  -32.175; -370.000; -317.000
230.346;  -18.700; -107.000;  107.000
230.490;  -64.375; -489.000; -521.000
230.634; -106.600; -736.000; -553.000
230.777;   66.150;  478.000;  509.000
230.921;  -63.225; -450.000; -359.000
231.065;  -45.125; -246.000; -286.000
231.209;   14.000;  261.000;  265.000
231.352;   10.875;   54.000;   40.000
231.496;   11.600;  568.000;  188.000
231.640;  -82.500; -693.000; -621.000
231.783;   66.375;  546.000;  525.000
231.927;  -37.325; -294.000; -365.000
232.071; -127.225; -962.000; -736.000
232.214; -110.150; -980.000; -764.000
232.358; -103.800; -683.000; -599.000
232.502;   -0.050;  -19.000;    7.000
232.645; -146.275;-1090.000; -927.000
232.789;  -24.100; -257.000; -218.000
232.933;  -38.900; -407.000; -224.000
233.076; -123.800;-1038.000; -897.000
233.220; -117.925; -752.000; -777.000
233.363;  -85.050; -669.000; -477.000
233.507;   50.675;  371.000;  129.000
233.650;  -92.550; -764.000; -834.000
233.794;   43.675;  438.000;  461.000
233.938;  -70.650; -530.000; -362.000
234.081;  -14.850;  -93.000;   31.000
234.225;  -73.025; -631.000; -539.000
234.368; -120.100; -773.000; -723.000
234.512;  -42.700; -385.000; -299.000
234.655;  -95.975; -582.000; -555.000
234.798;  -72.600; -493.000; -466.000
234.942; -128.100; -884.000;-1002.000
235.085;  -74.825; -651.000; -443.000
235.229;  -72.125; -405.000; -410.000
235.372;  -53.275; -247.000; -191.000
235.516;  -70.425; -397.000; -321.000
235.659;   10.775;   92.000;  121.000
235.802;  -15.725;  -38.000;  -22.000
235.946;   35.200;  335.000;  215.000
236.089;   16.750;  126.000;  250.000
236.233;   58.925;  275.000;  298.000
236.376;  -41.925; -235.000; -378.000
236.519;  -49.900; -297.000; -319.000
236.663;  -28.925; -215.000; -117.000
236.806; -134.675;-1029.000; -999.000
236.949;   54.375;  543.000;  431.000
237.092;   47.875;  412.000;  391.000
237.236;  -92.050; -589.000; -502.000
237.379;   55.550;  352.000;  428.000
237.522; -107.900; -879.000; -768.000
237.666;   -7.650; -271.000;   18.000
237.809; -131.000; -851.000; -823.000
237.952;   29.100;  469.000;  271.000
238.095;  -69.950; -447.000; -442.000
238.238;   82.600;  688.000;  700.000
238.382;   -1.475;  166.000;  103.000
238.525;  -66.075; -598.000; -511.000
238.668; -143.100;-1060.000; -985.000
238.811;  -78.100; -638.000; -643.000
238.954;  -66.450; -483.000; -334.000
239.097;   95.225;  617.000;  664.000
239.241;   17.125;  394.000;  326.000
239.384;  -37.500; -254.000; -214.000
239.527;  -70.375; -424.000; -224.000
239.670; -152.200; -994.000;-1091.000
239.813; -113.900; -696.000; -658.000
239.956;   85.450;  579.000;  473.000
240.099; -108.875; -778.000; -725.000
240.242;   48.500;  428.000;  432.000
240.385;   43.225;  466.000;  450.000
240.528;  -91.525; -706.000; -473.000
240.671;    5.125;  189.000;  134.000
240.814;  -53.500; -441.000; -158.000
240.957; -103.000; -767.000; -578.000
241.100;  -88.550; -779.000; -755.000
241.243; -142.450;-1234.000; -893.000
241.386;  -70.300; -508.000; -379.000
241.529;  -77.975; -735.000; -547.000
241.672;  -72.225; -566.000; -495.000
241.815; -126.500; -832.000; -808.000
241.958;  -25.675; -125.000; -182.000
242.101;  -86.975; -545.000; -390.000
242.244;  -40.175; -270.000; -325.000
242.387;  -35.525; -304.000; -246.000
242.530;   51.550;  470.000;  134.000
242.673;  -54.850; -381.000; -309.000
242.815; -125.225; -925.000; -899.000
242.958;  -68.650; -482.000; -381.000
243.101;    6.975;  132.000;  187.000
243.244;  -81.725; -564.000; -521.000
243.387;  -57.650; -313.000; -316.000
243.530; -106.075; -657.000; -674.000
243.672;   -8.150;   43.000;  -92.000
243.815;  -67.025; -355.000; -283.000
243.958;  -10.125;   98.000;  -26.000
244.101;  -11.075;   59.000;  -16.000
244.243;   -9.075;  -47.000;  101.000
244.386; -129.100; -761.000; -630.000
244.529;  -23.050; -132.000; -139.000
244.672; -158.525;-1154.000; -951.000
244.814; -103.175; -621.000; -794.000
244.957;  -71.250; -380.000; -304.000
245.100;  -96.500; -489.000; -489.000
245.242;  -64.050; -387.000; -374.000
245.385;   -7.225;  -59.000;  -39.000
245.528; -125.450; -871.000; -705.000
245.670;   74.625;  612.000;  634.000
245.813;  -95.325; -599.000; -547.000
245.956;  -43.950; -324.000; -275.000
246.098;  -63.850; -508.000; -650.000
246.241;    2.375;  194.000;   48.000
246.383;  -16.850; -119.000;  -73.000
246.526;  -90.100; -454.000; -525.000
246.669; -124.450; -889.000; -780.000
246.811;    2.925;  172.000;   -1.000
246.954;  -71.475; -512.000; -426.000
247.096;  -27.050;  -84.000;   -6.000
247.239;  -84.975; -482.000; -445.000
247.381;  -69.700; -647.000; -488.000
247.524;   82.875;  645.000;  679.000
247.666;   -7.975;   58.000;   11.000
247.809; -125.100; -887.000; -691.000
247.951;   -9.475;  -75.000;  138.000
248.094;   17.750;  432.000;  308.000
248.236; -168.675;-1262.000;-1238.000
248.378;    6.825; -356.000;  -81.000
248.521;  -22.725; -334.000; -337.000
248.663;  -36.800; -236.000; -267.000
248.806;  -22.675; -300.000; -266.000
248.948;  -90.050; -886.000; -763.000
249.090;  -50.000; -428.000; -398.000
249.233;  -53.525; -344.000; -381.000
249.375;  -72.600; -474.000; -451.000
249.518;  -16.550;  -83.000; -133.000
249.660;  -18.550; -103.000;    3.000
249.802; -164.425;-1303.000;-1189.000
249.945;  -74.925; -612.000; -540.000
250.087; -117.875; -834.000; -768.000
250.229;  -53.600; -362.000; -480.000
250.371;  -85.650; -494.000; -439.000
250.514;  -47.225; -310.000; -244.000
250.656;  -22.225;   69.000;  102.000
250.798; -126.900; -849.000; -800.000
250.940;  -65.450; -322.000; -322.000
251.083;  -29.600; -335.000; -111.000
251.225;   68.325;  338.000;  310.000
251.367;  -52.875; -274.000; -373.000
251.509;  -40.400; -265.000; -210.000
251.651; -109.775; -731.000; -671.000
251.794;   46.925;  538.000;  632.000
251.936; -102.300; -821.000; -747.000
252.078;  -78.725; -540.000; -461.000
252.220;  -63.700; -645.000; -477.000
252.362;   76.900;  344.000;  462.000
252.504;  -73.000; -677.000; -584.000
252.646; -112.400; -875.000; -722.000
252.788;  -11.325;   14.000; -128.000
252.931;  -37.625; -257.000; -253.000
253.073;  -37.575; -376.000; -317.000
253.215;  -23.075;  141.000;  122.000
253.357;  -23.625;   82.000; -153.000
253.499;  -54.025; -374.000; -234.000
253.641;  -81.850; -749.000; -594.000
253.783; -104.425; -609.000; -527.000
253.925;  -85.200; -586.000; -591.000
254.067; -121.825; -744.000; -667.000
254.209;  -46.225; -391.000; -259.000
254.351; -139.775; -865.000; -883.000
254.493;  -72.725; -441.000; -417.000
254.635; -123.350; -936.000; -818.000
254.777; -106.650; -752.000; -687.000
254.918;  -74.100; -512.000; -430.000
255.060;  -64.400; -551.000; -395.000
255.202;  -67.150; -473.000; -261.000
255.344;  -86.225; -658.000; -455.000
255.486;  -77.850; -471.000; -406.000
255.628; -117.225; -780.000; -781.000
255.770;  -96.000; -676.000; -536.000
255.912;  -72.375; -559.000; -468.000
256.053; -103.125; -730.000; -508.000
256.195;  156.125; 1008.000;  903.000
256.337; -111.850; -861.000; -595.000
256.479;   58.200;  532.000;  416.000
256.621;  -56.950; -394.000; -212.000
256.762;  -91.025; -789.000; -742.000
256.904;   51.500;  485.000;  487.000
257.046;  -48.925; -381.000; -271.000
257.188;  -50.025; -351.000; -264.000
257.329;  -77.250; -525.000; -464.000
257.471; -125.625; -939.000; -807.000
257.613;  -80.750; -584.000; -498.000
257.755; -154.225;-1073.000; -982.000
257.896;   23.775;  286.000;  392.000
258.038;  -72.125; -403.000; -352.000
258.180;  -55.850; -354.000; -279.000
258.321;  -84.450; -581.000; -457.000
258.463;  -12.675;  -71.000;  133.000
258.605;  -95.050; -562.000; -570.000
258.746; -119.925; -886.000; -772.000
258.888; -149.175;-1026.000;-1020.000
259.029;   21.325;  121.000;   -8.000
259.171; -104.300; -614.000; -550.000
259.313;  -10.925;  -49.000;  -47.000
259.454;  -69.975; -536.000; -414.000
259.596;  -57.025; -483.000; -390.000
259.737;  -65.675; -590.000; -474.000
259.879;   33.975;  217.000;  311.000
260.020;   68.600;  901.000;  636.000
260.162;  -37.075; -146.000; -253.000
260.303; -127.150; -768.000; -687.000
260.445;  -89.950; -609.000; -613.000
260.586;   18.200;  392.000;  157.000
260.728;  -41.075; -360.000; -248.000
260.869; -110.275; -350.000; -343.000
261.011;   75.250;  706.000;  537.000
261.152;  -65.375; -479.000; -319.000
261.293;  -92.775; -576.000; -595.000
261.435;  -37.625; -219.000; -184.000
261.576;  -51.550; -455.000; -325.000
261.718;   55.400;  420.000;  470.000
261.859; -130.875; -940.000; -949.000
262.000; -148.850; -951.000;-1016.000
262.142;  -18.925;  -52.000;  -60.000
262.283; -119.475; -808.000; -691.000
262.424;  -92.350; -666.000; -625.000
262.566; -159.200;-1161.000; -983.000
262.707; -122.825; -840.000; -830.000
262.848; -112.300; -769.000; -726.000
262.990;  -41.250; -362.000; -345.000
263.131;   76.025;  650.000;  681.000
263.272;  -14.950;  -61.000;  -41.000
263.413;  -94.625; -589.000; -561.000
263.555;  -71.150; -669.000; -143.000
263.696;  -98.275; -550.000; -641.000
263.837;  -66.425; -449.000; -551.000
263.978;   -9.225;   -5.000;  -77.000
264.119;  -38.650; -283.000; -264.000
264.261; -114.850; -847.000; -630.000
264.402;    2.850;   33.000;   40.000
264.543;  -77.475; -509.000; -524.000
264.684;  -21.925;   61.000;  -50.000
264.825;  -78.225; -816.000; -538.000
264.966;    2.300;  -84.000;  -67.000
265.107; -125.800; -646.000; -670.000
265.248; -126.825; -825.000; -812.000
265.390;   -6.550;  152.000;   -9.000
265.531;  -25.250; -238.000; -107.000
265.672;  -82.025; -557.000; -630.000
265.813;   59.300;  563.000;  439.000
265.954; -152.250; -959.000; -940.000
266.095;  -25.550; -372.000; -322.000
266.236;  -96.050; -686.000; -548.000
266.377;  -47.150; -243.000; -297.000
266.518;  -88.475; -619.000; -547.000
266.659;   20.025;  170.000;  268.000
266.800;   15.275;   83.000;   85.000
266.941;  -83.150; -487.000; -478.000
267.082;    7.025;  354.000;   99.000
267.223;  -62.825; -344.000; -273.000
267.364; -125.975; -892.000; -686.000
267.504;  -27.375;    3.000;  135.000
267.645;   -3.575;  160.000;   67.000
267.786;  -36.275; -147.000;  -86.000
267.927;  -84.225; -473.000; -379.000
268.068;  -28.125; -186.000;  -61.000
268.209;  -56.025; -175.000; -413.000
268.350;  -66.800; -388.000; -532.000
268.490;  -90.150; -648.000; -521.000
268.631;   30.300;  127.000;  225.000
268.772; -119.100; -874.000; -647.000
268.913;  -59.900; -328.000; -476.000
269.054;  -24.500; -117.000;   12.000
269.194;  -49.625; -418.000; -402.000
269.335; -161.250;-1137.000;-1074.000
269.476;  -18.600;   33.000;  -35.000
269.617;  -62.625; -347.000; -392.000
269.757;  -85.475; -713.000; -646.000
269.898; -105.425; -856.000; -613.000
270.039;  -69.275; -415.000; -405.000
270.180; -140.450; -952.000; -816.000
270.320;  -33.800; -190.000; -250.000
270.461;  -48.775; -277.000; -249.000
270.602;  -28.350; -186.000; -156.000
270.742; -123.400; -868.000; -943.000
270.883;  -68.150; -442.000; -390.000
271.023;  -78.100; -358.000; -357.000
271.164;  -81.600; -607.000; -528.000
271.305;  -99.400; -666.000; -654.000
271.445;  -95.025; -722.000; -683.000
271.586;  -65.225; -462.000; -283.000
271.726;  -65.325; -397.000; -322.000
271.867;  -67.600; -594.000; -534.000
272.008;  169.550; -473.000; -285.000
272.148;  125.250;  462.000;  468.000
272.289;   -4.625; -113.000; -181.000
272.429;   22.950;   19.000;  185.000
272.570;  -97.550; -633.000; -737.000
272.710; -105.350; -825.000; -775.000
272.851;  -23.675;  113.000; -130.000
272.991; -161.425;-1173.000;-1077.000
273.131;  -77.900; -419.000; -459.000
273.272; -108.825; -683.000; -723.000
273.412;    2.725; -143.000;  -31.000
273.553;  -58.150; -488.000; -507.000
273.693;  133.600;  913.000;  858.000
273.834; -107.900; -894.000; -692.000
273.974;  -70.825; -664.000; -615.000
274.114; -106.050; -772.000; -560.000
274.255;   80.700;  414.000;  373.000
274.395;    5.550; -180.000; -125.000
274.535;   36.775;  199.000;  350.000
274.676;    9.975;  225.000;   94.000
274.816;   -8.825;  110.000;   34.000
274.956;  -86.525; -624.000; -690.000
275.097;  -64.975;-1014.000; -922.000
275.237; -110.825; -913.000; -803.000
275.377; -101.775; -778.000; -689.000
275.517; -145.700; -878.000; -937.000
275.658;  -73.750; -590.000; -555.000
275.798;  -76.475; -606.000; -413.000
275.938;   22.425;  215.000;  323.000
276.078; -100.525; -626.000; -395.000
276.218;    3.300;   99.000;  104.000
276.359; -140.700;-1026.000;-1024.000
276.499;  -77.650; -605.000; -446.000
276.639;  -36.600; -305.000; -151.000
276.779;  -63.575; -475.000; -357.000
276.919;  -96.475; -783.000; -624.000
277.059;  -33.475; -261.000; -212.000
277.199;  -55.250; -357.000; -259.000
277.340;   43.750;  287.000;  175.000
277.480; -131.175; -840.000; -693.000
277.620;   14.325;  192.000;   16.000
277.760; -201.125;-1533.000;-1294.000
277.900;    2.475;  113.000;   33.000
278.040;    6.750;  137.000;  159.000
278.180;   17.550;  270.000;  170.000
278.320;   -4.750;   21.000;   56.000
278.460;  -74.150; -443.000; -469.000
278.600;  -93.125; -708.000; -598.000
278.740;   56.625;  448.000;  224.000
278.880;  -74.250; -768.000; -791.000
279.020;  -12.475; -194.000; -144.000
279.160; -100.625; -672.000; -595.000
279.300; -124.725; -926.000; -873.000
279.440;  -91.025; -709.000; -622.000
279.579;  -32.875;-1014.000; -929.000
279.719;  -61.400; -410.000; -394.000
279.859;   63.175;   -4.000;   41.000
279.999;   38.225; -208.000;  101.000
280.139;  -25.875; -435.000; -387.000
280.279;  -83.225; -708.000; -745.000
280.419;  -23.375; -229.000; -147.000
280.559;  -32.250; -259.000; -180.000
280.698;  -89.125; -790.000; -639.000
280.838; -106.175; -778.000; -800.000
280.978; -101.150; -846.000; -790.000
281.118; -125.175; -811.000; -704.000
281.257;   -3.025;   24.000;    6.000
281.397; -129.125;-1094.000; -960.000
281.537;  -91.250; -599.000; -712.000
281.677;  -33.125; -150.000; -101.000
281.816;  -96.625; -700.000; -630.000
281.956;  -38.050; -193.000; -257.000
282.096;  -70.850; -539.000; -396.000
282.235; -104.650; -672.000; -638.000
282.375;  -24.025; -243.000;  -98.000
282.515; -101.250; -715.000; -707.000
282.654;   11.450;   29.000;  106.000
282.794;   14.775;  388.000;  244.000
282.934;  -62.550; -530.000; -491.000
283.073; -152.250;-1030.000; -857.000
283.213;  -69.975; -460.000; -467.000
283.353;  -46.150; -408.000; -349.000
283.492;  -36.250; -264.000; -296.000
283.632;  -54.025; -254.000; -168.000
283.771;  -98.750; -859.000; -730.000
283.911;  -59.900; -369.000; -260.000
284.050; -117.450; -794.000; -748.000
284.190; -165.500;-1229.000;-1096.000
284.329; -140.100;-1055.000; -964.000
284.469;  -76.525; -516.000; -591.000
284.608;  -69.625; -559.000; -598.000
284.748;  -94.300; -614.000; -570.000
284.887;   -4.050;  -87.000;  -20.000
285.027; -128.100; -844.000; -892.000
285.166;  -40.275; -192.000; -249.000
285.306;   -2.075; -116.000;  -33.000
285.445;  -45.625; -229.000; -343.000
285.584;  -93.500; -630.000; -494.000
285.724;  -41.750; -282.000; -322.000
285.863; -129.750; -857.000; -507.000
286.002;  -52.300; -366.000; -276.000
286.142; -121.950; -715.000; -622.000
286.281;  -78.350; -525.000; -493.000
286.420;  -84.400; -554.000; -417.000
286.560;  108.400;  653.000;  623.000
286.699; -145.050; -958.000; -912.000
286.838;  -97.150; -590.000; -591.000
286.978;  -92.050; -533.000; -537.000
287.117; -134.025;-1085.000; -950.000
287.256;  -35.100; -228.000; -211.000
287.395;  -59.850; -197.000; -378.000
287.535;  -55.075; -370.000; -298.000
287.674;  -88.725; -509.000; -484.000
287.813;   45.400;  661.000;  533.000
287.952; -131.625;-1010.000; -871.000
288.091; -149.925;-1049.000; -915.000
288.231;    0.025;   13.000;   15.000
288.370; -180.375;-1217.000;-1200.000
288.509;  -98.975; -728.000; -645.000
288.648;  -85.275; -770.000; -548.000
288.787;  -37.325; -243.000;  -87.000
288.926;  -76.225; -454.000; -475.000
289.065;  102.500;  859.000;  672.000
289.204;  -61.700; -377.000; -217.000
289.344;  -89.400; -791.000; -690.000
289.483;   29.650;  416.000;  304.000
289.622;  -40.750; -291.000; -149.000
289.761;  -14.400; -309.000; -166.000
289.900; -114.350; -785.000; -626.000
290.039;  -34.200;  -12.000;  -95.000
290.178;  -33.425; -274.000; -180.000
290.317;  -91.350; -618.000; -479.000
290.456;  -76.150; -463.000; -451.000
290.595; -147.550; -961.000; -833.000
290.734; -133.675; -904.000; -891.000
290.873;  -72.000; -456.000; -420.000
291.011; -118.000; -833.000; -843.000
291.150; -118.000; -770.000; -682.000
291.289;  -35.025; -343.000; -110.000
291.428; -101.200; -599.000; -480.000
291.567;  -54.200; -370.000; -442.000
291.706;   -5.150;  109.000;  154.000
291.845; -107.500; -597.000; -505.000
291.984; -162.050;-1234.000;-1061.000
292.122;   56.325;  602.000;  582.000
292.261;   47.275;  620.000;  463.000
292.400;   -3.875; -144.000;  211.000
292.539; -128.350; -959.000; -813.000
292.678;  -43.250; -325.000; -300.000
292.816; -158.450;-1136.000; -965.000
292.955;  -92.300; -844.000; -684.000
293.094;  -30.600; -173.000; -337.000
293.233;  -66.025; -556.000; -400.000
293.371;  -48.500; -225.000;  -84.000
293.510; -110.700; -866.000; -780.000
293.649; -138.325; -959.000; -924.000
293.787;  -86.325;-1083.000;-1012.000
293.926;  -12.950; -113.000;  -32.000
294.065;  -55.000; -379.000; -290.000
294.203;   39.625;  298.000;  406.000
294.342;   31.075;   74.000;  156.000
294.481; 6313.200;51180.000; -836.000
294.619;  -22.250; -425.000; -582.000
294.758; -148.025;-1230.000;-1137.000
294.896;   65.100; -125.000;    5.000
295.035; -128.200;-1040.000;-1006.000
295.174; -128.625;-1082.000; -954.000
295.312;  -34.875; -323.000; -203.000
295.451;  -18.675; -307.000; -428.000
295.589;  -61.975; -389.000; -518.000
295.728;    8.175; -292.000; -165.000
295.866;   -1.825;  -36.000;  -51.000
296.005;  -58.000; -584.000; -341.000
296.143;  -79.650; -558.000; -596.000
296.282; -110.275; -957.000; -881.000
296.420;  -94.250; -657.000; -557.000
296.559;  -97.000; -892.000; -633.000
296.697;   10.000; -847.000; -665.000
296.835;   29.825;-1141.000;-1002.000
296.974;   24.600;  -23.000;   39.000
297.112;   -6.975; -443.000; -504.000
297.251; -100.350; -815.000; -755.000
297.389;   60.975; -576.000; -438.000
297.527;   37.150; -145.000;  -83.000
297.666;  -52.175; -486.000; -438.000
297.804;  -66.900; -404.000; -264.000
297.942;  -21.300; -136.000; -161.000
298.081;  -19.350; -183.000;   63.000
298.219;   53.450;  -17.000;  -19.000
298.357;   40.375; -144.000;  -71.000
298.495;   17.825; -810.000; -812.000
298.634;   55.250;  245.000;  219.000
298.772;   29.650; -220.000; -338.000
298.910;  -38.900; -309.000; -182.000
299.048;   -7.875; -130.000; -153.000
299.187;  -31.075; -350.000; -250.000
299.325;   11.450;   52.000;  122.000
299.463;   35.200; -389.000; -299.000
299.601;   95.050; -327.000; -271.000
299.739; -109.025; -908.000; -883.000
299.877; -102.025; -791.000; -703.000
300.016;  -57.700;-1095.000; -935.000
300.154;  133.175;  -19.000; -161.000
300.292;   33.475; -428.000; -348.000
300.430;   24.975; -408.000; -291.000
300.568; -111.875; -940.000; -874.000
300.706;  -51.525; -366.000; -469.000
300.844;  -96.975;-1108.000; -979.000
300.982;  107.250;  246.000;  282.000
301.120; -108.575; -965.000; -866.000
301.258;  -71.200; -812.000; -705.000
301.396;   26.175;  104.000;  -41.000
301.534;   33.725; -218.000; -293.000
301.672;  -27.600; -664.000; -521.000
301.810;   14.425; -613.000; -545.000
301.948;   81.225;   53.000;  149.000
302.086;  572.425; -250.000;  -32.000
302.224;  864.625; -610.000; -585.000
302.362;   17.700; -558.000; -622.000
302.500;  -40.925; -923.000; -893.000
302.638;   84.825;  128.000;  245.000
302.776;  -22.125; -352.000; -408.000
302.913;   48.525;  447.000;  236.000
303.051;  -12.950;  -86.000;  -23.000
303.189;   42.300;   90.000;  118.000
303.327;  -43.900; -341.000; -256.000
303.465;  -94.925; -832.000; -588.000
303.603;  -96.800; -805.000; -604.000
303.740;   88.150;  417.000;  241.000
303.878;    1.950; -800.000; -759.000
304.016;  -96.875; -915.000; -790.000
304.154; -139.200;-1123.000;-1152.000
304.291;  -38.625; -505.000; -554.000
304.429;    1.325;  102.000;   74.000
304.567; -146.800; -908.000; -893.000
304.705;  -68.900; -408.000; -515.000
304.842;   74.650; -616.000; -540.000
304.980;   44.400;  215.000;   35.000
305.118;   21.575; -367.000; -365.000
305.255;  -88.050; -945.000; -927.000
305.393;   36.075;  178.000;  239.000
305.531; -108.300;-1173.000; -956.000
305.668;  -84.450; -663.000; -582.000
305.806;  102.825; -358.000; -439.000
305.943;   99.500; -629.000; -637.000
306.081;   41.475; -378.000; -267.000
306.219; -114.025; -863.000; -748.000
306.356;    4.275;  158.000;   27.000
306.494;   98.275;  981.000;  761.000
306.631;   -5.700;  -11.000;  -55.000
306.769;   -5.650; -613.000; -485.000
306.906;  -22.675; -284.000; -258.000
307.044;  -78.425; -473.000; -488.000
307.181;  -73.550; -410.000; -332.000
307.319;    0.975;  112.000;   87.000
307.456; -179.200;-1191.000;-1153.000
307.594;  -99.600; -980.000; -727.000
307.731;  -25.125; -371.000; -164.000
307.868;   -1.075;  -15.000;   20.000
308.006; -147.600; -961.000; -847.000
308.143;  -72.225; -618.000; -330.000
308.281;  132.950;  -37.000; -254.000
308.418;  -34.625; -748.000; -640.000
308.555;  -91.725; -400.000; -250.000
308.693;  -73.850; -577.000; -573.000
308.830; -114.200; -712.000; -657.000
308.967;  -23.350; -215.000;  -95.000
309.105;  -56.175; -507.000; -396.000
309.242;   13.400; -468.000; -367.000
309.379;  269.475; -577.000; -655.000
309.517;  -86.450; -936.000; -948.000
309.654; -101.875; -910.000; -734.000
309.791;  -88.825; -662.000; -580.000
309.928; -131.400; -977.000; -914.000
310.065;  163.275;  819.000;  697.000
310.203;  -31.100; -825.000; -850.000
310.340;  -27.650; -465.000; -321.000
310.477;  -98.875; -412.000; -516.000
310.614;  -81.450; -383.000; -473.000
310.751;  -89.300; -427.000; -518.000
310.889;  -43.925;    1.000;   11.000
311.026; -154.100;-1161.000; -939.000
311.163;  -53.200; -386.000; -380.000
311.300;  -84.525; -512.000; -479.000
311.437;  -76.575; -658.000; -619.000
311.574; -153.000;-1226.000; -985.000
311.711;  -68.850; -595.000; -433.000
311.848;  -34.675; -380.000; -388.000
311.985;   -4.675;  270.000;   93.000
312.122; -122.475; -932.000; -762.000
312.259; -123.300; -941.000; -994.000
312.396;  -83.575; -508.000; -551.000
312.533;  -97.675; -812.000; -790.000
312.670; -137.775;-1070.000; -898.000
312.807;  -51.600; -352.000; -367.000
312.944;  -81.500; -513.000; -611.000
313.081;  -45.550; -150.000; -415.000
313.218; -109.275;-1111.000; -867.000
313.355;   -4.650; -531.000; -449.000
313.492;  -16.150; -455.000; -292.000
313.629;  130.800;  815.000;  735.000
313.766; -186.050;-1176.000;-1008.000
313.902;  -28.200; -186.000;   21.000
314.039;  -54.250; -372.000; -289.000
314.176;   14.250;  286.000;  192.000
314.313;  -77.950; -569.000; -473.000
314.450;  -81.275; -788.000; -684.000
314.587;  -63.650; -468.000; -480.000
314.723;    9.625;  -78.000;  130.000
314.860;   23.800;  318.000;  332.000
314.997;   22.725;  223.000;  142.000
315.134;  -37.125; -385.000; -368.000
315.270;  -32.475; -480.000; -496.000
315.407; -139.150;-1094.000; -967.000
315.544;  -56.300; -657.000; -538.000
315.681;  -83.525; -681.000; -565.000
315.817;    8.875; -133.000; -176.000
315.954;   -7.275; -613.000; -392.000
316.091; -131.625;-1045.000;-1023.000
316.227;  -33.125;  -71.000; -179.000
316.364;   -2.050;   23.000;    6.000
316.500;  -38.900; -113.000; -300.000
316.637;  -40.225; -181.000; -302.000
316.774;  -88.250; -625.000; -358.000
316.910;  -91.900; -598.000; -629.000
317.047;  -80.850; -487.000; -351.000
317.183;  -63.400; -435.000; -566.000
317.320;  -12.150; -367.000; -321.000
317.456;  -67.575; -733.000; -805.000
317.593;  -90.850; -598.000; -641.000
317.729;   -6.525;  168.000;  -67.000
317.866; -213.475;-1434.000;-1285.000
318.002; -106.125; -708.000; -948.000
318.139;  -90.150; -883.000; -867.000
318.275; -111.475;-1003.000; -738.000
318.412;  -72.475; -517.000; -336.000
318.548;  -37.125; -751.000; -720.000
318.685; -103.400; -985.000; -888.000
318.821; -105.025; -762.000; -735.000
318.957;  -24.475;   34.000;  -23.000
319.094;   37.200;  297.000;  154.000
319.230;  -77.300; -756.000; -742.000
319.367;  117.575; -471.000; -520.000
319.503;   43.675; -538.000; -436.000
319.639;  -97.000; -877.000; -793.000
319.775;  -70.950; -750.000; -685.000
319.912;  -60.300; -424.000; -519.000
320.048;  -92.575;-1184.000;-1184.000
320.184;   74.700;   59.000;   70.000
320.321;  -69.550; -497.000; -467.000
320.457;   66.475;  475.000;  662.000
320.593;  -78.050; -375.000; -382.000
320.729; -120.225; -732.000; -734.000
320.866;  -76.350; -577.000; -635.000
321.002;  -78.625; -759.000; -809.000
321.138;  -26.825; -135.000; -211.000
321.274;   66.100; -148.000; -115.000
321.410;  -31.550; -585.000; -353.000
321.546;  -54.125;-1011.000; -911.000
321.683;   58.025;  400.000;  185.000
321.819;    6.250;  -48.000; -117.000
321.955; -118.800; -743.000; -722.000
322.091;  -62.650; -585.000; -540.000
322.227;   -8.225; -382.000; -202.000
322.363;  -32.550; -320.000; -215.000
322.499;  -56.775; -343.000; -331.000
322.635;  139.700;  636.000;  443.000
322.771;   21.925; -139.000;   12.000
322.907;   82.775;  129.000;  327.000
323.043;  -28.375; -115.000; -206.000
323.179;  -59.900; -394.000; -363.000
323.315;    3.550; -401.000; -371.000
323.451;   83.900; -328.000; -236.000
323.587;   55.450;  -60.000;  -77.000
323.723;    7.325; -682.000; -601.000
323.859;   -9.325; -258.000;  -76.000
323.995;  -38.775; -467.000; -409.000
324.131; -129.350; -967.000; -892.000
324.267;  -60.400; -254.000; -276.000
324.402; -142.475; -960.000; -983.000
324.538;  -35.100; -279.000; -104.000
324.674;    8.725;  164.000;   77.000
324.810;   90.250;  226.000;  308.000
324.946;  -18.025; -810.000; -658.000
325.082;  -85.625; -568.000; -475.000
325.217;  -14.875;  -62.000;   16.000
325.353; -110.250; -764.000; -659.000
325.489;  -84.875; -540.000; -506.000
325.625;  -88.075; -579.000; -525.000
325.760;   52.525;  517.000;  376.000
325.896;  -23.850; -515.000; -702.000
326.032;  -68.275; -403.000; -352.000
326.168;  -59.625; -462.000; -369.000
326.303;  -72.775; -352.000; -461.000
326.439;   -4.575; -336.000; -276.000
326.575;   -4.400; -190.000;  -29.000
326.710;  -17.425; -156.000;  -30.000
326.846;  -14.475;  146.000;  103.000
326.982;  -95.225; -530.000; -548.000
327.117;  -80.625; -481.000; -442.000
327.253;  -84.575; -745.000; -742.000
327.388; -129.850;-1137.000;-1153.000
327.524;  -67.950; -811.000; -578.000
327.659;  -23.725;  -58.000;  -22.000
327.795;  -19.825;   69.000;   45.000
327.931; -101.425; -723.000; -499.000
328.066;  -40.750; -417.000; -276.000
328.202;  -51.525;   12.000; -129.000
328.337;   93.875;  957.000;  713.000
328.473;   19.150;  -12.000;  -74.000
328.608;  -30.500; -256.000; -267.000
328.743;  -91.075; -799.000; -664.000
328.879;   20.875;  214.000;  114.000
329.014;  -31.950; -102.000; -122.000
329.150;  -88.700; -358.000; -483.000
329.285;  -73.125; -465.000; -466.000
329.421;  -61.550; -548.000; -246.000
329.556;  -33.375;  -36.000;   85.000
329.691;  -85.550; -633.000; -615.000
329.827;  -87.700; -626.000; -480.000
329.962;  -42.125;  131.000; -301.000
330.097; -102.750; -673.000; -585.000
330.233;  -59.050; -410.000; -223.000
330.368; -138.325; -839.000; -628.000
330.503;  -27.025;    3.000;   98.000
330.638;   -9.400;  -93.000; -125.000
330.774;  -70.975; -609.000; -530.000
330.909;  -51.125; -434.000; -244.000
331.044; -104.575; -714.000; -708.000
331.179; -175.500;-1217.000;-1109.000
331.315;   -2.900;   77.000;   20.000
331.450;    7.700;  157.000;  285.000
331.585;  -97.675; -805.000; -706.000
331.720;  -89.700; -510.000; -460.000
331.855;  -16.175;  -35.000; -102.000
331.990;  270.100;   62.000;  138.000
332.126;  127.075; -110.000;   71.000
332.261;  -27.600; -379.000; -265.000
332.396;  -17.100; -135.000; -242.000
332.531; -108.175;-1074.000;-1031.000
332.666;   24.375; -519.000; -363.000
332.801; -111.800; -726.000; -807.000
332.936;  -20.600; -192.000; -122.000
333.071; -150.600; -870.000; -817.000
333.206;   14.350;  307.000;  379.000
333.341;   27.550;  344.000;  418.000
333.476;  -89.975; -627.000; -623.000
333.611;  -33.950; -251.000; -173.000
333.746;  -57.200; -381.000; -464.000
333.881; -127.200; -973.000; -935.000
334.016; -128.325; -936.000; -917.000
334.151; -119.075; -746.000; -702.000
334.286;   22.225;  152.000;  186.000
334.421;  -20.325; -125.000; -178.000
334.556;  -98.725; -611.000; -567.000
334.690; -104.200; -631.000; -577.000
334.825;   32.525;  381.000;   83.000
334.960;  -57.775; -285.000; -413.000
335.095;   -6.225;  135.000;  -91.000
335.230; -108.675; -722.000; -738.000
335.365; -131.200;-1084.000; -990.000
335.499; -137.650;-1108.000;-1037.000
335.634;   21.825;    9.000;  534.000
335.769; -113.350; -755.000; -720.000
335.904;  -69.525; -603.000; -561.000
336.038;  -80.725; -735.000; -657.000
336.173; -140.850;-1206.000;-1194.000
336.308;   -7.100; -116.000; -189.000
336.443;   -1.225; -544.000; -634.000
336.577;  -84.950; -936.000; -787.000
336.712;   49.050;   -4.000;  -12.000
336.847;  -76.425; -724.000; -607.000
336.981;   61.275; -272.000; -208.000
337.116;  270.025;  615.000;  501.000
337.250;  110.875; -434.000; -421.000
337.385;  249.050; -297.000; -208.000
337.520;   88.200; -632.000; -603.000
337.654;  -44.775; -215.000; -126.000
337.789; -138.100; -989.000; -933.000
337.923;  -37.250; -104.000; -205.000
338.058;  -95.825; -673.000; -738.000
338.192;  -60.800; -611.000; -488.000
338.327;  -15.625;  -18.000; -155.000
338.461;  -67.925; -299.000; -469.000
338.596; -104.050; -780.000; -638.000
338.730; -109.000; -767.000; -803.000
338.865;   82.525;  -46.000; -140.000
338.999;  -52.850; -846.000; -702.000
339.134;  -31.900; -634.000; -536.000
339.268;    8.375; -741.000; -603.000
339.403;  382.850; -740.000; -775.000
339.537;  117.500; -894.000; -820.000
339.671; -125.550; -829.000; -813.000
339.806;  -73.600; -556.000; -512.000
339.940;    7.825; -261.000; -235.000
340.074;  -98.575; -685.000; -510.000
340.209;  -41.600; -351.000; -230.000
340.343; -103.525; -517.000; -573.000
340.477;  131.225;  998.000; 1036.000
340.612;  -56.600;-1033.000; -900.000
340.746;  138.650; -199.000; -243.000
340.880;  -89.450; -924.000; -785.000
341.014;  -32.550;  -45.000; -154.000
341.149; -122.000; -756.000; -718.000
341.283; -121.075; -839.000; -754.000
341.417; -106.050;-1124.000; -938.000
341.551;   93.250; -768.000; -708.000
341.685;  -56.525; -633.000; -611.000
341.820;  -64.750; -562.000; -493.000
341.954;  -54.050; -218.000; -349.000
342.088; -161.750;-1102.000;-1019.000
342.222;   47.000;  565.000;  618.000
342.356;  -65.350; -395.000; -335.000
342.490; -104.100; -880.000; -841.000
342.624;  -51.475; -339.000; -242.000
342.758;  -22.900; -364.000; -312.000
342.892;  -66.375; -710.000; -585.000
343.026;  -36.325;  -58.000; -116.000
343.160;  -80.100; -426.000; -376.000
343.294;  -90.550; -474.000; -337.000
343.428;  -45.250; -488.000; -448.000
343.562;  -24.900; -172.000;  -23.000
343.696;  -48.225; -385.000; -314.000
343.830;  -29.625; -362.000; -356.000
343.964;    8.950; -231.000; -168.000
344.098;  841.150;  199.000;   70.000
344.232;  692.925; -266.000; -127.000
344.366;   78.250; -567.000; -453.000
344.500;   35.550; -665.000; -744.000
344.634;   10.150; -324.000; -164.000
344.768;  -27.200; -531.000; -341.000
344.902;    1.800;  278.000;  256.000
345.035;  -76.875; -556.000; -496.000
345.169; -148.050; -933.000; -656.000
345.303;  -53.600; -308.000; -482.000
345.437;  -83.400; -826.000; -717.000
345.571;  -78.575; -675.000; -594.000
345.704;  -76.350; -309.000; -532.000
345.838;  -28.025; -331.000; -284.000
345.972;  -51.350; -543.000; -495.000
346.106;  149.850; -179.000; -190.000
346.239;  400.275; -312.000; -243.000
346.373;  -15.075; -343.000; -302.000
346.507; -132.500; -950.000; -962.000
346.640;  117.675;  -30.000;   13.000
346.774;  -69.175; -650.000; -797.000
346.908;  -32.150; -138.000;  -11.000
347.041; -108.825; -646.000; -593.000
347.175;    1.250;  259.000;   27.000
347.309;  -88.500; -698.000; -628.000
347.442; -116.700; -883.000; -732.000
347.576;  251.975;  670.000;  668.000
347.709;  178.250; -123.000;  -52.000
347.843; -108.000; -933.000; -825.000
347.976;   29.025;  235.000;  294.000
348.110; -175.200;-1268.000;-1186.000
348.243; -106.550; -679.000; -772.000
348.377;  -13.125;  -26.000;   60.000
348.510;   49.525;  403.000;  540.000
348.644;  -48.750;  -37.000; -159.000
348.777;    4.375;  180.000;  191.000
348.911;  -57.025; -142.000; -112.000
349.044;  146.250;  471.000;  448.000
349.178;  125.800;-1069.000;-1006.000
349.311;  103.975;  141.000;  255.000
349.444;  -19.250; -927.000; -813.000
349.578;  -15.650; -347.000; -200.000
349.711; -112.700; -959.000; -862.000
349.845;  -17.000; -661.000; -591.000
349.978; -160.300;-1224.000;-1137.000
350.111;  -77.025; -546.000; -612.000
350.244;  -90.550; -596.000; -700.000
350.378;  -10.425; -392.000; -393.000
350.511;  -70.125; -393.000; -426.000
350.644; -112.500; -808.000; -806.000
350.778;   -6.750;  168.000;  104.000
350.911;  -19.350;  134.000;  140.000
351.044;  -97.750; -685.000; -615.000
351.177;  -27.250; -321.000; -281.000
351.310;  -35.200;    3.000; -131.000
351.444;  -95.325; -888.000; -788.000
351.577;   87.450;  140.000;   90.000
351.710;   84.700;  593.000;  417.000
351.843;  -29.400; -165.000;  -77.000
351.976;  -12.850;  149.000;  -79.000
352.109; -108.825; -621.000; -612.000
352.242;  -46.100; -464.000; -419.000
352.376;  -70.950; -580.000; -636.000
352.509;  128.950; -437.000; -356.000
352.642;  -14.125; -654.000; -604.000
352.775;   51.400; -141.000;  -98.000
352.908; -113.100; -933.000; -904.000
353.041; -115.925; -814.000; -824.000
353.174;  -67.600; -551.000; -424.000
353.307;  -86.425; -753.000; -764.000
353.440;   53.150;  541.000;  453.000
353.573; -115.800; -957.000;-1008.000
353.706;  -75.925; -384.000; -558.000
353.839;  -28.125; -264.000; -220.000
353.971; -105.000; -657.000; -512.000
354.104;  -99.200; -896.000; -835.000
354.237;  -49.450; -627.000; -662.000
354.370;  -96.125; -846.000; -879.000
354.503; -171.900;-1231.000;-1308.000
354.636;  -53.050; -529.000; -348.000
354.769; -149.025; -937.000; -860.000
354.902;  -15.850; -230.000; -139.000
355.034;   -7.375; -164.000; -220.000
355.167;  -32.200; -262.000; -162.000
355.300;  -93.700;-1061.000; -880.000
355.433;  992.275;  -71.000;  -14.000
355.565; 1512.725; -402.000; -384.000
355.698;  387.800; -356.000; -296.000
355.831;  -11.750; -882.000; -801.000
355.964;   64.350; -285.000; -170.000
356.096;  -86.750; -856.000; -843.000
356.229;  -22.075; -523.000; -530.000
356.362;  319.275; -373.000; -266.000
356.494;  602.200; -229.000; -162.000
356.627;  421.350;  269.000;  377.000
356.760;  658.675;  120.000;   53.000
356.892;  985.600; -286.000; -601.000
357.025;  588.175;  403.000;  389.000
357.157;  544.025; -167.000; -179.000
357.290;  703.925; -856.000; -713.000
357.423;  198.250; -667.000; -556.000
357.555;   87.700; -217.000; -228.000
357.688;   87.500; -483.000; -364.000
357.820;  425.350; -870.000; -877.000
357.953; 3549.175; -563.000; -589.000
358.085;  749.175; -632.000; -612.000
358.218;  945.350;-1131.000; -932.000
358.350;  160.450;  -58.000;  312.000
358.483; -127.975;-1300.000;-1187.000
358.615;  -48.600;-1182.000;-1078.000
358.747;  -75.275;-1187.000;-1058.000
358.880;   -1.525; -810.000; -744.000
359.012;  -13.000; -376.000; -202.000
359.145;  -46.175; -480.000; -511.000
359.277;   38.175; -962.000; -913.000
359.409; 2899.400;  536.000;  231.000
359.542;  748.725; -738.000; -688.000
359.674;   61.400;   46.000;   13.000
359.806;  -75.550; -565.000; -438.000
359.939;  -42.175; -617.000; -516.000
360.071;  -11.450; -583.000; -579.000
360.203;  -20.325; -411.000; -364.000
360.335;   38.625;  164.000;  -16.000
360.468;  171.625; -249.000; -307.000
360.600; 2352.075; -547.000; -454.000
360.732; 2947.900; -546.000; -423.000
360.864;  401.625;-1216.000;-1044.000
360.996;  226.425; -516.000; -554.000
361.129;   18.150; -389.000; -598.000
361.261;   14.875;  110.000; -113.000
361.393;  -27.750; -252.000; -214.000
361.525;   -1.700;   94.000;  244.000
361.657;  -54.375; -821.000; -703.000
361.789;    8.150; -139.000; -155.000
361.921;  160.550; -642.000; -593.000
362.053;  205.900;  524.000;  541.000
362.185;   37.500;  288.000;   72.000
362.318;  -91.900; -709.000; -705.000
362.450;   94.850;  294.000;  444.000
362.582;   49.525; -913.000; -870.000
362.714;  -43.250; -353.000; -332.000
362.846;  -94.100; -606.000; -490.000
362.978; -158.450; -941.000; -811.000
363.109;   35.225; -161.000; -260.000
363.241;  354.950; -739.000; -749.000
363.373;  425.325; -649.000; -564.000
363.505;  684.650; -186.000;  -91.000
363.637;  151.975; -787.000; -601.000
363.769; -119.150;-1067.000;-1080.000
363.901;  -79.600; -596.000; -654.000
364.033; -129.350;-1103.000;-1062.000
364.165;  -11.750; -283.000; -283.000
364.296;   78.675; -316.000; -177.000
364.428;   72.000;-1344.000;-1220.000
364.560;  -77.950; -679.000; -661.000
364.692;  -72.000; -738.000; -835.000
364.824;  197.700; -588.000; -456.000
364.955;  416.025; -402.000; -564.000
365.087;  975.550;-1097.000; -852.000
365.219;   23.250; -686.000; -816.000
365.351;  -85.350; -526.000; -572.000
365.482;   41.025;  300.000;  240.000
365.614;  -53.600; -402.000; -314.000
365.746;  -90.750; -729.000; -752.000
365.877;  -97.675; -706.000; -672.000
366.009;  262.425;  -35.000;  -62.000
366.141;  -88.900;-1249.000;-1134.000
366.272; -105.225; -803.000; -719.000
366.404; -116.625;-1005.000; -874.000
366.535;  -18.925; -139.000;  -12.000
366.667; -116.125; -644.000; -649.000
366.799;   12.800;  353.000;  203.000
366.930; -129.375; -862.000; -996.000
367.062;  106.350; -639.000; -613.000
367.193;  150.625; -872.000; -842.000
367.325;  -77.700; -580.000; -684.000
367.456;   11.100; -246.000;   31.000
367.588;  165.425; -371.000; -318.000
367.719;    4.250;  -44.000;  -45.000
367.851;  -51.925; -222.000; -241.000
367.982;  -67.500; -875.000; -732.000
368.113;   88.250; -475.000; -358.000
368.245; -128.825; -960.000; -841.000
368.376;  -34.175; -254.000; -302.000
368.508;  -31.100; -188.000; -263.000
368.639; -144.500;-1166.000;-1034.000
368.770;  -37.100; -670.000; -589.000
368.902;  -68.725; -836.000; -926.000
369.033; -115.600; -906.000; -855.000
369.164;  -59.500; -720.000; -653.000
369.296; -110.050; -452.000; -601.000
369.427;  -15.925; -209.000; -144.000
369.558;  -53.200; -593.000; -377.000
369.689;  -98.725; -721.000; -569.000
369.821; -128.350; -951.000; -845.000
369.952;   -9.575;   42.000; -108.000
370.083;  -51.875; -229.000; -108.000
370.214;  -95.575; -735.000; -650.000
370.345;  -17.100;   65.000;   81.000
370.477; -109.400; -810.000; -790.000
370.608;  199.350; -328.000; -264.000
370.739;  -65.175;-1233.000;-1292.000
370.870;  -57.425;-1102.000; -923.000
371.001;   58.800; -378.000; -467.000
371.132;  -89.050; -754.000; -735.000
371.263;  -29.075;  -42.000; -148.000
371.394; -137.600; -841.000; -748.000
371.525;   21.025;  345.000;  225.000
371.657;  -92.275; -808.000; -670.000
371.788;   57.375;  103.000;  199.000
371.919;  125.700; -384.000; -304.000
372.050; 3350.900;  -91.000; -156.000
372.181; 1017.025; -188.000; -294.000
372.311;  304.775;   42.000; -127.000
372.442;    8.800; -457.000; -451.000
372.573;  -35.525; -444.000; -340.000
372.704; -128.175;-1008.000; -980.000
372.835;   64.425; -228.000; -289.000
372.966;  -72.050; -646.000; -554.000
373.097;  -73.775; -575.000; -711.000
373.228;  -58.175; -717.000; -542.000
373.359;  105.575; -824.000; -536.000
373.490;  810.775; -881.000; -727.000
373.620; 1043.275;-1001.000; -803.000
373.751; 1583.475; -332.000; -396.000
373.882;  710.300; -663.000; -733.000
374.013;   41.925; -449.000; -262.000
374.143;  -46.700; -581.000; -659.000
374.274; -114.000; -987.000; -908.000
374.405;  138.375; -388.000; -276.000
374.536;  378.200; -526.000; -387.000
374.666;  969.575; -759.000; -807.000
374.797;  173.375; -817.000; -868.000
374.928;  748.325; -710.000; -560.000
375.058;  790.150; -535.000; -500.000
375.189;   57.225;  -59.000;  -93.000
375.320; -122.100; -928.000;-1034.000
375.450;  -49.300; -625.000; -616.000
375.581;  -69.100; -526.000; -436.000
375.712;  -43.425; -574.000; -250.000
375.842;  258.775; -438.000; -415.000
375.973;  170.600; -554.000; -513.000
376.103;  -51.550; -665.000; -648.000
376.234;  -80.275; -531.000; -552.000
376.364;  -61.450; -944.000; -867.000
376.495;  289.600;  925.000;  529.000
376.625;  -14.800; -472.000; -485.000
376.756;   24.425; -709.000; -678.000
376.886;  -95.850;-1178.000;-1026.000
377.017;   40.175;-1048.000;-1061.000
377.147;  361.900; -786.000; -782.000
377.278;   52.350;  174.000;  228.000
377.408; -129.500; -801.000; -815.000
377.538; -110.225; -707.000; -693.000
377.669;  -99.200; -537.000; -613.000
377.799;  -96.875; -645.000; -635.000
377.929;  -72.375; -610.000; -428.000
378.060; -141.950; -781.000; -847.000
378.190;  -50.425; -726.000; -531.000
378.320;  -59.500; -401.000; -406.000
378.451;  -37.025; -131.000;  -22.000
378.581;  -21.875;  -67.000; -110.000
378.711;  119.725; 1035.000;  866.000
378.841;  -31.100; -533.000; -675.000
378.972;  -96.675; -871.000; -751.000
379.102;  -27.400; -652.000; -579.000
379.232;  -30.350; -126.000;  -73.000
379.362; -129.100;-1001.000; -885.000
379.492;  -11.375; -373.000; -424.000
379.623;   91.325;    0.000;  111.000
379.753; -109.400;-1107.000; -974.000
379.883;  165.025;   59.000;  156.000
380.013;  -20.225;-1081.000;-1017.000
380.143; -112.200;-1097.000;-1056.000
380.273; -110.025; -985.000; -861.000
380.403;  -11.425; -344.000; -257.000
380.533;  -44.400; -651.000; -664.000
380.663;   49.675;  173.000;  128.000
380.793; -110.350;-1027.000;-1074.000
380.923;  -27.350; -103.000;  -34.000
381.053; -104.000; -613.000; -623.000
381.183;  -42.225; -106.000; -248.000
381.313;   13.975; -656.000; -470.000
381.443;    5.200; -692.000; -473.000
381.573;  147.275; -402.000; -409.000
381.703;  208.525;-1249.000;-1095.000
381.833; -154.950;-1454.000;-1336.000
381.963;   99.925; -134.000;  -87.000
382.093; 1311.250; -925.000; -909.000
382.223;  394.025; -713.000; -602.000
382.353;  -34.425; -801.000; -608.000
382.482;  308.625;-1091.000; -964.000
382.612;  715.400; -872.000; -644.000
382.742;  386.300; -695.000; -622.000
382.872;  206.200; -565.000; -551.000
383.002;   49.650;  347.000; -132.000
383.131;  -30.500; -226.000; -160.000
383.261;  -53.000; -706.000; -768.000
383.391;  299.000; -552.000; -377.000
383.521; 3321.500;  451.000;  263.000
383.650;  827.325; -947.000; -904.000
383.780;  -12.900; -783.000; -656.000
383.910;   97.375;  880.000;  802.000
384.039;  -10.575; -794.000; -656.000
384.169;  151.525;-1205.000;-1017.000
384.299;  -47.400; -650.000; -662.000
384.428; -112.350; -764.000; -680.000
384.558;  -69.650; -308.000; -275.000
384.687;  -63.250; -414.000; -334.000
384.817;   -6.000;   75.000;   -2.000
384.947;   -9.175; -234.000; -141.000
385.076;  251.575;  982.000;  912.000
385.206;   83.300;  369.000;  480.000
385.335;  -48.075; -549.000; -417.000
385.465;  -94.025; -655.000; -663.000
385.594;   80.225;  -53.000;  -44.000
385.724;  360.275; -868.000; -838.000
385.853;   89.900; -296.000; -270.000
385.982; 1226.200; -743.000; -787.000
386.112; 1981.000;-1052.000; -871.000
386.241;  107.800; -307.000; -312.000
386.371;   13.250; -174.000;  -87.000
386.500;  -18.125; -825.000; -789.000
386.629;   12.350; -874.000; -817.000
386.759;   39.425;  -43.000;   68.000
386.888;  -28.900; -170.000; -250.000
387.017;  -98.225; -648.000; -620.000
387.147;  -99.725; -771.000; -798.000
387.276;  -27.425; -410.000; -397.000
387.405;   -4.025; -398.000; -342.000
387.535;  -69.550; -452.000; -361.000
387.664;  -62.400; -692.000; -620.000
387.793;   32.675; -198.000; -113.000
387.922;  449.575;  255.000;  200.000
388.052;   -0.900; -576.000; -423.000
388.181;  -24.450; -342.000; -472.000
388.310;  -46.850; -889.000; -710.000
388.439;  -80.225; -749.000; -742.000
388.568;  148.000;  365.000;  244.000
388.697;  953.075; -756.000; -653.000
388.826;  182.725; -768.000; -666.000
388.956;   37.175; -285.000; -307.000
389.085;  -43.200; -347.000; -287.000
389.214; -121.050; -842.000; -872.000
389.343;  -66.775; -645.000; -413.000
389.472;  401.550;  126.000;  149.000
389.601;  509.225;   91.000;    0.000
389.730;  -10.975; -568.000; -687.000
389.859;   52.725;  226.000;   46.000
389.988;  155.400; -423.000; -408.000
390.117;   96.875; -168.000; -146.000
390.246;  -13.750; -331.000; -320.000
390.375;   54.125; -673.000; -626.000
390.504;  -86.025; -703.000; -621.000
390.633; -115.900; -672.000; -726.000
390.761;  -81.175; -732.000; -645.000
390.890;    7.500;   -4.000; -130.000
391.019;  -41.725; -421.000; -441.000
391.148; -134.675; -826.000; -855.000
391.277;  -90.625; -576.000; -493.000
391.406;  -98.200; -821.000; -805.000
391.534;    9.375;  574.000; -301.000
391.663;  -78.400; -583.000; -645.000
391.792;  -82.775; -673.000; -701.000
391.921;   64.375;   -3.000;   15.000
392.050;  141.675; -287.000; -228.000
392.178;  -64.700;-1206.000;-1061.000
392.307;  115.750; -758.000; -712.000
392.436;   53.275; -427.000; -641.000
392.564;   10.300;  166.000;   -6.000
392.693; -109.575; -860.000; -682.000
392.822;  172.375; -529.000; -534.000
392.950;   66.850; -880.000; -714.000
393.079;  274.175; -188.000; -328.000
393.208;    1.675; -488.000; -511.000
393.336;  -24.750; -170.000; -145.000
393.465;  -63.900; -317.000; -199.000
393.593;  -20.150;   62.000;   79.000
393.722; -161.475;-1121.000; -916.000
393.850;  -52.125; -188.000;  -61.000
393.979; -157.650; -926.000; -805.000
394.107;  -65.625; -517.000; -537.000
394.236;  -47.975; -570.000; -507.000
394.364;  187.050;  383.000;  206.000
394.493;  302.575; -911.000; -767.000
394.621;  -24.775; -955.000; -916.000
394.750;  702.350; -873.000; -923.000
394.878; 2993.675; -247.000; -149.000
395.007; 4113.475; -721.000; -807.000
395.135;  301.925; -790.000; -721.000
395.263;  -92.800;-1038.000;-1040.000
395.392;  -19.400;  -25.000; -107.000
395.520; -150.225; -818.000; -679.000
395.648; -104.000; -865.000; -915.000
395.777;  -45.750; -366.000; -405.000
395.905;  -49.100; -449.000; -564.000
396.033;    8.450;  217.000;  172.000
396.162;  478.200; -399.000; -453.000
396.290;  424.775;  -17.000;   -2.000
396.418;   75.125; -555.000; -514.000
396.546;  -94.475; -571.000; -466.000
396.674; -119.225; -850.000; -878.000
396.803;  -15.250;  -72.000;  -23.000
396.931;   58.900; -179.000; -199.000
397.059;   18.300;-1026.000; -989.000
397.187; -127.500;-1026.000; -975.000
397.315; -144.450; -884.000; -649.000
397.443; -110.950; -592.000; -443.000
397.572;  -81.950; -578.000; -424.000
397.700;  -37.850; -607.000; -614.000
397.828;   -8.300;  120.000;  -90.000
397.956;  -46.725; -508.000; -478.000
398.084;  -54.825; -767.000; -626.000
398.212;   16.075;  137.000;  124.000
398.340;   -4.950;  -56.000;  159.000
398.468;    2.950; -390.000; -169.000
398.596; -155.600; -993.000; -953.000
398.724; -123.075; -762.000; -767.000
398.852; -167.000;-1024.000; -976.000
398.980;  -84.500; -560.000; -560.000
399.108;  -71.975; -982.000; -735.000
399.236;   23.175;   13.000;    8.000
399.363;   -2.025;  222.000;  196.000
399.491;  -81.850; -404.000; -398.000
399.619; -142.575; -829.000; -800.000
399.747; -108.925; -859.000; -771.000
399.875;   61.825;  220.000;  234.000
400.003;  -61.450; -359.000; -284.000
400.130;  -96.100; -421.000; -341.000
400.258;  -50.500;  -83.000;   38.000
400.386;  -78.500; -352.000; -168.000
400.514;  -71.450; -526.000; -587.000
400.641; -105.900; -928.000; -802.000
400.769; -151.675; -979.000; -888.000
400.897; -137.625; -838.000; -793.000
401.025;  -30.825; -166.000; -152.000
401.152;  -23.575;  220.000;   38.000
401.280;  -90.825; -430.000; -429.000
401.408; -128.175; -712.000; -576.000
401.535;  -96.125; -735.000; -758.000
401.663; -201.400;-1134.000;-1054.000
401.790;  -92.600; -514.000; -525.000
401.918;   39.150;  436.000;  405.000
402.046;  -27.825;  134.000;  122.000
402.173;  -44.075;  -18.000;    7.000
402.301;  -73.825; -519.000; -397.000
402.428;   33.200;  528.000;  383.000
402.556; -163.650;-1188.000; -913.000
402.683;  -36.875;  -20.000;   -1.000
402.811;  -27.375;  -37.000; -206.000
402.938;  -30.575;   20.000;   27.000
403.066;  153.675; -574.000; -558.000
403.193;  291.300;  299.000;  239.000
403.321;  189.400; -396.000; -574.000
403.448;  262.650;   83.000;   27.000
403.575;  130.775;  -90.000;  -46.000
403.703; -111.875; -732.000; -557.000
403.830;  -87.125; -531.000; -496.000
403.957; -152.350;-1117.000;-1023.000
404.085;    3.150;  -61.000; -172.000
404.212;   92.200;  -50.000;   63.000
404.339;  272.300; -566.000; -306.000
404.467; 5957.075; -612.000; -524.000
404.594; 3897.275; -287.000; -227.000
404.721;  861.175; -869.000; -764.000
404.848;   63.975; -113.000; -202.000
404.976; -106.175; -856.000; -783.000
405.103;  -24.225;  -14.000;  -82.000
405.230;   -0.475;  190.000;  226.000
405.357;    7.425;  117.000;   44.000
405.484;  263.150;  -49.000;    5.000
405.612;   53.275; -548.000; -563.000
405.739;  -77.675; -488.000; -243.000
405.866;   67.300;  669.000;  385.000
405.993;  -67.875; -398.000; -102.000
406.120; -148.875; -801.000; -887.000
406.247;  -67.375; -323.000; -342.000
406.374;  379.725;  540.000;  629.000
406.501;   54.875; -632.000; -702.000
406.628;  -97.175; -621.000; -589.000
406.755; -101.425; -803.000; -620.000
406.882;  -61.625; -228.000; -277.000
407.009; -116.275; -719.000; -628.000
407.136;   26.650; -480.000; -401.000
407.263;   85.825; -939.000; -829.000
407.390;  -87.275; -692.000; -614.000
407.517; -179.825;-1139.000;-1187.000
407.644;  -68.000; -332.000; -256.000
407.771;  -90.650; -249.000; -287.000
407.898;  -15.400;  168.000;  328.000
408.025;  -79.400; -421.000; -313.000
408.151;  -21.650;   82.000;  153.000
408.278;  -82.925; -267.000; -216.000
408.405; -127.300; -931.000; -899.000
408.532;  -77.800; -549.000; -542.000
408.659; -132.000; -677.000; -648.000
408.785; -211.850;-1298.000;-1170.000
408.912;  -80.600; -412.000; -296.000
409.039; -125.725; -610.000; -686.000
409.166; -112.050; -591.000; -555.000
409.292; -116.850; -571.000; -534.000
409.419; -116.450; -665.000; -649.000
409.546;  -94.150; -431.000; -192.000
409.672; -108.400; -713.000; -545.000
409.799;  -29.200;  -36.000;   34.000
409.926;  -52.525; -180.000; -179.000
410.052; -185.350;-1127.000;-1091.000
410.179;  -58.600; -368.000; -392.000
410.305;  -95.825; -375.000; -493.000
410.432;  -37.925; -220.000; -333.000
410.558; -107.075; -305.000; -380.000
410.685; -108.925; -688.000; -431.000
410.812; -111.300; -409.000; -588.000
410.938; -144.200; -964.000; -808.000
411.065; -103.525; -671.000; -645.000
411.191;  -22.250; -189.000; -174.000
411.317; -121.450; -823.000; -742.000
411.444;  -62.375; -317.000; -246.000
411.570;  -87.200; -339.000; -294.000
411.697; -135.900; -758.000; -752.000
411.823; -195.475; -989.000; -999.000
411.949;  -39.400;  -56.000;   17.000
412.076; -132.650; -539.000; -519.000
412.202; -125.675; -758.000; -757.000
412.329; -139.150; -798.000; -752.000
412.455; -119.350; -821.000; -657.000
412.581;  -28.950;  -15.000;  172.000
412.707;  -85.825; -540.000; -457.000
412.834;   11.550;  156.000;  219.000
412.960;  -96.400; -785.000; -784.000
413.086; -114.100; -743.000; -701.000
413.212;  122.225;  604.000;  578.000
413.339;  -79.875; -685.000; -701.000
413.465;  -31.550; -364.000; -310.000
413.591; -112.125; -757.000; -474.000
413.717;  -78.625; -358.000; -366.000
413.843; -145.550; -839.000; -861.000
413.969;  -69.250;  -47.000; -292.000
414.096; -118.400; -679.000; -679.000
414.222;  -16.700;  -33.000;   85.000
414.348;  -40.300; -652.000; -385.000
414.474;   70.300;   38.000;  -52.000
414.600;  -30.850; -126.000; -144.000
414.726;  -23.850;  -96.000;  -55.000
414.852;  -68.250; -365.000; -342.000
414.978;   13.650;  104.000;  -18.000
415.104;   35.300;   38.000;   80.000
415.230;   13.750; -329.000; -330.000
415.356;   34.225; -409.000; -514.000
415.482;  173.425;   13.000;  -35.000
415.608;  262.450; -247.000; -323.000
415.734;  961.050;   67.000;   38.000
415.860;20150.025; -875.000; -767.000
415.986;14946.825; -685.000; -607.000
416.111; 1278.025; -798.000; -652.000
416.237;  269.800; -424.000; -571.000
416.363; 1140.700; -765.000; -733.000
416.489; 4349.650; -324.000; -251.000
416.615;  482.000; -707.000; -742.000
416.741;  -30.875; -677.000; -784.000
416.866; -100.025; -673.000; -736.000
416.992; -129.700; -801.000; -818.000
417.118;  -47.300;  -41.000;  -80.000
417.244;  -76.900; -798.000; -531.000
417.369;  -99.700; -801.000; -612.000
417.495;  -13.500; -325.000; -254.000
417.621;  -83.300;-1015.000; -803.000
417.746;   -0.950; -579.000; -572.000
417.872;   25.100; -254.000; -144.000
417.998;   45.350; -515.000; -530.000
418.123; 1054.575;-1073.000; -845.000
418.249; 5576.775; -512.000; -601.000
418.374;  802.650; -916.000; -824.000
418.500;  111.225; -383.000; -482.000
418.626;  102.300;   70.000;  -59.000
418.751;  109.275; -549.000; -448.000
418.877;  192.375; -637.000; -643.000
419.002; 1824.075; -688.000; -560.000
419.128;12997.825; -930.000; -721.000
419.253; 3223.875; -967.000; -837.000
419.379;  427.750; -391.000; -338.000
419.504;  397.525;  325.000;  415.000
419.629;  523.025; -393.000; -212.000
419.755; 3648.600; -317.000; -254.000
419.880;22247.925;  -98.000;   67.000
420.006;11769.425; -280.000; -221.000
420.131;30369.850; -662.000; -775.000
420.256; 4467.150; -315.000; -316.000
420.382;  570.050; -665.000; -687.000
420.507;   63.400; -649.000; -778.000
420.632;  103.200; -337.000; -339.000
420.758;  198.600; -251.000; -425.000
420.883;  -80.425; -876.000; -672.000
421.008; -114.725; -775.000; -619.000
421.133;  -92.850; -509.000; -467.000
421.259;  -57.200; -325.000; -259.000
421.384; -120.525; -834.000; -693.000
421.509;  -68.125;-1052.000; -862.000
421.634;  937.150; -936.000; -820.000
421.759;  424.225; -359.000; -327.000
421.885;  -64.550; -717.000; -656.000
422.010;  -86.350; -673.000; -542.000
422.135; -160.825; -695.000; -727.000
422.260;   29.300;  340.000;  280.000
422.385;  -42.600;   12.000;  -98.000
422.510;    3.750;  151.000;  -26.000
422.635;   14.100;  -87.000;  -43.000
422.760;   85.150; -766.000; -791.000
422.885;   37.750;  -57.000;  -80.000
423.010;  -50.925; -112.000; -169.000
423.135; -106.525; -481.000; -561.000
423.260;  -23.950; -150.000; -245.000
423.385;   48.750;  476.000;  222.000
423.510;   16.100;   71.000;  -22.000
423.635;   51.675;  133.000;   45.000
423.760;   53.925;  383.000;  328.000
423.885;   48.350;  336.000;  391.000
424.010;   -3.125;  -68.000;  -13.000
424.135;  -22.850;    5.000;  -33.000
424.259;  -91.625; -654.000; -457.000
424.384;  -71.150; -279.000; -272.000
424.509;  -37.050; -260.000; -186.000
424.634; -105.725; -761.000; -623.000
424.759;  -45.100; -688.000; -544.000
424.883;  -16.650; -506.000; -527.000
425.008;  143.150; -502.000; -410.000
425.133; 2033.350; -679.000; -653.000
425.258;  960.425; -517.000; -381.000
425.382;  956.600; -867.000; -774.000
425.507; 2469.800; -487.000; -543.000
425.632;  428.600; -802.000; -663.000
425.756;  484.225; -256.000; -146.000
425.881; 6859.725; -831.000; -857.000
426.006;19021.650; -604.000; -355.000
426.130; 2969.925; -696.000; -508.000
426.255;  374.475; -611.000; -491.000
426.379;  162.625; -189.000; -577.000
426.504;  377.575;  660.000;  544.000
426.629; 4045.100; -519.000; -466.000
426.753; 2840.100;   64.000;  -46.000
426.878;  336.625; -252.000; -288.000
427.002;  140.475; -651.000; -668.000
427.127; 1597.325;  -35.000; -158.000
427.251;11752.800;  372.000;  401.000
427.375; 3412.650; -191.000; -173.000
427.500; 2189.600; -616.000; -610.000
427.624;  724.700; -234.000; -400.000
427.749;   65.825; -216.000; -225.000
427.873;  -39.700; -499.000; -412.000
427.997;  -49.225; -222.000; -230.000
428.122;   67.050;  795.000;  703.000
428.246;   55.600;  433.000;  434.000
428.371; -142.475; -869.000; -773.000
428.495; -108.975; -624.000; -646.000
428.619;  -44.575; -186.000; -117.000
428.743;   19.000;   65.000;  132.000
428.868;    3.100; -732.000; -643.000
428.992; 1277.550; -219.000; -326.000
429.116;  492.875; -329.000; -357.000
429.240;  229.300;  419.000;  426.000
429.365;  -32.075; -454.000; -574.000
429.489;  -57.175; -638.000; -647.000
429.613;    7.200; -236.000; -177.000
429.737;   30.425; -563.000; -432.000
429.861;  263.625; -247.000; -133.000
429.985; 5650.475; -425.000; -305.000
430.109; 6377.475; -770.000; -908.000
430.234;  728.275;   76.000;  -50.000
430.358;   58.500; -250.000; -160.000
430.482;  -88.175; -672.000; -564.000
430.606;  -71.950; -655.000; -375.000
430.730;  -21.675; -437.000; -388.000
430.854;   56.775; -909.000; -835.000
430.978;  -85.150; -795.000; -764.000
431.102; -106.700; -499.000; -422.000
431.226; -135.875; -874.000; -815.000
431.350;    9.875;  345.000;  422.000
431.474;  -87.825; -661.000; -373.000
431.597; -161.025;-1060.000; -848.000
431.721;  -87.125; -276.000; -267.000
431.845; -143.725; -704.000; -472.000
431.969;  -85.000; -304.000; -349.000
432.093;  -88.625; -395.000; -317.000
432.217;  -22.400;   32.000;   82.000
432.341;  -89.750; -523.000; -518.000
432.464;   -4.000;   96.000;   40.000
432.588;  141.750; -401.000; -329.000
432.712;   78.275;  -52.000;  -52.000
432.836;   25.200;  213.000;  263.000
432.959;  -27.250; -372.000; -311.000
433.083;   88.875;   11.000;    2.000
433.207;  374.850;  285.000;  930.000
433.330; 5170.925; -391.000; -200.000
433.454; 6529.475; -654.000; -638.000
433.578; 3713.100;  583.000;  278.000
433.701;  696.850; -623.000; -675.000
433.825;  111.425; -292.000; -299.000
433.949;  135.550;   28.000;  -72.000
434.072;   17.875; -410.000; -323.000
434.196;  -25.625; -309.000; -117.000
434.319; 3628.350;25482.000;25124.000
434.443;  718.400; -656.000; -603.000
434.566; 2740.550;  281.000;   62.000
434.690;  475.625; -637.000; -383.000
434.813;   48.700; -251.000; -173.000
434.937;  -97.725; -569.000; -696.000
435.060;  -69.350; -423.000; -332.000
435.184;  222.925; -492.000; -217.000
435.307;  123.200;  159.000;  102.000
435.431;  -25.675;  -40.000;   24.000
435.554;  -77.950; -399.000; -240.000
435.677;  -93.850; -350.000; -258.000
435.801;  -54.150;  -25.000;   49.000
435.924;  -25.650;    1.000;  -67.000
436.048; -138.925;-1019.000; -732.000
436.171;  -76.400; -240.000;  -66.000
436.294;  -35.850; -248.000; -229.000
436.417;   77.625; -963.000; -849.000
436.541;  -67.550; -814.000; -840.000
436.664;  -58.800; -242.000; -316.000
436.787;  -42.725;   13.000;  113.000
436.910; -126.550; -792.000; -422.000
437.034;  -12.250;  142.000;  143.000
437.157;   30.575;  -11.000;    0.000
437.280;  -70.675; -392.000; -292.000
437.403;  -94.625; -982.000; -869.000
437.526;  461.250; -903.000; -865.000
437.649; 1869.575; -505.000; -332.000
437.772;  260.275; -692.000; -540.000
437.896;  103.025;  700.000;  544.000
438.019; -108.225; -758.000; -503.000
438.142;  -92.575; -596.000; -506.000
438.265;  -50.375; -639.000; -670.000
438.388;  440.450; -520.000; -410.000
438.511;   49.225; -597.000; -394.000
438.634;  -60.100; -247.000; -125.000
438.757; -141.975; -693.000; -619.000
438.880;  -28.400;  -34.000;  -57.000
439.003;  -80.650; -417.000; -437.000
439.126;  -81.650; -287.000; -167.000
439.248;  -66.350;  -98.000; -139.000
439.371;  -54.000;    9.000;  -53.000
439.494;   21.600;  510.000;  439.000
439.617;  -58.750;   65.000;  -88.000
439.740; -169.400; -968.000; -816.000
439.863; -150.200; -755.000; -595.000
439.986; -132.575; -476.000; -431.000
440.108;  -58.975; -161.000; -112.000
440.231; -167.375; -950.000; -836.000
440.354;  -51.800;  -64.000; -150.000
440.477;   -1.400; -566.000; -542.000
440.599;  -16.075; -200.000; -225.000
440.722; -129.650; -709.000; -586.000
440.845;   59.150;  751.000;  928.000
440.968; -115.300; -415.000; -311.000
441.090;  -74.375; -199.000;  -33.000
441.213; -180.100;-1021.000; -825.000
441.336;  -71.425; -159.000;   -5.000
441.458;  -84.175; -549.000; -396.000
441.581; -102.675; -628.000; -629.000
441.703;  -84.850; -152.000;   13.000
441.826; -120.375; -557.000; -400.000
441.948;  -63.550;   56.000;   51.000
442.071;   28.600;  555.000;  424.000
442.193; -116.950; -531.000; -485.000
442.316;   21.600;  152.000;   97.000
442.438;   50.450; -233.000;  -10.000
442.561;   62.800;  272.000;  262.000
442.683;  394.025; -809.000; -522.000
442.806;  945.725;   -8.000;   74.000
442.928;   -7.225; -859.000; -604.000
443.051;  -79.125; -577.000; -373.000
443.173;  -92.375; -341.000; -339.000
443.295;  -91.500; -263.000; -371.000
443.418;  -86.000; -321.000;  -29.000
443.540;  -34.700; -106.000;   -4.000
443.662; -131.225; -563.000; -465.000
443.785;  -21.625;  335.000;  199.000
443.907; -103.650; -362.000; -208.000
444.029; -139.025; -767.000; -494.000
444.152; -144.500; -644.000; -554.000
444.274;  -37.075;  -18.000;  -24.000
444.396; -128.125; -461.000; -221.000
444.518; -133.600; -691.000; -454.000
444.640; -108.125; -268.000; -111.000
444.763;  -25.250;  388.000;  249.000
444.885; -118.875; -432.000; -392.000
445.007;  -38.600;   35.000;   86.000
445.129; -121.250; -610.000; -515.000
445.251; -114.150; -372.000; -439.000
445.373; -144.925; -537.000; -386.000
445.495;   -4.475;  242.000;  350.000
445.617;   31.275;  853.000;  753.000
445.739;  -62.250; -215.000;  -97.000
445.861;  -48.550; -245.000; -112.000
445.984;  -54.975; -267.000; -101.000
446.105;  144.625; -418.000; -251.000
446.227;  508.975; -176.000;  -19.000
446.349;    2.225; -358.000; -249.000
446.471; -111.875; -615.000; -448.000
446.593;  -80.550; -316.000;   19.000
446.715;  -25.650;  -67.000;   41.000
446.837;   46.525;  697.000;  832.000
446.959; -111.775; -457.000; -478.000
447.081; -141.800; -628.000; -518.000
447.203;   46.050;  862.000;  834.000
447.325;  -91.300; -270.000;   42.000
447.446;  -16.775;  286.000;  530.000
447.568; -154.375; -921.000; -803.000
447.690;  -73.175; -236.000; -245.000
447.812; -164.300; -798.000; -519.000
447.933;  -48.125;  155.000;  127.000
448.055;  -75.875; -306.000; -261.000
448.177;  103.375;   31.000;   79.000
448.299;   54.225; -935.000; -727.000
448.420;   22.325;  -25.000;  159.000
448.542;  -57.425;   -3.000;   33.000
448.664;  -33.100;  109.000;  322.000
448.785;  -37.875;  265.000;   83.000
448.907;  -85.225; -614.000; -353.000
449.028;  -65.650; -771.000; -471.000
449.150;   59.650;  492.000;  589.000
449.272; -186.575;-1044.000; -913.000
449.393;   13.525;  612.000;  694.000
449.515; -140.750; -634.000; -581.000
449.636;  -79.075; -264.000; -155.000
449.758;   58.700;  763.000;  622.000
449.879; -100.125; -498.000; -396.000
450.001;  -72.425; -149.000;  -49.000
450.122;  -48.425;  -95.000;  162.000
450.244;  -40.675;   37.000;  364.000
450.365; -100.125; -495.000; -301.000
450.486;  -34.125;   80.000;  268.000
450.608;  -14.600;  393.000;  326.000
450.729;   68.600;  578.000;  645.000
450.850;    8.925; -574.000; -466.000
450.972;  765.300; -552.000; -389.000
451.093; 5149.400;  190.000;  588.000
451.214; 2296.600; -516.000; -337.000
451.336;  414.625;  773.000;  579.000
451.457;   56.000;  264.000;  393.000
451.578;  -42.150; -118.000;  -74.000
451.699; -121.900; -546.000; -540.000
451.821;  -67.075; -284.000;  -50.000
451.942;    0.950;  278.000;  285.000
452.063;   16.175;  228.000;  419.000
452.184;  554.400;  -54.000;  -49.000
452.305; 1142.050;  103.000;  170.000
452.427;  148.625; -549.000; -301.000
452.548;  -33.175;   23.000;   79.000
452.669;  -71.950; -257.000;  -89.000
452.790;  -53.425;    3.000;  -18.000
452.911;  -23.300;  195.000;  259.000
453.032;  -81.400; -289.000;  -60.000
453.153;  -51.700;  -29.000;   81.000
453.274;   44.375;  737.000;  868.000
453.395;  -69.575;  -51.000;  175.000
453.516;   99.950; 1317.000; 1388.000
453.637;  -76.650; -205.000; -150.000
453.758;  -57.900;   15.000;   69.000
453.879; -122.725; -462.000; -250.000
454.000;   51.975; 1086.000;  948.000
454.121; -122.350; -554.000; -326.000
454.242; -123.250; -599.000; -383.000
454.362;  -67.475;  -99.000;  114.000
454.483;  -50.125; -309.000; -229.000
454.604;   31.050;  512.000;  580.000
454.725; -147.675; -627.000; -555.000
454.846; -130.025; -474.000; -406.000
454.967;  -32.050;  230.000;  539.000
455.087;  -49.500;  179.000;  153.000
455.208;   18.125;  554.000;  856.000
455.329;  -84.700;  -22.000;   82.000
455.450;   27.900;  473.000;  633.000
455.570;  -91.325; -234.000; -211.000
455.691;  -49.150;  201.000;  407.000
455.812; -109.475; -270.000;  -92.000
455.932;  -72.475;  107.000;  -97.000
456.053;  -87.225;   36.000;   24.000
456.173; -117.250; -433.000; -355.000
456.294; -144.575; -476.000; -303.000
456.415;  -70.925;  -73.000;   70.000
456.535;  -45.075;  297.000;  273.000
456.656;  -48.775;  132.000;  240.000
456.776;  -82.700;    3.000;  298.000
456.897;   -3.225;  308.000;  513.000
457.017;  -78.500; -153.000;   -3.000
457.138; -119.375; -402.000; -249.000
457.258;  -45.400;  263.000;  224.000
457.379;  -28.450;  509.000;  521.000
457.499;  -44.900;  443.000;  432.000
457.620; -132.100; -407.000; -231.000
457.740; -103.325; -132.000;  -11.000
457.860;  -70.100;   87.000;   44.000
457.981;  -58.200;  132.000;  124.000
458.101;  -75.300;  -89.000;   40.000
458.221;  -23.550;  336.000;  402.000
458.342;  -69.000;   -4.000;  -37.000
458.462;   23.175;  617.000;  352.000
458.582;  -26.750; -302.000; -294.000
458.703;   10.625;  303.000;  154.000
458.823;  -33.775;   22.000;  163.000
458.943;   15.450;  341.000;  467.000
459.063;  -25.750; 1124.000;  192.000
459.183;  -45.675;  328.000;  313.000
459.304;    6.000;  315.000;  517.000
459.424;  -56.525; -246.000;  -89.000
459.544;  340.800;  388.000;  764.000
459.664;  839.775;  499.000;  506.000
459.784;  317.375; 1004.000; 1175.000
459.904;   56.875;  867.000;  744.000
460.024;   70.450;  867.000;  684.000
460.144;    3.425;  449.000;  554.000
460.264;    0.400;  515.000;  327.000
460.385; -103.625; -145.000; -119.000
460.505;   27.500;  905.000;  858.000
460.625; -102.550;  -17.000;  -68.000
460.745;  -35.175;  396.000;  541.000
460.864;  -55.200;  153.000;  469.000
460.984;   19.900;  499.000;  573.000
461.104;  106.775; 1656.000; 1775.000
461.224;    0.400;  657.000;  650.000
461.344;  -43.525;  431.000;  360.000
461.464;  -53.250;  258.000;  513.000
461.584;  -43.000;  283.000;  466.000
461.704;  -54.675;   58.000;  108.000
461.824;  -65.050;  238.000;  259.000
461.943;  -46.150;  191.000;  130.000
462.063;  -69.725;    2.000;  324.000
462.183;   23.525;  639.000;  717.000
462.303;   90.675; 1678.000; 1230.000
462.422;    8.750;  781.000;  840.000
462.542;  -42.425;  271.000;  391.000
462.662;   37.225;  353.000;  380.000
462.782;  230.200;  833.000;  572.000
462.901;  485.175;  545.000;  717.000
463.021;  280.475; 1702.000; 1638.000
463.141;  -12.225;  337.000;  770.000
463.260;  -20.850;  614.000;  474.000
463.380;    9.450;  902.000;  884.000
463.499;  -33.500;  342.000;  332.000
463.619;  -39.250;  581.000;  559.000
463.738;  118.450; 1644.000;  903.000
463.858;    8.900;  657.000;  811.000
463.978;  -46.275;  542.000;  396.000
464.097;   53.875;  921.000; 1114.000
464.217;  120.100; 1196.000; 1143.000
464.336;  111.200; 1068.000; 1130.000
464.455;  -31.750;  328.000;  659.000
464.575;   23.900;  597.000;  602.000
464.694;  157.150; 1204.000; 1179.000
464.814;  123.525; 1190.000; 1138.000
464.933;   63.725; 1095.000; 1027.000
465.052;   90.525; 1412.000; 1054.000
465.172;   63.200;  922.000;  799.000
465.291;  120.900; 1376.000; 1320.000
465.410;   -3.200;  462.000;  735.000
465.530;   80.450; 1355.000; 1310.000
465.649;   64.350; 1209.000; 1273.000
465.768;  132.625; 1673.000; 1508.000
465.888;   38.825;  941.000; 1174.000
466.007;   99.975; 1335.000; 1440.000
466.126;   -6.425;  721.000;  641.000
466.245;   27.150; 1176.000; 1187.000
466.364;   28.550;  950.000; 1060.000
466.484;   41.000; 1024.000; 1213.000
466.603;   41.625; 1101.000; 1222.000
466.722;  109.775; 1490.000; 1769.000
466.841;   63.550; 1151.000; 1401.000
466.960;   33.075; 1069.000;  972.000
467.079;  127.925; 1971.000; 1786.000
467.198;   63.050; 1238.000; 1181.000
467.317;   69.550; 1768.000; 1162.000
467.436;   70.275; 1709.000; 1261.000
467.555;  126.775; 1796.000; 1746.000
467.674;   54.875; 1227.000; 1329.000
467.793;   36.325; 1376.000; 1374.000
467.912;   84.225; 1658.000; 1539.000
468.031;  122.375; 2038.000; 1930.000
468.150;  134.100; 1842.000; 1837.000
468.269;  172.500; 2313.000; 2090.000
468.388;  181.425; 2168.000; 2339.000
468.507;  235.525; 2884.000; 2903.000
468.626;  266.775; 2555.000; 2541.000
468.744;  134.900; 2018.000; 2174.000
468.863;  191.875; 2312.000; 2523.000
468.982;   97.225; 1503.000; 1555.000
469.101;  228.775; 2788.000; 2692.000
469.220;  150.725; 2333.000; 2176.000
469.338;  241.925; 2935.000; 3051.000
469.457;  188.200; 2719.000; 2545.000
469.576;  345.200; 3953.000; 3784.000
469.695;  225.750; 2877.000; 3066.000
469.813;  412.300; 4148.000; 4192.000
469.932;  394.625; 4255.000; 4485.000
470.051;  429.450; 4075.000; 4161.000
470.169;  850.875; 4470.000; 4338.000
470.288; 1479.175; 4700.000; 4809.000
470.406;  885.000; 5059.000; 5194.000
470.525;  618.000; 6101.000; 5787.000
470.644;  639.900; 6847.000; 6794.000
470.762;  816.325; 8397.000; 7873.000
470.881;  889.325; 8651.000; 8464.000
470.999; 1021.000; 9685.000; 9151.000
471.118; 1121.375;11174.000;10711.000

