
Integration time [ms]: 200.000
Averaging Nr. [scans]: 10
Smoothing Nr. [pixels]: 0
Data measured with spectrometer [name]: 2101012U2
Wave   ;Sample   ;Dark     ;Reference
[nm]   ;[counts] ;[counts] ;[counts] 

197.733;  112.200;  516.000;  404.000
197.879; -183.800; -610.000; -634.000
198.025; -109.600; -475.000; -420.000
198.171; -146.900; -602.000; -612.000
198.317;  -51.500; -401.000; -316.000
198.463; -134.800; -655.000; -404.000
198.609;   95.300;  181.000; -137.000
198.755; -164.400; -644.000; -410.000
198.901; -124.200; -505.000; -424.000
199.047; -117.900; -615.000; -488.000
199.193;  -72.300; -230.000; -468.000
199.339;  -86.500; -222.000; -369.000
199.485;  115.500;  330.000;  271.000
199.631;   29.100;  227.000;  310.000
199.777; -121.900; -466.000; -398.000
199.923; -104.900; -610.000; -424.000
200.069;  -12.800; -141.000;  -58.000
200.215;  130.700;  128.000;  453.000
200.361;  122.500;  243.000;  477.000
200.507; -151.200; -600.000; -373.000
200.653;  -54.800; -371.000; -194.000
200.798;  -71.400; -215.000; -125.000
200.944;    9.500; -146.000;  -41.000
201.090;   80.700;   61.000;  222.000
201.236;  -16.800; -116.000; -158.000
201.382;  269.200;  874.000;  903.000
201.528;   -5.400;  -58.000;  -48.000
201.674;  -64.100; -386.000; -293.000
201.819; -123.100; -540.000; -439.000
201.965; -193.600; -699.000; -447.000
202.111;  -48.100; -273.000; -226.000
202.257; -120.900; -250.000; -238.000
202.402;   18.600;   13.000;  -36.000
202.548;  -69.800; -169.000; -116.000
202.694;  160.900;  410.000; -183.000
202.840; -190.700; -603.000; -531.000
202.985; -145.500; -681.000; -639.000
203.131; -229.300; -832.000; -666.000
203.277;  -34.600; -199.000; -262.000
203.423; -103.700; -434.000; -520.000
203.568;  -91.500; -462.000; -237.000
203.714; -115.300; -535.000; -542.000
203.860; -187.000; -682.000; -641.000
204.005;   45.400;  112.000;  167.000
204.151;  173.000;  561.000;  556.000
204.296;  -77.200; -354.000; -221.000
204.442; -148.300; -600.000; -547.000
204.588; -149.400; -592.000; -579.000
204.733;   32.600;  178.000;  168.000
204.879; -278.800;-1018.000; -822.000
205.025;   24.200;  -99.000;  126.000
205.170;   26.300;  -17.000;   94.000
205.316;  174.500;  438.000;  661.000
205.461; -181.900; -698.000; -554.000
205.607;  200.500;  609.000;  665.000
205.752; -166.800; -626.000; -551.000
205.898;  -99.300; -501.000; -391.000
206.043; -116.000; -578.000; -506.000
206.189;  -76.800; -243.000; -285.000
206.334;  167.900;  554.000;  606.000
206.480;  158.600;  409.000;  239.000
206.625; -185.100; -529.000; -552.000
206.771;  -89.500; -451.000; -373.000
206.916;  -71.800; -210.000; -537.000
207.062; -173.400; -545.000; -591.000
207.207; -149.400; -546.000; -443.000
207.353;  117.200;  185.000;  460.000
207.498;   36.300;  196.000;   85.000
207.643; -113.600; -501.000; -370.000
207.789; -281.300;-1069.000; -910.000
207.934; -190.300; -665.000; -713.000
208.080;  -55.800; -154.000;   66.000
208.225;  -31.700;  -22.000;  -57.000
208.370; -160.200; -727.000; -619.000
208.516; -176.200; -741.000; -487.000
208.661;  -69.400; -127.000;  -69.000
208.806;  -55.100; -165.000; -171.000
208.952; -241.600;-1044.000; -731.000
209.097;  164.500;  378.000;  349.000
209.242;  -88.800; -307.000; -382.000
209.387;   91.900;  392.000;  350.000
209.533; -125.100; -321.000; -350.000
209.678;  163.300;  472.000;  543.000
209.823; -118.000; -408.000; -310.000
209.969; -210.500; -860.000; -757.000
210.114; -221.700; -907.000; -719.000
210.259; -251.800; -939.000; -889.000
210.404;  -30.000; -171.000;  103.000
210.549;   31.900;  108.000;    3.000
210.695;  -53.600;   -3.000;  -95.000
210.840;   98.100;   94.000;   67.000
210.985; -119.400; -484.000; -303.000
211.130;  142.300;  268.000;  406.000
211.275;    7.500;  207.000;  199.000
211.420; -116.500; -300.000; -289.000
211.566; -126.000; -536.000; -489.000
211.711;   65.300;  218.000;  157.000
211.856; -123.400; -545.000; -519.000
212.001;   19.800;  151.000;   44.000
212.146;   27.900;  153.000;   49.000
212.291;  -65.600; -210.000; -186.000
212.436;  -56.000; -280.000;   -6.000
212.581; -166.400; -685.000; -653.000
212.726; -164.100; -487.000; -538.000
212.871; -100.800; -552.000; -217.000
213.016; -334.000;-1172.000;-1029.000
213.161;  132.700;  406.000;  291.000
213.306; -148.900; -435.000; -577.000
213.451; -172.700; -778.000; -689.000
213.596;  -96.000; -455.000; -347.000
213.741;  -92.300; -448.000; -538.000
213.886; -137.700; -498.000; -517.000
214.031;  -37.000; -294.000; -124.000
214.176; -119.800; -408.000; -341.000
214.321;  -20.400; -296.000; -157.000
214.466;  -41.900; -163.000;  -43.000
214.611;  -15.400;  -61.000;  -10.000
214.756; -263.200; -948.000; -858.000
214.901;  -29.900; -388.000; -226.000
215.046; -251.400; -797.000; -825.000
215.191;   29.500;  128.000;   35.000
215.336;   -8.100; -157.000;  -19.000
215.480; -120.300; -684.000; -505.000
215.625;   -0.300; -175.000;  -19.000
215.770; -153.600; -757.000; -662.000
215.915;   -2.000;   -5.000;  -97.000
216.060;   -1.100; -113.000;  -21.000
216.205; -233.500; -731.000; -779.000
216.349; -141.900; -470.000; -533.000
216.494; -277.000; -939.000; -867.000
216.639; -213.800; -823.000; -888.000
216.784; -179.000; -577.000; -525.000
216.929;  120.700;  392.000;  281.000
217.073;  -22.100; -244.000;  -31.000
217.218;   11.900;   78.000;  -47.000
217.363; -154.800; -656.000; -618.000
217.507; -130.000; -623.000; -588.000
217.652; -240.000; -845.000; -874.000
217.797; -174.700; -708.000; -659.000
217.942; -220.100; -856.000; -720.000
218.086;  173.100;  608.000;  539.000
218.231;  -70.700; -174.000;  -26.000
218.376;  -52.000; -337.000; -229.000
218.520;   58.900;  -41.000;   96.000
218.665;  -47.400; -338.000; -204.000
218.810;  -86.300; -275.000; -233.000
218.954;   72.200;  201.000;   35.000
219.099; -226.000; -713.000; -963.000
219.243; -148.100; -589.000; -554.000
219.388;  -77.600; -264.000; -136.000
219.532;  -10.400; -116.000; -116.000
219.677; -173.200; -564.000; -521.000
219.822;   35.000;   33.000;   89.000
219.966;   33.800;   17.000;  -99.000
220.111;  -62.400; -328.000;  -40.000
220.255; -215.400; -797.000; -750.000
220.400;  -20.600; -180.000; -146.000
220.544; -150.400; -516.000; -450.000
220.689; -118.600; -422.000; -451.000
220.833;  -32.800; -123.000;  -58.000
220.978;  -83.200; -393.000; -563.000
221.122;   95.600;  319.000;  307.000
221.267; -219.800; -906.000; -837.000
221.411; -141.700; -478.000; -394.000
221.555;  -19.200; -104.000;  -23.000
221.700; -105.500; -329.000; -222.000
221.844;  103.600;  255.000;  272.000
221.989;  -77.800; -328.000; -311.000
222.133;  -90.000; -289.000; -307.000
222.277;   -3.900;    5.000;   78.000
222.422;   58.100;  227.000;  113.000
222.566;  -64.500; -381.000; -214.000
222.711; -117.900; -414.000; -479.000
222.855; -159.200; -643.000; -586.000
222.999; -185.100; -642.000; -717.000
223.144;  -65.700; -195.000; -194.000
223.288;  129.100;  423.000;  251.000
223.432;   46.900;  184.000;  230.000
223.576;   60.700;  152.000;  -21.000
223.721;   88.300;  364.000;  273.000
223.865; -136.700; -472.000; -475.000
224.009;  544.900; 1673.000; 1631.000
224.153; -165.900; -660.000; -671.000
224.298; -149.500; -531.000; -489.000
224.442;  -22.300;  -74.000;  -33.000
224.586;  -13.400; -169.000; -106.000
224.730; -196.300; -858.000; -670.000
224.875; -219.800; -739.000; -688.000
225.019;   69.000;  102.000;  188.000
225.163;  120.900;  208.000;  341.000
225.307;   61.000;   97.000;  -91.000
225.451;   80.000;  360.000;  481.000
225.595;   78.200;  264.000;  176.000
225.739;  -14.800; -170.000;  -94.000
225.884;   60.300;   86.000;    5.000
226.028; -207.800; -760.000; -626.000
226.172;  -43.900; -260.000; -273.000
226.316; -231.500; -941.000; -902.000
226.460; -134.000; -645.000; -493.000
226.604;  -94.100; -406.000; -400.000
226.748; -209.700; -836.000; -733.000
226.892;  -81.700; -227.000; -181.000
227.036; -108.100; -537.000; -447.000
227.180; -127.500; -551.000; -375.000
227.324; -142.100; -561.000; -580.000
227.468; -223.300; -819.000; -717.000
227.612;   29.300;  242.000;  -28.000
227.756; -199.800; -845.000; -698.000
227.900;  136.900;  342.000;  441.000
228.044; -102.400; -509.000; -290.000
228.188;  168.700;  448.000;  568.000
228.332; -159.700; -546.000; -472.000
228.476;  -58.700; -223.000; -149.000
228.620;  -71.700; -210.000; -150.000
228.764;  140.600;  431.000;  349.000
228.908;  -13.100; -155.000;   30.000
229.052;  -95.400; -615.000; -528.000
229.195;  -20.300; -172.000;   13.000
229.339;  -27.800; -235.000; -305.000
229.483;  -43.300;    5.000; -162.000
229.627;   12.500; -156.000;  139.000
229.771;  -81.500; -218.000; -294.000
229.915;   15.100;  230.000;   79.000
230.059; -191.800; -648.000; -663.000
230.202;  -51.300; -370.000; -317.000
230.346;  -54.300; -107.000;  107.000
230.490; -123.900; -489.000; -521.000
230.634; -226.500; -736.000; -553.000
230.777;  208.300;  478.000;  509.000
230.921; -112.400; -450.000; -359.000
231.065;  -69.700; -246.000; -286.000
231.209;   77.600;  261.000;  265.000
231.352;   46.000;   54.000;   40.000
231.496;   47.100;  568.000;  188.000
231.640; -154.400; -693.000; -621.000
231.783;  128.700;  546.000;  525.000
231.927;  -83.400; -294.000; -365.000
232.071; -259.700; -962.000; -736.000
232.214; -218.400; -980.000; -764.000
232.358; -189.600; -683.000; -599.000
232.502;    7.200;  -19.000;    7.000
232.645; -266.600;-1090.000; -927.000
232.789;  -49.100; -257.000; -218.000
232.933;  -76.600; -407.000; -224.000
233.076; -272.700;-1038.000; -897.000
233.220; -218.800; -752.000; -777.000
233.363; -157.100; -669.000; -477.000
233.507;  110.100;  371.000;  129.000
233.650; -189.000; -764.000; -834.000
233.794;   81.100;  438.000;  461.000
233.938; -136.100; -530.000; -362.000
234.081;  -30.400;  -93.000;   31.000
234.225; -141.700; -631.000; -539.000
234.368; -251.000; -773.000; -723.000
234.512; -102.100; -385.000; -299.000
234.655; -144.300; -582.000; -555.000
234.798; -121.700; -493.000; -466.000
234.942; -268.600; -884.000;-1002.000
235.085; -155.600; -651.000; -443.000
235.229; -155.800; -405.000; -410.000
235.372;  -96.400; -247.000; -191.000
235.516;  -84.500; -397.000; -321.000
235.659;   48.800;   92.000;  121.000
235.802;   -8.500;  -38.000;  -22.000
235.946;   50.800;  335.000;  215.000
236.089;   82.500;  126.000;  250.000
236.233;  119.400;  275.000;  298.000
236.376;  -97.000; -235.000; -378.000
236.519;  -79.600; -297.000; -319.000
236.663;  -34.700; -215.000; -117.000
236.806; -271.900;-1029.000; -999.000
236.949;  132.500;  543.000;  431.000
237.092;  162.100;  412.000;  391.000
237.236; -181.700; -589.000; -502.000
237.379;  133.300;  352.000;  428.000
237.522; -225.400; -879.000; -768.000
237.666;  -37.200; -271.000;   18.000
237.809; -249.900; -851.000; -823.000
237.952;   71.600;  469.000;  271.000
238.095; -112.200; -447.000; -442.000
238.238;  205.200;  688.000;  700.000
238.382;   13.400;  166.000;  103.000
238.525; -110.900; -598.000; -511.000
238.668; -292.800;-1060.000; -985.000
238.811; -171.700; -638.000; -643.000
238.954; -127.800; -483.000; -334.000
239.097;  195.200;  617.000;  664.000
239.241;   76.200;  394.000;  326.000
239.384;  -63.400; -254.000; -214.000
239.527; -117.100; -424.000; -224.000
239.670; -289.000; -994.000;-1091.000
239.813; -224.200; -696.000; -658.000
239.956;  166.400;  579.000;  473.000
240.099; -242.600; -778.000; -725.000
240.242;  142.700;  428.000;  432.000
240.385;  109.500;  466.000;  450.000
240.528; -113.300; -706.000; -473.000
240.671;   48.000;  189.000;  134.000
240.814;  -72.000; -441.000; -158.000
240.957; -197.900; -767.000; -578.000
241.100; -173.100; -779.000; -755.000
241.243; -289.500;-1234.000; -893.000
241.386; -113.600; -508.000; -379.000
241.529; -188.900; -735.000; -547.000
241.672; -112.000; -566.000; -495.000
241.815; -224.900; -832.000; -808.000
241.958;  -32.600; -125.000; -182.000
242.101; -181.400; -545.000; -390.000
242.244;  -87.700; -270.000; -325.000
242.387;  -83.800; -304.000; -246.000
242.530;  139.900;  470.000;  134.000
242.673;  -49.800; -381.000; -309.000
242.815; -215.700; -925.000; -899.000
242.958; -135.100; -482.000; -381.000
243.101;   28.000;  132.000;  187.000
243.244; -140.500; -564.000; -521.000
243.387;  -61.200; -313.000; -316.000
243.530; -188.200; -657.000; -674.000
243.672;   37.200;   43.000;  -92.000
243.815;  -99.800; -355.000; -283.000
243.958;   13.600;   98.000;  -26.000
244.101;   -4.900;   59.000;  -16.000
244.243;  -21.000;  -47.000;  101.000
244.386; -228.800; -761.000; -630.000
244.529;  -15.600; -132.000; -139.000
244.672; -300.300;-1154.000; -951.000
244.814; -203.200; -621.000; -794.000
244.957; -112.800; -380.000; -304.000
245.100; -136.200; -489.000; -489.000
245.242;  -98.300; -387.000; -374.000
245.385;   10.100;  -59.000;  -39.000
245.528; -236.100; -871.000; -705.000
245.670;  220.800;  612.000;  634.000
245.813; -149.600; -599.000; -547.000
245.956;  -59.200; -324.000; -275.000
246.098; -174.900; -508.000; -650.000
246.241;   54.700;  194.000;   48.000
246.383;  -15.500; -119.000;  -73.000
246.526; -144.000; -454.000; -525.000
246.669; -247.900; -889.000; -780.000
246.811;   48.000;  172.000;   -1.000
246.954; -114.900; -512.000; -426.000
247.096;  -38.900;  -84.000;   -6.000
247.239; -143.600; -482.000; -445.000
247.381; -137.700; -647.000; -488.000
247.524;  224.300;  645.000;  679.000
247.666;    9.000;   58.000;   11.000
247.809; -241.800; -887.000; -691.000
247.951;   -9.100;  -75.000;  138.000
248.094;   58.500;  432.000;  308.000
248.236; -310.800;-1262.000;-1238.000
248.378;   38.400; -356.000;  -81.000
248.521;  -52.800; -334.000; -337.000
248.663;  -73.800; -236.000; -267.000
248.806;  -54.600; -300.000; -266.000
248.948; -213.000; -886.000; -763.000
249.090;  -82.800; -428.000; -398.000
249.233; -105.800; -344.000; -381.000
249.375; -102.800; -474.000; -451.000
249.518;  -21.800;  -83.000; -133.000
249.660;    9.200; -103.000;    3.000
249.802; -350.700;-1303.000;-1189.000
249.945; -134.600; -612.000; -540.000
250.087; -227.800; -834.000; -768.000
250.229; -104.700; -362.000; -480.000
250.371; -152.900; -494.000; -439.000
250.514;  -93.500; -310.000; -244.000
250.656;   -0.700;   69.000;  102.000
250.798; -223.300; -849.000; -800.000
250.940;  -92.800; -322.000; -322.000
251.083;  -33.900; -335.000; -111.000
251.225;  149.400;  338.000;  310.000
251.367;  -89.100; -274.000; -373.000
251.509;  -60.000; -265.000; -210.000
251.651; -195.000; -731.000; -671.000
251.794;  153.100;  538.000;  632.000
251.936; -183.100; -821.000; -747.000
252.078; -123.300; -540.000; -461.000
252.220;  -99.500; -645.000; -477.000
252.362;  146.700;  344.000;  462.000
252.504; -149.100; -677.000; -584.000
252.646; -222.700; -875.000; -722.000
252.788;   11.900;   14.000; -128.000
252.931;  -66.600; -257.000; -253.000
253.073;  -68.300; -376.000; -317.000
253.215;  -29.300;  141.000;  122.000
253.357;   -5.500;   82.000; -153.000
253.499;  -66.000; -374.000; -234.000
253.641; -188.400; -749.000; -594.000
253.783; -166.100; -609.000; -527.000
253.925; -172.300; -586.000; -591.000
254.067; -206.800; -744.000; -667.000
254.209;  -27.100; -391.000; -259.000
254.351; -285.600; -865.000; -883.000
254.493; -107.000; -441.000; -417.000
254.635; -210.000; -936.000; -818.000
254.777; -180.900; -752.000; -687.000
254.918; -130.500; -512.000; -430.000
255.060; -127.600; -551.000; -395.000
255.202; -122.400; -473.000; -261.000
255.344; -133.100; -658.000; -455.000
255.486; -154.300; -471.000; -406.000
255.628; -218.100; -780.000; -781.000
255.770; -158.500; -676.000; -536.000
255.912; -115.500; -559.000; -468.000
256.053; -168.000; -730.000; -508.000
256.195;  333.100; 1008.000;  903.000
256.337; -210.500; -861.000; -595.000
256.479;  142.400;  532.000;  416.000
256.621;  -75.000; -394.000; -212.000
256.762; -176.600; -789.000; -742.000
256.904;  113.300;  485.000;  487.000
257.046;  -69.600; -381.000; -271.000
257.188;  -84.500; -351.000; -264.000
257.329; -142.700; -525.000; -464.000
257.471; -227.000; -939.000; -807.000
257.613; -135.500; -584.000; -498.000
257.755; -304.400;-1073.000; -982.000
257.896;   90.200;  286.000;  392.000
258.038; -113.200; -403.000; -352.000
258.180;  -35.500; -354.000; -279.000
258.321; -146.000; -581.000; -457.000
258.463;   -0.700;  -71.000;  133.000
258.605; -178.200; -562.000; -570.000
258.746; -217.600; -886.000; -772.000
258.888; -320.500;-1026.000;-1020.000
259.029;   63.500;  121.000;   -8.000
259.171; -175.400; -614.000; -550.000
259.313;   36.500;  -49.000;  -47.000
259.454; -110.700; -536.000; -414.000
259.596; -137.100; -483.000; -390.000
259.737; -132.400; -590.000; -474.000
259.879;   88.800;  217.000;  311.000
260.020;  187.200;  901.000;  636.000
260.162;  -39.900; -146.000; -253.000
260.303; -221.800; -768.000; -687.000
260.445; -161.500; -609.000; -613.000
260.586;   48.700;  392.000;  157.000
260.728;  -79.900; -360.000; -248.000
260.869; -121.000; -350.000; -343.000
261.011;  180.100;  706.000;  537.000
261.152; -142.600; -479.000; -319.000
261.293; -136.000; -576.000; -595.000
261.435;  -50.900; -219.000; -184.000
261.576;  -89.200; -455.000; -325.000
261.718;  149.400;  420.000;  470.000
261.859; -253.500; -940.000; -949.000
262.000; -264.500; -951.000;-1016.000
262.142;  -14.600;  -52.000;  -60.000
262.283; -226.500; -808.000; -691.000
262.424; -197.700; -666.000; -625.000
262.566; -287.500;-1161.000; -983.000
262.707; -237.800; -840.000; -830.000
262.848; -258.400; -769.000; -726.000
262.990;  -79.400; -362.000; -345.000
263.131;  177.600;  650.000;  681.000
263.272;   15.600;  -61.000;  -41.000
263.413; -135.300; -589.000; -561.000
263.555; -124.000; -669.000; -143.000
263.696; -183.300; -550.000; -641.000
263.837; -113.800; -449.000; -551.000
263.978;    5.600;   -5.000;  -77.000
264.119;  -99.300; -283.000; -264.000
264.261; -201.800; -847.000; -630.000
264.402;   33.300;   33.000;   40.000
264.543; -153.900; -509.000; -524.000
264.684;    1.300;   61.000;  -50.000
264.825; -141.500; -816.000; -538.000
264.966;   -0.500;  -84.000;  -67.000
265.107; -244.400; -646.000; -670.000
265.248; -220.100; -825.000; -812.000
265.390;   15.300;  152.000;   -9.000
265.531;   -1.700; -238.000; -107.000
265.672; -180.000; -557.000; -630.000
265.813;  160.200;  563.000;  439.000
265.954; -285.600; -959.000; -940.000
266.095;   -6.600; -372.000; -322.000
266.236; -169.300; -686.000; -548.000
266.377;  -80.700; -243.000; -297.000
266.518; -119.400; -619.000; -547.000
266.659;   92.900;  170.000;  268.000
266.800;   43.000;   83.000;   85.000
266.941; -135.400; -487.000; -478.000
267.082;   46.300;  354.000;   99.000
267.223;  -84.100; -344.000; -273.000
267.364; -215.500; -892.000; -686.000
267.504;   10.200;    3.000;  135.000
267.645;    8.900;  160.000;   67.000
267.786;  -67.800; -147.000;  -86.000
267.927; -152.300; -473.000; -379.000
268.068;  -43.500; -186.000;  -61.000
268.209;  -71.200; -175.000; -413.000
268.350; -102.100; -388.000; -532.000
268.490; -166.100; -648.000; -521.000
268.631;   93.800;  127.000;  225.000
268.772; -216.800; -874.000; -647.000
268.913;  -92.600; -328.000; -476.000
269.054;  -35.400; -117.000;   12.000
269.194; -107.300; -418.000; -402.000
269.335; -304.600;-1137.000;-1074.000
269.476;  -27.600;   33.000;  -35.000
269.617;  -54.700; -347.000; -392.000
269.757; -170.700; -713.000; -646.000
269.898; -206.000; -856.000; -613.000
270.039; -141.700; -415.000; -405.000
270.180; -263.500; -952.000; -816.000
270.320;  -29.600; -190.000; -250.000
270.461;  -53.600; -277.000; -249.000
270.602;   -3.400; -186.000; -156.000
270.742; -237.300; -868.000; -943.000
270.883;  -94.000; -442.000; -390.000
271.023;  -90.000; -358.000; -357.000
271.164; -123.500; -607.000; -528.000
271.305; -196.700; -666.000; -654.000
271.445; -183.500; -722.000; -683.000
271.586; -141.900; -462.000; -283.000
271.726;  -81.500; -397.000; -322.000
271.867; -120.400; -594.000; -534.000
272.008;  286.400; -473.000; -285.000
272.148;  257.100;  462.000;  468.000
272.289;   -7.600; -113.000; -181.000
272.429;   56.500;   19.000;  185.000
272.570; -166.300; -633.000; -737.000
272.710; -192.100; -825.000; -775.000
272.851;  -10.000;  113.000; -130.000
272.991; -339.700;-1173.000;-1077.000
273.131; -107.900; -419.000; -459.000
273.272; -184.700; -683.000; -723.000
273.412;    5.900; -143.000;  -31.000
273.553;  -95.600; -488.000; -507.000
273.693;  296.200;  913.000;  858.000
273.834; -201.200; -894.000; -692.000
273.974; -147.700; -664.000; -615.000
274.114; -188.700; -772.000; -560.000
274.255;  155.500;  414.000;  373.000
274.395;    8.400; -180.000; -125.000
274.535;   98.600;  199.000;  350.000
274.676;   50.900;  225.000;   94.000
274.816;   36.500;  110.000;   34.000
274.956; -140.400; -624.000; -690.000
275.097; -146.600;-1014.000; -922.000
275.237; -246.700; -913.000; -803.000
275.377; -170.900; -778.000; -689.000
275.517; -271.200; -878.000; -937.000
275.658; -119.500; -590.000; -555.000
275.798; -127.800; -606.000; -413.000
275.938;   58.600;  215.000;  323.000
276.078; -151.900; -626.000; -395.000
276.218;   46.500;   99.000;  104.000
276.359; -260.000;-1026.000;-1024.000
276.499;  -92.300; -605.000; -446.000
276.639;  -37.600; -305.000; -151.000
276.779;  -59.000; -475.000; -357.000
276.919; -206.000; -783.000; -624.000
277.059;  -39.200; -261.000; -212.000
277.199;  -53.800; -357.000; -259.000
277.340;  121.000;  287.000;  175.000
277.480; -183.200; -840.000; -693.000
277.620;   90.800;  192.000;   16.000
277.760; -375.700;-1533.000;-1294.000
277.900;   28.800;  113.000;   33.000
278.040;   60.900;  137.000;  159.000
278.180;  100.200;  270.000;  170.000
278.320;   48.900;   21.000;   56.000
278.460; -137.400; -443.000; -469.000
278.600; -169.300; -708.000; -598.000
278.740;  133.900;  448.000;  224.000
278.880; -134.800; -768.000; -791.000
279.020;   12.500; -194.000; -144.000
279.160; -196.700; -672.000; -595.000
279.300; -219.800; -926.000; -873.000
279.440; -155.900; -709.000; -622.000
279.579; -106.300;-1014.000; -929.000
279.719;  -61.600; -410.000; -394.000
279.859;  141.700;   -4.000;   41.000
279.999;   56.200; -208.000;  101.000
280.139;  -22.300; -435.000; -387.000
280.279; -141.100; -708.000; -745.000
280.419;  -12.500; -229.000; -147.000
280.559;  -48.100; -259.000; -180.000
280.698; -152.300; -790.000; -639.000
280.838; -183.000; -778.000; -800.000
280.978; -201.500; -846.000; -790.000
281.118; -199.600; -811.000; -704.000
281.257;   26.000;   24.000;    6.000
281.397; -267.800;-1094.000; -960.000
281.537; -167.200; -599.000; -712.000
281.677;  -20.800; -150.000; -101.000
281.816; -156.500; -700.000; -630.000
281.956;  -27.500; -193.000; -257.000
282.096; -129.100; -539.000; -396.000
282.235; -202.300; -672.000; -638.000
282.375;  -20.500; -243.000;  -98.000
282.515; -155.500; -715.000; -707.000
282.654;   94.500;   29.000;  106.000
282.794;   90.500;  388.000;  244.000
282.934;  -52.500; -530.000; -491.000
283.073; -244.400;-1030.000; -857.000
283.213;  -86.800; -460.000; -467.000
283.353;  -30.300; -408.000; -349.000
283.492;  -51.200; -264.000; -296.000
283.632;  -70.700; -254.000; -168.000
283.771; -185.700; -859.000; -730.000
283.911;  -90.400; -369.000; -260.000
284.050; -198.500; -794.000; -748.000
284.190; -305.800;-1229.000;-1096.000
284.329; -304.100;-1055.000; -964.000
284.469; -129.800; -516.000; -591.000
284.608;  -81.300; -559.000; -598.000
284.748; -167.100; -614.000; -570.000
284.887;   20.200;  -87.000;  -20.000
285.027; -232.400; -844.000; -892.000
285.166;  -56.800; -192.000; -249.000
285.306;   19.500; -116.000;  -33.000
285.445;  -50.700; -229.000; -343.000
285.584; -175.900; -630.000; -494.000
285.724;  -48.700; -282.000; -322.000
285.863; -217.300; -857.000; -507.000
286.002;  -71.500; -366.000; -276.000
286.142; -215.200; -715.000; -622.000
286.281; -172.600; -525.000; -493.000
286.420; -138.300; -554.000; -417.000
286.560;  220.300;  653.000;  623.000
286.699; -282.600; -958.000; -912.000
286.838; -137.300; -590.000; -591.000
286.978; -172.500; -533.000; -537.000
287.117; -289.100;-1085.000; -950.000
287.256;  -50.200; -228.000; -211.000
287.395;  -82.200; -197.000; -378.000
287.535;  -60.200; -370.000; -298.000
287.674; -152.400; -509.000; -484.000
287.813;  109.100;  661.000;  533.000
287.952; -253.500;-1010.000; -871.000
288.091; -304.600;-1049.000; -915.000
288.231;   46.600;   13.000;   15.000
288.370; -362.600;-1217.000;-1200.000
288.509; -161.800; -728.000; -645.000
288.648; -159.000; -770.000; -548.000
288.787;  -28.700; -243.000;  -87.000
288.926; -127.500; -454.000; -475.000
289.065;  275.900;  859.000;  672.000
289.204;  -87.800; -377.000; -217.000
289.344; -174.200; -791.000; -690.000
289.483;   66.700;  416.000;  304.000
289.622;  -27.800; -291.000; -149.000
289.761;    6.300; -309.000; -166.000
289.900; -188.700; -785.000; -626.000
290.039;    6.700;  -12.000;  -95.000
290.178;  -44.800; -274.000; -180.000
290.317; -154.000; -618.000; -479.000
290.456;  -95.400; -463.000; -451.000
290.595; -262.400; -961.000; -833.000
290.734; -265.900; -904.000; -891.000
290.873; -115.600; -456.000; -420.000
291.011; -209.600; -833.000; -843.000
291.150; -189.300; -770.000; -682.000
291.289;  -15.400; -343.000; -110.000
291.428; -178.000; -599.000; -480.000
291.567; -102.700; -370.000; -442.000
291.706;   40.300;  109.000;  154.000
291.845; -153.400; -597.000; -505.000
291.984; -326.600;-1234.000;-1061.000
292.122;  179.200;  602.000;  582.000
292.261;  130.000;  620.000;  463.000
292.400;   26.200; -144.000;  211.000
292.539; -232.700; -959.000; -813.000
292.678;  -41.900; -325.000; -300.000
292.816; -298.800;-1136.000; -965.000
292.955; -156.900; -844.000; -684.000
293.094;  -13.000; -173.000; -337.000
293.233;  -97.400; -556.000; -400.000
293.371;  -50.400; -225.000;  -84.000
293.510; -218.800; -866.000; -780.000
293.649; -274.100; -959.000; -924.000
293.787; -158.600;-1083.000;-1012.000
293.926;   28.300; -113.000;  -32.000
294.065;  -60.300; -379.000; -290.000
294.203;  135.100;  298.000;  406.000
294.342;   71.900;   74.000;  156.000
294.481;13631.300;51180.000; -836.000
294.619;  -23.300; -425.000; -582.000
294.758; -293.000;-1230.000;-1137.000
294.896;  138.700; -125.000;    5.000
295.035; -244.000;-1040.000;-1006.000
295.174; -245.000;-1082.000; -954.000
295.312;  -51.700; -323.000; -203.000
295.451;   -2.100; -307.000; -428.000
295.589; -106.200; -389.000; -518.000
295.728;   79.600; -292.000; -165.000
295.866;    0.700;  -36.000;  -51.000
296.005; -112.100; -584.000; -341.000
296.143; -128.200; -558.000; -596.000
296.282; -187.500; -957.000; -881.000
296.420; -134.000; -657.000; -557.000
296.559; -167.900; -892.000; -633.000
296.697;  -21.200; -847.000; -665.000
296.835;   33.100;-1141.000;-1002.000
296.974;  115.000;  -23.000;   39.000
297.112;   17.900; -443.000; -504.000
297.251; -150.800; -815.000; -755.000
297.389;  112.300; -576.000; -438.000
297.527;   71.300; -145.000;  -83.000
297.666;  -95.100; -486.000; -438.000
297.804;  -99.800; -404.000; -264.000
297.942;   -3.900; -136.000; -161.000
298.081;   25.600; -183.000;   63.000
298.219;  128.100;  -17.000;  -19.000
298.357;   56.500; -144.000;  -71.000
298.495;   31.800; -810.000; -812.000
298.634;  148.500;  245.000;  219.000
298.772;   82.400; -220.000; -338.000
298.910;  -46.100; -309.000; -182.000
299.048;   21.000; -130.000; -153.000
299.187;  -21.300; -350.000; -250.000
299.325;   70.900;   52.000;  122.000
299.463;   77.400; -389.000; -299.000
299.601;  172.400; -327.000; -271.000
299.739; -202.200; -908.000; -883.000
299.877; -168.200; -791.000; -703.000
300.016; -117.400;-1095.000; -935.000
300.154;  270.200;  -19.000; -161.000
300.292;   78.400; -428.000; -348.000
300.430;   31.600; -408.000; -291.000
300.568; -209.500; -940.000; -874.000
300.706;  -68.200; -366.000; -469.000
300.844; -197.600;-1108.000; -979.000
300.982;  267.500;  246.000;  282.000
301.120; -219.600; -965.000; -866.000
301.258; -120.800; -812.000; -705.000
301.396;   96.500;  104.000;  -41.000
301.534;  129.300; -218.000; -293.000
301.672;  -29.100; -664.000; -521.000
301.810;   13.200; -613.000; -545.000
301.948;  267.400;   53.000;  149.000
302.086;  961.000; -250.000;  -32.000
302.224; 1488.400; -610.000; -585.000
302.362;   71.900; -558.000; -622.000
302.500; -119.100; -923.000; -893.000
302.638;  179.200;  128.000;  245.000
302.776;    4.600; -352.000; -408.000
302.913;  118.300;  447.000;  236.000
303.051;   -1.900;  -86.000;  -23.000
303.189;  109.700;   90.000;  118.000
303.327;  -48.500; -341.000; -256.000
303.465; -154.700; -832.000; -588.000
303.603; -158.400; -805.000; -604.000
303.740;  196.700;  417.000;  241.000
303.878;   23.300; -800.000; -759.000
304.016; -151.700; -915.000; -790.000
304.154; -268.900;-1123.000;-1152.000
304.291;  -59.100; -505.000; -554.000
304.429;   41.900;  102.000;   74.000
304.567; -224.600; -908.000; -893.000
304.705;  -81.600; -408.000; -515.000
304.842;  139.600; -616.000; -540.000
304.980;  114.800;  215.000;   35.000
305.118;   63.800; -367.000; -365.000
305.255; -145.900; -945.000; -927.000
305.393;  128.000;  178.000;  239.000
305.531; -218.600;-1173.000; -956.000
305.668; -131.700; -663.000; -582.000
305.806;  176.800; -358.000; -439.000
305.943;  146.500; -629.000; -637.000
306.081;   89.600; -378.000; -267.000
306.219; -188.200; -863.000; -748.000
306.356;   38.500;  158.000;   27.000
306.494;  250.500;  981.000;  761.000
306.631;   28.200;  -11.000;  -55.000
306.769;    1.900; -613.000; -485.000
306.906;  -30.900; -284.000; -258.000
307.044;  -98.600; -473.000; -488.000
307.181; -104.500; -410.000; -332.000
307.319;  134.500;  112.000;   87.000
307.456; -326.300;-1191.000;-1153.000
307.594; -205.200; -980.000; -727.000
307.731;   16.800; -371.000; -164.000
307.868;   36.600;  -15.000;   20.000
308.006; -262.500; -961.000; -847.000
308.143;  -83.500; -618.000; -330.000
308.281;  350.600;  -37.000; -254.000
308.418;   11.500; -748.000; -640.000
308.555; -133.100; -400.000; -250.000
308.693; -106.100; -577.000; -573.000
308.830; -164.700; -712.000; -657.000
308.967;   19.200; -215.000;  -95.000
309.105;  -67.400; -507.000; -396.000
309.242;  110.300; -468.000; -367.000
309.379;  703.100; -577.000; -655.000
309.517; -119.800; -936.000; -948.000
309.654; -201.100; -910.000; -734.000
309.791; -132.100; -662.000; -580.000
309.928; -212.500; -977.000; -914.000
310.065;  389.500;  819.000;  697.000
310.203;  -42.500; -825.000; -850.000
310.340;  -43.100; -465.000; -321.000
310.477; -108.200; -412.000; -516.000
310.614; -115.200; -383.000; -473.000
310.751; -113.000; -427.000; -518.000
310.889;  -13.600;    1.000;   11.000
311.026; -290.000;-1161.000; -939.000
311.163;  -60.000; -386.000; -380.000
311.300; -147.500; -512.000; -479.000
311.437; -113.700; -658.000; -619.000
311.574; -331.900;-1226.000; -985.000
311.711;  -89.400; -595.000; -433.000
311.848;  -62.900; -380.000; -388.000
311.985;   61.000;  270.000;   93.000
312.122; -230.200; -932.000; -762.000
312.259; -209.900; -941.000; -994.000
312.396; -132.400; -508.000; -551.000
312.533; -147.900; -812.000; -790.000
312.670; -278.700;-1070.000; -898.000
312.807;  -35.300; -352.000; -367.000
312.944; -145.400; -513.000; -611.000
313.081;  -23.700; -150.000; -415.000
313.218; -187.300;-1111.000; -867.000
313.355;   40.300; -531.000; -449.000
313.492;    7.800; -455.000; -292.000
313.629;  279.000;  815.000;  735.000
313.766; -286.200;-1176.000;-1008.000
313.902;  -10.300; -186.000;   21.000
314.039;  -69.900; -372.000; -289.000
314.176;   98.700;  286.000;  192.000
314.313; -134.000; -569.000; -473.000
314.450; -139.000; -788.000; -684.000
314.587;  -83.200; -468.000; -480.000
314.723;   13.600;  -78.000;  130.000
314.860;   88.500;  318.000;  332.000
314.997;   65.400;  223.000;  142.000
315.134;  -57.500; -385.000; -368.000
315.270;  -37.300; -480.000; -496.000
315.407; -248.300;-1094.000; -967.000
315.544;  -99.400; -657.000; -538.000
315.681; -109.300; -681.000; -565.000
315.817;   35.800; -133.000; -176.000
315.954;   54.800; -613.000; -392.000
316.091; -260.500;-1045.000;-1023.000
316.227;   -9.100;  -71.000; -179.000
316.364;   38.600;   23.000;    6.000
316.500;  -60.400; -113.000; -300.000
316.637;  -26.200; -181.000; -302.000
316.774; -140.000; -625.000; -358.000
316.910; -163.400; -598.000; -629.000
317.047; -135.200; -487.000; -351.000
317.183;  -63.600; -435.000; -566.000
317.320;   14.600; -367.000; -321.000
317.456; -140.600; -733.000; -805.000
317.593; -158.000; -598.000; -641.000
317.729;   41.100;  168.000;  -67.000
317.866; -405.600;-1434.000;-1285.000
318.002; -143.700; -708.000; -948.000
318.139; -171.800; -883.000; -867.000
318.275; -204.500;-1003.000; -738.000
318.412; -144.400; -517.000; -336.000
318.548;  -83.600; -751.000; -720.000
318.685; -193.900; -985.000; -888.000
318.821; -169.200; -762.000; -735.000
318.957;   14.300;   34.000;  -23.000
319.094;  124.900;  297.000;  154.000
319.230; -138.200; -756.000; -742.000
319.367;  209.900; -471.000; -520.000
319.503;   53.600; -538.000; -436.000
319.639; -169.800; -877.000; -793.000
319.775; -130.500; -750.000; -685.000
319.912;  -65.300; -424.000; -519.000
320.048; -193.300;-1184.000;-1184.000
320.184;  190.500;   59.000;   70.000
320.321;  -89.100; -497.000; -467.000
320.457;  158.700;  475.000;  662.000
320.593; -100.100; -375.000; -382.000
320.729; -199.000; -732.000; -734.000
320.866; -128.900; -577.000; -635.000
321.002; -149.400; -759.000; -809.000
321.138;  -42.200; -135.000; -211.000
321.274;  154.000; -148.000; -115.000
321.410;  -25.600; -585.000; -353.000
321.546;  -60.900;-1011.000; -911.000
321.683;  138.500;  400.000;  185.000
321.819;   14.900;  -48.000; -117.000
321.955; -171.400; -743.000; -722.000
322.091;  -76.300; -585.000; -540.000
322.227;   13.900; -382.000; -202.000
322.363;  -31.900; -320.000; -215.000
322.499;  -65.400; -343.000; -331.000
322.635;  322.900;  636.000;  443.000
322.771;   81.700; -139.000;   12.000
322.907;  199.200;  129.000;  327.000
323.043;  -29.400; -115.000; -206.000
323.179;  -59.700; -394.000; -363.000
323.315;   32.300; -401.000; -371.000
323.451;  183.100; -328.000; -236.000
323.587;  115.100;  -60.000;  -77.000
323.723;   -3.000; -682.000; -601.000
323.859;   10.700; -258.000;  -76.000
323.995;  -35.200; -467.000; -409.000
324.131; -247.300; -967.000; -892.000
324.267;  -71.000; -254.000; -276.000
324.402; -243.300; -960.000; -983.000
324.538;  -46.800; -279.000; -104.000
324.674;   67.000;  164.000;   77.000
324.810;  257.400;  226.000;  308.000
324.946;   21.800; -810.000; -658.000
325.082; -118.300; -568.000; -475.000
325.217;   25.100;  -62.000;   16.000
325.353; -199.200; -764.000; -659.000
325.489; -159.000; -540.000; -506.000
325.625; -125.100; -579.000; -525.000
325.760;  102.700;  517.000;  376.000
325.896;  -20.700; -515.000; -702.000
326.032;  -62.000; -403.000; -352.000
326.168;  -98.500; -462.000; -369.000
326.303;  -67.800; -352.000; -461.000
326.439;  -12.000; -336.000; -276.000
326.575;   43.900; -190.000;  -29.000
326.710;   30.800; -156.000;  -30.000
326.846;   -8.300;  146.000;  103.000
326.982; -170.000; -530.000; -548.000
327.117; -101.000; -481.000; -442.000
327.253; -146.000; -745.000; -742.000
327.388; -291.400;-1137.000;-1153.000
327.524;  -91.200; -811.000; -578.000
327.659;  -29.900;  -58.000;  -22.000
327.795;   25.600;   69.000;   45.000
327.931; -148.500; -723.000; -499.000
328.066;  -27.200; -417.000; -276.000
328.202;   -3.800;   12.000; -129.000
328.337;  263.900;  957.000;  713.000
328.473;   10.400;  -12.000;  -74.000
328.608;  -12.100; -256.000; -267.000
328.743; -150.000; -799.000; -664.000
328.879;   75.000;  214.000;  114.000
329.014;  -72.400; -102.000; -122.000
329.150; -159.300; -358.000; -483.000
329.285; -139.200; -465.000; -466.000
329.421;  -44.500; -548.000; -246.000
329.556;    1.100;  -36.000;   85.000
329.691; -162.700; -633.000; -615.000
329.827; -129.400; -626.000; -480.000
329.962;  -66.000;  131.000; -301.000
330.097; -155.500; -673.000; -585.000
330.233;  -59.200; -410.000; -223.000
330.368; -220.700; -839.000; -628.000
330.503;   19.100;    3.000;   98.000
330.638;   51.400;  -93.000; -125.000
330.774; -120.500; -609.000; -530.000
330.909;  -63.200; -434.000; -244.000
331.044; -173.600; -714.000; -708.000
331.179; -331.300;-1217.000;-1109.000
331.315;   60.500;   77.000;   20.000
331.450;   48.500;  157.000;  285.000
331.585; -137.400; -805.000; -706.000
331.720; -150.800; -510.000; -460.000
331.855;   -2.100;  -35.000; -102.000
331.990;  509.200;   62.000;  138.000
332.126;  299.400; -110.000;   71.000
332.261;    1.300; -379.000; -265.000
332.396;   30.800; -135.000; -242.000
332.531; -200.700;-1074.000;-1031.000
332.666;   77.200; -519.000; -363.000
332.801; -193.800; -726.000; -807.000
332.936;  -30.600; -192.000; -122.000
333.071; -289.900; -870.000; -817.000
333.206;   72.500;  307.000;  379.000
333.341;  105.400;  344.000;  418.000
333.476; -147.700; -627.000; -623.000
333.611;  -57.900; -251.000; -173.000
333.746;  -62.900; -381.000; -464.000
333.881; -202.200; -973.000; -935.000
334.016; -225.300; -936.000; -917.000
334.151; -209.700; -746.000; -702.000
334.286;  100.800;  152.000;  186.000
334.421;    2.800; -125.000; -178.000
334.556; -155.000; -611.000; -567.000
334.690; -177.000; -631.000; -577.000
334.825;  147.300;  381.000;   83.000
334.960;  -89.900; -285.000; -413.000
335.095;   57.700;  135.000;  -91.000
335.230; -163.100; -722.000; -738.000
335.365; -258.700;-1084.000; -990.000
335.499; -266.400;-1108.000;-1037.000
335.634;   76.000;    9.000;  534.000
335.769; -200.900; -755.000; -720.000
335.904; -126.200; -603.000; -561.000
336.038; -136.200; -735.000; -657.000
336.173; -251.400;-1206.000;-1194.000
336.308;    0.300; -116.000; -189.000
336.443;   28.700; -544.000; -634.000
336.577; -155.500; -936.000; -787.000
336.712;   92.600;   -4.000;  -12.000
336.847;  -95.800; -724.000; -607.000
336.981;   99.100; -272.000; -208.000
337.116;  498.900;  615.000;  501.000
337.250;  231.500; -434.000; -421.000
337.385;  514.200; -297.000; -208.000
337.520;  195.800; -632.000; -603.000
337.654;  -16.100; -215.000; -126.000
337.789; -226.400; -989.000; -933.000
337.923;   -4.800; -104.000; -205.000
338.058; -137.400; -673.000; -738.000
338.192;  -56.300; -611.000; -488.000
338.327;   40.900;  -18.000; -155.000
338.461; -107.400; -299.000; -469.000
338.596; -144.800; -780.000; -638.000
338.730; -177.300; -767.000; -803.000
338.865;  207.100;  -46.000; -140.000
338.999; -102.500; -846.000; -702.000
339.134;  -33.400; -634.000; -536.000
339.268;   54.600; -741.000; -603.000
339.403;  679.400; -740.000; -775.000
339.537;  225.000; -894.000; -820.000
339.671; -193.600; -829.000; -813.000
339.806;  -95.600; -556.000; -512.000
339.940;   73.300; -261.000; -235.000
340.074; -145.600; -685.000; -510.000
340.209;  -50.800; -351.000; -230.000
340.343; -157.600; -517.000; -573.000
340.477;  379.800;  998.000; 1036.000
340.612;  -86.300;-1033.000; -900.000
340.746;  292.900; -199.000; -243.000
340.880; -138.100; -924.000; -785.000
341.014;   -8.400;  -45.000; -154.000
341.149; -189.200; -756.000; -718.000
341.283; -195.200; -839.000; -754.000
341.417; -183.100;-1124.000; -938.000
341.551;  170.600; -768.000; -708.000
341.685;  -69.900; -633.000; -611.000
341.820;  -92.200; -562.000; -493.000
341.954;  -46.400; -218.000; -349.000
342.088; -269.800;-1102.000;-1019.000
342.222;  112.200;  565.000;  618.000
342.356;  -97.600; -395.000; -335.000
342.490; -208.900; -880.000; -841.000
342.624;  -52.300; -339.000; -242.000
342.758;  -22.900; -364.000; -312.000
342.892; -132.400; -710.000; -585.000
343.026;  -41.300;  -58.000; -116.000
343.160;  -87.900; -426.000; -376.000
343.294; -138.800; -474.000; -337.000
343.428;  -46.700; -488.000; -448.000
343.562;   15.600; -172.000;  -23.000
343.696;  -73.800; -385.000; -314.000
343.830;   -3.200; -362.000; -356.000
343.964;   64.200; -231.000; -168.000
344.098; 1441.200;  199.000;   70.000
344.232; 1178.200; -266.000; -127.000
344.366;  141.400; -567.000; -453.000
344.500;   67.700; -665.000; -744.000
344.634;   87.800; -324.000; -164.000
344.768;  -21.000; -531.000; -341.000
344.902;   77.900;  278.000;  256.000
345.035;  -91.200; -556.000; -496.000
345.169; -219.100; -933.000; -656.000
345.303;  -32.300; -308.000; -482.000
345.437; -117.000; -826.000; -717.000
345.571; -138.800; -675.000; -594.000
345.704;  -98.000; -309.000; -532.000
345.838;    2.000; -331.000; -284.000
345.972;  -66.500; -543.000; -495.000
346.106;  336.900; -179.000; -190.000
346.239;  797.700; -312.000; -243.000
346.373;   20.500; -343.000; -302.000
346.507; -264.200; -950.000; -962.000
346.640;  245.700;  -30.000;   13.000
346.774;  -98.200; -650.000; -797.000
346.908;  -18.500; -138.000;  -11.000
347.041; -182.900; -646.000; -593.000
347.175;   59.500;  259.000;   27.000
347.309; -129.100; -698.000; -628.000
347.442; -184.400; -883.000; -732.000
347.576;  516.500;  670.000;  668.000
347.709;  284.900; -123.000;  -52.000
347.843; -180.900; -933.000; -825.000
347.976;  112.100;  235.000;  294.000
348.110; -339.800;-1268.000;-1186.000
348.243; -151.100; -679.000; -772.000
348.377;   34.300;  -26.000;   60.000
348.510;  137.400;  403.000;  540.000
348.644;  -26.400;  -37.000; -159.000
348.777;   66.300;  180.000;  191.000
348.911;  -39.000; -142.000; -112.000
349.044;  316.400;  471.000;  448.000
349.178;  172.600;-1069.000;-1006.000
349.311;  279.100;  141.000;  255.000
349.444;   25.600; -927.000; -813.000
349.578;  -15.500; -347.000; -200.000
349.711; -190.600; -959.000; -862.000
349.845;  -50.200; -661.000; -591.000
349.978; -315.700;-1224.000;-1137.000
350.111; -146.000; -546.000; -612.000
350.244; -156.900; -596.000; -700.000
350.378;   -3.600; -392.000; -393.000
350.511; -103.100; -393.000; -426.000
350.644; -174.900; -808.000; -806.000
350.778;   22.200;  168.000;  104.000
350.911;   32.500;  134.000;  140.000
351.044; -166.800; -685.000; -615.000
351.177;  -35.100; -321.000; -281.000
351.310;    0.700;    3.000; -131.000
351.444; -140.100; -888.000; -788.000
351.577;  249.200;  140.000;   90.000
351.710;  260.500;  593.000;  417.000
351.843;  -48.900; -165.000;  -77.000
351.976;   19.900;  149.000;  -79.000
352.109; -154.800; -621.000; -612.000
352.242;  -15.200; -464.000; -419.000
352.376;  -70.900; -580.000; -636.000
352.509;  271.400; -437.000; -356.000
352.642;  -25.800; -654.000; -604.000
352.775;   92.100; -141.000;  -98.000
352.908; -218.900; -933.000; -904.000
353.041; -179.900; -814.000; -824.000
353.174;  -87.800; -551.000; -424.000
353.307; -182.000; -753.000; -764.000
353.440;  189.600;  541.000;  453.000
353.573; -198.300; -957.000;-1008.000
353.706; -120.500; -384.000; -558.000
353.839;  -16.900; -264.000; -220.000
353.971; -142.200; -657.000; -512.000
354.104; -176.600; -896.000; -835.000
354.237;  -59.300; -627.000; -662.000
354.370; -148.000; -846.000; -879.000
354.503; -351.800;-1231.000;-1308.000
354.636;  -50.500; -529.000; -348.000
354.769; -260.500; -937.000; -860.000
354.902;  -27.000; -230.000; -139.000
355.034;  -15.800; -164.000; -220.000
355.167;    6.200; -262.000; -162.000
355.300; -157.900;-1061.000; -880.000
355.433; 1925.500;  -71.000;  -14.000
355.565; 2872.100; -402.000; -384.000
355.698;  741.700; -356.000; -296.000
355.831;    6.400; -882.000; -801.000
355.964;  134.400; -285.000; -170.000
356.096; -158.000; -856.000; -843.000
356.229;    8.600; -523.000; -530.000
356.362;  650.600; -373.000; -266.000
356.494; 1241.800; -229.000; -162.000
356.627;  801.000;  269.000;  377.000
356.760; 1265.800;  120.000;   53.000
356.892; 1856.000; -286.000; -601.000
357.025; 1079.800;  403.000;  389.000
357.157;  940.700; -167.000; -179.000
357.290; 1296.500; -856.000; -713.000
357.423;  377.100; -667.000; -556.000
357.555;  207.900; -217.000; -228.000
357.688;  175.000; -483.000; -364.000
357.820;  706.900; -870.000; -877.000
357.953; 5789.600; -563.000; -589.000
358.085; 1194.200; -632.000; -612.000
358.218; 1576.600;-1131.000; -932.000
358.350;  364.400;  -58.000;  312.000
358.483; -243.400;-1300.000;-1187.000
358.615;  -66.300;-1182.000;-1078.000
358.747; -150.600;-1187.000;-1058.000
358.880;  -16.800; -810.000; -744.000
359.012;   -4.200; -376.000; -202.000
359.145;  -79.700; -480.000; -511.000
359.277;   40.900; -962.000; -913.000
359.409; 4818.100;  536.000;  231.000
359.542; 1179.700; -738.000; -688.000
359.674;  152.500;   46.000;   13.000
359.806; -122.100; -565.000; -438.000
359.939;  -60.500; -617.000; -516.000
360.071;    0.800; -583.000; -579.000
360.203;   -9.800; -411.000; -364.000
360.335;  122.200;  164.000;  -16.000
360.468;  325.900; -249.000; -307.000
360.600; 3958.600; -547.000; -454.000
360.732; 5440.300; -546.000; -423.000
360.864;  711.000;-1216.000;-1044.000
360.996;  445.700; -516.000; -554.000
361.129;   54.200; -389.000; -598.000
361.261;   66.300;  110.000; -113.000
361.393;  -44.100; -252.000; -214.000
361.525;   80.400;   94.000;  244.000
361.657;  -72.500; -821.000; -703.000
361.789;   53.100; -139.000; -155.000
361.921;  347.000; -642.000; -593.000
362.053;  461.000;  524.000;  541.000
362.185;  134.400;  288.000;   72.000
362.318; -180.000; -709.000; -705.000
362.450;  223.900;  294.000;  444.000
362.582;   82.500; -913.000; -870.000
362.714;  -77.500; -353.000; -332.000
362.846; -140.900; -606.000; -490.000
362.978; -260.600; -941.000; -811.000
363.109;  106.800; -161.000; -260.000
363.241;  688.800; -739.000; -749.000
363.373;  831.600; -649.000; -564.000
363.505; 1371.900; -186.000;  -91.000
363.637;  288.400; -787.000; -601.000
363.769; -231.600;-1067.000;-1080.000
363.901;  -92.800; -596.000; -654.000
364.033; -228.800;-1103.000;-1062.000
364.165;   15.600; -283.000; -283.000
364.296;  176.700; -316.000; -177.000
364.428;  165.300;-1344.000;-1220.000
364.560; -131.500; -679.000; -661.000
364.692;  -98.500; -738.000; -835.000
364.824;  373.100; -588.000; -456.000
364.955;  819.400; -402.000; -564.000
365.087; 1850.000;-1097.000; -852.000
365.219;   71.300; -686.000; -816.000
365.351; -118.200; -526.000; -572.000
365.482;  181.200;  300.000;  240.000
365.614;  -60.600; -402.000; -314.000
365.746; -161.300; -729.000; -752.000
365.877; -163.200; -706.000; -672.000
366.009;  595.800;  -35.000;  -62.000
366.141; -152.000;-1249.000;-1134.000
366.272; -179.100; -803.000; -719.000
366.404; -191.600;-1005.000; -874.000
366.535;   16.500; -139.000;  -12.000
366.667; -148.900; -644.000; -649.000
366.799;  148.800;  353.000;  203.000
366.930; -225.500; -862.000; -996.000
367.062;  285.700; -639.000; -613.000
367.193;  289.400; -872.000; -842.000
367.325;  -88.000; -580.000; -684.000
367.456;   82.200; -246.000;   31.000
367.588;  355.500; -371.000; -318.000
367.719;   77.900;  -44.000;  -45.000
367.851;  -10.600; -222.000; -241.000
367.982;  -95.800; -875.000; -732.000
368.113;  169.300; -475.000; -358.000
368.245; -213.500; -960.000; -841.000
368.376;  -31.300; -254.000; -302.000
368.508;  -26.200; -188.000; -263.000
368.639; -239.600;-1166.000;-1034.000
368.770;  -83.900; -670.000; -589.000
368.902; -135.900; -836.000; -926.000
369.033; -183.800; -906.000; -855.000
369.164;  -75.600; -720.000; -653.000
369.296; -169.500; -452.000; -601.000
369.427;   19.000; -209.000; -144.000
369.558;  -90.900; -593.000; -377.000
369.689; -114.900; -721.000; -569.000
369.821; -225.700; -951.000; -845.000
369.952;   22.100;   42.000; -108.000
370.083;  -75.300; -229.000; -108.000
370.214; -137.800; -735.000; -650.000
370.345;   54.800;   65.000;   81.000
370.477; -157.600; -810.000; -790.000
370.608;  342.600; -328.000; -264.000
370.739; -136.900;-1233.000;-1292.000
370.870; -122.000;-1102.000; -923.000
371.001;  167.700; -378.000; -467.000
371.132; -147.600; -754.000; -735.000
371.263;   19.400;  -42.000; -148.000
371.394; -243.000; -841.000; -748.000
371.525;   91.000;  345.000;  225.000
371.657; -178.100; -808.000; -670.000
371.788;  174.800;  103.000;  199.000
371.919;  287.100; -384.000; -304.000
372.050; 5705.400;  -91.000; -156.000
372.181; 1619.900; -188.000; -294.000
372.311;  595.100;   42.000; -127.000
372.442;   51.600; -457.000; -451.000
372.573;  -12.300; -444.000; -340.000
372.704; -235.400;-1008.000; -980.000
372.835;  173.500; -228.000; -289.000
372.966;  -97.700; -646.000; -554.000
373.097; -148.200; -575.000; -711.000
373.228;  -87.200; -717.000; -542.000
373.359;  160.400; -824.000; -536.000
373.490; 1429.300; -881.000; -727.000
373.620; 1634.800;-1001.000; -803.000
373.751; 2733.700; -332.000; -396.000
373.882; 1108.600; -663.000; -733.000
374.013;  112.400; -449.000; -262.000
374.143;  -53.700; -581.000; -659.000
374.274; -198.000; -987.000; -908.000
374.405;  267.700; -388.000; -276.000
374.536;  726.200; -526.000; -387.000
374.666; 1648.500; -759.000; -807.000
374.797;  292.000; -817.000; -868.000
374.928; 1278.800; -710.000; -560.000
375.058; 1350.600; -535.000; -500.000
375.189;  158.500;  -59.000;  -93.000
375.320; -198.500; -928.000;-1034.000
375.450;  -73.100; -625.000; -616.000
375.581;  -96.200; -526.000; -436.000
375.712;  -17.600; -574.000; -250.000
375.842;  475.100; -438.000; -415.000
375.973;  270.100; -554.000; -513.000
376.103; -106.200; -665.000; -648.000
376.234;  -92.600; -531.000; -552.000
376.364;  -98.400; -944.000; -867.000
376.495;  575.500;  925.000;  529.000
376.625;  -19.200; -472.000; -485.000
376.756;   59.600; -709.000; -678.000
376.886; -173.300;-1178.000;-1026.000
377.017;  133.900;-1048.000;-1061.000
377.147;  702.900; -786.000; -782.000
377.278;  176.000;  174.000;  228.000
377.408; -235.800; -801.000; -815.000
377.538; -164.600; -707.000; -693.000
377.669; -150.800; -537.000; -613.000
377.799; -174.900; -645.000; -635.000
377.929; -112.600; -610.000; -428.000
378.060; -232.800; -781.000; -847.000
378.190;  -75.600; -726.000; -531.000
378.320;  -55.400; -401.000; -406.000
378.451;   -4.200; -131.000;  -22.000
378.581;   27.800;  -67.000; -110.000
378.711;  342.500; 1035.000;  866.000
378.841;  -24.000; -533.000; -675.000
378.972; -171.700; -871.000; -751.000
379.102;  -24.000; -652.000; -579.000
379.232;   -7.200; -126.000;  -73.000
379.362; -198.000;-1001.000; -885.000
379.492;   32.900; -373.000; -424.000
379.623;  222.700;    0.000;  111.000
379.753; -196.700;-1107.000; -974.000
379.883;  393.600;   59.000;  156.000
380.013;  -35.800;-1081.000;-1017.000
380.143; -208.800;-1097.000;-1056.000
380.273; -185.800; -985.000; -861.000
380.403;   31.800; -344.000; -257.000
380.533;  -41.500; -651.000; -664.000
380.663;  110.200;  173.000;  128.000
380.793; -197.900;-1027.000;-1074.000
380.923;   -9.500; -103.000;  -34.000
381.053; -155.600; -613.000; -623.000
381.183;   19.500; -106.000; -248.000
381.313;   61.700; -656.000; -470.000
381.443;   62.900; -692.000; -473.000
381.573;  313.000; -402.000; -409.000
381.703;  347.700;-1249.000;-1095.000
381.833; -266.600;-1454.000;-1336.000
381.963;  177.000; -134.000;  -87.000
382.093; 2283.300; -925.000; -909.000
382.223;  598.800; -713.000; -602.000
382.353;  -31.400; -801.000; -608.000
382.482;  573.400;-1091.000; -964.000
382.612; 1203.600; -872.000; -644.000
382.742;  650.000; -695.000; -622.000
382.872;  395.600; -565.000; -551.000
383.002;  154.200;  347.000; -132.000
383.131;    9.300; -226.000; -160.000
383.261;  -72.300; -706.000; -768.000
383.391;  554.800; -552.000; -377.000
383.521; 6405.300;  451.000;  263.000
383.650; 1413.400; -947.000; -904.000
383.780;  -10.100; -783.000; -656.000
383.910;  273.500;  880.000;  802.000
384.039;   43.100; -794.000; -656.000
384.169;  227.500;-1205.000;-1017.000
384.299;  -13.800; -650.000; -662.000
384.428; -152.600; -764.000; -680.000
384.558;  -32.700; -308.000; -275.000
384.687;  -57.800; -414.000; -334.000
384.817;   56.100;   75.000;   -2.000
384.947;   80.100; -234.000; -141.000
385.076;  529.900;  982.000;  912.000
385.206;  206.300;  369.000;  480.000
385.335;  -57.800; -549.000; -417.000
385.465; -124.700; -655.000; -663.000
385.594;  245.100;  -53.000;  -44.000
385.724;  604.300; -868.000; -838.000
385.853;  185.900; -296.000; -270.000
385.982; 2105.400; -743.000; -787.000
386.112; 3191.000;-1052.000; -871.000
386.241;  212.300; -307.000; -312.000
386.371;   51.700; -174.000;  -87.000
386.500;   -5.400; -825.000; -789.000
386.629;   30.400; -874.000; -817.000
386.759;  165.900;  -43.000;   68.000
386.888;   22.200; -170.000; -250.000
387.017; -138.300; -648.000; -620.000
387.147; -147.600; -771.000; -798.000
387.276;  -10.000; -410.000; -397.000
387.405;   49.100; -398.000; -342.000
387.535;  -83.900; -452.000; -361.000
387.664;  -76.200; -692.000; -620.000
387.793;  130.100; -198.000; -113.000
387.922;  822.400;  255.000;  200.000
388.052;    3.100; -576.000; -423.000
388.181;   66.800; -342.000; -472.000
388.310;  -55.100; -889.000; -710.000
388.439;  -95.500; -749.000; -742.000
388.568;  359.600;  365.000;  244.000
388.697; 1540.300; -756.000; -653.000
388.826;  256.000; -768.000; -666.000
388.956;   87.600; -285.000; -307.000
389.085;  -36.700; -347.000; -287.000
389.214; -184.600; -842.000; -872.000
389.343; -119.900; -645.000; -413.000
389.472;  880.000;  126.000;  149.000
389.601;  924.100;   91.000;    0.000
389.730;   -3.300; -568.000; -687.000
389.859;  162.800;  226.000;   46.000
389.988;  324.000; -423.000; -408.000
390.117;  231.900; -168.000; -146.000
390.246;   39.300; -331.000; -320.000
390.375;  138.400; -673.000; -626.000
390.504;  -94.900; -703.000; -621.000
390.633; -179.500; -672.000; -726.000
390.761; -127.400; -732.000; -645.000
390.890;   76.000;   -4.000; -130.000
391.019;  -16.400; -421.000; -441.000
391.148; -214.200; -826.000; -855.000
391.277;  -86.100; -576.000; -493.000
391.406; -146.700; -821.000; -805.000
391.534;   96.100;  574.000; -301.000
391.663;  -99.800; -583.000; -645.000
391.792; -155.500; -673.000; -701.000
391.921;  139.100;   -3.000;   15.000
392.050;  258.100; -287.000; -228.000
392.178; -137.600;-1206.000;-1061.000
392.307;  189.200; -758.000; -712.000
392.436;   73.200; -427.000; -641.000
392.564;   73.900;  166.000;   -6.000
392.693; -171.500; -860.000; -682.000
392.822;  325.400; -529.000; -534.000
392.950;   92.900; -880.000; -714.000
393.079;  509.400; -188.000; -328.000
393.208;   34.100; -488.000; -511.000
393.336;   13.500; -170.000; -145.000
393.465;  -53.500; -317.000; -199.000
393.593;   77.300;   62.000;   79.000
393.722; -260.800;-1121.000; -916.000
393.850;  -16.000; -188.000;  -61.000
393.979; -291.900; -926.000; -805.000
394.107;  -89.600; -517.000; -537.000
394.236;  -26.800; -570.000; -507.000
394.364;  535.800;  383.000;  206.000
394.493;  751.800; -911.000; -767.000
394.621;   34.300; -955.000; -916.000
394.750; 1476.900; -873.000; -923.000
394.878; 6023.400; -247.000; -149.000
395.007; 7595.800; -721.000; -807.000
395.135;  578.200; -790.000; -721.000
395.263; -166.800;-1038.000;-1040.000
395.392;   19.200;  -25.000; -107.000
395.520; -244.200; -818.000; -679.000
395.648; -164.700; -865.000; -915.000
395.777;  -38.700; -366.000; -405.000
395.905;  -32.400; -449.000; -564.000
396.033;   53.200;  217.000;  172.000
396.162; 1266.700; -399.000; -453.000
396.290; 1096.600;  -17.000;   -2.000
396.418;  170.900; -555.000; -514.000
396.546; -140.600; -571.000; -466.000
396.674; -149.600; -850.000; -878.000
396.803;   33.900;  -72.000;  -23.000
396.931;  187.100; -179.000; -199.000
397.059;  -33.100;-1026.000; -989.000
397.187; -185.200;-1026.000; -975.000
397.315; -242.700; -884.000; -649.000
397.443; -144.800; -592.000; -443.000
397.572; -122.600; -578.000; -424.000
397.700;  -18.900; -607.000; -614.000
397.828;    6.600;  120.000;  -90.000
397.956;  -39.800; -508.000; -478.000
398.084;  -93.900; -767.000; -626.000
398.212;  123.500;  137.000;  124.000
398.340;   56.300;  -56.000;  159.000
398.468;   69.000; -390.000; -169.000
398.596; -230.200; -993.000; -953.000
398.724; -222.900; -762.000; -767.000
398.852; -281.800;-1024.000; -976.000
398.980;  -82.700; -560.000; -560.000
399.108;  -89.700; -982.000; -735.000
399.236;   92.000;   13.000;    8.000
399.363;   47.400;  222.000;  196.000
399.491;  -83.500; -404.000; -398.000
399.619; -226.100; -829.000; -800.000
399.747; -182.000; -859.000; -771.000
399.875;  175.600;  220.000;  234.000
400.003;  -40.600; -359.000; -284.000
400.130; -141.100; -421.000; -341.000
400.258;    3.200;  -83.000;   38.000
400.386;  -91.100; -352.000; -168.000
400.514;  -78.700; -526.000; -587.000
400.641; -170.700; -928.000; -802.000
400.769; -232.300; -979.000; -888.000
400.897; -217.100; -838.000; -793.000
401.025;   20.200; -166.000; -152.000
401.152;   54.800;  220.000;   38.000
401.280; -109.600; -430.000; -429.000
401.408; -226.000; -712.000; -576.000
401.535; -171.700; -735.000; -758.000
401.663; -320.300;-1134.000;-1054.000
401.790; -116.000; -514.000; -525.000
401.918;  138.300;  436.000;  405.000
402.046;   61.900;  134.000;  122.000
402.173;  -23.200;  -18.000;    7.000
402.301;  -74.500; -519.000; -397.000
402.428;  139.600;  528.000;  383.000
402.556; -239.100;-1188.000; -913.000
402.683;   -1.600;  -20.000;   -1.000
402.811;    4.600;  -37.000; -206.000
402.938;   29.800;   20.000;   27.000
403.066;  291.700; -574.000; -558.000
403.193;  511.600;  299.000;  239.000
403.321;  406.500; -396.000; -574.000
403.448;  487.400;   83.000;   27.000
403.575;  254.100;  -90.000;  -46.000
403.703; -156.900; -732.000; -557.000
403.830; -100.400; -531.000; -496.000
403.957; -220.400;-1117.000;-1023.000
404.085;   56.000;  -61.000; -172.000
404.212;  225.100;  -50.000;   63.000
404.339;  562.200; -566.000; -306.000
404.467;11734.800; -612.000; -524.000
404.594; 6869.300; -287.000; -227.000
404.721; 1462.700; -869.000; -764.000
404.848;  205.700; -113.000; -202.000
404.976; -164.300; -856.000; -783.000
405.103;   56.500;  -14.000;  -82.000
405.230;   25.800;  190.000;  226.000
405.357;   99.800;  117.000;   44.000
405.484;  609.200;  -49.000;    5.000
405.612;  120.700; -548.000; -563.000
405.739;  -75.600; -488.000; -243.000
405.866;  219.400;  669.000;  385.000
405.993;  -37.700; -398.000; -102.000
406.120; -241.200; -801.000; -887.000
406.247;  -67.600; -323.000; -342.000
406.374;  787.000;  540.000;  629.000
406.501;  124.300; -632.000; -702.000
406.628;  -78.900; -621.000; -589.000
406.755; -183.000; -803.000; -620.000
406.882;  -44.000; -228.000; -277.000
407.009; -155.200; -719.000; -628.000
407.136;  115.300; -480.000; -401.000
407.263;  153.500; -939.000; -829.000
407.390; -141.300; -692.000; -614.000
407.517; -305.000;-1139.000;-1187.000
407.644;  -50.800; -332.000; -256.000
407.771; -119.100; -249.000; -287.000
407.898;  110.500;  168.000;  328.000
408.025; -132.400; -421.000; -313.000
408.151;   25.400;   82.000;  153.000
408.278;  -65.400; -267.000; -216.000
408.405; -172.000; -931.000; -899.000
408.532;  -86.100; -549.000; -542.000
408.659; -179.300; -677.000; -648.000
408.785; -345.700;-1298.000;-1170.000
408.912;  -63.700; -412.000; -296.000
409.039; -181.300; -610.000; -686.000
409.166; -170.000; -591.000; -555.000
409.292; -188.600; -571.000; -534.000
409.419; -172.800; -665.000; -649.000
409.546; -106.900; -431.000; -192.000
409.672; -166.800; -713.000; -545.000
409.799;  -12.600;  -36.000;   34.000
409.926;  -14.200; -180.000; -179.000
410.052; -319.400;-1127.000;-1091.000
410.179;  -83.600; -368.000; -392.000
410.305; -113.600; -375.000; -493.000
410.432;  -27.000; -220.000; -333.000
410.558; -109.700; -305.000; -380.000
410.685; -141.400; -688.000; -431.000
410.812; -117.500; -409.000; -588.000
410.938; -265.200; -964.000; -808.000
411.065; -169.000; -671.000; -645.000
411.191;   32.500; -189.000; -174.000
411.317; -206.000; -823.000; -742.000
411.444;  -78.200; -317.000; -246.000
411.570;  -67.400; -339.000; -294.000
411.697; -193.900; -758.000; -752.000
411.823; -295.100; -989.000; -999.000
411.949;   35.600;  -56.000;   17.000
412.076; -164.600; -539.000; -519.000
412.202; -209.000; -758.000; -757.000
412.329; -255.400; -798.000; -752.000
412.455; -172.900; -821.000; -657.000
412.581;  -15.900;  -15.000;  172.000
412.707; -126.600; -540.000; -457.000
412.834;   59.300;  156.000;  219.000
412.960; -134.100; -785.000; -784.000
413.086; -195.100; -743.000; -701.000
413.212;  333.500;  604.000;  578.000
413.339; -102.200; -685.000; -701.000
413.465;    1.700; -364.000; -310.000
413.591; -144.000; -757.000; -474.000
413.717;  -64.200; -358.000; -366.000
413.843; -240.300; -839.000; -861.000
413.969;  -70.500;  -47.000; -292.000
414.096; -161.700; -679.000; -679.000
414.222;   48.100;  -33.000;   85.000
414.348;  -30.000; -652.000; -385.000
414.474;  158.400;   38.000;  -52.000
414.600;    1.800; -126.000; -144.000
414.726;   26.500;  -96.000;  -55.000
414.852;  -85.600; -365.000; -342.000
414.978;  110.400;  104.000;  -18.000
415.104;  137.300;   38.000;   80.000
415.230;   72.800; -329.000; -330.000
415.356;  113.600; -409.000; -514.000
415.482;  425.100;   13.000;  -35.000
415.608;  549.500; -247.000; -323.000
415.734; 1937.900;   67.000;   38.000
415.860;40558.800; -875.000; -767.000
415.986;26475.300; -685.000; -607.000
416.111; 2244.400; -798.000; -652.000
416.237;  521.100; -424.000; -571.000
416.363; 2481.800; -765.000; -733.000
416.489; 8241.700; -324.000; -251.000
416.615;  794.500; -707.000; -742.000
416.741;  -31.400; -677.000; -784.000
416.866; -148.400; -673.000; -736.000
416.992; -189.500; -801.000; -818.000
417.118;   16.600;  -41.000;  -80.000
417.244; -110.800; -798.000; -531.000
417.369; -101.400; -801.000; -612.000
417.495;   -4.600; -325.000; -254.000
417.621; -129.900;-1015.000; -803.000
417.746;   37.500; -579.000; -572.000
417.872;  125.500; -254.000; -144.000
417.998;  136.100; -515.000; -530.000
418.123; 2374.700;-1073.000; -845.000
418.249;10594.500; -512.000; -601.000
418.374; 1359.800; -916.000; -824.000
418.500;  251.400; -383.000; -482.000
418.626;  287.000;   70.000;  -59.000
418.751;  290.700; -549.000; -448.000
418.877;  439.600; -637.000; -643.000
419.002; 4037.000; -688.000; -560.000
419.128;25122.000; -930.000; -721.000
419.253; 5460.200; -967.000; -837.000
419.379;  799.100; -391.000; -338.000
419.504;  792.500;  325.000;  415.000
419.629; 1112.800; -393.000; -212.000
419.755; 7808.300; -317.000; -254.000
419.880;41843.700;  -98.000;   67.000
420.006;23156.300; -280.000; -221.000
420.131;55963.200; -662.000; -775.000
420.256; 7125.100; -315.000; -316.000
420.382; 1013.200; -665.000; -687.000
420.507;  144.600; -649.000; -778.000
420.632;  220.400; -337.000; -339.000
420.758;  339.100; -251.000; -425.000
420.883; -125.700; -876.000; -672.000
421.008; -150.100; -775.000; -619.000
421.133; -126.000; -509.000; -467.000
421.259;  -37.000; -325.000; -259.000
421.384; -215.400; -834.000; -693.000
421.509; -105.600;-1052.000; -862.000
421.634; 1615.500; -936.000; -820.000
421.759;  610.100; -359.000; -327.000
421.885;  -96.800; -717.000; -656.000
422.010; -116.700; -673.000; -542.000
422.135; -236.600; -695.000; -727.000
422.260;  132.800;  340.000;  280.000
422.385;    1.300;   12.000;  -98.000
422.510;   65.100;  151.000;  -26.000
422.635;   72.700;  -87.000;  -43.000
422.760;  189.200; -766.000; -791.000
422.885;  117.200;  -57.000;  -80.000
423.010;  -23.100; -112.000; -169.000
423.135; -103.000; -481.000; -561.000
423.260;   41.700; -150.000; -245.000
423.385;  150.000;  476.000;  222.000
423.510;  118.400;   71.000;  -22.000
423.635;  175.800;  133.000;   45.000
423.760;  174.400;  383.000;  328.000
423.885;  184.800;  336.000;  391.000
424.010;   62.200;  -68.000;  -13.000
424.135;  -26.400;    5.000;  -33.000
424.259; -113.500; -654.000; -457.000
424.384;  -67.400; -279.000; -272.000
424.509;   12.600; -260.000; -186.000
424.634; -156.300; -761.000; -623.000
424.759;  -12.900; -688.000; -544.000
424.883;    2.600; -506.000; -527.000
425.008;  348.100; -502.000; -410.000
425.133; 4106.700; -679.000; -653.000
425.258; 1686.800; -517.000; -381.000
425.382; 1767.400; -867.000; -774.000
425.507; 3939.800; -487.000; -543.000
425.632;  697.200; -802.000; -663.000
425.756;  946.700; -256.000; -146.000
425.881;14397.100; -831.000; -857.000
426.006;34752.800; -604.000; -355.000
426.130; 4864.000; -696.000; -508.000
426.255;  681.100; -611.000; -491.000
426.379;  367.200; -189.000; -577.000
426.504;  791.500;  660.000;  544.000
426.629; 8334.300; -519.000; -466.000
426.753; 5116.700;   64.000;  -46.000
426.878;  634.900; -252.000; -288.000
427.002;  306.800; -651.000; -668.000
427.127; 3459.100;  -35.000; -158.000
427.251;23029.100;  372.000;  401.000
427.375; 5696.700; -191.000; -173.000
427.500; 3662.800; -616.000; -610.000
427.624; 1111.900; -234.000; -400.000
427.749;  161.100; -216.000; -225.000
427.873;  -59.900; -499.000; -412.000
427.997;   11.900; -222.000; -230.000
428.122;  240.800;  795.000;  703.000
428.246;  208.000;  433.000;  434.000
428.371; -238.500; -869.000; -773.000
428.495; -147.800; -624.000; -646.000
428.619;  -23.800; -186.000; -117.000
428.743;   98.500;   65.000;  132.000
428.868;  -10.600; -732.000; -643.000
428.992; 2247.500; -219.000; -326.000
429.116;  802.900; -329.000; -357.000
429.240;  453.400;  419.000;  426.000
429.365;  -23.500; -454.000; -574.000
429.489;  -49.800; -638.000; -647.000
429.613;  116.700; -236.000; -177.000
429.737;  132.800; -563.000; -432.000
429.861;  592.100; -247.000; -133.000
429.985;11557.100; -425.000; -305.000
430.109;11576.000; -770.000; -908.000
430.234; 1286.000;   76.000;  -50.000
430.358;  163.100; -250.000; -160.000
430.482;  -91.900; -672.000; -564.000
430.606;  -60.000; -655.000; -375.000
430.730;   14.100; -437.000; -388.000
430.854;  172.200; -909.000; -835.000
430.978;  -76.600; -795.000; -764.000
431.102; -134.700; -499.000; -422.000
431.226; -163.300; -874.000; -815.000
431.350;  135.300;  345.000;  422.000
431.474; -108.700; -661.000; -373.000
431.597; -246.300;-1060.000; -848.000
431.721; -115.400; -276.000; -267.000
431.845; -189.300; -704.000; -472.000
431.969;  -86.300; -304.000; -349.000
432.093; -131.500; -395.000; -317.000
432.217;   23.600;   32.000;   82.000
432.341; -115.200; -523.000; -518.000
432.464;   51.400;   96.000;   40.000
432.588;  351.600; -401.000; -329.000
432.712;  186.700;  -52.000;  -52.000
432.836;  137.100;  213.000;  263.000
432.959;   38.600; -372.000; -311.000
433.083;  294.100;   11.000;    2.000
433.207;  869.000;  285.000;  930.000
433.330;10661.700; -391.000; -200.000
433.454;11926.900; -654.000; -638.000
433.578; 7009.600;  583.000;  278.000
433.701; 1187.100; -623.000; -675.000
433.825;  198.500; -292.000; -299.000
433.949;  272.600;   28.000;  -72.000
434.072;   92.000; -410.000; -323.000
434.196;   33.700; -309.000; -117.000
434.319; 7885.100;25482.000;25124.000
434.443; 1535.600; -656.000; -603.000
434.566; 5279.500;  281.000;   62.000
434.690;  824.100; -637.000; -383.000
434.813;  120.400; -251.000; -173.000
434.937; -119.200; -569.000; -696.000
435.060;  -83.000; -423.000; -332.000
435.184;  442.600; -492.000; -217.000
435.307;  203.100;  159.000;  102.000
435.431;   14.000;  -40.000;   24.000
435.554;  -70.800; -399.000; -240.000
435.677; -110.500; -350.000; -258.000
435.801;  -19.500;  -25.000;   49.000
435.924;    5.800;    1.000;  -67.000
436.048; -190.000;-1019.000; -732.000
436.171;  -71.500; -240.000;  -66.000
436.294;   19.900; -248.000; -229.000
436.417;  244.500; -963.000; -849.000
436.541; -133.100; -814.000; -840.000
436.664;  -35.900; -242.000; -316.000
436.787;   -5.400;   13.000;  113.000
436.910; -186.100; -792.000; -422.000
437.034;   85.000;  142.000;  143.000
437.157;  148.300;  -11.000;    0.000
437.280;  -62.300; -392.000; -292.000
437.403; -170.100; -982.000; -869.000
437.526;  849.500; -903.000; -865.000
437.649; 3060.400; -505.000; -332.000
437.772;  319.000; -692.000; -540.000
437.896;  249.700;  700.000;  544.000
438.019; -145.800; -758.000; -503.000
438.142; -142.100; -596.000; -506.000
438.265;   -2.900; -639.000; -670.000
438.388;  868.500; -520.000; -410.000
438.511;   82.000; -597.000; -394.000
438.634;  -46.300; -247.000; -125.000
438.757; -239.800; -693.000; -619.000
438.880;    3.700;  -34.000;  -57.000
439.003; -114.000; -417.000; -437.000
439.126;  -82.800; -287.000; -167.000
439.248;  -96.700;  -98.000; -139.000
439.371;    4.500;    9.000;  -53.000
439.494;  103.400;  510.000;  439.000
439.617;  -54.100;   65.000;  -88.000
439.740; -294.800; -968.000; -816.000
439.863; -190.400; -755.000; -595.000
439.986; -170.100; -476.000; -431.000
440.108;  -36.400; -161.000; -112.000
440.231; -266.500; -950.000; -836.000
440.354;  -32.400;  -64.000; -150.000
440.477;   53.400; -566.000; -542.000
440.599;   30.500; -200.000; -225.000
440.722; -201.700; -709.000; -586.000
440.845;  207.800;  751.000;  928.000
440.968; -172.300; -415.000; -311.000
441.090;  -65.400; -199.000;  -33.000
441.213; -275.200;-1021.000; -825.000
441.336;  -25.100; -159.000;   -5.000
441.458; -103.000; -549.000; -396.000
441.581; -186.800; -628.000; -629.000
441.703;  -67.200; -152.000;   13.000
441.826; -166.500; -557.000; -400.000
441.948;  -63.100;   56.000;   51.000
442.071;  133.600;  555.000;  424.000
442.193; -153.100; -531.000; -485.000
442.316;   75.900;  152.000;   97.000
442.438;  144.600; -233.000;  -10.000
442.561;  180.500;  272.000;  262.000
442.683;  764.900; -809.000; -522.000
442.806; 1584.500;   -8.000;   74.000
442.928;  -63.200; -859.000; -604.000
443.051; -112.600; -577.000; -373.000
443.173; -163.700; -341.000; -339.000
443.295; -138.900; -263.000; -371.000
443.418;  -76.000; -321.000;  -29.000
443.540;   17.700; -106.000;   -4.000
443.662; -178.700; -563.000; -465.000
443.785;   34.000;  335.000;  199.000
443.907; -187.300; -362.000; -208.000
444.029; -214.900; -767.000; -494.000
444.152; -202.900; -644.000; -554.000
444.274;  -24.500;  -18.000;  -24.000
444.396; -184.200; -461.000; -221.000
444.518; -188.400; -691.000; -454.000
444.640; -165.600; -268.000; -111.000
444.763;   37.100;  388.000;  249.000
444.885; -195.100; -432.000; -392.000
445.007;   -7.500;   35.000;   86.000
445.129; -176.700; -610.000; -515.000
445.251; -140.300; -372.000; -439.000
445.373; -226.900; -537.000; -386.000
445.495;   88.800;  242.000;  350.000
445.617;  165.000;  853.000;  753.000
445.739;  -62.000; -215.000;  -97.000
445.861;    8.900; -245.000; -112.000
445.984;   -9.200; -267.000; -101.000
446.105;  279.300; -418.000; -251.000
446.227;  889.500; -176.000;  -19.000
446.349;  -23.900; -358.000; -249.000
446.471; -167.900; -615.000; -448.000
446.593;  -75.100; -316.000;   19.000
446.715;   40.500;  -67.000;   41.000
446.837;  182.400;  697.000;  832.000
446.959; -142.500; -457.000; -478.000
447.081; -228.600; -628.000; -518.000
447.203;  196.000;  862.000;  834.000
447.325; -139.400; -270.000;   42.000
447.446;   85.800;  286.000;  530.000
447.568; -294.200; -921.000; -803.000
447.690; -120.800; -236.000; -245.000
447.812; -234.900; -798.000; -519.000
447.933;    1.900;  155.000;  127.000
448.055;  -50.900; -306.000; -261.000
448.177;  299.400;   31.000;   79.000
448.299;   50.600; -935.000; -727.000
448.420;   64.600;  -25.000;  159.000
448.542;  -36.800;   -3.000;   33.000
448.664;   19.900;  109.000;  322.000
448.785;  -16.200;  265.000;   83.000
448.907; -120.300; -614.000; -353.000
449.028;  -86.400; -771.000; -471.000
449.150;  198.900;  492.000;  589.000
449.272; -313.500;-1044.000; -913.000
449.393;  137.700;  612.000;  694.000
449.515; -223.800; -634.000; -581.000
449.636;  -94.300; -264.000; -155.000
449.758;  209.000;  763.000;  622.000
449.879; -149.700; -498.000; -396.000
450.001;  -67.400; -149.000;  -49.000
450.122;   15.300;  -95.000;  162.000
450.244;   44.700;   37.000;  364.000
450.365; -114.500; -495.000; -301.000
450.486;   17.400;   80.000;  268.000
450.608;   46.200;  393.000;  326.000
450.729;  209.600;  578.000;  645.000
450.850;   82.200; -574.000; -466.000
450.972; 1706.200; -552.000; -389.000
451.093;10347.000;  190.000;  588.000
451.214; 3853.500; -516.000; -337.000
451.336;  776.000;  773.000;  579.000
451.457;  213.500;  264.000;  393.000
451.578;  -19.600; -118.000;  -74.000
451.699; -154.800; -546.000; -540.000
451.821;  -62.800; -284.000;  -50.000
451.942;   17.900;  278.000;  285.000
452.063;  143.200;  228.000;  419.000
452.184; 1270.600;  -54.000;  -49.000
452.305; 2226.700;  103.000;  170.000
452.427;  260.200; -549.000; -301.000
452.548;   10.000;   23.000;   79.000
452.669;  -56.000; -257.000;  -89.000
452.790;  -41.000;    3.000;  -18.000
452.911;    6.700;  195.000;  259.000
453.032;  -83.400; -289.000;  -60.000
453.153;  -34.200;  -29.000;   81.000
453.274;  210.400;  737.000;  868.000
453.395;  -47.600;  -51.000;  175.000
453.516;  336.100; 1317.000; 1388.000
453.637;  -69.100; -205.000; -150.000
453.758;  -46.100;   15.000;   69.000
453.879; -180.200; -462.000; -250.000
454.000;  236.500; 1086.000;  948.000
454.121; -201.400; -554.000; -326.000
454.242; -169.800; -599.000; -383.000
454.362;  -40.500;  -99.000;  114.000
454.483;  -22.600; -309.000; -229.000
454.604;  166.800;  512.000;  580.000
454.725; -210.100; -627.000; -555.000
454.846; -242.100; -474.000; -406.000
454.967;   -5.900;  230.000;  539.000
455.087;  -13.700;  179.000;  153.000
455.208;  168.100;  554.000;  856.000
455.329;  -54.800;  -22.000;   82.000
455.450;  145.500;  473.000;  633.000
455.570;  -72.400; -234.000; -211.000
455.691;   -6.500;  201.000;  407.000
455.812; -145.700; -270.000;  -92.000
455.932;  -49.200;  107.000;  -97.000
456.053; -104.300;   36.000;   24.000
456.173; -136.000; -433.000; -355.000
456.294; -187.600; -476.000; -303.000
456.415;  -57.200;  -73.000;   70.000
456.535;  -27.200;  297.000;  273.000
456.656;  -20.700;  132.000;  240.000
456.776;  -79.400;    3.000;  298.000
456.897;   65.300;  308.000;  513.000
457.017;  -69.500; -153.000;   -3.000
457.138; -133.900; -402.000; -249.000
457.258;   -4.700;  263.000;  224.000
457.379;   49.900;  509.000;  521.000
457.499;   61.000;  443.000;  432.000
457.620; -165.600; -407.000; -231.000
457.740; -149.100; -132.000;  -11.000
457.860;  -80.500;   87.000;   44.000
457.981;  -64.400;  132.000;  124.000
458.101;  -65.700;  -89.000;   40.000
458.221;   30.200;  336.000;  402.000
458.342;  -45.800;   -4.000;  -37.000
458.462;  132.100;  617.000;  352.000
458.582;  -39.900; -302.000; -294.000
458.703;  109.900;  303.000;  154.000
458.823;   32.200;   22.000;  163.000
458.943;  136.900;  341.000;  467.000
459.063;   37.800; 1124.000;  192.000
459.183;   14.700;  328.000;  313.000
459.304;   74.400;  315.000;  517.000
459.424;  -31.300; -246.000;  -89.000
459.544;  813.000;  388.000;  764.000
459.664; 1743.700;  499.000;  506.000
459.784;  621.800; 1004.000; 1175.000
459.904;  183.700;  867.000;  744.000
460.024;  218.300;  867.000;  684.000
460.144;  101.000;  449.000;  554.000
460.264;   57.400;  515.000;  327.000
460.385; -125.700; -145.000; -119.000
460.505;  131.400;  905.000;  858.000
460.625; -123.300;  -17.000;  -68.000
460.745;   33.100;  396.000;  541.000
460.864;  -48.600;  153.000;  469.000
460.984;   69.300;  499.000;  573.000
461.104;  339.500; 1656.000; 1775.000
461.224;  103.800;  657.000;  650.000
461.344;   31.600;  431.000;  360.000
461.464;    2.600;  258.000;  513.000
461.584;    0.900;  283.000;  466.000
461.704;  -24.800;   58.000;  108.000
461.824;  -15.000;  238.000;  259.000
461.943;  -43.600;  191.000;  130.000
462.063;  -59.400;    2.000;  324.000
462.183;  134.200;  639.000;  717.000
462.303;  288.000; 1678.000; 1230.000
462.422;  116.400;  781.000;  840.000
462.542;   -4.400;  271.000;  391.000
462.662;  135.700;  353.000;  380.000
462.782;  585.900;  833.000;  572.000
462.901; 1026.800;  545.000;  717.000
463.021;  621.900; 1702.000; 1638.000
463.141;   30.300;  337.000;  770.000
463.260;  -15.000;  614.000;  474.000
463.380;   84.500;  902.000;  884.000
463.499;   21.300;  342.000;  332.000
463.619;  -14.900;  581.000;  559.000
463.738;  282.100; 1644.000;  903.000
463.858;   92.100;  657.000;  811.000
463.978;  -19.000;  542.000;  396.000
464.097;  185.600;  921.000; 1114.000
464.217;  296.000; 1196.000; 1143.000
464.336;  303.700; 1068.000; 1130.000
464.455;  -11.500;  328.000;  659.000
464.575;  131.000;  597.000;  602.000
464.694;  386.500; 1204.000; 1179.000
464.814;  311.900; 1190.000; 1138.000
464.933;  210.900; 1095.000; 1027.000
465.052;  296.900; 1412.000; 1054.000
465.172;  231.500;  922.000;  799.000
465.291;  313.200; 1376.000; 1320.000
465.410;   82.200;  462.000;  735.000
465.530;  251.300; 1355.000; 1310.000
465.649;  204.900; 1209.000; 1273.000
465.768;  347.500; 1673.000; 1508.000
465.888;  188.300;  941.000; 1174.000
466.007;  289.100; 1335.000; 1440.000
466.126;   72.100;  721.000;  641.000
466.245;  165.200; 1176.000; 1187.000
466.364;  118.900;  950.000; 1060.000
466.484;  146.700; 1024.000; 1213.000
466.603;  173.400; 1101.000; 1222.000
466.722;  341.200; 1490.000; 1769.000
466.841;  208.800; 1151.000; 1401.000
466.960;  161.800; 1069.000;  972.000
467.079;  324.400; 1971.000; 1786.000
467.198;  155.100; 1238.000; 1181.000
467.317;  240.300; 1768.000; 1162.000
467.436;  208.900; 1709.000; 1261.000
467.555;  382.600; 1796.000; 1746.000
467.674;  194.900; 1227.000; 1329.000
467.793;  194.500; 1376.000; 1374.000
467.912;  235.800; 1658.000; 1539.000
468.031;  346.600; 2038.000; 1930.000
468.150;  398.500; 1842.000; 1837.000
468.269;  449.800; 2313.000; 2090.000
468.388;  490.800; 2168.000; 2339.000
468.507;  607.900; 2884.000; 2903.000
468.626;  654.700; 2555.000; 2541.000
468.744;  364.900; 2018.000; 2174.000
468.863;  491.800; 2312.000; 2523.000
468.982;  253.300; 1503.000; 1555.000
469.101;  563.500; 2788.000; 2692.000
469.220;  364.900; 2333.000; 2176.000
469.338;  577.600; 2935.000; 3051.000
469.457;  457.800; 2719.000; 2545.000
469.576;  786.300; 3953.000; 3784.000
469.695;  545.100; 2877.000; 3066.000
469.813;  942.800; 4148.000; 4192.000
469.932;  904.000; 4255.000; 4485.000
470.051;  938.200; 4075.000; 4161.000
470.169; 1910.600; 4470.000; 4338.000
470.288; 3102.900; 4700.000; 4809.000
470.406; 1794.900; 5059.000; 5194.000
470.525; 1336.900; 6101.000; 5787.000
470.644; 1365.800; 6847.000; 6794.000
470.762; 1725.500; 8397.000; 7873.000
470.881; 1891.700; 8651.000; 8464.000
470.999; 2199.700; 9685.000; 9151.000
471.118; 2305.900;11174.000;10711.000

