
Integration time [ms]: 100.000
Averaging Nr. [scans]: 40
Smoothing Nr. [pixels]: 0
Data measured with spectrometer [name]: 2101012U2
Wave   ;Sample   ;Dark     ;Reference
[nm]   ;[counts] ;[counts] ;[counts] 

197.733;   71.025;  516.000;  404.000
197.879;  -77.000; -610.000; -634.000
198.025;  -45.600; -475.000; -420.000
198.171;  -75.300; -602.000; -612.000
198.317;  -18.600; -401.000; -316.000
198.463;  -43.875; -655.000; -404.000
198.609;   28.100;  181.000; -137.000
198.755;  -85.775; -644.000; -410.000
198.901;  -57.050; -505.000; -424.000
199.047;  -68.475; -615.000; -488.000
199.193;  -25.775; -230.000; -468.000
199.339;  -41.250; -222.000; -369.000
199.485;   44.525;  330.000;  271.000
199.631;   12.025;  227.000;  310.000
199.777;  -44.700; -466.000; -398.000
199.923;  -65.250; -610.000; -424.000
200.069;    7.100; -141.000;  -58.000
200.215;   50.125;  128.000;  453.000
200.361;   55.700;  243.000;  477.000
200.507;  -76.850; -600.000; -373.000
200.653;  -20.075; -371.000; -194.000
200.798;  -43.200; -215.000; -125.000
200.944;   -5.600; -146.000;  -41.000
201.090;   39.200;   61.000;  222.000
201.236;   14.000; -116.000; -158.000
201.382;  117.050;  874.000;  903.000
201.528;    7.850;  -58.000;  -48.000
201.674;  -60.300; -386.000; -293.000
201.819;  -56.500; -540.000; -439.000
201.965;  -81.700; -699.000; -447.000
202.111;  -23.725; -273.000; -226.000
202.257;  -41.250; -250.000; -238.000
202.402;   -5.850;   13.000;  -36.000
202.548;  -29.775; -169.000; -116.000
202.694;   79.450;  410.000; -183.000
202.840;  -81.925; -603.000; -531.000
202.985;  -78.750; -681.000; -639.000
203.131;  -97.300; -832.000; -666.000
203.277;  -16.225; -199.000; -262.000
203.423;  -46.050; -434.000; -520.000
203.568;  -38.300; -462.000; -237.000
203.714;  -59.625; -535.000; -542.000
203.860;  -74.550; -682.000; -641.000
204.005;   26.475;  112.000;  167.000
204.151;   69.850;  561.000;  556.000
204.296;  -41.750; -354.000; -221.000
204.442;  -66.000; -600.000; -547.000
204.588;  -71.675; -592.000; -579.000
204.733;   20.950;  178.000;  168.000
204.879; -123.225;-1018.000; -822.000
205.025;   15.500;  -99.000;  126.000
205.170;    2.625;  -17.000;   94.000
205.316;   83.475;  438.000;  661.000
205.461;  -82.775; -698.000; -554.000
205.607;   83.100;  609.000;  665.000
205.752;  -84.225; -626.000; -551.000
205.898;  -57.100; -501.000; -391.000
206.043;  -62.950; -578.000; -506.000
206.189;  -38.275; -243.000; -285.000
206.334;   67.125;  554.000;  606.000
206.480;   88.300;  409.000;  239.000
206.625;  -80.075; -529.000; -552.000
206.771;  -34.250; -451.000; -373.000
206.916;  -30.625; -210.000; -537.000
207.062;  -63.600; -545.000; -591.000
207.207;  -67.600; -546.000; -443.000
207.353;   60.525;  185.000;  460.000
207.498;   18.125;  196.000;   85.000
207.643;  -48.275; -501.000; -370.000
207.789; -132.400;-1069.000; -910.000
207.934;  -85.600; -665.000; -713.000
208.080;  -32.400; -154.000;   66.000
208.225;    0.375;  -22.000;  -57.000
208.370;  -74.450; -727.000; -619.000
208.516;  -72.400; -741.000; -487.000
208.661;  -22.150; -127.000;  -69.000
208.806;   -6.325; -165.000; -171.000
208.952; -127.675;-1044.000; -731.000
209.097;   84.475;  378.000;  349.000
209.242;  -52.775; -307.000; -382.000
209.387;   64.650;  392.000;  350.000
209.533;  -58.100; -321.000; -350.000
209.678;   71.100;  472.000;  543.000
209.823;  -52.375; -408.000; -310.000
209.969;  -97.425; -860.000; -757.000
210.114; -105.900; -907.000; -719.000
210.259; -112.775; -939.000; -889.000
210.404;   -7.625; -171.000;  103.000
210.549;   15.900;  108.000;    3.000
210.695;  -15.100;   -3.000;  -95.000
210.840;   32.675;   94.000;   67.000
210.985;  -65.450; -484.000; -303.000
211.130;   64.725;  268.000;  406.000
211.275;   20.400;  207.000;  199.000
211.420;  -62.075; -300.000; -289.000
211.566;  -69.925; -536.000; -489.000
211.711;   24.950;  218.000;  157.000
211.856;  -64.550; -545.000; -519.000
212.001;    8.825;  151.000;   44.000
212.146;   20.800;  153.000;   49.000
212.291;  -14.575; -210.000; -186.000
212.436;  -22.875; -280.000;   -6.000
212.581;  -70.225; -685.000; -653.000
212.726;  -80.750; -487.000; -538.000
212.871;  -43.925; -552.000; -217.000
213.016; -144.500;-1172.000;-1029.000
213.161;   84.925;  406.000;  291.000
213.306;  -85.425; -435.000; -577.000
213.451; -102.950; -778.000; -689.000
213.596;  -54.125; -455.000; -347.000
213.741;  -55.800; -448.000; -538.000
213.886;  -94.650; -498.000; -517.000
214.031;  -19.150; -294.000; -124.000
214.176;  -46.475; -408.000; -341.000
214.321;   -9.275; -296.000; -157.000
214.466;  -30.450; -163.000;  -43.000
214.611;   -0.025;  -61.000;  -10.000
214.756; -119.775; -948.000; -858.000
214.901;  -23.500; -388.000; -226.000
215.046; -119.900; -797.000; -825.000
215.191;   13.700;  128.000;   35.000
215.336;  -20.225; -157.000;  -19.000
215.480;  -61.025; -684.000; -505.000
215.625;  -21.625; -175.000;  -19.000
215.770;  -86.075; -757.000; -662.000
215.915;   -8.150;   -5.000;  -97.000
216.060;  -14.150; -113.000;  -21.000
216.205; -122.100; -731.000; -779.000
216.349;  -66.775; -470.000; -533.000
216.494; -127.325; -939.000; -867.000
216.639; -104.000; -823.000; -888.000
216.784;  -93.125; -577.000; -525.000
216.929;   59.575;  392.000;  281.000
217.073;   -6.325; -244.000;  -31.000
217.218;   21.325;   78.000;  -47.000
217.363;  -91.600; -656.000; -618.000
217.507;  -75.025; -623.000; -588.000
217.652; -122.275; -845.000; -874.000
217.797;  -88.100; -708.000; -659.000
217.942; -108.025; -856.000; -720.000
218.086;   86.800;  608.000;  539.000
218.231;  -19.950; -174.000;  -26.000
218.376;  -19.425; -337.000; -229.000
218.520;   -3.650;  -41.000;   96.000
218.665;  -37.025; -338.000; -204.000
218.810;  -37.600; -275.000; -233.000
218.954;   35.700;  201.000;   35.000
219.099; -118.200; -713.000; -963.000
219.243;  -74.025; -589.000; -554.000
219.388;  -35.400; -264.000; -136.000
219.532;  -15.175; -116.000; -116.000
219.677;  -70.550; -564.000; -521.000
219.822;   11.850;   33.000;   89.000
219.966;   15.775;   17.000;  -99.000
220.111;  -33.500; -328.000;  -40.000
220.255;  -99.100; -797.000; -750.000
220.400;  -14.350; -180.000; -146.000
220.544;  -76.250; -516.000; -450.000
220.689;  -59.450; -422.000; -451.000
220.833;  -21.175; -123.000;  -58.000
220.978;  -30.300; -393.000; -563.000
221.122;   28.225;  319.000;  307.000
221.267; -114.775; -906.000; -837.000
221.411;  -68.175; -478.000; -394.000
221.555;   -5.500; -104.000;  -23.000
221.700;  -39.425; -329.000; -222.000
221.844;   46.675;  255.000;  272.000
221.989;  -46.600; -328.000; -311.000
222.133;  -30.800; -289.000; -307.000
222.277;  -12.450;    5.000;   78.000
222.422;   21.675;  227.000;  113.000
222.566;  -48.225; -381.000; -214.000
222.711;  -47.125; -414.000; -479.000
222.855;  -77.350; -643.000; -586.000
222.999;  -84.100; -642.000; -717.000
223.144;  -19.175; -195.000; -194.000
223.288;   52.100;  423.000;  251.000
223.432;   15.875;  184.000;  230.000
223.576;   20.975;  152.000;  -21.000
223.721;   36.675;  364.000;  273.000
223.865;  -50.550; -472.000; -475.000
224.009;  238.800; 1673.000; 1631.000
224.153;  -81.550; -660.000; -671.000
224.298;  -79.250; -531.000; -489.000
224.442;   -0.700;  -74.000;  -33.000
224.586;  -15.400; -169.000; -106.000
224.730; -103.775; -858.000; -670.000
224.875; -113.025; -739.000; -688.000
225.019;   17.500;  102.000;  188.000
225.163;   51.975;  208.000;  341.000
225.307;   17.175;   97.000;  -91.000
225.451;   45.800;  360.000;  481.000
225.595;   24.875;  264.000;  176.000
225.739;  -16.450; -170.000;  -94.000
225.884;    7.075;   86.000;    5.000
226.028; -104.950; -760.000; -626.000
226.172;  -40.125; -260.000; -273.000
226.316; -109.625; -941.000; -902.000
226.460;  -80.750; -645.000; -493.000
226.604;  -54.250; -406.000; -400.000
226.748;  -98.750; -836.000; -733.000
226.892;  -23.600; -227.000; -181.000
227.036;  -44.675; -537.000; -447.000
227.180;  -76.050; -551.000; -375.000
227.324;  -63.175; -561.000; -580.000
227.468; -113.575; -819.000; -717.000
227.612;   19.650;  242.000;  -28.000
227.756;  -99.025; -845.000; -698.000
227.900;   60.825;  342.000;  441.000
228.044;  -68.050; -509.000; -290.000
228.188;   62.700;  448.000;  568.000
228.332;  -98.525; -546.000; -472.000
228.476;  -19.100; -223.000; -149.000
228.620;  -36.575; -210.000; -150.000
228.764;   71.000;  431.000;  349.000
228.908;  -22.350; -155.000;   30.000
229.052;  -63.625; -615.000; -528.000
229.195;  -19.600; -172.000;   13.000
229.339;  -25.625; -235.000; -305.000
229.483;  -37.225;    5.000; -162.000
229.627;   12.200; -156.000;  139.000
229.771;  -55.700; -218.000; -294.000
229.915;   11.975;  230.000;   79.000
230.059;  -95.775; -648.000; -663.000
230.202;  -45.925; -370.000; -317.000
230.346;  -32.325; -107.000;  107.000
230.490;  -63.175; -489.000; -521.000
230.634; -108.175; -736.000; -553.000
230.777;   73.900;  478.000;  509.000
230.921;  -64.625; -450.000; -359.000
231.065;  -39.500; -246.000; -286.000
231.209;   55.625;  261.000;  265.000
231.352;   16.525;   54.000;   40.000
231.496;   31.575;  568.000;  188.000
231.640;  -79.900; -693.000; -621.000
231.783;   68.050;  546.000;  525.000
231.927;  -40.125; -294.000; -365.000
232.071; -130.725; -962.000; -736.000
232.214; -108.550; -980.000; -764.000
232.358;  -92.775; -683.000; -599.000
232.502;   15.725;  -19.000;    7.000
232.645; -134.275;-1090.000; -927.000
232.789;  -22.400; -257.000; -218.000
232.933;  -45.150; -407.000; -224.000
233.076; -125.350;-1038.000; -897.000
233.220; -111.300; -752.000; -777.000
233.363;  -79.825; -669.000; -477.000
233.507;   66.275;  371.000;  129.000
233.650;  -86.900; -764.000; -834.000
233.794;   33.725;  438.000;  461.000
233.938;  -53.475; -530.000; -362.000
234.081;   -7.325;  -93.000;   31.000
234.225;  -78.525; -631.000; -539.000
234.368; -129.350; -773.000; -723.000
234.512;  -43.350; -385.000; -299.000
234.655;  -94.700; -582.000; -555.000
234.798;  -70.475; -493.000; -466.000
234.942; -118.600; -884.000;-1002.000
235.085;  -71.200; -651.000; -443.000
235.229;  -70.650; -405.000; -410.000
235.372;  -45.350; -247.000; -191.000
235.516;  -63.075; -397.000; -321.000
235.659;   22.150;   92.000;  121.000
235.802;  -15.900;  -38.000;  -22.000
235.946;   23.025;  335.000;  215.000
236.089;   37.300;  126.000;  250.000
236.233;   69.075;  275.000;  298.000
236.376;  -45.925; -235.000; -378.000
236.519;  -44.475; -297.000; -319.000
236.663;  -24.250; -215.000; -117.000
236.806; -126.800;-1029.000; -999.000
236.949;   63.575;  543.000;  431.000
237.092;   64.300;  412.000;  391.000
237.236;  -85.350; -589.000; -502.000
237.379;   64.600;  352.000;  428.000
237.522; -125.050; -879.000; -768.000
237.666;  -27.075; -271.000;   18.000
237.809; -135.550; -851.000; -823.000
237.952;   43.775;  469.000;  271.000
238.095;  -69.975; -447.000; -442.000
238.238;   92.400;  688.000;  700.000
238.382;    2.300;  166.000;  103.000
238.525;  -68.700; -598.000; -511.000
238.668; -138.850;-1060.000; -985.000
238.811;  -82.750; -638.000; -643.000
238.954;  -75.775; -483.000; -334.000
239.097;   93.350;  617.000;  664.000
239.241;   29.825;  394.000;  326.000
239.384;  -27.625; -254.000; -214.000
239.527;  -62.025; -424.000; -224.000
239.670; -154.375; -994.000;-1091.000
239.813; -118.950; -696.000; -658.000
239.956;   86.075;  579.000;  473.000
240.099; -113.375; -778.000; -725.000
240.242;   71.650;  428.000;  432.000
240.385;   52.575;  466.000;  450.000
240.528;  -68.225; -706.000; -473.000
240.671;   14.025;  189.000;  134.000
240.814;  -51.825; -441.000; -158.000
240.957; -112.175; -767.000; -578.000
241.100;  -96.475; -779.000; -755.000
241.243; -152.725;-1234.000; -893.000
241.386;  -49.850; -508.000; -379.000
241.529;  -93.600; -735.000; -547.000
241.672;  -58.675; -566.000; -495.000
241.815; -120.275; -832.000; -808.000
241.958;  -27.650; -125.000; -182.000
242.101;  -81.250; -545.000; -390.000
242.244;  -45.650; -270.000; -325.000
242.387;  -50.250; -304.000; -246.000
242.530;   55.600;  470.000;  134.000
242.673;  -51.300; -381.000; -309.000
242.815; -116.250; -925.000; -899.000
242.958;  -79.350; -482.000; -381.000
243.101;    6.700;  132.000;  187.000
243.244;  -83.125; -564.000; -521.000
243.387;  -50.300; -313.000; -316.000
243.530;  -95.625; -657.000; -674.000
243.672;   -3.000;   43.000;  -92.000
243.815;  -71.350; -355.000; -283.000
243.958;   -2.700;   98.000;  -26.000
244.101;   -4.875;   59.000;  -16.000
244.243;  -12.200;  -47.000;  101.000
244.386; -116.125; -761.000; -630.000
244.529;  -26.775; -132.000; -139.000
244.672; -163.150;-1154.000; -951.000
244.814; -110.250; -621.000; -794.000
244.957;  -53.600; -380.000; -304.000
245.100;  -74.750; -489.000; -489.000
245.242;  -58.600; -387.000; -374.000
245.385;    1.775;  -59.000;  -39.000
245.528; -132.275; -871.000; -705.000
245.670;   92.950;  612.000;  634.000
245.813;  -85.475; -599.000; -547.000
245.956;  -17.850; -324.000; -275.000
246.098;  -75.575; -508.000; -650.000
246.241;   14.750;  194.000;   48.000
246.383;   -9.450; -119.000;  -73.000
246.526;  -86.450; -454.000; -525.000
246.669; -132.900; -889.000; -780.000
246.811;   11.475;  172.000;   -1.000
246.954;  -64.025; -512.000; -426.000
247.096;  -27.475;  -84.000;   -6.000
247.239;  -82.050; -482.000; -445.000
247.381;  -74.750; -647.000; -488.000
247.524;   89.950;  645.000;  679.000
247.666;  -15.600;   58.000;   11.000
247.809; -117.975; -887.000; -691.000
247.951;   -4.925;  -75.000;  138.000
248.094;   27.450;  432.000;  308.000
248.236; -161.750;-1262.000;-1238.000
248.378;   -4.025; -356.000;  -81.000
248.521;  -28.525; -334.000; -337.000
248.663;  -55.350; -236.000; -267.000
248.806;  -25.900; -300.000; -266.000
248.948; -100.625; -886.000; -763.000
249.090;  -51.325; -428.000; -398.000
249.233;  -69.400; -344.000; -381.000
249.375;  -55.775; -474.000; -451.000
249.518;  -25.375;  -83.000; -133.000
249.660;   -9.425; -103.000;    3.000
249.802; -179.925;-1303.000;-1189.000
249.945;  -81.675; -612.000; -540.000
250.087; -121.250; -834.000; -768.000
250.229;  -52.825; -362.000; -480.000
250.371;  -87.650; -494.000; -439.000
250.514;  -51.675; -310.000; -244.000
250.656;  -59.750;   69.000;  102.000
250.798; -109.300; -849.000; -800.000
250.940;  -59.100; -322.000; -322.000
251.083;   -8.625; -335.000; -111.000
251.225;   56.525;  338.000;  310.000
251.367;  -38.425; -274.000; -373.000
251.509;  -42.225; -265.000; -210.000
251.651; -103.275; -731.000; -671.000
251.794;   48.675;  538.000;  632.000
251.936; -107.425; -821.000; -747.000
252.078;  -80.025; -540.000; -461.000
252.220;  -78.525; -645.000; -477.000
252.362;   75.525;  344.000;  462.000
252.504;  -71.000; -677.000; -584.000
252.646; -115.775; -875.000; -722.000
252.788;   -9.825;   14.000; -128.000
252.931;  -32.075; -257.000; -253.000
253.073;  -35.150; -376.000; -317.000
253.215;  -15.650;  141.000;  122.000
253.357;  -14.800;   82.000; -153.000
253.499;  -63.000; -374.000; -234.000
253.641;  -85.225; -749.000; -594.000
253.783; -108.600; -609.000; -527.000
253.925;  -76.800; -586.000; -591.000
254.067; -125.050; -744.000; -667.000
254.209;  -28.675; -391.000; -259.000
254.351; -137.950; -865.000; -883.000
254.493;  -57.775; -441.000; -417.000
254.635; -145.325; -936.000; -818.000
254.777;  -93.050; -752.000; -687.000
254.918;  -59.875; -512.000; -430.000
255.060;  -56.550; -551.000; -395.000
255.202;  -67.325; -473.000; -261.000
255.344;  -83.950; -658.000; -455.000
255.486;  -76.925; -471.000; -406.000
255.628; -106.625; -780.000; -781.000
255.770;  -93.975; -676.000; -536.000
255.912;  -56.200; -559.000; -468.000
256.053;  -92.150; -730.000; -508.000
256.195;  167.625; 1008.000;  903.000
256.337; -108.850; -861.000; -595.000
256.479;   77.375;  532.000;  416.000
256.621;  -51.025; -394.000; -212.000
256.762; -105.125; -789.000; -742.000
256.904;   51.675;  485.000;  487.000
257.046;  -59.950; -381.000; -271.000
257.188;  -38.300; -351.000; -264.000
257.329;  -75.575; -525.000; -464.000
257.471; -124.825; -939.000; -807.000
257.613;  -74.875; -584.000; -498.000
257.755; -155.025;-1073.000; -982.000
257.896;   37.200;  286.000;  392.000
258.038;  -70.125; -403.000; -352.000
258.180;  -36.775; -354.000; -279.000
258.321;  -83.600; -581.000; -457.000
258.463;    0.475;  -71.000;  133.000
258.605;  -96.350; -562.000; -570.000
258.746; -111.100; -886.000; -772.000
258.888; -164.250;-1026.000;-1020.000
259.029;   12.325;  121.000;   -8.000
259.171;  -86.100; -614.000; -550.000
259.313;   -6.600;  -49.000;  -47.000
259.454;  -76.175; -536.000; -414.000
259.596;  -59.375; -483.000; -390.000
259.737;  -85.125; -590.000; -474.000
259.879;   52.875;  217.000;  311.000
260.020;   91.725;  901.000;  636.000
260.162;  -28.075; -146.000; -253.000
260.303; -129.750; -768.000; -687.000
260.445;  -93.150; -609.000; -613.000
260.586;   26.650;  392.000;  157.000
260.728;  -45.925; -360.000; -248.000
260.869; -113.225; -350.000; -343.000
261.011;   84.375;  706.000;  537.000
261.152;  -54.475; -479.000; -319.000
261.293;  -89.500; -576.000; -595.000
261.435;  -43.875; -219.000; -184.000
261.576;  -47.350; -455.000; -325.000
261.718;   44.350;  420.000;  470.000
261.859; -129.350; -940.000; -949.000
262.000; -143.000; -951.000;-1016.000
262.142;  -22.075;  -52.000;  -60.000
262.283; -130.875; -808.000; -691.000
262.424;  -87.350; -666.000; -625.000
262.566; -167.525;-1161.000; -983.000
262.707; -108.875; -840.000; -830.000
262.848; -122.450; -769.000; -726.000
262.990;  -50.150; -362.000; -345.000
263.131;   94.075;  650.000;  681.000
263.272;  -18.250;  -61.000;  -41.000
263.413;  -84.050; -589.000; -561.000
263.555;  -70.375; -669.000; -143.000
263.696;  -87.800; -550.000; -641.000
263.837;  -46.175; -449.000; -551.000
263.978;   -4.650;   -5.000;  -77.000
264.119;  -47.575; -283.000; -264.000
264.261; -115.725; -847.000; -630.000
264.402;   -3.125;   33.000;   40.000
264.543;  -91.875; -509.000; -524.000
264.684;  -14.875;   61.000;  -50.000
264.825;  -79.375; -816.000; -538.000
264.966;    0.175;  -84.000;  -67.000
265.107; -124.375; -646.000; -670.000
265.248; -127.075; -825.000; -812.000
265.390;  -16.100;  152.000;   -9.000
265.531;  -34.950; -238.000; -107.000
265.672;  -99.175; -557.000; -630.000
265.813;   71.450;  563.000;  439.000
265.954; -149.075; -959.000; -940.000
266.095;  -19.475; -372.000; -322.000
266.236;  -97.175; -686.000; -548.000
266.377;  -42.900; -243.000; -297.000
266.518;  -72.875; -619.000; -547.000
266.659;   32.450;  170.000;  268.000
266.800;    1.875;   83.000;   85.000
266.941;  -78.325; -487.000; -478.000
267.082;   13.150;  354.000;   99.000
267.223;  -43.425; -344.000; -273.000
267.364; -124.725; -892.000; -686.000
267.504;  -22.625;    3.000;  135.000
267.645;   -7.525;  160.000;   67.000
267.786;  -27.050; -147.000;  -86.000
267.927;  -80.375; -473.000; -379.000
268.068;  -17.800; -186.000;  -61.000
268.209;  -48.725; -175.000; -413.000
268.350;  -61.450; -388.000; -532.000
268.490;  -89.150; -648.000; -521.000
268.631;   37.625;  127.000;  225.000
268.772; -111.425; -874.000; -647.000
268.913;  -50.050; -328.000; -476.000
269.054;  -24.100; -117.000;   12.000
269.194;  -62.000; -418.000; -402.000
269.335; -161.200;-1137.000;-1074.000
269.476;  -14.025;   33.000;  -35.000
269.617;  -51.225; -347.000; -392.000
269.757; -100.375; -713.000; -646.000
269.898; -112.150; -856.000; -613.000
270.039;  -58.550; -415.000; -405.000
270.180; -135.525; -952.000; -816.000
270.320;  -17.500; -190.000; -250.000
270.461;  -52.625; -277.000; -249.000
270.602;  -22.775; -186.000; -156.000
270.742; -126.425; -868.000; -943.000
270.883;  -74.225; -442.000; -390.000
271.023;  -62.175; -358.000; -357.000
271.164;  -73.025; -607.000; -528.000
271.305; -106.700; -666.000; -654.000
271.445;  -99.125; -722.000; -683.000
271.586;  -69.675; -462.000; -283.000
271.726;  -46.200; -397.000; -322.000
271.867;  -73.100; -594.000; -534.000
272.008;  141.550; -473.000; -285.000
272.148;  113.200;  462.000;  468.000
272.289;  -18.675; -113.000; -181.000
272.429;   10.425;   19.000;  185.000
272.570; -113.825; -633.000; -737.000
272.710;  -98.300; -825.000; -775.000
272.851;  -22.025;  113.000; -130.000
272.991; -169.700;-1173.000;-1077.000
273.131;  -68.775; -419.000; -459.000
273.272; -105.675; -683.000; -723.000
273.412;   -6.900; -143.000;  -31.000
273.553;  -66.700; -488.000; -507.000
273.693;  127.300;  913.000;  858.000
273.834; -105.850; -894.000; -692.000
273.974;  -77.900; -664.000; -615.000
274.114; -115.975; -772.000; -560.000
274.255;   66.500;  414.000;  373.000
274.395;   -3.850; -180.000; -125.000
274.535;   34.850;  199.000;  350.000
274.676;   23.875;  225.000;   94.000
274.816;    3.300;  110.000;   34.000
274.956; -104.100; -624.000; -690.000
275.097;  -79.975;-1014.000; -922.000
275.237; -119.625; -913.000; -803.000
275.377;  -95.325; -778.000; -689.000
275.517; -162.650; -878.000; -937.000
275.658;  -67.425; -590.000; -555.000
275.798;  -86.050; -606.000; -413.000
275.938;    7.200;  215.000;  323.000
276.078;  -99.250; -626.000; -395.000
276.218;    7.475;   99.000;  104.000
276.359; -144.775;-1026.000;-1024.000
276.499;  -84.800; -605.000; -446.000
276.639;  -41.250; -305.000; -151.000
276.779;  -60.625; -475.000; -357.000
276.919; -112.975; -783.000; -624.000
277.059;  -29.050; -261.000; -212.000
277.199;  -53.300; -357.000; -259.000
277.340;   36.600;  287.000;  175.000
277.480; -117.725; -840.000; -693.000
277.620;   22.625;  192.000;   16.000
277.760; -230.900;-1533.000;-1294.000
277.900;    2.600;  113.000;   33.000
278.040;   -0.425;  137.000;  159.000
278.180;   22.500;  270.000;  170.000
278.320;  -16.600;   21.000;   56.000
278.460;  -66.475; -443.000; -469.000
278.600;  -86.000; -708.000; -598.000
278.740;   46.200;  448.000;  224.000
278.880;  -81.400; -768.000; -791.000
279.020;  -19.300; -194.000; -144.000
279.160;  -92.900; -672.000; -595.000
279.300; -107.025; -926.000; -873.000
279.440;  -97.850; -709.000; -622.000
279.579;  -31.950;-1014.000; -929.000
279.719;  -56.450; -410.000; -394.000
279.859;   72.350;   -4.000;   41.000
279.999;   21.500; -208.000;  101.000
280.139;  -32.800; -435.000; -387.000
280.279;  -77.100; -708.000; -745.000
280.419;   -7.725; -229.000; -147.000
280.559;  -33.200; -259.000; -180.000
280.698;  -93.825; -790.000; -639.000
280.838; -113.875; -778.000; -800.000
280.978;  -96.675; -846.000; -790.000
281.118; -112.775; -811.000; -704.000
281.257;   -2.100;   24.000;    6.000
281.397; -130.025;-1094.000; -960.000
281.537;  -88.450; -599.000; -712.000
281.677;  -27.675; -150.000; -101.000
281.816;  -90.450; -700.000; -630.000
281.956;  -45.400; -193.000; -257.000
282.096;  -73.150; -539.000; -396.000
282.235; -107.825; -672.000; -638.000
282.375;  -25.925; -243.000;  -98.000
282.515; -106.425; -715.000; -707.000
282.654;   18.450;   29.000;  106.000
282.794;   32.200;  388.000;  244.000
282.934;  -60.000; -530.000; -491.000
283.073; -136.075;-1030.000; -857.000
283.213;  -49.150; -460.000; -467.000
283.353;  -42.075; -408.000; -349.000
283.492;  -39.975; -264.000; -296.000
283.632;  -56.925; -254.000; -168.000
283.771; -112.325; -859.000; -730.000
283.911;  -60.075; -369.000; -260.000
284.050; -105.425; -794.000; -748.000
284.190; -167.825;-1229.000;-1096.000
284.329; -155.575;-1055.000; -964.000
284.469;  -76.125; -516.000; -591.000
284.608;  -46.975; -559.000; -598.000
284.748;  -94.800; -614.000; -570.000
284.887;  -18.625;  -87.000;  -20.000
285.027; -134.075; -844.000; -892.000
285.166;  -40.175; -192.000; -249.000
285.306;   -2.650; -116.000;  -33.000
285.445;  -31.275; -229.000; -343.000
285.584;  -92.800; -630.000; -494.000
285.724;  -44.475; -282.000; -322.000
285.863; -117.650; -857.000; -507.000
286.002;  -51.725; -366.000; -276.000
286.142; -118.750; -715.000; -622.000
286.281;  -73.150; -525.000; -493.000
286.420;  -78.500; -554.000; -417.000
286.560;   84.500;  653.000;  623.000
286.699; -141.700; -958.000; -912.000
286.838;  -83.100; -590.000; -591.000
286.978;  -90.225; -533.000; -537.000
287.117; -134.400;-1085.000; -950.000
287.256;  -43.825; -228.000; -211.000
287.395;  -49.250; -197.000; -378.000
287.535;  -55.475; -370.000; -298.000
287.674;  -81.450; -509.000; -484.000
287.813;   56.950;  661.000;  533.000
287.952; -140.000;-1010.000; -871.000
288.091; -152.225;-1049.000; -915.000
288.231;   13.025;   13.000;   15.000
288.370; -188.350;-1217.000;-1200.000
288.509;  -85.900; -728.000; -645.000
288.648;  -98.950; -770.000; -548.000
288.787;  -39.975; -243.000;  -87.000
288.926;  -71.950; -454.000; -475.000
289.065;  111.475;  859.000;  672.000
289.204;  -62.300; -377.000; -217.000
289.344; -100.100; -791.000; -690.000
289.483;   24.150;  416.000;  304.000
289.622;  -25.350; -291.000; -149.000
289.761;  -14.075; -309.000; -166.000
289.900; -113.400; -785.000; -626.000
290.039;  -13.600;  -12.000;  -95.000
290.178;  -47.100; -274.000; -180.000
290.317;  -89.500; -618.000; -479.000
290.456;  -69.525; -463.000; -451.000
290.595; -143.700; -961.000; -833.000
290.734; -143.275; -904.000; -891.000
290.873;  -67.875; -456.000; -420.000
291.011; -115.625; -833.000; -843.000
291.150; -118.500; -770.000; -682.000
291.289;  -35.325; -343.000; -110.000
291.428;  -94.875; -599.000; -480.000
291.567;  -54.725; -370.000; -442.000
291.706;    0.100;  109.000;  154.000
291.845;  -92.225; -597.000; -505.000
291.984; -178.375;-1234.000;-1061.000
292.122;   66.175;  602.000;  582.000
292.261;   33.700;  620.000;  463.000
292.400;    1.400; -144.000;  211.000
292.539; -132.450; -959.000; -813.000
292.678;  -45.650; -325.000; -300.000
292.816; -163.200;-1136.000; -965.000
292.955; -105.050; -844.000; -684.000
293.094;  -32.625; -173.000; -337.000
293.233;  -59.875; -556.000; -400.000
293.371;  -52.225; -225.000;  -84.000
293.510; -109.425; -866.000; -780.000
293.649; -142.325; -959.000; -924.000
293.787;  -82.975;-1083.000;-1012.000
293.926;   -8.975; -113.000;  -32.000
294.065;  -64.425; -379.000; -290.000
294.203;   30.500;  298.000;  406.000
294.342;   22.450;   74.000;  156.000
294.481; 6280.825;51180.000; -836.000
294.619;  -23.775; -425.000; -582.000
294.758; -160.100;-1230.000;-1137.000
294.896;   52.050; -125.000;    5.000
295.035; -138.425;-1040.000;-1006.000
295.174; -124.625;-1082.000; -954.000
295.312;  -49.150; -323.000; -203.000
295.451;  -21.975; -307.000; -428.000
295.589;  -48.500; -389.000; -518.000
295.728;   -0.500; -292.000; -165.000
295.866;   -9.975;  -36.000;  -51.000
296.005;  -68.900; -584.000; -341.000
296.143;  -78.750; -558.000; -596.000
296.282; -106.475; -957.000; -881.000
296.420;  -96.800; -657.000; -557.000
296.559; -100.100; -892.000; -633.000
296.697;  -27.025; -847.000; -665.000
296.835;    6.150;-1141.000;-1002.000
296.974;   28.125;  -23.000;   39.000
297.112;  -14.050; -443.000; -504.000
297.251;  -96.800; -815.000; -755.000
297.389;   40.775; -576.000; -438.000
297.527;   12.875; -145.000;  -83.000
297.666;  -65.675; -486.000; -438.000
297.804;  -56.725; -404.000; -264.000
297.942;  -15.975; -136.000; -161.000
298.081;  -14.275; -183.000;   63.000
298.219;   42.975;  -17.000;  -19.000
298.357;   17.725; -144.000;  -71.000
298.495;    4.550; -810.000; -812.000
298.634;   62.300;  245.000;  219.000
298.772;   26.450; -220.000; -338.000
298.910;  -50.875; -309.000; -182.000
299.048;  -22.700; -130.000; -153.000
299.187;  -44.125; -350.000; -250.000
299.325;   12.800;   52.000;  122.000
299.463;   14.075; -389.000; -299.000
299.601;   78.250; -327.000; -271.000
299.739; -114.125; -908.000; -883.000
299.877;  -85.400; -791.000; -703.000
300.016;  -71.100;-1095.000; -935.000
300.154;  130.625;  -19.000; -161.000
300.292;   16.475; -428.000; -348.000
300.430;   17.050; -408.000; -291.000
300.568; -127.250; -940.000; -874.000
300.706;  -51.275; -366.000; -469.000
300.844;  -99.275;-1108.000; -979.000
300.982;   97.950;  246.000;  282.000
301.120; -118.825; -965.000; -866.000
301.258;  -82.200; -812.000; -705.000
301.396;   -0.175;  104.000;  -41.000
301.534;   43.575; -218.000; -293.000
301.672;  -38.000; -664.000; -521.000
301.810;  -10.425; -613.000; -545.000
301.948;   66.850;   53.000;  149.000
302.086;  466.250; -250.000;  -32.000
302.224;  747.450; -610.000; -585.000
302.362;    7.125; -558.000; -622.000
302.500;  -59.150; -923.000; -893.000
302.638;   82.675;  128.000;  245.000
302.776;  -18.500; -352.000; -408.000
302.913;   46.175;  447.000;  236.000
303.051;  -14.775;  -86.000;  -23.000
303.189;   42.000;   90.000;  118.000
303.327;  -46.200; -341.000; -256.000
303.465;  -98.800; -832.000; -588.000
303.603;  -84.800; -805.000; -604.000
303.740;   87.650;  417.000;  241.000
303.878;  -13.450; -800.000; -759.000
304.016;  -98.200; -915.000; -790.000
304.154; -153.025;-1123.000;-1152.000
304.291;  -54.825; -505.000; -554.000
304.429;   -4.850;  102.000;   74.000
304.567; -137.250; -908.000; -893.000
304.705;  -64.375; -408.000; -515.000
304.842;   52.550; -616.000; -540.000
304.980;   31.800;  215.000;   35.000
305.118;   15.000; -367.000; -365.000
305.255;  -84.150; -945.000; -927.000
305.393;   52.575;  178.000;  239.000
305.531; -131.075;-1173.000; -956.000
305.668;  -66.375; -663.000; -582.000
305.806;   63.550; -358.000; -439.000
305.943;   62.825; -629.000; -637.000
306.081;   31.375; -378.000; -267.000
306.219; -115.100; -863.000; -748.000
306.356;    3.050;  158.000;   27.000
306.494;  111.675;  981.000;  761.000
306.631;  -10.025;  -11.000;  -55.000
306.769;  -18.050; -613.000; -485.000
306.906;  -34.725; -284.000; -258.000
307.044;  -76.750; -473.000; -488.000
307.181;  -70.550; -410.000; -332.000
307.319;    9.625;  112.000;   87.000
307.456; -172.375;-1191.000;-1153.000
307.594; -126.075; -980.000; -727.000
307.731;  -23.175; -371.000; -164.000
307.868;   -5.200;  -15.000;   20.000
308.006; -139.425; -961.000; -847.000
308.143;  -82.075; -618.000; -330.000
308.281;   79.475;  -37.000; -254.000
308.418;  -53.875; -748.000; -640.000
308.555;  -78.550; -400.000; -250.000
308.693;  -70.225; -577.000; -573.000
308.830; -111.350; -712.000; -657.000
308.967;  -18.050; -215.000;  -95.000
309.105;  -62.525; -507.000; -396.000
309.242;   -5.550; -468.000; -367.000
309.379;  134.750; -577.000; -655.000
309.517; -102.450; -936.000; -948.000
309.654; -119.700; -910.000; -734.000
309.791;  -80.550; -662.000; -580.000
309.928; -135.875; -977.000; -914.000
310.065;  174.375;  819.000;  697.000
310.203;  -42.275; -825.000; -850.000
310.340;  -17.950; -465.000; -321.000
310.477;  -91.500; -412.000; -516.000
310.614;  -68.675; -383.000; -473.000
310.751;  -94.825; -427.000; -518.000
310.889;  -19.025;    1.000;   11.000
311.026; -168.025;-1161.000; -939.000
311.163;  -55.050; -386.000; -380.000
311.300;  -87.250; -512.000; -479.000
311.437;  -91.950; -658.000; -619.000
311.574; -178.250;-1226.000; -985.000
311.711;  -83.700; -595.000; -433.000
311.848;  -51.500; -380.000; -388.000
311.985;    7.550;  270.000;   93.000
312.122; -128.025; -932.000; -762.000
312.259; -123.850; -941.000; -994.000
312.396;  -90.225; -508.000; -551.000
312.533; -103.325; -812.000; -790.000
312.670; -149.625;-1070.000; -898.000
312.807;  -58.000; -352.000; -367.000
312.944;  -82.200; -513.000; -611.000
313.081;  -32.225; -150.000; -415.000
313.218; -117.750;-1111.000; -867.000
313.355;  -19.075; -531.000; -449.000
313.492;  -20.150; -455.000; -292.000
313.629;  134.650;  815.000;  735.000
313.766; -176.600;-1176.000;-1008.000
313.902;  -18.325; -186.000;   21.000
314.039;  -49.075; -372.000; -289.000
314.176;   15.675;  286.000;  192.000
314.313;  -80.800; -569.000; -473.000
314.450;  -74.575; -788.000; -684.000
314.587;  -62.675; -468.000; -480.000
314.723;   -4.500;  -78.000;  130.000
314.860;   34.775;  318.000;  332.000
314.997;   24.750;  223.000;  142.000
315.134;  -49.300; -385.000; -368.000
315.270;  -35.600; -480.000; -496.000
315.407; -153.450;-1094.000; -967.000
315.544;  -67.900; -657.000; -538.000
315.681;  -72.050; -681.000; -565.000
315.817;    1.975; -133.000; -176.000
315.954;  -10.100; -613.000; -392.000
316.091; -149.900;-1045.000;-1023.000
316.227;  -43.575;  -71.000; -179.000
316.364;   -8.025;   23.000;    6.000
316.500;  -52.750; -113.000; -300.000
316.637;  -41.550; -181.000; -302.000
316.774;  -94.050; -625.000; -358.000
316.910;  -88.675; -598.000; -629.000
317.047;  -77.700; -487.000; -351.000
317.183;  -75.075; -435.000; -566.000
317.320;  -15.500; -367.000; -321.000
317.456;  -80.000; -733.000; -805.000
317.593; -109.175; -598.000; -641.000
317.729;    1.550;  168.000;  -67.000
317.866; -207.725;-1434.000;-1285.000
318.002;  -95.875; -708.000; -948.000
318.139; -111.925; -883.000; -867.000
318.275; -122.575;-1003.000; -738.000
318.412;  -74.775; -517.000; -336.000
318.548;  -60.350; -751.000; -720.000
318.685; -123.775; -985.000; -888.000
318.821; -102.725; -762.000; -735.000
318.957;  -15.725;   34.000;  -23.000
319.094;   27.000;  297.000;  154.000
319.230;  -83.675; -756.000; -742.000
319.367;   65.675; -471.000; -520.000
319.503;   18.175; -538.000; -436.000
319.639; -111.225; -877.000; -793.000
319.775;  -79.900; -750.000; -685.000
319.912;  -53.325; -424.000; -519.000
320.048; -104.675;-1184.000;-1184.000
320.184;   80.275;   59.000;   70.000
320.321;  -66.650; -497.000; -467.000
320.457;   66.100;  475.000;  662.000
320.593;  -61.975; -375.000; -382.000
320.729; -108.000; -732.000; -734.000
320.866;  -91.050; -577.000; -635.000
321.002;  -84.750; -759.000; -809.000
321.138;  -25.900; -135.000; -211.000
321.274;   54.450; -148.000; -115.000
321.410;  -60.225; -585.000; -353.000
321.546;  -73.775;-1011.000; -911.000
321.683;   42.325;  400.000;  185.000
321.819;  -10.300;  -48.000; -117.000
321.955; -117.050; -743.000; -722.000
322.091;  -64.375; -585.000; -540.000
322.227;  -26.975; -382.000; -202.000
322.363;  -42.550; -320.000; -215.000
322.499;  -50.950; -343.000; -331.000
322.635;  129.150;  636.000;  443.000
322.771;    2.700; -139.000;   12.000
322.907;   70.400;  129.000;  327.000
323.043;  -29.975; -115.000; -206.000
323.179;  -39.975; -394.000; -363.000
323.315;  -20.500; -401.000; -371.000
323.451;   52.875; -328.000; -236.000
323.587;   51.425;  -60.000;  -77.000
323.723;  -22.650; -682.000; -601.000
323.859;  -38.775; -258.000;  -76.000
323.995;  -34.125; -467.000; -409.000
324.131; -114.875; -967.000; -892.000
324.267;  -47.100; -254.000; -276.000
324.402; -151.700; -960.000; -983.000
324.538;  -15.875; -279.000; -104.000
324.674;    9.700;  164.000;   77.000
324.810;   73.525;  226.000;  308.000
324.946;  -22.750; -810.000; -658.000
325.082;  -76.400; -568.000; -475.000
325.217;  -11.500;  -62.000;   16.000
325.353; -117.100; -764.000; -659.000
325.489;  -95.600; -540.000; -506.000
325.625;  -72.975; -579.000; -525.000
325.760;   68.425;  517.000;  376.000
325.896;  -21.700; -515.000; -702.000
326.032;  -41.900; -403.000; -352.000
326.168;  -62.775; -462.000; -369.000
326.303;  -67.525; -352.000; -461.000
326.439;  -24.850; -336.000; -276.000
326.575;   -7.325; -190.000;  -29.000
326.710;    2.550; -156.000;  -30.000
326.846;  -21.025;  146.000;  103.000
326.982;  -95.350; -530.000; -548.000
327.117;  -86.200; -481.000; -442.000
327.253;  -97.975; -745.000; -742.000
327.388; -142.800;-1137.000;-1153.000
327.524;  -74.250; -811.000; -578.000
327.659;  -28.875;  -58.000;  -22.000
327.795;  -13.325;   69.000;   45.000
327.931;  -90.550; -723.000; -499.000
328.066;  -29.300; -417.000; -276.000
328.202;  -13.500;   12.000; -129.000
328.337;   99.100;  957.000;  713.000
328.473;   34.625;  -12.000;  -74.000
328.608;  -24.175; -256.000; -267.000
328.743; -101.850; -799.000; -664.000
328.879;   14.750;  214.000;  114.000
329.014;  -40.400; -102.000; -122.000
329.150;  -89.700; -358.000; -483.000
329.285;  -89.600; -465.000; -466.000
329.421;  -57.750; -548.000; -246.000
329.556;  -32.375;  -36.000;   85.000
329.691;  -92.775; -633.000; -615.000
329.827;  -95.300; -626.000; -480.000
329.962;  -48.425;  131.000; -301.000
330.097;  -93.625; -673.000; -585.000
330.233;  -46.450; -410.000; -223.000
330.368; -139.875; -839.000; -628.000
330.503;   -9.400;    3.000;   98.000
330.638;   -1.975;  -93.000; -125.000
330.774;  -60.175; -609.000; -530.000
330.909;  -53.525; -434.000; -244.000
331.044; -106.075; -714.000; -708.000
331.179; -184.950;-1217.000;-1109.000
331.315;    6.400;   77.000;   20.000
331.450;    1.600;  157.000;  285.000
331.585;  -92.475; -805.000; -706.000
331.720;  -94.775; -510.000; -460.000
331.855;  -13.525;  -35.000; -102.000
331.990;  251.500;   62.000;  138.000
332.126;  128.400; -110.000;   71.000
332.261;  -28.475; -379.000; -265.000
332.396;    0.950; -135.000; -242.000
332.531; -113.650;-1074.000;-1031.000
332.666;   36.425; -519.000; -363.000
332.801; -109.975; -726.000; -807.000
332.936;  -20.650; -192.000; -122.000
333.071; -142.175; -870.000; -817.000
333.206;   14.300;  307.000;  379.000
333.341;   36.025;  344.000;  418.000
333.476;  -88.875; -627.000; -623.000
333.611;  -45.200; -251.000; -173.000
333.746;  -53.850; -381.000; -464.000
333.881; -126.550; -973.000; -935.000
334.016; -127.800; -936.000; -917.000
334.151; -134.650; -746.000; -702.000
334.286;   15.725;  152.000;  186.000
334.421;  -32.100; -125.000; -178.000
334.556;  -91.825; -611.000; -567.000
334.690;  -86.050; -631.000; -577.000
334.825;   43.675;  381.000;   83.000
334.960;  -75.900; -285.000; -413.000
335.095;    5.275;  135.000;  -91.000
335.230; -115.325; -722.000; -738.000
335.365; -153.250;-1084.000; -990.000
335.499; -143.825;-1108.000;-1037.000
335.634;   11.450;    9.000;  534.000
335.769; -112.950; -755.000; -720.000
335.904;  -73.300; -603.000; -561.000
336.038;  -70.525; -735.000; -657.000
336.173; -133.625;-1206.000;-1194.000
336.308;   -1.450; -116.000; -189.000
336.443;   21.700; -544.000; -634.000
336.577;  -87.825; -936.000; -787.000
336.712;   41.775;   -4.000;  -12.000
336.847;  -57.550; -724.000; -607.000
336.981;   35.500; -272.000; -208.000
337.116;  230.075;  615.000;  501.000
337.250;  112.125; -434.000; -421.000
337.385;  256.875; -297.000; -208.000
337.520;   94.475; -632.000; -603.000
337.654;  -44.150; -215.000; -126.000
337.789; -131.275; -989.000; -933.000
337.923;  -48.450; -104.000; -205.000
338.058;  -97.825; -673.000; -738.000
338.192;  -56.275; -611.000; -488.000
338.327;  -10.000;  -18.000; -155.000
338.461;  -85.925; -299.000; -469.000
338.596;  -96.725; -780.000; -638.000
338.730; -112.025; -767.000; -803.000
338.865;   91.225;  -46.000; -140.000
338.999;  -52.350; -846.000; -702.000
339.134;  -27.625; -634.000; -536.000
339.268;   -0.475; -741.000; -603.000
339.403;  353.025; -740.000; -775.000
339.537;  130.525; -894.000; -820.000
339.671; -109.325; -829.000; -813.000
339.806;  -75.375; -556.000; -512.000
339.940;    6.425; -261.000; -235.000
340.074; -105.275; -685.000; -510.000
340.209;  -51.625; -351.000; -230.000
340.343; -102.450; -517.000; -573.000
340.477;  139.250;  998.000; 1036.000
340.612;  -53.350;-1033.000; -900.000
340.746;  141.050; -199.000; -243.000
340.880; -101.150; -924.000; -785.000
341.014;  -27.575;  -45.000; -154.000
341.149; -120.675; -756.000; -718.000
341.283; -108.150; -839.000; -754.000
341.417; -131.725;-1124.000; -938.000
341.551;   71.550; -768.000; -708.000
341.685;  -60.600; -633.000; -611.000
341.820;  -69.750; -562.000; -493.000
341.954;  -47.200; -218.000; -349.000
342.088; -166.500;-1102.000;-1019.000
342.222;   34.825;  565.000;  618.000
342.356;  -59.075; -395.000; -335.000
342.490; -106.425; -880.000; -841.000
342.624;  -47.900; -339.000; -242.000
342.758;  -22.725; -364.000; -312.000
342.892;  -81.800; -710.000; -585.000
343.026;  -55.725;  -58.000; -116.000
343.160;  -78.850; -426.000; -376.000
343.294;  -90.100; -474.000; -337.000
343.428;  -43.625; -488.000; -448.000
343.562;  -25.000; -172.000;  -23.000
343.696;  -35.950; -385.000; -314.000
343.830;  -43.225; -362.000; -356.000
343.964;   -2.175; -231.000; -168.000
344.098;  680.700;  199.000;   70.000
344.232;  570.300; -266.000; -127.000
344.366;   61.925; -567.000; -453.000
344.500;   11.925; -665.000; -744.000
344.634;   -4.075; -324.000; -164.000
344.768;  -29.875; -531.000; -341.000
344.902;   -6.325;  278.000;  256.000
345.035;  -70.900; -556.000; -496.000
345.169; -148.700; -933.000; -656.000
345.303;  -48.825; -308.000; -482.000
345.437;  -99.450; -826.000; -717.000
345.571;  -80.625; -675.000; -594.000
345.704;  -64.575; -309.000; -532.000
345.838;  -27.575; -331.000; -284.000
345.972;  -44.400; -543.000; -495.000
346.106;  169.075; -179.000; -190.000
346.239;  385.525; -312.000; -243.000
346.373;   -2.050; -343.000; -302.000
346.507; -154.725; -950.000; -962.000
346.640;  101.400;  -30.000;   13.000
346.774;  -68.275; -650.000; -797.000
346.908;  -24.075; -138.000;  -11.000
347.041; -102.475; -646.000; -593.000
347.175;    2.275;  259.000;   27.000
347.309;  -80.475; -698.000; -628.000
347.442; -119.775; -883.000; -732.000
347.576;  237.900;  670.000;  668.000
347.709;  137.300; -123.000;  -52.000
347.843; -116.375; -933.000; -825.000
347.976;   47.325;  235.000;  294.000
348.110; -197.850;-1268.000;-1186.000
348.243;  -92.300; -679.000; -772.000
348.377;   -6.875;  -26.000;   60.000
348.510;   35.975;  403.000;  540.000
348.644;  -39.425;  -37.000; -159.000
348.777;    2.175;  180.000;  191.000
348.911;  -59.450; -142.000; -112.000
349.044;  134.750;  471.000;  448.000
349.178;   87.125;-1069.000;-1006.000
349.311;  104.750;  141.000;  255.000
349.444;   -8.975; -927.000; -813.000
349.578;  -16.725; -347.000; -200.000
349.711; -114.000; -959.000; -862.000
349.845;  -30.400; -661.000; -591.000
349.978; -170.700;-1224.000;-1137.000
350.111;  -81.950; -546.000; -612.000
350.244;  -80.525; -596.000; -700.000
350.378;  -15.300; -392.000; -393.000
350.511;  -71.350; -393.000; -426.000
350.644; -107.375; -808.000; -806.000
350.778;    8.575;  168.000;  104.000
350.911;   12.325;  134.000;  140.000
351.044;  -99.775; -685.000; -615.000
351.177;  -48.875; -321.000; -281.000
351.310;  -38.225;    3.000; -131.000
351.444; -105.375; -888.000; -788.000
351.577;   78.700;  140.000;   90.000
351.710;  101.550;  593.000;  417.000
351.843;  -38.350; -165.000;  -77.000
351.976;   -8.425;  149.000;  -79.000
352.109; -115.125; -621.000; -612.000
352.242;  -36.300; -464.000; -419.000
352.376;  -91.200; -580.000; -636.000
352.509;  108.250; -437.000; -356.000
352.642;  -50.925; -654.000; -604.000
352.775;   47.575; -141.000;  -98.000
352.908; -128.200; -933.000; -904.000
353.041; -110.700; -814.000; -824.000
353.174;  -74.600; -551.000; -424.000
353.307;  -96.200; -753.000; -764.000
353.440;   67.875;  541.000;  453.000
353.573; -120.050; -957.000;-1008.000
353.706;  -47.500; -384.000; -558.000
353.839;  -28.025; -264.000; -220.000
353.971;  -87.475; -657.000; -512.000
354.104;  -90.850; -896.000; -835.000
354.237;  -36.875; -627.000; -662.000
354.370; -107.750; -846.000; -879.000
354.503; -202.700;-1231.000;-1308.000
354.636;  -48.325; -529.000; -348.000
354.769; -141.400; -937.000; -860.000
354.902;  -22.825; -230.000; -139.000
355.034;  -28.600; -164.000; -220.000
355.167;  -22.000; -262.000; -162.000
355.300;  -91.550;-1061.000; -880.000
355.433;  977.525;  -71.000;  -14.000
355.565; 1528.800; -402.000; -384.000
355.698;  390.725; -356.000; -296.000
355.831;  -19.325; -882.000; -801.000
355.964;   60.625; -285.000; -170.000
356.096; -102.200; -856.000; -843.000
356.229;  -19.700; -523.000; -530.000
356.362;  331.550; -373.000; -266.000
356.494;  589.900; -229.000; -162.000
356.627;  395.625;  269.000;  377.000
356.760;  664.000;  120.000;   53.000
356.892;  969.400; -286.000; -601.000
357.025;  517.800;  403.000;  389.000
357.157;  421.775; -167.000; -179.000
357.290;  721.575; -856.000; -713.000
357.423;  181.975; -667.000; -556.000
357.555;   93.050; -217.000; -228.000
357.688;   95.525; -483.000; -364.000
357.820;  344.675; -870.000; -877.000
357.953; 3015.900; -563.000; -589.000
358.085;  583.350; -632.000; -612.000
358.218;  741.100;-1131.000; -932.000
358.350;  142.575;  -58.000;  312.000
358.483; -143.025;-1300.000;-1187.000
358.615;  -70.775;-1182.000;-1078.000
358.747;  -97.025;-1187.000;-1058.000
358.880;  -28.075; -810.000; -744.000
359.012;  -26.300; -376.000; -202.000
359.145;  -53.425; -480.000; -511.000
359.277;   27.700; -962.000; -913.000
359.409; 2498.050;  536.000;  231.000
359.542;  611.050; -738.000; -688.000
359.674;   49.100;   46.000;   13.000
359.806;  -76.125; -565.000; -438.000
359.939;  -49.675; -617.000; -516.000
360.071;  -20.650; -583.000; -579.000
360.203;   -9.125; -411.000; -364.000
360.335;   33.700;  164.000;  -16.000
360.468;  146.475; -249.000; -307.000
360.600; 2084.675; -547.000; -454.000
360.732; 2937.700; -546.000; -423.000
360.864;  373.975;-1216.000;-1044.000
360.996;  178.225; -516.000; -554.000
361.129;    2.200; -389.000; -598.000
361.261;   11.175;  110.000; -113.000
361.393;  -26.550; -252.000; -214.000
361.525;   30.425;   94.000;  244.000
361.657;  -58.625; -821.000; -703.000
361.789;  -10.850; -139.000; -155.000
361.921;  119.150; -642.000; -593.000
362.053;  199.000;  524.000;  541.000
362.185;   26.850;  288.000;   72.000
362.318;  -99.950; -709.000; -705.000
362.450;   88.500;  294.000;  444.000
362.582;    7.150; -913.000; -870.000
362.714;  -54.750; -353.000; -332.000
362.846;  -84.475; -606.000; -490.000
362.978; -152.975; -941.000; -811.000
363.109;   13.050; -161.000; -260.000
363.241;  292.100; -739.000; -749.000
363.373;  423.175; -649.000; -564.000
363.505;  663.575; -186.000;  -91.000
363.637;  131.500; -787.000; -601.000
363.769; -149.825;-1067.000;-1080.000
363.901;  -87.000; -596.000; -654.000
364.033; -148.575;-1103.000;-1062.000
364.165;  -10.150; -283.000; -283.000
364.296;   48.450; -316.000; -177.000
364.428;   55.225;-1344.000;-1220.000
364.560;  -79.125; -679.000; -661.000
364.692;  -68.950; -738.000; -835.000
364.824;  166.750; -588.000; -456.000
364.955;  399.925; -402.000; -564.000
365.087; 1002.675;-1097.000; -852.000
365.219;   18.150; -686.000; -816.000
365.351;  -82.725; -526.000; -572.000
365.482;   39.900;  300.000;  240.000
365.614;  -74.725; -402.000; -314.000
365.746; -109.625; -729.000; -752.000
365.877; -100.050; -706.000; -672.000
366.009;  262.200;  -35.000;  -62.000
366.141; -102.450;-1249.000;-1134.000
366.272; -114.000; -803.000; -719.000
366.404; -126.600;-1005.000; -874.000
366.535;  -19.350; -139.000;  -12.000
366.667; -114.925; -644.000; -649.000
366.799;   32.725;  353.000;  203.000
366.930; -128.950; -862.000; -996.000
367.062;  118.625; -639.000; -613.000
367.193;  156.225; -872.000; -842.000
367.325;  -60.150; -580.000; -684.000
367.456;   17.600; -246.000;   31.000
367.588;  149.800; -371.000; -318.000
367.719;   17.600;  -44.000;  -45.000
367.851;  -30.150; -222.000; -241.000
367.982;  -80.400; -875.000; -732.000
368.113;   49.000; -475.000; -358.000
368.245; -137.925; -960.000; -841.000
368.376;  -31.575; -254.000; -302.000
368.508;  -47.850; -188.000; -263.000
368.639; -162.200;-1166.000;-1034.000
368.770;  -53.975; -670.000; -589.000
368.902;  -88.125; -836.000; -926.000
369.033; -119.100; -906.000; -855.000
369.164;  -46.950; -720.000; -653.000
369.296; -114.325; -452.000; -601.000
369.427;  -16.300; -209.000; -144.000
369.558;  -66.950; -593.000; -377.000
369.689;  -95.425; -721.000; -569.000
369.821; -151.925; -951.000; -845.000
369.952;  -25.900;   42.000; -108.000
370.083;  -58.175; -229.000; -108.000
370.214; -100.000; -735.000; -650.000
370.345;  -17.100;   65.000;   81.000
370.477; -102.975; -810.000; -790.000
370.608;  144.375; -328.000; -264.000
370.739;  -93.250;-1233.000;-1292.000
370.870;  -74.375;-1102.000; -923.000
371.001;   35.550; -378.000; -467.000
371.132;  -97.800; -754.000; -735.000
371.263;  -23.575;  -42.000; -148.000
371.394; -160.375; -841.000; -748.000
371.525;   29.925;  345.000;  225.000
371.657; -105.875; -808.000; -670.000
371.788;   54.225;  103.000;  199.000
371.919;   99.125; -384.000; -304.000
372.050; 2875.075;  -91.000; -156.000
372.181;  829.125; -188.000; -294.000
372.311;  263.650;   42.000; -127.000
372.442;   -2.825; -457.000; -451.000
372.573;  -28.250; -444.000; -340.000
372.704; -143.650;-1008.000; -980.000
372.835;   29.050; -228.000; -289.000
372.966;  -78.275; -646.000; -554.000
373.097;  -89.475; -575.000; -711.000
373.228;  -68.025; -717.000; -542.000
373.359;   56.300; -824.000; -536.000
373.490;  679.150; -881.000; -727.000
373.620;  815.950;-1001.000; -803.000
373.751; 1305.925; -332.000; -396.000
373.882;  553.075; -663.000; -733.000
374.013;   29.625; -449.000; -262.000
374.143;  -79.650; -581.000; -659.000
374.274; -123.100; -987.000; -908.000
374.405;  124.975; -388.000; -276.000
374.536;  298.575; -526.000; -387.000
374.666;  789.150; -759.000; -807.000
374.797;  116.975; -817.000; -868.000
374.928;  600.650; -710.000; -560.000
375.058;  602.025; -535.000; -500.000
375.189;   49.775;  -59.000;  -93.000
375.320; -123.925; -928.000;-1034.000
375.450;  -54.625; -625.000; -616.000
375.581;  -60.575; -526.000; -436.000
375.712;  -60.375; -574.000; -250.000
375.842;  192.150; -438.000; -415.000
375.973;  127.325; -554.000; -513.000
376.103;  -83.100; -665.000; -648.000
376.234;  -86.375; -531.000; -552.000
376.364;  -75.350; -944.000; -867.000
376.495;  273.075;  925.000;  529.000
376.625;  -53.800; -472.000; -485.000
376.756;   -2.025; -709.000; -678.000
376.886; -100.050;-1178.000;-1026.000
377.017;   51.075;-1048.000;-1061.000
377.147;  357.050; -786.000; -782.000
377.278;   50.400;  174.000;  228.000
377.408; -130.950; -801.000; -815.000
377.538;  -99.050; -707.000; -693.000
377.669;  -78.625; -537.000; -613.000
377.799; -105.325; -645.000; -635.000
377.929;  -83.150; -610.000; -428.000
378.060; -141.200; -781.000; -847.000
378.190;  -72.100; -726.000; -531.000
378.320;  -61.850; -401.000; -406.000
378.451;  -35.725; -131.000;  -22.000
378.581;  -16.350;  -67.000; -110.000
378.711;  131.100; 1035.000;  866.000
378.841;  -37.550; -533.000; -675.000
378.972; -104.900; -871.000; -751.000
379.102;  -46.075; -652.000; -579.000
379.232;  -35.450; -126.000;  -73.000
379.362; -124.025;-1001.000; -885.000
379.492;  -14.750; -373.000; -424.000
379.623;   92.825;    0.000;  111.000
379.753; -121.500;-1107.000; -974.000
379.883;  136.525;   59.000;  156.000
380.013;  -33.250;-1081.000;-1017.000
380.143; -133.150;-1097.000;-1056.000
380.273; -128.750; -985.000; -861.000
380.403;   -5.950; -344.000; -257.000
380.533;  -58.500; -651.000; -664.000
380.663;   57.525;  173.000;  128.000
380.793; -137.225;-1027.000;-1074.000
380.923;  -39.825; -103.000;  -34.000
381.053; -110.550; -613.000; -623.000
381.183;  -38.900; -106.000; -248.000
381.313;  -12.050; -656.000; -470.000
381.443;  -13.200; -692.000; -473.000
381.573;   95.575; -402.000; -409.000
381.703;  137.825;-1249.000;-1095.000
381.833; -174.775;-1454.000;-1336.000
381.963;   81.825; -134.000;  -87.000
382.093; 1081.875; -925.000; -909.000
382.223;  296.425; -713.000; -602.000
382.353;  -38.250; -801.000; -608.000
382.482;  225.325;-1091.000; -964.000
382.612;  567.600; -872.000; -644.000
382.742;  290.525; -695.000; -622.000
382.872;  144.550; -565.000; -551.000
383.002;   28.400;  347.000; -132.000
383.131;  -29.450; -226.000; -160.000
383.261;  -60.100; -706.000; -768.000
383.391;  270.175; -552.000; -377.000
383.521; 3431.525;  451.000;  263.000
383.650;  789.300; -947.000; -904.000
383.780;   -9.825; -783.000; -656.000
383.910;  103.450;  880.000;  802.000
384.039;  -30.125; -794.000; -656.000
384.169;   87.000;-1205.000;-1017.000
384.299;  -68.800; -650.000; -662.000
384.428; -116.350; -764.000; -680.000
384.558;  -54.425; -308.000; -275.000
384.687;  -68.600; -414.000; -334.000
384.817;   -5.200;   75.000;   -2.000
384.947;  -21.425; -234.000; -141.000
385.076;  251.350;  982.000;  912.000
385.206;   68.350;  369.000;  480.000
385.335;  -57.800; -549.000; -417.000
385.465;  -97.750; -655.000; -663.000
385.594;   85.575;  -53.000;  -44.000
385.724;  273.700; -868.000; -838.000
385.853;   57.250; -296.000; -270.000
385.982; 1040.000; -743.000; -787.000
386.112; 1619.650;-1052.000; -871.000
386.241;   85.450; -307.000; -312.000
386.371;   -9.075; -174.000;  -87.000
386.500;  -39.225; -825.000; -789.000
386.629;   -7.450; -874.000; -817.000
386.759;   44.950;  -43.000;   68.000
386.888;  -25.375; -170.000; -250.000
387.017;  -96.100; -648.000; -620.000
387.147;  -93.350; -771.000; -798.000
387.276;  -30.200; -410.000; -397.000
387.405;  -13.875; -398.000; -342.000
387.535;  -58.325; -452.000; -361.000
387.664;  -61.200; -692.000; -620.000
387.793;   28.175; -198.000; -113.000
387.922;  375.350;  255.000;  200.000
388.052;  -21.375; -576.000; -423.000
388.181;  -20.125; -342.000; -472.000
388.310;  -58.475; -889.000; -710.000
388.439;  -89.175; -749.000; -742.000
388.568;  115.525;  365.000;  244.000
388.697;  768.600; -756.000; -653.000
388.826;  113.250; -768.000; -666.000
388.956;   14.700; -285.000; -307.000
389.085;  -59.625; -347.000; -287.000
389.214; -127.175; -842.000; -872.000
389.343;  -70.000; -645.000; -413.000
389.472;  414.100;  126.000;  149.000
389.601;  466.700;   91.000;    0.000
389.730;  -13.900; -568.000; -687.000
389.859;   31.425;  226.000;   46.000
389.988;  128.250; -423.000; -408.000
390.117;   92.750; -168.000; -146.000
390.246;  -20.075; -331.000; -320.000
390.375;   35.650; -673.000; -626.000
390.504;  -82.650; -703.000; -621.000
390.633; -115.875; -672.000; -726.000
390.761;  -90.675; -732.000; -645.000
390.890;   -3.400;   -4.000; -130.000
391.019;  -66.350; -421.000; -441.000
391.148; -136.350; -826.000; -855.000
391.277;  -75.500; -576.000; -493.000
391.406; -117.325; -821.000; -805.000
391.534;   15.475;  574.000; -301.000
391.663;  -87.500; -583.000; -645.000
391.792; -105.025; -673.000; -701.000
391.921;   46.950;   -3.000;   15.000
392.050;  122.625; -287.000; -228.000
392.178;  -99.325;-1206.000;-1061.000
392.307;   64.875; -758.000; -712.000
392.436;    8.300; -427.000; -641.000
392.564;    8.850;  166.000;   -6.000
392.693; -109.750; -860.000; -682.000
392.822;  113.350; -529.000; -534.000
392.950;   12.675; -880.000; -714.000
393.079;  241.250; -188.000; -328.000
393.208;  -17.475; -488.000; -511.000
393.336;  -22.300; -170.000; -145.000
393.465;  -62.875; -317.000; -199.000
393.593;   10.125;   62.000;   79.000
393.722; -169.225;-1121.000; -916.000
393.850;  -36.325; -188.000;  -61.000
393.979; -167.150; -926.000; -805.000
394.107;  -76.500; -517.000; -537.000
394.236;  -56.600; -570.000; -507.000
394.364;  145.775;  383.000;  206.000
394.493;  149.525; -911.000; -767.000
394.621;  -48.950; -955.000; -916.000
394.750;  725.750; -873.000; -923.000
394.878; 3078.975; -247.000; -149.000
395.007; 4069.725; -721.000; -807.000
395.135;  287.975; -790.000; -721.000
395.263; -101.900;-1038.000;-1040.000
395.392;    4.425;  -25.000; -107.000
395.520; -150.300; -818.000; -679.000
395.648; -113.600; -865.000; -915.000
395.777;  -56.300; -366.000; -405.000
395.905;  -66.700; -449.000; -564.000
396.033;   -2.450;  217.000;  172.000
396.162;  311.125; -399.000; -453.000
396.290;  270.300;  -17.000;   -2.000
396.418;   26.150; -555.000; -514.000
396.546; -104.100; -571.000; -466.000
396.674; -115.750; -850.000; -878.000
396.803;  -14.000;  -72.000;  -23.000
396.931;   34.225; -179.000; -199.000
397.059;  -35.200;-1026.000; -989.000
397.187; -124.575;-1026.000; -975.000
397.315; -153.500; -884.000; -649.000
397.443;  -96.450; -592.000; -443.000
397.572;  -97.000; -578.000; -424.000
397.700;  -46.600; -607.000; -614.000
397.828;  -15.600;  120.000;  -90.000
397.956;  -42.475; -508.000; -478.000
398.084;  -72.950; -767.000; -626.000
398.212;    9.500;  137.000;  124.000
398.340;   -9.700;  -56.000;  159.000
398.468;    1.450; -390.000; -169.000
398.596; -151.850; -993.000; -953.000
398.724; -128.250; -762.000; -767.000
398.852; -176.525;-1024.000; -976.000
398.980;  -74.525; -560.000; -560.000
399.108;  -96.525; -982.000; -735.000
399.236;   11.650;   13.000;    8.000
399.363;  -11.000;  222.000;  196.000
399.491;  -66.900; -404.000; -398.000
399.619; -134.325; -829.000; -800.000
399.747; -118.575; -859.000; -771.000
399.875;   52.375;  220.000;  234.000
400.003;  -57.625; -359.000; -284.000
400.130;  -98.050; -421.000; -341.000
400.258;  -44.450;  -83.000;   38.000
400.386;  -72.600; -352.000; -168.000
400.514;  -57.400; -526.000; -587.000
400.641; -113.575; -928.000; -802.000
400.769; -147.875; -979.000; -888.000
400.897; -134.075; -838.000; -793.000
401.025;  -31.650; -166.000; -152.000
401.152;  -12.200;  220.000;   38.000
401.280;  -92.100; -430.000; -429.000
401.408; -118.625; -712.000; -576.000
401.535; -113.100; -735.000; -758.000
401.663; -201.750;-1134.000;-1054.000
401.790;  -94.775; -514.000; -525.000
401.918;   24.600;  436.000;  405.000
402.046;  -32.475;  134.000;  122.000
402.173;  -44.000;  -18.000;    7.000
402.301;  -84.425; -519.000; -397.000
402.428;   31.050;  528.000;  383.000
402.556; -153.925;-1188.000; -913.000
402.683;  -43.850;  -20.000;   -1.000
402.811;  -30.500;  -37.000; -206.000
402.938;  -28.850;   20.000;   27.000
403.066;  114.875; -574.000; -558.000
403.193;  240.850;  299.000;  239.000
403.321;  181.400; -396.000; -574.000
403.448;  237.750;   83.000;   27.000
403.575;   99.975;  -90.000;  -46.000
403.703;  -97.450; -732.000; -557.000
403.830;  -83.275; -531.000; -496.000
403.957; -151.000;-1117.000;-1023.000
404.085;   10.675;  -61.000; -172.000
404.212;   99.150;  -50.000;   63.000
404.339;  280.900; -566.000; -306.000
404.467; 6088.875; -612.000; -524.000
404.594; 3609.100; -287.000; -227.000
404.721;  738.675; -869.000; -764.000
404.848;   66.725; -113.000; -202.000
404.976; -125.500; -856.000; -783.000
405.103;  -11.925;  -14.000;  -82.000
405.230;  -10.750;  190.000;  226.000
405.357;   10.575;  117.000;   44.000
405.484;  267.050;  -49.000;    5.000
405.612;   35.550; -548.000; -563.000
405.739;  -85.700; -488.000; -243.000
405.866;   86.575;  669.000;  385.000
405.993;  -60.275; -398.000; -102.000
406.120; -151.200; -801.000; -887.000
406.247;  -64.250; -323.000; -342.000
406.374;  309.775;  540.000;  629.000
406.501;   11.475; -632.000; -702.000
406.628;  -91.275; -621.000; -589.000
406.755; -112.750; -803.000; -620.000
406.882;  -50.775; -228.000; -277.000
407.009; -116.800; -719.000; -628.000
407.136;   10.000; -480.000; -401.000
407.263;   21.675; -939.000; -829.000
407.390;  -97.300; -692.000; -614.000
407.517; -183.400;-1139.000;-1187.000
407.644;  -65.450; -332.000; -256.000
407.771;  -68.675; -249.000; -287.000
407.898;    5.850;  168.000;  328.000
408.025;  -77.750; -421.000; -313.000
408.151;  -20.925;   82.000;  153.000
408.278;  -79.250; -267.000; -216.000
408.405; -123.250; -931.000; -899.000
408.532;  -80.600; -549.000; -542.000
408.659; -130.725; -677.000; -648.000
408.785; -197.300;-1298.000;-1170.000
408.912;  -71.900; -412.000; -296.000
409.039; -134.050; -610.000; -686.000
409.166; -120.000; -591.000; -555.000
409.292; -118.950; -571.000; -534.000
409.419; -133.525; -665.000; -649.000
409.546;  -85.450; -431.000; -192.000
409.672; -125.300; -713.000; -545.000
409.799;  -57.050;  -36.000;   34.000
409.926;  -55.700; -180.000; -179.000
410.052; -197.975;-1127.000;-1091.000
410.179;  -65.700; -368.000; -392.000
410.305;  -90.325; -375.000; -493.000
410.432;  -68.625; -220.000; -333.000
410.558; -102.250; -305.000; -380.000
410.685; -111.550; -688.000; -431.000
410.812; -122.475; -409.000; -588.000
410.938; -161.050; -964.000; -808.000
411.065; -119.225; -671.000; -645.000
411.191;  -28.500; -189.000; -174.000
411.317; -136.500; -823.000; -742.000
411.444;  -56.625; -317.000; -246.000
411.570;  -73.325; -339.000; -294.000
411.697; -130.750; -758.000; -752.000
411.823; -185.400; -989.000; -999.000
411.949;  -35.350;  -56.000;   17.000
412.076; -124.175; -539.000; -519.000
412.202; -126.225; -758.000; -757.000
412.329; -145.325; -798.000; -752.000
412.455; -116.150; -821.000; -657.000
412.581;  -30.550;  -15.000;  172.000
412.707;  -89.800; -540.000; -457.000
412.834;   12.200;  156.000;  219.000
412.960;  -99.300; -785.000; -784.000
413.086; -118.600; -743.000; -701.000
413.212;  125.300;  604.000;  578.000
413.339;  -97.725; -685.000; -701.000
413.465;  -19.625; -364.000; -310.000
413.591; -115.575; -757.000; -474.000
413.717;  -62.650; -358.000; -366.000
413.843; -152.400; -839.000; -861.000
413.969;  -69.375;  -47.000; -292.000
414.096; -116.125; -679.000; -679.000
414.222;  -18.950;  -33.000;   85.000
414.348;  -60.400; -652.000; -385.000
414.474;   55.350;   38.000;  -52.000
414.600;  -27.750; -126.000; -144.000
414.726;  -16.925;  -96.000;  -55.000
414.852;  -61.800; -365.000; -342.000
414.978;   40.275;  104.000;  -18.000
415.104;   28.500;   38.000;   80.000
415.230;    8.925; -329.000; -330.000
415.356;   32.650; -409.000; -514.000
415.482;  185.125;   13.000;  -35.000
415.608;  264.975; -247.000; -323.000
415.734;  995.550;   67.000;   38.000
415.860;20577.225; -875.000; -767.000
415.986;14350.050; -685.000; -607.000
416.111; 1200.400; -798.000; -652.000
416.237;  251.725; -424.000; -571.000
416.363; 1225.650; -765.000; -733.000
416.489; 4352.875; -324.000; -251.000
416.615;  443.500; -707.000; -742.000
416.741;  -26.150; -677.000; -784.000
416.866;  -97.650; -673.000; -736.000
416.992; -130.150; -801.000; -818.000
417.118;  -32.500;  -41.000;  -80.000
417.244;  -86.375; -798.000; -531.000
417.369; -111.725; -801.000; -612.000
417.495;  -21.525; -325.000; -254.000
417.621;  -99.775;-1015.000; -803.000
417.746;  -17.775; -579.000; -572.000
417.872;   33.200; -254.000; -144.000
417.998;   45.175; -515.000; -530.000
418.123; 1143.550;-1073.000; -845.000
418.249; 5600.275; -512.000; -601.000
418.374;  739.325; -916.000; -824.000
418.500;  114.600; -383.000; -482.000
418.626;   95.725;   70.000;  -59.000
418.751;  106.525; -549.000; -448.000
418.877;  189.825; -637.000; -643.000
419.002; 1935.750; -688.000; -560.000
419.128;13173.625; -930.000; -721.000
419.253; 3040.375; -967.000; -837.000
419.379;  382.200; -391.000; -338.000
419.504;  403.050;  325.000;  415.000
419.629;  543.300; -393.000; -212.000
419.755; 3953.200; -317.000; -254.000
419.880;22439.225;  -98.000;   67.000
420.006;12018.525; -280.000; -221.000
420.131;30180.100; -662.000; -775.000
420.256; 4122.425; -315.000; -316.000
420.382;  534.025; -665.000; -687.000
420.507;   77.850; -649.000; -778.000
420.632;   80.750; -337.000; -339.000
420.758;  154.850; -251.000; -425.000
420.883; -105.100; -876.000; -672.000
421.008; -106.275; -775.000; -619.000
421.133;  -92.275; -509.000; -467.000
421.259;  -57.650; -325.000; -259.000
421.384; -140.175; -834.000; -693.000
421.509;  -85.700;-1052.000; -862.000
421.634;  756.300; -936.000; -820.000
421.759;  314.275; -359.000; -327.000
421.885;  -86.125; -717.000; -656.000
422.010;  -89.900; -673.000; -542.000
422.135; -163.325; -695.000; -727.000
422.260;   24.975;  340.000;  280.000
422.385;  -40.400;   12.000;  -98.000
422.510;    2.200;  151.000;  -26.000
422.635;   -9.300;  -87.000;  -43.000
422.760;   65.175; -766.000; -791.000
422.885;   35.325;  -57.000;  -80.000
423.010;  -32.900; -112.000; -169.000
423.135; -104.325; -481.000; -561.000
423.260;  -30.200; -150.000; -245.000
423.385;   46.000;  476.000;  222.000
423.510;   12.975;   71.000;  -22.000
423.635;   36.075;  133.000;   45.000
423.760;   54.525;  383.000;  328.000
423.885;   43.150;  336.000;  391.000
424.010;    2.000;  -68.000;  -13.000
424.135;  -32.475;    5.000;  -33.000
424.259; -100.375; -654.000; -457.000
424.384;  -75.325; -279.000; -272.000
424.509;  -32.500; -260.000; -186.000
424.634; -106.400; -761.000; -623.000
424.759;  -30.200; -688.000; -544.000
424.883;  -11.325; -506.000; -527.000
425.008;  152.150; -502.000; -410.000
425.133; 2044.075; -679.000; -653.000
425.258;  919.275; -517.000; -381.000
425.382;  835.750; -867.000; -774.000
425.507; 2068.625; -487.000; -543.000
425.632;  347.050; -802.000; -663.000
425.756;  470.550; -256.000; -146.000
425.881; 7333.825; -831.000; -857.000
426.006;19047.575; -604.000; -355.000
426.130; 2779.225; -696.000; -508.000
426.255;  357.200; -611.000; -491.000
426.379;  143.700; -189.000; -577.000
426.504;  385.075;  660.000;  544.000
426.629; 4178.450; -519.000; -466.000
426.753; 2707.125;   64.000;  -46.000
426.878;  294.075; -252.000; -288.000
427.002;  149.125; -651.000; -668.000
427.127; 1677.400;  -35.000; -158.000
427.251;11960.625;  372.000;  401.000
427.375; 3176.300; -191.000; -173.000
427.500; 1871.275; -616.000; -610.000
427.624;  573.250; -234.000; -400.000
427.749;   51.200; -216.000; -225.000
427.873;  -53.850; -499.000; -412.000
427.997;  -44.350; -222.000; -230.000
428.122;   65.525;  795.000;  703.000
428.246;   65.550;  433.000;  434.000
428.371; -147.050; -869.000; -773.000
428.495; -111.850; -624.000; -646.000
428.619;  -46.675; -186.000; -117.000
428.743;   -4.625;   65.000;  132.000
428.868;  -22.500; -732.000; -643.000
428.992; 1089.575; -219.000; -326.000
429.116;  394.350; -329.000; -357.000
429.240;  202.150;  419.000;  426.000
429.365;  -51.575; -454.000; -574.000
429.489;  -60.175; -638.000; -647.000
429.613;   -0.375; -236.000; -177.000
429.737;   19.475; -563.000; -432.000
429.861;  256.350; -247.000; -133.000
429.985; 5928.050; -425.000; -305.000
430.109; 6126.800; -770.000; -908.000
430.234;  697.225;   76.000;  -50.000
430.358;   47.850; -250.000; -160.000
430.482;  -67.200; -672.000; -564.000
430.606;  -91.550; -655.000; -375.000
430.730;   -3.100; -437.000; -388.000
430.854;   33.550; -909.000; -835.000
430.978;  -92.950; -795.000; -764.000
431.102; -101.825; -499.000; -422.000
431.226; -126.075; -874.000; -815.000
431.350;   13.000;  345.000;  422.000
431.474;  -86.525; -661.000; -373.000
431.597; -170.075;-1060.000; -848.000
431.721;  -73.000; -276.000; -267.000
431.845; -144.400; -704.000; -472.000
431.969;  -98.350; -304.000; -349.000
432.093;  -95.475; -395.000; -317.000
432.217;  -28.225;   32.000;   82.000
432.341;  -99.950; -523.000; -518.000
432.464;  -17.000;   96.000;   40.000
432.588;  108.150; -401.000; -329.000
432.712;   54.825;  -52.000;  -52.000
432.836;   39.800;  213.000;  263.000
432.959;  -28.525; -372.000; -311.000
433.083;   68.175;   11.000;    2.000
433.207;  386.250;  285.000;  930.000
433.330; 5435.700; -391.000; -200.000
433.454; 6391.850; -654.000; -638.000
433.578; 3728.725;  583.000;  278.000
433.701;  638.700; -623.000; -675.000
433.825;   79.850; -292.000; -299.000
433.949;   95.375;   28.000;  -72.000
434.072;   -5.375; -410.000; -323.000
434.196;  -25.400; -309.000; -117.000
434.319; 3810.575;25482.000;25124.000
434.443;  722.400; -656.000; -603.000
434.566; 2713.900;  281.000;   62.000
434.690;  419.125; -637.000; -383.000
434.813;   50.650; -251.000; -173.000
434.937;  -84.525; -569.000; -696.000
435.060;  -72.775; -423.000; -332.000
435.184;  153.675; -492.000; -217.000
435.307;   76.450;  159.000;  102.000
435.431;  -19.675;  -40.000;   24.000
435.554;  -97.375; -399.000; -240.000
435.677; -100.325; -350.000; -258.000
435.801;  -52.375;  -25.000;   49.000
435.924;  -31.950;    1.000;  -67.000
436.048; -146.350;-1019.000; -732.000
436.171;  -73.075; -240.000;  -66.000
436.294;  -38.600; -248.000; -229.000
436.417;   96.150; -963.000; -849.000
436.541; -101.375; -814.000; -840.000
436.664;  -54.150; -242.000; -316.000
436.787;  -25.950;   13.000;  113.000
436.910; -114.600; -792.000; -422.000
437.034;   -5.775;  142.000;  143.000
437.157;   24.075;  -11.000;    0.000
437.280;  -92.875; -392.000; -292.000
437.403; -114.300; -982.000; -869.000
437.526;  360.875; -903.000; -865.000
437.649; 1465.925; -505.000; -332.000
437.772;  145.725; -692.000; -540.000
437.896;   86.525;  700.000;  544.000
438.019; -123.800; -758.000; -503.000
438.142; -100.900; -596.000; -506.000
438.265;  -59.275; -639.000; -670.000
438.388;  347.075; -520.000; -410.000
438.511;   13.025; -597.000; -394.000
438.634;  -65.425; -247.000; -125.000
438.757; -134.200; -693.000; -619.000
438.880;  -21.650;  -34.000;  -57.000
439.003;  -99.625; -417.000; -437.000
439.126;  -60.200; -287.000; -167.000
439.248;  -66.025;  -98.000; -139.000
439.371;  -42.250;    9.000;  -53.000
439.494;   14.775;  510.000;  439.000
439.617;  -51.475;   65.000;  -88.000
439.740; -189.200; -968.000; -816.000
439.863; -144.725; -755.000; -595.000
439.986; -139.900; -476.000; -431.000
440.108;  -60.675; -161.000; -112.000
440.231; -174.825; -950.000; -836.000
440.354;  -55.700;  -64.000; -150.000
440.477;  -38.850; -566.000; -542.000
440.599;  -41.750; -200.000; -225.000
440.722; -133.800; -709.000; -586.000
440.845;   58.375;  751.000;  928.000
440.968; -121.475; -415.000; -311.000
441.090;  -70.225; -199.000;  -33.000
441.213; -188.100;-1021.000; -825.000
441.336;  -71.450; -159.000;   -5.000
441.458; -111.100; -549.000; -396.000
441.581; -113.925; -628.000; -629.000
441.703;  -77.125; -152.000;   13.000
441.826; -115.400; -557.000; -400.000
441.948;  -57.000;   56.000;   51.000
442.071;   36.475;  555.000;  424.000
442.193; -127.200; -531.000; -485.000
442.316;  -10.150;  152.000;   97.000
442.438;   35.825; -233.000;  -10.000
442.561;   59.700;  272.000;  262.000
442.683;  323.950; -809.000; -522.000
442.806;  769.175;   -8.000;   74.000
442.928;  -60.225; -859.000; -604.000
443.051;  -81.400; -577.000; -373.000
443.173; -100.550; -341.000; -339.000
443.295;  -98.175; -263.000; -371.000
443.418;  -87.125; -321.000;  -29.000
443.540;  -38.475; -106.000;   -4.000
443.662; -131.900; -563.000; -465.000
443.785;  -14.325;  335.000;  199.000
443.907; -119.250; -362.000; -208.000
444.029; -139.925; -767.000; -494.000
444.152; -160.350; -644.000; -554.000
444.274;  -39.625;  -18.000;  -24.000
444.396; -120.050; -461.000; -221.000
444.518; -137.650; -691.000; -454.000
444.640; -128.300; -268.000; -111.000
444.763;  -21.400;  388.000;  249.000
444.885; -133.925; -432.000; -392.000
445.007;  -35.300;   35.000;   86.000
445.129; -132.825; -610.000; -515.000
445.251; -111.100; -372.000; -439.000
445.373; -150.575; -537.000; -386.000
445.495;   -6.100;  242.000;  350.000
445.617;   45.750;  853.000;  753.000
445.739;  -68.350; -215.000;  -97.000
445.861;  -58.950; -245.000; -112.000
445.984;  -58.500; -267.000; -101.000
446.105;  111.100; -418.000; -251.000
446.227;  409.125; -176.000;  -19.000
446.349;  -46.600; -358.000; -249.000
446.471; -108.500; -615.000; -448.000
446.593;  -78.350; -316.000;   19.000
446.715;  -21.475;  -67.000;   41.000
446.837;   42.800;  697.000;  832.000
446.959;  -99.225; -457.000; -478.000
447.081; -152.050; -628.000; -518.000
447.203;   51.850;  862.000;  834.000
447.325;  -94.900; -270.000;   42.000
447.446;   -4.150;  286.000;  530.000
447.568; -164.550; -921.000; -803.000
447.690;  -90.000; -236.000; -245.000
447.812; -172.600; -798.000; -519.000
447.933;  -33.625;  155.000;  127.000
448.055;  -74.600; -306.000; -261.000
448.177;   87.925;   31.000;   79.000
448.299;    3.275; -935.000; -727.000
448.420;    5.225;  -25.000;  159.000
448.542;  -49.075;   -3.000;   33.000
448.664;  -17.200;  109.000;  322.000
448.785;  -50.725;  265.000;   83.000
448.907;  -88.125; -614.000; -353.000
449.028;  -75.975; -771.000; -471.000
449.150;   59.700;  492.000;  589.000
449.272; -181.800;-1044.000; -913.000
449.393;   22.425;  612.000;  694.000
449.515; -162.925; -634.000; -581.000
449.636;  -73.325; -264.000; -155.000
449.758;   55.400;  763.000;  622.000
449.879; -107.550; -498.000; -396.000
450.001; -101.700; -149.000;  -49.000
450.122;  -30.400;  -95.000;  162.000
450.244;  -35.575;   37.000;  364.000
450.365; -106.550; -495.000; -301.000
450.486;  -42.525;   80.000;  268.000
450.608;   33.525;  393.000;  326.000
450.729;   70.125;  578.000;  645.000
450.850;    3.825; -574.000; -466.000
450.972;  836.825; -552.000; -389.000
451.093; 5300.075;  190.000;  588.000
451.214; 2158.725; -516.000; -337.000
451.336;  393.525;  773.000;  579.000
451.457;   60.875;  264.000;  393.000
451.578;  -46.100; -118.000;  -74.000
451.699; -119.950; -546.000; -540.000
451.821;  -73.625; -284.000;  -50.000
451.942;   -6.750;  278.000;  285.000
452.063;   33.500;  228.000;  419.000
452.184;  600.400;  -54.000;  -49.000
452.305; 1114.575;  103.000;  170.000
452.427;  109.100; -549.000; -301.000
452.548;  -40.025;   23.000;   79.000
452.669;  -60.650; -257.000;  -89.000
452.790;  -58.950;    3.000;  -18.000
452.911;  -16.150;  195.000;  259.000
453.032;  -87.000; -289.000;  -60.000
453.153;  -62.250;  -29.000;   81.000
453.274;   55.850;  737.000;  868.000
453.395;  -65.200;  -51.000;  175.000
453.516;  115.850; 1317.000; 1388.000
453.637;  -91.625; -205.000; -150.000
453.758;  -60.050;   15.000;   69.000
453.879; -116.825; -462.000; -250.000
454.000;   61.300; 1086.000;  948.000
454.121; -126.075; -554.000; -326.000
454.242; -120.475; -599.000; -383.000
454.362;  -55.900;  -99.000;  114.000
454.483;  -53.800; -309.000; -229.000
454.604;   50.775;  512.000;  580.000
454.725; -138.300; -627.000; -555.000
454.846; -129.100; -474.000; -406.000
454.967;  -25.275;  230.000;  539.000
455.087;  -58.925;  179.000;  153.000
455.208;   15.575;  554.000;  856.000
455.329;  -71.300;  -22.000;   82.000
455.450;   22.850;  473.000;  633.000
455.570; -100.750; -234.000; -211.000
455.691;  -55.650;  201.000;  407.000
455.812; -121.975; -270.000;  -92.000
455.932;  -69.800;  107.000;  -97.000
456.053;  -98.025;   36.000;   24.000
456.173; -118.050; -433.000; -355.000
456.294; -155.700; -476.000; -303.000
456.415;  -57.300;  -73.000;   70.000
456.535;  -42.600;  297.000;  273.000
456.656;  -43.075;  132.000;  240.000
456.776;  -71.250;    3.000;  298.000
456.897;  -12.350;  308.000;  513.000
457.017;  -85.375; -153.000;   -3.000
457.138; -113.825; -402.000; -249.000
457.258;  -52.575;  263.000;  224.000
457.379;   -9.150;  509.000;  521.000
457.499;  -38.725;  443.000;  432.000
457.620; -127.500; -407.000; -231.000
457.740; -126.800; -132.000;  -11.000
457.860;  -60.925;   87.000;   44.000
457.981;  -54.500;  132.000;  124.000
458.101;  -98.925;  -89.000;   40.000
458.221;  -19.550;  336.000;  402.000
458.342;  -62.400;   -4.000;  -37.000
458.462;   27.150;  617.000;  352.000
458.582;  -44.800; -302.000; -294.000
458.703;    0.300;  303.000;  154.000
458.823;  -32.675;   22.000;  163.000
458.943;   22.875;  341.000;  467.000
459.063;  -23.175; 1124.000;  192.000
459.183;  -43.325;  328.000;  313.000
459.304;   -1.275;  315.000;  517.000
459.424;  -57.625; -246.000;  -89.000
459.544;  351.100;  388.000;  764.000
459.664;  875.775;  499.000;  506.000
459.784;  312.675; 1004.000; 1175.000
459.904;   39.100;  867.000;  744.000
460.024;   72.425;  867.000;  684.000
460.144;    2.675;  449.000;  554.000
460.264;  -21.075;  515.000;  327.000
460.385; -108.375; -145.000; -119.000
460.505;   34.950;  905.000;  858.000
460.625; -102.775;  -17.000;  -68.000
460.745;  -28.125;  396.000;  541.000
460.864;  -71.500;  153.000;  469.000
460.984;    4.450;  499.000;  573.000
461.104;  144.800; 1656.000; 1775.000
461.224;   16.700;  657.000;  650.000
461.344;  -38.525;  431.000;  360.000
461.464;  -43.425;  258.000;  513.000
461.584;  -35.150;  283.000;  466.000
461.704;  -63.725;   58.000;  108.000
461.824;  -77.625;  238.000;  259.000
461.943;  -50.200;  191.000;  130.000
462.063;  -77.825;    2.000;  324.000
462.183;   16.025;  639.000;  717.000
462.303;   99.525; 1678.000; 1230.000
462.422;   27.250;  781.000;  840.000
462.542;  -59.825;  271.000;  391.000
462.662;   27.050;  353.000;  380.000
462.782;  242.975;  833.000;  572.000
462.901;  496.075;  545.000;  717.000
463.021;  274.975; 1702.000; 1638.000
463.141;   -3.275;  337.000;  770.000
463.260;  -20.875;  614.000;  474.000
463.380;    9.850;  902.000;  884.000
463.499;  -44.425;  342.000;  332.000
463.619;  -38.575;  581.000;  559.000
463.738;  120.650; 1644.000;  903.000
463.858;    8.000;  657.000;  811.000
463.978;  -31.800;  542.000;  396.000
464.097;   47.175;  921.000; 1114.000
464.217;  103.275; 1196.000; 1143.000
464.336;  102.150; 1068.000; 1130.000
464.455;  -40.175;  328.000;  659.000
464.575;   43.200;  597.000;  602.000
464.694;  152.925; 1204.000; 1179.000
464.814;  115.200; 1190.000; 1138.000
464.933;   54.950; 1095.000; 1027.000
465.052;   99.625; 1412.000; 1054.000
465.172;   68.075;  922.000;  799.000
465.291;  114.825; 1376.000; 1320.000
465.410;   -7.800;  462.000;  735.000
465.530;   73.600; 1355.000; 1310.000
465.649;   65.850; 1209.000; 1273.000
465.768;  138.400; 1673.000; 1508.000
465.888;   30.025;  941.000; 1174.000
466.007;   80.675; 1335.000; 1440.000
466.126;   -4.525;  721.000;  641.000
466.245;   32.800; 1176.000; 1187.000
466.364;   11.275;  950.000; 1060.000
466.484;   46.525; 1024.000; 1213.000
466.603;   20.000; 1101.000; 1222.000
466.722;  104.975; 1490.000; 1769.000
466.841;   74.200; 1151.000; 1401.000
466.960;   46.950; 1069.000;  972.000
467.079;  128.825; 1971.000; 1786.000
467.198;   51.025; 1238.000; 1181.000
467.317;   89.100; 1768.000; 1162.000
467.436;   70.975; 1709.000; 1261.000
467.555;  131.275; 1796.000; 1746.000
467.674;   52.850; 1227.000; 1329.000
467.793;   35.600; 1376.000; 1374.000
467.912;   86.175; 1658.000; 1539.000
468.031;  115.150; 2038.000; 1930.000
468.150;  133.975; 1842.000; 1837.000
468.269;  184.600; 2313.000; 2090.000
468.388;  173.000; 2168.000; 2339.000
468.507;  255.200; 2884.000; 2903.000
468.626;  273.875; 2555.000; 2541.000
468.744;  138.850; 2018.000; 2174.000
468.863;  198.075; 2312.000; 2523.000
468.982;   74.625; 1503.000; 1555.000
469.101;  219.750; 2788.000; 2692.000
469.220;  144.825; 2333.000; 2176.000
469.338;  251.350; 2935.000; 3051.000
469.457;  181.200; 2719.000; 2545.000
469.576;  348.800; 3953.000; 3784.000
469.695;  237.925; 2877.000; 3066.000
469.813;  437.275; 4148.000; 4192.000
469.932;  406.925; 4255.000; 4485.000
470.051;  422.150; 4075.000; 4161.000
470.169;  873.075; 4470.000; 4338.000
470.288; 1534.050; 4700.000; 4809.000
470.406;  869.500; 5059.000; 5194.000
470.525;  644.850; 6101.000; 5787.000
470.644;  663.925; 6847.000; 6794.000
470.762;  810.275; 8397.000; 7873.000
470.881;  924.650; 8651.000; 8464.000
470.999; 1038.350; 9685.000; 9151.000
471.118; 1093.800;11174.000;10711.000

