
Integration time [ms]: 200.000
Averaging Nr. [scans]: 10
Smoothing Nr. [pixels]: 0
Data measured with spectrometer [name]: 2101012U2
Wave   ;Sample   ;Dark     ;Reference
[nm]   ;[counts] ;[counts] ;[counts] 

197.733;  129.300;  516.000;  404.000
197.879; -150.100; -610.000; -634.000
198.025; -109.900; -475.000; -420.000
198.171; -162.500; -602.000; -612.000
198.317;  -56.200; -401.000; -316.000
198.463; -125.000; -655.000; -404.000
198.609;   77.700;  181.000; -137.000
198.755; -214.400; -644.000; -410.000
198.901; -129.600; -505.000; -424.000
199.047; -160.700; -615.000; -488.000
199.193;  -88.900; -230.000; -468.000
199.339; -101.800; -222.000; -369.000
199.485;   96.800;  330.000;  271.000
199.631;   20.200;  227.000;  310.000
199.777; -117.300; -466.000; -398.000
199.923; -139.900; -610.000; -424.000
200.069;  -11.400; -141.000;  -58.000
200.215;  121.400;  128.000;  453.000
200.361;   97.700;  243.000;  477.000
200.507; -126.600; -600.000; -373.000
200.653;  -63.600; -371.000; -194.000
200.798;  -83.100; -215.000; -125.000
200.944;    5.700; -146.000;  -41.000
201.090;   71.100;   61.000;  222.000
201.236;   -5.400; -116.000; -158.000
201.382;  255.400;  874.000;  903.000
201.528;  -22.800;  -58.000;  -48.000
201.674;  -39.300; -386.000; -293.000
201.819; -153.500; -540.000; -439.000
201.965; -187.400; -699.000; -447.000
202.111;  -46.700; -273.000; -226.000
202.257;  -83.000; -250.000; -238.000
202.402;   34.600;   13.000;  -36.000
202.548;  -56.800; -169.000; -116.000
202.694;  166.800;  410.000; -183.000
202.840; -178.100; -603.000; -531.000
202.985; -142.600; -681.000; -639.000
203.131; -258.700; -832.000; -666.000
203.277;  -42.500; -199.000; -262.000
203.423;  -96.900; -434.000; -520.000
203.568;  -88.100; -462.000; -237.000
203.714; -119.400; -535.000; -542.000
203.860; -163.900; -682.000; -641.000
204.005;   38.600;  112.000;  167.000
204.151;  142.400;  561.000;  556.000
204.296;  -95.500; -354.000; -221.000
204.442; -155.000; -600.000; -547.000
204.588; -159.100; -592.000; -579.000
204.733;   40.200;  178.000;  168.000
204.879; -292.700;-1018.000; -822.000
205.025;   13.200;  -99.000;  126.000
205.170;   -7.000;  -17.000;   94.000
205.316;  174.700;  438.000;  661.000
205.461; -181.500; -698.000; -554.000
205.607;  182.700;  609.000;  665.000
205.752; -164.300; -626.000; -551.000
205.898; -118.500; -501.000; -391.000
206.043; -123.500; -578.000; -506.000
206.189;  -96.300; -243.000; -285.000
206.334;  136.700;  554.000;  606.000
206.480;  158.100;  409.000;  239.000
206.625; -163.300; -529.000; -552.000
206.771; -109.100; -451.000; -373.000
206.916;  -42.100; -210.000; -537.000
207.062; -137.900; -545.000; -591.000
207.207; -148.900; -546.000; -443.000
207.353;  128.100;  185.000;  460.000
207.498;   21.600;  196.000;   85.000
207.643;  -86.100; -501.000; -370.000
207.789; -267.500;-1069.000; -910.000
207.934; -206.800; -665.000; -713.000
208.080;  -48.100; -154.000;   66.000
208.225;    6.200;  -22.000;  -57.000
208.370; -164.800; -727.000; -619.000
208.516; -157.500; -741.000; -487.000
208.661;  -20.900; -127.000;  -69.000
208.806;  -21.000; -165.000; -171.000
208.952; -267.200;-1044.000; -731.000
209.097;  162.900;  378.000;  349.000
209.242; -111.400; -307.000; -382.000
209.387;  133.700;  392.000;  350.000
209.533;  -91.600; -321.000; -350.000
209.678;  184.100;  472.000;  543.000
209.823;  -92.600; -408.000; -310.000
209.969; -206.700; -860.000; -757.000
210.114; -210.400; -907.000; -719.000
210.259; -244.700; -939.000; -889.000
210.404;   -9.800; -171.000;  103.000
210.549;    5.300;  108.000;    3.000
210.695;  -42.900;   -3.000;  -95.000
210.840;   93.500;   94.000;   67.000
210.985; -142.600; -484.000; -303.000
211.130;  135.300;  268.000;  406.000
211.275;   29.800;  207.000;  199.000
211.420;  -97.000; -300.000; -289.000
211.566; -149.400; -536.000; -489.000
211.711;   77.700;  218.000;  157.000
211.856; -141.100; -545.000; -519.000
212.001;   26.500;  151.000;   44.000
212.146;   30.700;  153.000;   49.000
212.291;  -46.300; -210.000; -186.000
212.436;  -51.600; -280.000;   -6.000
212.581; -173.400; -685.000; -653.000
212.726; -152.900; -487.000; -538.000
212.871;  -78.400; -552.000; -217.000
213.016; -316.900;-1172.000;-1029.000
213.161;  130.200;  406.000;  291.000
213.306; -143.100; -435.000; -577.000
213.451; -185.000; -778.000; -689.000
213.596;  -79.300; -455.000; -347.000
213.741; -118.600; -448.000; -538.000
213.886; -153.400; -498.000; -517.000
214.031;  -63.600; -294.000; -124.000
214.176; -119.300; -408.000; -341.000
214.321;  -33.900; -296.000; -157.000
214.466;  -48.700; -163.000;  -43.000
214.611;  -25.700;  -61.000;  -10.000
214.756; -262.100; -948.000; -858.000
214.901;  -25.600; -388.000; -226.000
215.046; -228.300; -797.000; -825.000
215.191;   22.400;  128.000;   35.000
215.336;  -33.800; -157.000;  -19.000
215.480; -160.500; -684.000; -505.000
215.625;  -43.500; -175.000;  -19.000
215.770; -183.400; -757.000; -662.000
215.915;   -7.000;   -5.000;  -97.000
216.060;  -13.300; -113.000;  -21.000
216.205; -211.700; -731.000; -779.000
216.349; -129.000; -470.000; -533.000
216.494; -296.500; -939.000; -867.000
216.639; -231.000; -823.000; -888.000
216.784; -173.900; -577.000; -525.000
216.929;  130.800;  392.000;  281.000
217.073;  -28.800; -244.000;  -31.000
217.218;    4.200;   78.000;  -47.000
217.363; -184.100; -656.000; -618.000
217.507; -147.600; -623.000; -588.000
217.652; -257.700; -845.000; -874.000
217.797; -165.500; -708.000; -659.000
217.942; -231.600; -856.000; -720.000
218.086;  156.000;  608.000;  539.000
218.231;   -8.000; -174.000;  -26.000
218.376;  -85.000; -337.000; -229.000
218.520;   25.400;  -41.000;   96.000
218.665;  -78.700; -338.000; -204.000
218.810; -100.300; -275.000; -233.000
218.954;   28.500;  201.000;   35.000
219.099; -204.300; -713.000; -963.000
219.243; -138.700; -589.000; -554.000
219.388;  -67.100; -264.000; -136.000
219.532;    0.100; -116.000; -116.000
219.677; -193.800; -564.000; -521.000
219.822;   19.800;   33.000;   89.000
219.966;    6.900;   17.000;  -99.000
220.111;  -57.400; -328.000;  -40.000
220.255; -204.200; -797.000; -750.000
220.400;  -42.200; -180.000; -146.000
220.544; -146.700; -516.000; -450.000
220.689;  -73.900; -422.000; -451.000
220.833;  -28.100; -123.000;  -58.000
220.978;  -81.500; -393.000; -563.000
221.122;   64.000;  319.000;  307.000
221.267; -245.800; -906.000; -837.000
221.411; -160.300; -478.000; -394.000
221.555;   -6.500; -104.000;  -23.000
221.700;  -97.000; -329.000; -222.000
221.844;   85.600;  255.000;  272.000
221.989;  -95.500; -328.000; -311.000
222.133;  -59.000; -289.000; -307.000
222.277;    7.800;    5.000;   78.000
222.422;   81.700;  227.000;  113.000
222.566;  -62.200; -381.000; -214.000
222.711; -130.900; -414.000; -479.000
222.855; -178.500; -643.000; -586.000
222.999; -189.200; -642.000; -717.000
223.144;  -66.600; -195.000; -194.000
223.288;  126.100;  423.000;  251.000
223.432;   17.600;  184.000;  230.000
223.576;   27.400;  152.000;  -21.000
223.721;   88.100;  364.000;  273.000
223.865; -132.200; -472.000; -475.000
224.009;  483.300; 1673.000; 1631.000
224.153; -150.500; -660.000; -671.000
224.298; -125.700; -531.000; -489.000
224.442;  -30.000;  -74.000;  -33.000
224.586;  -15.400; -169.000; -106.000
224.730; -212.000; -858.000; -670.000
224.875; -252.800; -739.000; -688.000
225.019;   38.000;  102.000;  188.000
225.163;  125.400;  208.000;  341.000
225.307;   58.700;   97.000;  -91.000
225.451;   91.800;  360.000;  481.000
225.595;   69.900;  264.000;  176.000
225.739;  -27.400; -170.000;  -94.000
225.884;   25.400;   86.000;    5.000
226.028; -179.400; -760.000; -626.000
226.172;  -67.300; -260.000; -273.000
226.316; -246.900; -941.000; -902.000
226.460; -155.500; -645.000; -493.000
226.604;  -98.600; -406.000; -400.000
226.748; -181.900; -836.000; -733.000
226.892;  -53.800; -227.000; -181.000
227.036; -101.700; -537.000; -447.000
227.180; -111.900; -551.000; -375.000
227.324; -147.300; -561.000; -580.000
227.468; -238.900; -819.000; -717.000
227.612;   34.200;  242.000;  -28.000
227.756; -211.100; -845.000; -698.000
227.900;  154.000;  342.000;  441.000
228.044;  -89.000; -509.000; -290.000
228.188;  146.500;  448.000;  568.000
228.332; -142.800; -546.000; -472.000
228.476;  -33.400; -223.000; -149.000
228.620;  -50.200; -210.000; -150.000
228.764;  161.400;  431.000;  349.000
228.908;  -39.100; -155.000;   30.000
229.052; -101.700; -615.000; -528.000
229.195;   -7.900; -172.000;   13.000
229.339;  -59.400; -235.000; -305.000
229.483;  -58.900;    5.000; -162.000
229.627;   11.000; -156.000;  139.000
229.771; -103.100; -218.000; -294.000
229.915;   21.100;  230.000;   79.000
230.059; -212.300; -648.000; -663.000
230.202;  -89.400; -370.000; -317.000
230.346;  -38.800; -107.000;  107.000
230.490; -148.400; -489.000; -521.000
230.634; -214.200; -736.000; -553.000
230.777;  179.200;  478.000;  509.000
230.921; -113.000; -450.000; -359.000
231.065;  -94.800; -246.000; -286.000
231.209;   47.400;  261.000;  265.000
231.352;   49.300;   54.000;   40.000
231.496;   35.200;  568.000;  188.000
231.640; -163.300; -693.000; -621.000
231.783;  137.900;  546.000;  525.000
231.927;  -76.900; -294.000; -365.000
232.071; -271.700; -962.000; -736.000
232.214; -226.800; -980.000; -764.000
232.358; -240.300; -683.000; -599.000
232.502;   -9.000;  -19.000;    7.000
232.645; -311.400;-1090.000; -927.000
232.789;  -45.600; -257.000; -218.000
232.933; -103.300; -407.000; -224.000
233.076; -252.500;-1038.000; -897.000
233.220; -204.900; -752.000; -777.000
233.363; -143.600; -669.000; -477.000
233.507;  133.500;  371.000;  129.000
233.650; -183.800; -764.000; -834.000
233.794;   81.000;  438.000;  461.000
233.938;  -97.100; -530.000; -362.000
234.081;  -19.600;  -93.000;   31.000
234.225; -145.100; -631.000; -539.000
234.368; -212.000; -773.000; -723.000
234.512;  -95.200; -385.000; -299.000
234.655; -185.200; -582.000; -555.000
234.798; -130.400; -493.000; -466.000
234.942; -286.000; -884.000;-1002.000
235.085; -159.800; -651.000; -443.000
235.229; -153.400; -405.000; -410.000
235.372; -116.400; -247.000; -191.000
235.516; -124.600; -397.000; -321.000
235.659;   45.600;   92.000;  121.000
235.802;  -43.200;  -38.000;  -22.000
235.946;   53.200;  335.000;  215.000
236.089;   64.700;  126.000;  250.000
236.233;   99.400;  275.000;  298.000
236.376;  -92.100; -235.000; -378.000
236.519;  -75.400; -297.000; -319.000
236.663;  -47.800; -215.000; -117.000
236.806; -256.800;-1029.000; -999.000
236.949;  142.600;  543.000;  431.000
237.092;  138.100;  412.000;  391.000
237.236; -181.600; -589.000; -502.000
237.379;  156.600;  352.000;  428.000
237.522; -235.300; -879.000; -768.000
237.666;  -34.700; -271.000;   18.000
237.809; -257.700; -851.000; -823.000
237.952;   82.900;  469.000;  271.000
238.095; -136.000; -447.000; -442.000
238.238;  224.100;  688.000;  700.000
238.382;   16.800;  166.000;  103.000
238.525; -129.100; -598.000; -511.000
238.668; -272.400;-1060.000; -985.000
238.811; -176.700; -638.000; -643.000
238.954; -114.800; -483.000; -334.000
239.097;  197.300;  617.000;  664.000
239.241;   60.100;  394.000;  326.000
239.384;  -43.100; -254.000; -214.000
239.527; -118.700; -424.000; -224.000
239.670; -278.200; -994.000;-1091.000
239.813; -223.000; -696.000; -658.000
239.956;  205.400;  579.000;  473.000
240.099; -224.400; -778.000; -725.000
240.242;  162.600;  428.000;  432.000
240.385;  105.200;  466.000;  450.000
240.528; -146.300; -706.000; -473.000
240.671;   25.600;  189.000;  134.000
240.814;  -45.000; -441.000; -158.000
240.957; -182.100; -767.000; -578.000
241.100; -192.900; -779.000; -755.000
241.243; -311.300;-1234.000; -893.000
241.386; -109.100; -508.000; -379.000
241.529; -172.100; -735.000; -547.000
241.672; -129.800; -566.000; -495.000
241.815; -212.700; -832.000; -808.000
241.958;  -44.600; -125.000; -182.000
242.101; -156.300; -545.000; -390.000
242.244;  -79.600; -270.000; -325.000
242.387;  -58.600; -304.000; -246.000
242.530;  117.400;  470.000;  134.000
242.673;  -62.400; -381.000; -309.000
242.815; -216.400; -925.000; -899.000
242.958; -138.700; -482.000; -381.000
243.101;   66.800;  132.000;  187.000
243.244; -182.000; -564.000; -521.000
243.387;  -91.500; -313.000; -316.000
243.530; -217.200; -657.000; -674.000
243.672;   -9.000;   43.000;  -92.000
243.815;  -67.600; -355.000; -283.000
243.958;   17.700;   98.000;  -26.000
244.101;    2.400;   59.000;  -16.000
244.243;  -12.800;  -47.000;  101.000
244.386; -247.900; -761.000; -630.000
244.529;  -43.900; -132.000; -139.000
244.672; -321.800;-1154.000; -951.000
244.814; -197.000; -621.000; -794.000
244.957;  -83.000; -380.000; -304.000
245.100; -148.000; -489.000; -489.000
245.242;  -93.500; -387.000; -374.000
245.385;   -3.000;  -59.000;  -39.000
245.528; -242.000; -871.000; -705.000
245.670;  158.400;  612.000;  634.000
245.813; -179.800; -599.000; -547.000
245.956;  -53.500; -324.000; -275.000
246.098; -172.500; -508.000; -650.000
246.241;   27.100;  194.000;   48.000
246.383;  -12.600; -119.000;  -73.000
246.526; -158.300; -454.000; -525.000
246.669; -236.600; -889.000; -780.000
246.811;   23.500;  172.000;   -1.000
246.954; -154.100; -512.000; -426.000
247.096;  -79.200;  -84.000;   -6.000
247.239; -152.600; -482.000; -445.000
247.381; -123.300; -647.000; -488.000
247.524;  204.600;  645.000;  679.000
247.666;    7.800;   58.000;   11.000
247.809; -252.600; -887.000; -691.000
247.951;   -2.400;  -75.000;  138.000
248.094;   43.100;  432.000;  308.000
248.236; -317.300;-1262.000;-1238.000
248.378;  -11.700; -356.000;  -81.000
248.521;  -43.900; -334.000; -337.000
248.663;  -68.800; -236.000; -267.000
248.806;  -14.200; -300.000; -266.000
248.948; -196.600; -886.000; -763.000
249.090;  -99.800; -428.000; -398.000
249.233;  -76.100; -344.000; -381.000
249.375; -136.800; -474.000; -451.000
249.518;  -10.500;  -83.000; -133.000
249.660;   -5.900; -103.000;    3.000
249.802; -354.500;-1303.000;-1189.000
249.945; -132.200; -612.000; -540.000
250.087; -225.200; -834.000; -768.000
250.229;  -90.500; -362.000; -480.000
250.371; -127.700; -494.000; -439.000
250.514;  -86.300; -310.000; -244.000
250.656; -126.000;   69.000;  102.000
250.798; -233.700; -849.000; -800.000
250.940; -118.900; -322.000; -322.000
251.083;  -60.100; -335.000; -111.000
251.225;  114.700;  338.000;  310.000
251.367;  -76.600; -274.000; -373.000
251.509;  -65.100; -265.000; -210.000
251.651; -189.300; -731.000; -671.000
251.794;  124.300;  538.000;  632.000
251.936; -202.000; -821.000; -747.000
252.078; -168.300; -540.000; -461.000
252.220; -136.900; -645.000; -477.000
252.362;  174.900;  344.000;  462.000
252.504; -104.500; -677.000; -584.000
252.646; -216.900; -875.000; -722.000
252.788;   12.900;   14.000; -128.000
252.931;  -48.500; -257.000; -253.000
253.073;  -55.400; -376.000; -317.000
253.215;   11.700;  141.000;  122.000
253.357;  -33.900;   82.000; -153.000
253.499;  -98.500; -374.000; -234.000
253.641; -153.600; -749.000; -594.000
253.783; -163.300; -609.000; -527.000
253.925; -161.300; -586.000; -591.000
254.067; -229.600; -744.000; -667.000
254.209;  -66.600; -391.000; -259.000
254.351; -294.400; -865.000; -883.000
254.493; -108.800; -441.000; -417.000
254.635; -207.800; -936.000; -818.000
254.777; -183.100; -752.000; -687.000
254.918; -154.700; -512.000; -430.000
255.060; -122.800; -551.000; -395.000
255.202;  -96.800; -473.000; -261.000
255.344; -162.300; -658.000; -455.000
255.486; -126.100; -471.000; -406.000
255.628; -199.500; -780.000; -781.000
255.770; -179.000; -676.000; -536.000
255.912; -102.700; -559.000; -468.000
256.053; -192.200; -730.000; -508.000
256.195;  344.000; 1008.000;  903.000
256.337; -208.000; -861.000; -595.000
256.479;  139.500;  532.000;  416.000
256.621;  -94.700; -394.000; -212.000
256.762; -169.800; -789.000; -742.000
256.904;  146.400;  485.000;  487.000
257.046;  -50.100; -381.000; -271.000
257.188; -104.200; -351.000; -264.000
257.329; -136.000; -525.000; -464.000
257.471; -220.500; -939.000; -807.000
257.613; -118.300; -584.000; -498.000
257.755; -306.800;-1073.000; -982.000
257.896;   94.400;  286.000;  392.000
258.038; -139.900; -403.000; -352.000
258.180;  -47.100; -354.000; -279.000
258.321; -156.500; -581.000; -457.000
258.463;    9.300;  -71.000;  133.000
258.605; -199.700; -562.000; -570.000
258.746; -196.200; -886.000; -772.000
258.888; -299.300;-1026.000;-1020.000
259.029;   77.500;  121.000;   -8.000
259.171; -182.500; -614.000; -550.000
259.313;   22.700;  -49.000;  -47.000
259.454; -128.300; -536.000; -414.000
259.596; -104.200; -483.000; -390.000
259.737; -143.700; -590.000; -474.000
259.879;   97.700;  217.000;  311.000
260.020;  228.100;  901.000;  636.000
260.162;  -29.700; -146.000; -253.000
260.303; -201.200; -768.000; -687.000
260.445; -169.500; -609.000; -613.000
260.586;   86.600;  392.000;  157.000
260.728;  -96.600; -360.000; -248.000
260.869; -115.200; -350.000; -343.000
261.011;  189.400;  706.000;  537.000
261.152;  -78.000; -479.000; -319.000
261.293; -125.000; -576.000; -595.000
261.435;  -56.700; -219.000; -184.000
261.576;  -90.700; -455.000; -325.000
261.718;  158.000;  420.000;  470.000
261.859; -236.000; -940.000; -949.000
262.000; -247.800; -951.000;-1016.000
262.142;  -12.300;  -52.000;  -60.000
262.283; -226.300; -808.000; -691.000
262.424; -161.300; -666.000; -625.000
262.566; -329.600;-1161.000; -983.000
262.707; -200.200; -840.000; -830.000
262.848; -251.600; -769.000; -726.000
262.990;  -65.500; -362.000; -345.000
263.131;  209.100;  650.000;  681.000
263.272;   21.900;  -61.000;  -41.000
263.413; -169.900; -589.000; -561.000
263.555; -109.500; -669.000; -143.000
263.696; -155.500; -550.000; -641.000
263.837; -125.100; -449.000; -551.000
263.978;   -5.900;   -5.000;  -77.000
264.119;  -77.100; -283.000; -264.000
264.261; -233.200; -847.000; -630.000
264.402;    6.100;   33.000;   40.000
264.543; -134.500; -509.000; -524.000
264.684;   -0.600;   61.000;  -50.000
264.825; -109.000; -816.000; -538.000
264.966;   -6.200;  -84.000;  -67.000
265.107; -207.500; -646.000; -670.000
265.248; -222.600; -825.000; -812.000
265.390;    1.700;  152.000;   -9.000
265.531;  -37.800; -238.000; -107.000
265.672; -205.500; -557.000; -630.000
265.813;  158.200;  563.000;  439.000
265.954; -277.300; -959.000; -940.000
266.095;   -5.000; -372.000; -322.000
266.236; -200.100; -686.000; -548.000
266.377;  -49.000; -243.000; -297.000
266.518; -130.000; -619.000; -547.000
266.659;   80.100;  170.000;  268.000
266.800;   28.400;   83.000;   85.000
266.941; -141.500; -487.000; -478.000
267.082;   30.600;  354.000;   99.000
267.223;  -82.700; -344.000; -273.000
267.364; -245.900; -892.000; -686.000
267.504;  -40.300;    3.000;  135.000
267.645;   23.600;  160.000;   67.000
267.786;  -37.900; -147.000;  -86.000
267.927; -129.500; -473.000; -379.000
268.068;    3.400; -186.000;  -61.000
268.209;  -70.100; -175.000; -413.000
268.350; -122.300; -388.000; -532.000
268.490; -193.500; -648.000; -521.000
268.631;   65.800;  127.000;  225.000
268.772; -204.900; -874.000; -647.000
268.913;  -96.000; -328.000; -476.000
269.054;  -23.500; -117.000;   12.000
269.194;  -88.000; -418.000; -402.000
269.335; -327.100;-1137.000;-1074.000
269.476;  -34.800;   33.000;  -35.000
269.617; -100.200; -347.000; -392.000
269.757; -168.700; -713.000; -646.000
269.898; -185.200; -856.000; -613.000
270.039; -122.600; -415.000; -405.000
270.180; -275.500; -952.000; -816.000
270.320;  -17.600; -190.000; -250.000
270.461;  -81.600; -277.000; -249.000
270.602;   -2.400; -186.000; -156.000
270.742; -231.500; -868.000; -943.000
270.883; -119.100; -442.000; -390.000
271.023;  -75.200; -358.000; -357.000
271.164; -132.900; -607.000; -528.000
271.305; -202.200; -666.000; -654.000
271.445; -167.500; -722.000; -683.000
271.586; -140.500; -462.000; -283.000
271.726;  -86.200; -397.000; -322.000
271.867; -145.400; -594.000; -534.000
272.008;  319.200; -473.000; -285.000
272.148;  235.500;  462.000;  468.000
272.289;   71.800; -113.000; -181.000
272.429;   51.100;   19.000;  185.000
272.570; -186.000; -633.000; -737.000
272.710; -179.600; -825.000; -775.000
272.851;  -58.300;  113.000; -130.000
272.991; -318.000;-1173.000;-1077.000
273.131; -102.700; -419.000; -459.000
273.272; -203.000; -683.000; -723.000
273.412;   23.500; -143.000;  -31.000
273.553;  -94.600; -488.000; -507.000
273.693;  304.800;  913.000;  858.000
273.834; -206.100; -894.000; -692.000
273.974; -153.400; -664.000; -615.000
274.114; -203.800; -772.000; -560.000
274.255;  161.900;  414.000;  373.000
274.395;   36.900; -180.000; -125.000
274.535;  109.600;  199.000;  350.000
274.676;   46.400;  225.000;   94.000
274.816;   22.500;  110.000;   34.000
274.956; -167.700; -624.000; -690.000
275.097; -166.600;-1014.000; -922.000
275.237; -223.900; -913.000; -803.000
275.377; -185.900; -778.000; -689.000
275.517; -298.100; -878.000; -937.000
275.658;  -96.400; -590.000; -555.000
275.798; -116.400; -606.000; -413.000
275.938;   30.100;  215.000;  323.000
276.078; -136.400; -626.000; -395.000
276.218;   35.800;   99.000;  104.000
276.359; -244.300;-1026.000;-1024.000
276.499;  -95.400; -605.000; -446.000
276.639;  -45.900; -305.000; -151.000
276.779;  -99.300; -475.000; -357.000
276.919; -193.000; -783.000; -624.000
277.059;  -14.500; -261.000; -212.000
277.199;  -81.800; -357.000; -259.000
277.340;   95.700;  287.000;  175.000
277.480; -212.900; -840.000; -693.000
277.620;   57.900;  192.000;   16.000
277.760; -372.500;-1533.000;-1294.000
277.900;   56.100;  113.000;   33.000
278.040;   50.900;  137.000;  159.000
278.180;   84.900;  270.000;  170.000
278.320;   24.800;   21.000;   56.000
278.460;  -98.500; -443.000; -469.000
278.600; -162.700; -708.000; -598.000
278.740;  138.000;  448.000;  224.000
278.880; -151.100; -768.000; -791.000
279.020;   23.300; -194.000; -144.000
279.160; -175.800; -672.000; -595.000
279.300; -206.500; -926.000; -873.000
279.440; -181.800; -709.000; -622.000
279.579; -106.100;-1014.000; -929.000
279.719; -124.700; -410.000; -394.000
279.859;  136.300;   -4.000;   41.000
279.999;   64.600; -208.000;  101.000
280.139;  -55.700; -435.000; -387.000
280.279; -160.500; -708.000; -745.000
280.419;  -23.600; -229.000; -147.000
280.559;  -69.600; -259.000; -180.000
280.698; -160.000; -790.000; -639.000
280.838; -186.800; -778.000; -800.000
280.978; -191.500; -846.000; -790.000
281.118; -217.400; -811.000; -704.000
281.257;   18.700;   24.000;    6.000
281.397; -266.700;-1094.000; -960.000
281.537; -169.900; -599.000; -712.000
281.677;  -21.800; -150.000; -101.000
281.816; -163.100; -700.000; -630.000
281.956;  -53.400; -193.000; -257.000
282.096;  -92.700; -539.000; -396.000
282.235; -218.400; -672.000; -638.000
282.375;  -39.700; -243.000;  -98.000
282.515; -201.500; -715.000; -707.000
282.654;   80.800;   29.000;  106.000
282.794;   44.800;  388.000;  244.000
282.934;  -83.800; -530.000; -491.000
283.073; -267.500;-1030.000; -857.000
283.213; -119.700; -460.000; -467.000
283.353;  -65.000; -408.000; -349.000
283.492;  -25.100; -264.000; -296.000
283.632;  -88.300; -254.000; -168.000
283.771; -198.200; -859.000; -730.000
283.911;  -79.000; -369.000; -260.000
284.050; -176.400; -794.000; -748.000
284.190; -292.000;-1229.000;-1096.000
284.329; -279.000;-1055.000; -964.000
284.469; -119.600; -516.000; -591.000
284.608;  -73.600; -559.000; -598.000
284.748; -136.100; -614.000; -570.000
284.887;   23.900;  -87.000;  -20.000
285.027; -242.900; -844.000; -892.000
285.166;  -56.400; -192.000; -249.000
285.306;   12.500; -116.000;  -33.000
285.445;  -61.400; -229.000; -343.000
285.584; -178.200; -630.000; -494.000
285.724;  -76.500; -282.000; -322.000
285.863; -230.900; -857.000; -507.000
286.002;  -52.000; -366.000; -276.000
286.142; -204.500; -715.000; -622.000
286.281; -131.400; -525.000; -493.000
286.420; -138.600; -554.000; -417.000
286.560;  250.100;  653.000;  623.000
286.699; -279.200; -958.000; -912.000
286.838; -105.900; -590.000; -591.000
286.978; -142.500; -533.000; -537.000
287.117; -240.800;-1085.000; -950.000
287.256;  -19.800; -228.000; -211.000
287.395;  -58.500; -197.000; -378.000
287.535;  -80.200; -370.000; -298.000
287.674; -112.500; -509.000; -484.000
287.813;  158.900;  661.000;  533.000
287.952; -247.400;-1010.000; -871.000
288.091; -279.700;-1049.000; -915.000
288.231;   61.600;   13.000;   15.000
288.370; -342.800;-1217.000;-1200.000
288.509; -140.800; -728.000; -645.000
288.648; -182.200; -770.000; -548.000
288.787;   -7.700; -243.000;  -87.000
288.926; -147.700; -454.000; -475.000
289.065;  242.100;  859.000;  672.000
289.204;  -88.800; -377.000; -217.000
289.344; -194.800; -791.000; -690.000
289.483;   98.400;  416.000;  304.000
289.622;  -43.700; -291.000; -149.000
289.761;  -20.400; -309.000; -166.000
289.900; -214.000; -785.000; -626.000
290.039;    9.400;  -12.000;  -95.000
290.178;  -51.300; -274.000; -180.000
290.317; -164.100; -618.000; -479.000
290.456; -113.300; -463.000; -451.000
290.595; -260.400; -961.000; -833.000
290.734; -280.200; -904.000; -891.000
290.873; -117.400; -456.000; -420.000
291.011; -199.900; -833.000; -843.000
291.150; -195.600; -770.000; -682.000
291.289;    5.800; -343.000; -110.000
291.428; -157.200; -599.000; -480.000
291.567;  -90.400; -370.000; -442.000
291.706;    3.000;  109.000;  154.000
291.845; -173.200; -597.000; -505.000
291.984; -321.900;-1234.000;-1061.000
292.122;  152.800;  602.000;  582.000
292.261;  133.700;  620.000;  463.000
292.400;   39.200; -144.000;  211.000
292.539; -226.500; -959.000; -813.000
292.678;  -43.200; -325.000; -300.000
292.816; -322.600;-1136.000; -965.000
292.955; -164.900; -844.000; -684.000
293.094;  -44.900; -173.000; -337.000
293.233;  -86.200; -556.000; -400.000
293.371;  -36.700; -225.000;  -84.000
293.510; -231.800; -866.000; -780.000
293.649; -249.300; -959.000; -924.000
293.787; -148.000;-1083.000;-1012.000
293.926;   19.700; -113.000;  -32.000
294.065;  -73.200; -379.000; -290.000
294.203;  153.200;  298.000;  406.000
294.342;   73.900;   74.000;  156.000
294.481;11129.100;51180.000; -836.000
294.619;  -42.700; -425.000; -582.000
294.758; -287.200;-1230.000;-1137.000
294.896;  163.900; -125.000;    5.000
295.035; -255.500;-1040.000;-1006.000
295.174; -230.100;-1082.000; -954.000
295.312;  -79.100; -323.000; -203.000
295.451;   -2.800; -307.000; -428.000
295.589;  -70.100; -389.000; -518.000
295.728;   74.200; -292.000; -165.000
295.866;  -27.600;  -36.000;  -51.000
296.005; -116.300; -584.000; -341.000
296.143; -149.500; -558.000; -596.000
296.282; -197.500; -957.000; -881.000
296.420; -197.800; -657.000; -557.000
296.559; -177.800; -892.000; -633.000
296.697;  -24.500; -847.000; -665.000
296.835;   72.400;-1141.000;-1002.000
296.974;   91.100;  -23.000;   39.000
297.112;   18.000; -443.000; -504.000
297.251; -138.200; -815.000; -755.000
297.389;  150.900; -576.000; -438.000
297.527;   75.300; -145.000;  -83.000
297.666;  -56.200; -486.000; -438.000
297.804;  -83.700; -404.000; -264.000
297.942;  -20.900; -136.000; -161.000
298.081;   14.800; -183.000;   63.000
298.219;  145.400;  -17.000;  -19.000
298.357;   99.600; -144.000;  -71.000
298.495;    1.000; -810.000; -812.000
298.634;  128.800;  245.000;  219.000
298.772;  100.200; -220.000; -338.000
298.910;  -63.400; -309.000; -182.000
299.048;   14.300; -130.000; -153.000
299.187;  -47.900; -350.000; -250.000
299.325;   75.800;   52.000;  122.000
299.463;   40.700; -389.000; -299.000
299.601;  200.000; -327.000; -271.000
299.739; -199.000; -908.000; -883.000
299.877; -146.500; -791.000; -703.000
300.016; -153.900;-1095.000; -935.000
300.154;  278.400;  -19.000; -161.000
300.292;   73.200; -428.000; -348.000
300.430;   71.700; -408.000; -291.000
300.568; -200.100; -940.000; -874.000
300.706;  -99.900; -366.000; -469.000
300.844; -171.000;-1108.000; -979.000
300.982;  266.900;  246.000;  282.000
301.120; -226.200; -965.000; -866.000
301.258; -137.400; -812.000; -705.000
301.396;   49.900;  104.000;  -41.000
301.534;  111.300; -218.000; -293.000
301.672;  -36.800; -664.000; -521.000
301.810;   14.300; -613.000; -545.000
301.948;  250.200;   53.000;  149.000
302.086; 1007.000; -250.000;  -32.000
302.224; 1501.700; -610.000; -585.000
302.362;   39.100; -558.000; -622.000
302.500;  -79.600; -923.000; -893.000
302.638;  174.800;  128.000;  245.000
302.776;   35.200; -352.000; -408.000
302.913;  149.900;  447.000;  236.000
303.051;    1.700;  -86.000;  -23.000
303.189;  109.700;   90.000;  118.000
303.327;  -60.500; -341.000; -256.000
303.465; -149.300; -832.000; -588.000
303.603; -162.900; -805.000; -604.000
303.740;  218.800;  417.000;  241.000
303.878;  -17.500; -800.000; -759.000
304.016; -145.300; -915.000; -790.000
304.154; -256.500;-1123.000;-1152.000
304.291;  -55.500; -505.000; -554.000
304.429;   65.000;  102.000;   74.000
304.567; -223.200; -908.000; -893.000
304.705;  -62.200; -408.000; -515.000
304.842;  136.700; -616.000; -540.000
304.980;  135.500;  215.000;   35.000
305.118;   91.100; -367.000; -365.000
305.255; -158.000; -945.000; -927.000
305.393;  158.800;  178.000;  239.000
305.531; -209.200;-1173.000; -956.000
305.668; -113.400; -663.000; -582.000
305.806;  150.100; -358.000; -439.000
305.943;  192.000; -629.000; -637.000
306.081;  100.900; -378.000; -267.000
306.219; -211.000; -863.000; -748.000
306.356;   35.400;  158.000;   27.000
306.494;  315.300;  981.000;  761.000
306.631;   33.800;  -11.000;  -55.000
306.769;   26.200; -613.000; -485.000
306.906;   36.800; -284.000; -258.000
307.044;  -61.900; -473.000; -488.000
307.181;  -84.900; -410.000; -332.000
307.319;   67.500;  112.000;   87.000
307.456; -322.100;-1191.000;-1153.000
307.594; -176.800; -980.000; -727.000
307.731;    1.900; -371.000; -164.000
307.868;   58.800;  -15.000;   20.000
308.006; -268.500; -961.000; -847.000
308.143; -111.600; -618.000; -330.000
308.281;  346.900;  -37.000; -254.000
308.418;  -15.000; -748.000; -640.000
308.555; -110.700; -400.000; -250.000
308.693; -101.500; -577.000; -573.000
308.830; -186.500; -712.000; -657.000
308.967;   22.500; -215.000;  -95.000
309.105;  -64.100; -507.000; -396.000
309.242;   89.800; -468.000; -367.000
309.379;  649.800; -577.000; -655.000
309.517;  -73.700; -936.000; -948.000
309.654; -169.600; -910.000; -734.000
309.791; -107.100; -662.000; -580.000
309.928; -212.100; -977.000; -914.000
310.065;  408.000;  819.000;  697.000
310.203;  -58.700; -825.000; -850.000
310.340;   38.600; -465.000; -321.000
310.477; -145.600; -412.000; -516.000
310.614;  -83.600; -383.000; -473.000
310.751; -120.400; -427.000; -518.000
310.889;   -2.600;    1.000;   11.000
311.026; -277.500;-1161.000; -939.000
311.163;  -62.400; -386.000; -380.000
311.300; -131.300; -512.000; -479.000
311.437; -103.400; -658.000; -619.000
311.574; -287.700;-1226.000; -985.000
311.711;  -85.100; -595.000; -433.000
311.848;  -46.900; -380.000; -388.000
311.985;   76.300;  270.000;   93.000
312.122; -228.600; -932.000; -762.000
312.259; -194.600; -941.000; -994.000
312.396; -113.300; -508.000; -551.000
312.533; -117.900; -812.000; -790.000
312.670; -248.400;-1070.000; -898.000
312.807;  -27.000; -352.000; -367.000
312.944; -137.800; -513.000; -611.000
313.081;  -29.700; -150.000; -415.000
313.218; -215.400;-1111.000; -867.000
313.355;   43.600; -531.000; -449.000
313.492;   -0.400; -455.000; -292.000
313.629;  319.600;  815.000;  735.000
313.766; -333.200;-1176.000;-1008.000
313.902;   11.300; -186.000;   21.000
314.039;  -82.300; -372.000; -289.000
314.176;   97.100;  286.000;  192.000
314.313; -139.900; -569.000; -473.000
314.450; -128.600; -788.000; -684.000
314.587;  -75.900; -468.000; -480.000
314.723;   38.900;  -78.000;  130.000
314.860;   93.500;  318.000;  332.000
314.997;  102.100;  223.000;  142.000
315.134;  -44.100; -385.000; -368.000
315.270;  -36.600; -480.000; -496.000
315.407; -243.400;-1094.000; -967.000
315.544;  -69.000; -657.000; -538.000
315.681; -119.000; -681.000; -565.000
315.817;   53.800; -133.000; -176.000
315.954;   57.900; -613.000; -392.000
316.091; -226.600;-1045.000;-1023.000
316.227;   -7.800;  -71.000; -179.000
316.364;   23.100;   23.000;    6.000
316.500;  -77.100; -113.000; -300.000
316.637;  -43.900; -181.000; -302.000
316.774; -145.600; -625.000; -358.000
316.910; -142.000; -598.000; -629.000
317.047; -107.500; -487.000; -351.000
317.183;  -80.600; -435.000; -566.000
317.320;    0.400; -367.000; -321.000
317.456;  -87.000; -733.000; -805.000
317.593; -146.200; -598.000; -641.000
317.729;   44.500;  168.000;  -67.000
317.866; -390.500;-1434.000;-1285.000
318.002; -152.700; -708.000; -948.000
318.139; -196.600; -883.000; -867.000
318.275; -215.600;-1003.000; -738.000
318.412; -113.500; -517.000; -336.000
318.548;  -78.400; -751.000; -720.000
318.685; -205.400; -985.000; -888.000
318.821; -166.500; -762.000; -735.000
318.957;  -30.300;   34.000;  -23.000
319.094;  113.900;  297.000;  154.000
319.230; -114.000; -756.000; -742.000
319.367;  197.900; -471.000; -520.000
319.503;  103.100; -538.000; -436.000
319.639; -161.400; -877.000; -793.000
319.775; -113.900; -750.000; -685.000
319.912;  -75.800; -424.000; -519.000
320.048; -185.600;-1184.000;-1184.000
320.184;  175.700;   59.000;   70.000
320.321;  -73.000; -497.000; -467.000
320.457;  161.200;  475.000;  662.000
320.593; -124.400; -375.000; -382.000
320.729; -190.200; -732.000; -734.000
320.866; -126.900; -577.000; -635.000
321.002; -110.000; -759.000; -809.000
321.138;  -15.700; -135.000; -211.000
321.274;  133.400; -148.000; -115.000
321.410;  -61.000; -585.000; -353.000
321.546;  -72.900;-1011.000; -911.000
321.683;  145.800;  400.000;  185.000
321.819;   14.700;  -48.000; -117.000
321.955; -209.700; -743.000; -722.000
322.091;  -71.000; -585.000; -540.000
322.227;   13.700; -382.000; -202.000
322.363;  -12.900; -320.000; -215.000
322.499;  -58.600; -343.000; -331.000
322.635;  305.300;  636.000;  443.000
322.771;   65.200; -139.000;   12.000
322.907;  198.600;  129.000;  327.000
323.043;  -19.200; -115.000; -206.000
323.179;  -34.500; -394.000; -363.000
323.315;  -11.600; -401.000; -371.000
323.451;  174.300; -328.000; -236.000
323.587;  127.500;  -60.000;  -77.000
323.723;    1.100; -682.000; -601.000
323.859;  -42.700; -258.000;  -76.000
323.995;  -50.300; -467.000; -409.000
324.131; -243.100; -967.000; -892.000
324.267;  -34.400; -254.000; -276.000
324.402; -241.400; -960.000; -983.000
324.538;   19.100; -279.000; -104.000
324.674;   67.200;  164.000;   77.000
324.810;  299.000;  226.000;  308.000
324.946;   29.000; -810.000; -658.000
325.082; -125.700; -568.000; -475.000
325.217;   -4.000;  -62.000;   16.000
325.353; -194.700; -764.000; -659.000
325.489; -172.400; -540.000; -506.000
325.625; -138.500; -579.000; -525.000
325.760;  145.300;  517.000;  376.000
325.896;   -0.100; -515.000; -702.000
326.032;  -87.100; -403.000; -352.000
326.168;  -82.800; -462.000; -369.000
326.303;  -99.600; -352.000; -461.000
326.439;   -2.800; -336.000; -276.000
326.575;   -0.800; -190.000;  -29.000
326.710;   31.600; -156.000;  -30.000
326.846;    1.200;  146.000;  103.000
326.982; -136.900; -530.000; -548.000
327.117; -110.800; -481.000; -442.000
327.253; -155.800; -745.000; -742.000
327.388; -274.700;-1137.000;-1153.000
327.524;  -81.300; -811.000; -578.000
327.659;  -38.800;  -58.000;  -22.000
327.795;  -19.300;   69.000;   45.000
327.931; -124.100; -723.000; -499.000
328.066;    3.800; -417.000; -276.000
328.202;   15.000;   12.000; -129.000
328.337;  259.600;  957.000;  713.000
328.473;   -5.500;  -12.000;  -74.000
328.608;    8.600; -256.000; -267.000
328.743; -182.200; -799.000; -664.000
328.879;   78.200;  214.000;  114.000
329.014; -103.800; -102.000; -122.000
329.150; -150.600; -358.000; -483.000
329.285; -124.100; -465.000; -466.000
329.421;  -61.400; -548.000; -246.000
329.556;  -11.800;  -36.000;   85.000
329.691; -131.900; -633.000; -615.000
329.827; -143.200; -626.000; -480.000
329.962;  -40.800;  131.000; -301.000
330.097; -152.800; -673.000; -585.000
330.233;  -83.900; -410.000; -223.000
330.368; -203.400; -839.000; -628.000
330.503;   -2.000;    3.000;   98.000
330.638;   -3.200;  -93.000; -125.000
330.774; -110.900; -609.000; -530.000
330.909;  -85.800; -434.000; -244.000
331.044; -153.700; -714.000; -708.000
331.179; -330.500;-1217.000;-1109.000
331.315;   66.200;   77.000;   20.000
331.450;   48.900;  157.000;  285.000
331.585; -145.500; -805.000; -706.000
331.720; -133.800; -510.000; -460.000
331.855;    7.600;  -35.000; -102.000
331.990;  512.800;   62.000;  138.000
332.126;  289.900; -110.000;   71.000
332.261;  -23.500; -379.000; -265.000
332.396;   34.300; -135.000; -242.000
332.531; -169.000;-1074.000;-1031.000
332.666;   92.700; -519.000; -363.000
332.801; -195.200; -726.000; -807.000
332.936;  -19.900; -192.000; -122.000
333.071; -212.100; -870.000; -817.000
333.206;   80.800;  307.000;  379.000
333.341;   93.600;  344.000;  418.000
333.476; -151.500; -627.000; -623.000
333.611;  -81.100; -251.000; -173.000
333.746;  -35.400; -381.000; -464.000
333.881; -205.200; -973.000; -935.000
334.016; -227.600; -936.000; -917.000
334.151; -238.800; -746.000; -702.000
334.286;   69.300;  152.000;  186.000
334.421;  -19.600; -125.000; -178.000
334.556; -145.100; -611.000; -567.000
334.690; -156.200; -631.000; -577.000
334.825;  129.200;  381.000;   83.000
334.960; -129.700; -285.000; -413.000
335.095;   35.600;  135.000;  -91.000
335.230; -199.500; -722.000; -738.000
335.365; -259.200;-1084.000; -990.000
335.499; -242.900;-1108.000;-1037.000
335.634;   46.500;    9.000;  534.000
335.769; -219.300; -755.000; -720.000
335.904;  -88.600; -603.000; -561.000
336.038; -120.000; -735.000; -657.000
336.173; -236.100;-1206.000;-1194.000
336.308;   28.300; -116.000; -189.000
336.443;   61.700; -544.000; -634.000
336.577; -179.500; -936.000; -787.000
336.712;  111.300;   -4.000;  -12.000
336.847;  -81.700; -724.000; -607.000
336.981;   79.800; -272.000; -208.000
337.116;  481.800;  615.000;  501.000
337.250;  207.600; -434.000; -421.000
337.385;  499.800; -297.000; -208.000
337.520;  188.800; -632.000; -603.000
337.654;  -39.100; -215.000; -126.000
337.789; -198.300; -989.000; -933.000
337.923;  -10.400; -104.000; -205.000
338.058; -133.700; -673.000; -738.000
338.192;  -82.300; -611.000; -488.000
338.327;   39.600;  -18.000; -155.000
338.461;  -89.500; -299.000; -469.000
338.596; -151.900; -780.000; -638.000
338.730; -177.900; -767.000; -803.000
338.865;  236.400;  -46.000; -140.000
338.999;  -81.100; -846.000; -702.000
339.134;  -53.100; -634.000; -536.000
339.268;   12.700; -741.000; -603.000
339.403;  728.600; -740.000; -775.000
339.537;  241.800; -894.000; -820.000
339.671; -198.500; -829.000; -813.000
339.806;  -92.000; -556.000; -512.000
339.940;   64.200; -261.000; -235.000
340.074; -162.900; -685.000; -510.000
340.209;  -59.600; -351.000; -230.000
340.343; -138.400; -517.000; -573.000
340.477;  352.700;  998.000; 1036.000
340.612; -102.100;-1033.000; -900.000
340.746;  280.200; -199.000; -243.000
340.880; -122.800; -924.000; -785.000
341.014;   -1.700;  -45.000; -154.000
341.149; -209.000; -756.000; -718.000
341.283; -184.700; -839.000; -754.000
341.417; -165.600;-1124.000; -938.000
341.551;  180.100; -768.000; -708.000
341.685; -103.700; -633.000; -611.000
341.820;  -68.600; -562.000; -493.000
341.954;  -65.200; -218.000; -349.000
342.088; -274.500;-1102.000;-1019.000
342.222;  127.500;  565.000;  618.000
342.356; -132.600; -395.000; -335.000
342.490; -182.100; -880.000; -841.000
342.624;  -43.500; -339.000; -242.000
342.758;   -1.200; -364.000; -312.000
342.892; -119.300; -710.000; -585.000
343.026;  -50.800;  -58.000; -116.000
343.160;  -79.900; -426.000; -376.000
343.294; -126.800; -474.000; -337.000
343.428;  -64.900; -488.000; -448.000
343.562;   18.500; -172.000;  -23.000
343.696;  -18.700; -385.000; -314.000
343.830;  -47.500; -362.000; -356.000
343.964;   33.500; -231.000; -168.000
344.098; 1399.800;  199.000;   70.000
344.232; 1163.000; -266.000; -127.000
344.366;  157.500; -567.000; -453.000
344.500;   87.400; -665.000; -744.000
344.634;   62.400; -324.000; -164.000
344.768;  -14.900; -531.000; -341.000
344.902;   56.500;  278.000;  256.000
345.035; -107.700; -556.000; -496.000
345.169; -251.500; -933.000; -656.000
345.303;  -34.700; -308.000; -482.000
345.437; -127.000; -826.000; -717.000
345.571; -103.500; -675.000; -594.000
345.704;  -89.600; -309.000; -532.000
345.838;    1.900; -331.000; -284.000
345.972;  -90.500; -543.000; -495.000
346.106;  357.600; -179.000; -190.000
346.239;  795.100; -312.000; -243.000
346.373;   17.000; -343.000; -302.000
346.507; -248.000; -950.000; -962.000
346.640;  276.600;  -30.000;   13.000
346.774;  -87.800; -650.000; -797.000
346.908;   -6.300; -138.000;  -11.000
347.041; -160.300; -646.000; -593.000
347.175;   40.600;  259.000;   27.000
347.309; -114.000; -698.000; -628.000
347.442; -200.900; -883.000; -732.000
347.576;  503.200;  670.000;  668.000
347.709;  329.300; -123.000;  -52.000
347.843; -186.300; -933.000; -825.000
347.976;  126.200;  235.000;  294.000
348.110; -349.600;-1268.000;-1186.000
348.243; -177.100; -679.000; -772.000
348.377;   32.100;  -26.000;   60.000
348.510;  154.700;  403.000;  540.000
348.644;  -86.900;  -37.000; -159.000
348.777;   83.600;  180.000;  191.000
348.911;  -62.000; -142.000; -112.000
349.044;  300.100;  471.000;  448.000
349.178;  156.400;-1069.000;-1006.000
349.311;  253.200;  141.000;  255.000
349.444;    4.400; -927.000; -813.000
349.578;  -11.800; -347.000; -200.000
349.711; -207.000; -959.000; -862.000
349.845;    6.000; -661.000; -591.000
349.978; -261.500;-1224.000;-1137.000
350.111; -134.500; -546.000; -612.000
350.244; -125.500; -596.000; -700.000
350.378;   24.300; -392.000; -393.000
350.511;  -83.000; -393.000; -426.000
350.644; -170.400; -808.000; -806.000
350.778;   69.200;  168.000;  104.000
350.911;   13.100;  134.000;  140.000
351.044; -162.900; -685.000; -615.000
351.177;  -34.700; -321.000; -281.000
351.310;    7.900;    3.000; -131.000
351.444; -193.000; -888.000; -788.000
351.577;  232.400;  140.000;   90.000
351.710;  246.800;  593.000;  417.000
351.843;  -31.700; -165.000;  -77.000
351.976;   43.900;  149.000;  -79.000
352.109; -162.800; -621.000; -612.000
352.242;   -8.500; -464.000; -419.000
352.376; -111.900; -580.000; -636.000
352.509;  276.300; -437.000; -356.000
352.642;  -44.200; -654.000; -604.000
352.775;  121.300; -141.000;  -98.000
352.908; -234.300; -933.000; -904.000
353.041; -207.800; -814.000; -824.000
353.174; -110.100; -551.000; -424.000
353.307; -166.700; -753.000; -764.000
353.440;  169.900;  541.000;  453.000
353.573; -206.400; -957.000;-1008.000
353.706;  -30.100; -384.000; -558.000
353.839;  -11.000; -264.000; -220.000
353.971; -162.500; -657.000; -512.000
354.104; -157.400; -896.000; -835.000
354.237;  -53.400; -627.000; -662.000
354.370; -157.400; -846.000; -879.000
354.503; -349.900;-1231.000;-1308.000
354.636;  -44.400; -529.000; -348.000
354.769; -225.700; -937.000; -860.000
354.902;   -1.600; -230.000; -139.000
355.034;   11.600; -164.000; -220.000
355.167;   15.300; -262.000; -162.000
355.300; -189.800;-1061.000; -880.000
355.433; 1911.000;  -71.000;  -14.000
355.565; 2928.700; -402.000; -384.000
355.698;  754.100; -356.000; -296.000
355.831;  -17.600; -882.000; -801.000
355.964;  186.900; -285.000; -170.000
356.096; -171.000; -856.000; -843.000
356.229;   -4.300; -523.000; -530.000
356.362;  628.700; -373.000; -266.000
356.494; 1144.200; -229.000; -162.000
356.627;  823.000;  269.000;  377.000
356.760; 1283.200;  120.000;   53.000
356.892; 1886.700; -286.000; -601.000
357.025; 1090.400;  403.000;  389.000
357.157;  943.600; -167.000; -179.000
357.290; 1290.000; -856.000; -713.000
357.423;  328.900; -667.000; -556.000
357.555;  221.100; -217.000; -228.000
357.688;  239.700; -483.000; -364.000
357.820;  636.000; -870.000; -877.000
357.953; 5805.800; -563.000; -589.000
358.085; 1217.900; -632.000; -612.000
358.218; 1748.200;-1131.000; -932.000
358.350;  356.500;  -58.000;  312.000
358.483; -231.000;-1300.000;-1187.000
358.615;  -41.400;-1182.000;-1078.000
358.747; -132.800;-1187.000;-1058.000
358.880;   18.700; -810.000; -744.000
359.012;    7.300; -376.000; -202.000
359.145;  -45.600; -480.000; -511.000
359.277;   69.000; -962.000; -913.000
359.409; 4850.900;  536.000;  231.000
359.542; 1222.500; -738.000; -688.000
359.674;  129.600;   46.000;   13.000
359.806;  -95.300; -565.000; -438.000
359.939;  -70.700; -617.000; -516.000
360.071;   -1.400; -583.000; -579.000
360.203;   -4.400; -411.000; -364.000
360.335;  111.900;  164.000;  -16.000
360.468;  340.600; -249.000; -307.000
360.600; 4017.700; -547.000; -454.000
360.732; 5427.400; -546.000; -423.000
360.864;  699.700;-1216.000;-1044.000
360.996;  498.500; -516.000; -554.000
361.129;   87.200; -389.000; -598.000
361.261;  105.400;  110.000; -113.000
361.393;  -24.900; -252.000; -214.000
361.525;  101.700;   94.000;  244.000
361.657;  -73.100; -821.000; -703.000
361.789;   34.200; -139.000; -155.000
361.921;  354.500; -642.000; -593.000
362.053;  508.900;  524.000;  541.000
362.185;  132.500;  288.000;   72.000
362.318; -134.900; -709.000; -705.000
362.450;  218.900;  294.000;  444.000
362.582;   87.500; -913.000; -870.000
362.714;  -68.400; -353.000; -332.000
362.846; -138.100; -606.000; -490.000
362.978; -223.200; -941.000; -811.000
363.109;   79.600; -161.000; -260.000
363.241;  689.400; -739.000; -749.000
363.373;  842.100; -649.000; -564.000
363.505; 1321.100; -186.000;  -91.000
363.637;  373.000; -787.000; -601.000
363.769; -243.300;-1067.000;-1080.000
363.901;  -95.500; -596.000; -654.000
364.033; -206.400;-1103.000;-1062.000
364.165;   61.800; -283.000; -283.000
364.296;  161.200; -316.000; -177.000
364.428;  147.000;-1344.000;-1220.000
364.560;  -82.300; -679.000; -661.000
364.692;  -95.200; -738.000; -835.000
364.824;  418.600; -588.000; -456.000
364.955;  821.300; -402.000; -564.000
365.087; 1847.500;-1097.000; -852.000
365.219;   85.500; -686.000; -816.000
365.351;  -82.200; -526.000; -572.000
365.482;  153.300;  300.000;  240.000
365.614;  -66.100; -402.000; -314.000
365.746; -194.300; -729.000; -752.000
365.877; -177.700; -706.000; -672.000
366.009;  570.100;  -35.000;  -62.000
366.141; -130.500;-1249.000;-1134.000
366.272; -190.000; -803.000; -719.000
366.404; -204.100;-1005.000; -874.000
366.535;   11.100; -139.000;  -12.000
366.667; -162.000; -644.000; -649.000
366.799;   93.100;  353.000;  203.000
366.930; -199.800; -862.000; -996.000
367.062;  281.800; -639.000; -613.000
367.193;  324.900; -872.000; -842.000
367.325;  -62.100; -580.000; -684.000
367.456;  105.300; -246.000;   31.000
367.588;  362.500; -371.000; -318.000
367.719;   87.600;  -44.000;  -45.000
367.851;  -22.100; -222.000; -241.000
367.982; -132.100; -875.000; -732.000
368.113;  163.400; -475.000; -358.000
368.245; -217.700; -960.000; -841.000
368.376;    4.500; -254.000; -302.000
368.508;  -28.600; -188.000; -263.000
368.639; -224.000;-1166.000;-1034.000
368.770;  -44.800; -670.000; -589.000
368.902; -111.500; -836.000; -926.000
369.033; -206.600; -906.000; -855.000
369.164;  -89.200; -720.000; -653.000
369.296; -156.400; -452.000; -601.000
369.427;   42.500; -209.000; -144.000
369.558;  -74.200; -593.000; -377.000
369.689; -114.500; -721.000; -569.000
369.821; -231.100; -951.000; -845.000
369.952;   29.100;   42.000; -108.000
370.083;  -75.400; -229.000; -108.000
370.214; -132.000; -735.000; -650.000
370.345;   40.500;   65.000;   81.000
370.477; -146.300; -810.000; -790.000
370.608;  361.100; -328.000; -264.000
370.739; -144.500;-1233.000;-1292.000
370.870; -118.400;-1102.000; -923.000
371.001;  165.500; -378.000; -467.000
371.132; -149.000; -754.000; -735.000
371.263;   11.100;  -42.000; -148.000
371.394; -238.000; -841.000; -748.000
371.525;   83.600;  345.000;  225.000
371.657; -151.900; -808.000; -670.000
371.788;  164.000;  103.000;  199.000
371.919;  313.400; -384.000; -304.000
372.050; 5699.100;  -91.000; -156.000
372.181; 1611.300; -188.000; -294.000
372.311;  611.200;   42.000; -127.000
372.442;   43.400; -457.000; -451.000
372.573;    0.400; -444.000; -340.000
372.704; -246.600;-1008.000; -980.000
372.835;  169.800; -228.000; -289.000
372.966; -112.700; -646.000; -554.000
373.097; -102.400; -575.000; -711.000
373.228;  -72.800; -717.000; -542.000
373.359;  191.200; -824.000; -536.000
373.490; 1459.700; -881.000; -727.000
373.620; 1753.500;-1001.000; -803.000
373.751; 2753.700; -332.000; -396.000
373.882; 1166.300; -663.000; -733.000
374.013;   81.100; -449.000; -262.000
374.143;  -78.800; -581.000; -659.000
374.274; -199.300; -987.000; -908.000
374.405;  312.500; -388.000; -276.000
374.536;  683.800; -526.000; -387.000
374.666; 1697.700; -759.000; -807.000
374.797;  265.000; -817.000; -868.000
374.928; 1368.300; -710.000; -560.000
375.058; 1392.300; -535.000; -500.000
375.189;  141.300;  -59.000;  -93.000
375.320; -174.700; -928.000;-1034.000
375.450;  -55.800; -625.000; -616.000
375.581;  -62.800; -526.000; -436.000
375.712;  -22.500; -574.000; -250.000
375.842;  475.300; -438.000; -415.000
375.973;  318.500; -554.000; -513.000
376.103;  -61.800; -665.000; -648.000
376.234;  -93.400; -531.000; -552.000
376.364;  -85.700; -944.000; -867.000
376.495;  637.200;  925.000;  529.000
376.625;   -4.700; -472.000; -485.000
376.756;  105.900; -709.000; -678.000
376.886; -174.200;-1178.000;-1026.000
377.017;  118.000;-1048.000;-1061.000
377.147;  750.800; -786.000; -782.000
377.278;  144.100;  174.000;  228.000
377.408; -209.400; -801.000; -815.000
377.538; -177.100; -707.000; -693.000
377.669; -116.300; -537.000; -613.000
377.799; -131.000; -645.000; -635.000
377.929; -104.000; -610.000; -428.000
378.060; -212.000; -781.000; -847.000
378.190;  -70.800; -726.000; -531.000
378.320;  -66.200; -401.000; -406.000
378.451;    8.700; -131.000;  -22.000
378.581;   20.500;  -67.000; -110.000
378.711;  344.900; 1035.000;  866.000
378.841;  -37.400; -533.000; -675.000
378.972; -161.700; -871.000; -751.000
379.102;  -42.600; -652.000; -579.000
379.232;  -16.600; -126.000;  -73.000
379.362; -167.300;-1001.000; -885.000
379.492;   23.500; -373.000; -424.000
379.623;  197.100;    0.000;  111.000
379.753; -174.800;-1107.000; -974.000
379.883;  357.800;   59.000;  156.000
380.013;  -11.700;-1081.000;-1017.000
380.143; -205.200;-1097.000;-1056.000
380.273; -172.600; -985.000; -861.000
380.403;   22.200; -344.000; -257.000
380.533;  -39.800; -651.000; -664.000
380.663;  207.100;  173.000;  128.000
380.793; -214.300;-1027.000;-1074.000
380.923;   23.000; -103.000;  -34.000
381.053; -155.000; -613.000; -623.000
381.183;   -7.900; -106.000; -248.000
381.313;   73.300; -656.000; -470.000
381.443;   72.400; -692.000; -473.000
381.573;  321.700; -402.000; -409.000
381.703;  396.800;-1249.000;-1095.000
381.833; -246.800;-1454.000;-1336.000
381.963;  220.800; -134.000;  -87.000
382.093; 2165.000; -925.000; -909.000
382.223;  613.700; -713.000; -602.000
382.353;  -23.500; -801.000; -608.000
382.482;  555.600;-1091.000; -964.000
382.612; 1208.900; -872.000; -644.000
382.742;  656.800; -695.000; -622.000
382.872;  402.600; -565.000; -551.000
383.002;  170.100;  347.000; -132.000
383.131;   11.600; -226.000; -160.000
383.261;  -53.600; -706.000; -768.000
383.391;  572.200; -552.000; -377.000
383.521; 6479.400;  451.000;  263.000
383.650; 1446.100; -947.000; -904.000
383.780;   -5.500; -783.000; -656.000
383.910;  297.900;  880.000;  802.000
384.039;   54.900; -794.000; -656.000
384.169;  277.100;-1205.000;-1017.000
384.299;  -29.900; -650.000; -662.000
384.428; -140.400; -764.000; -680.000
384.558;  -35.600; -308.000; -275.000
384.687;  -76.800; -414.000; -334.000
384.817;   78.800;   75.000;   -2.000
384.947;   38.000; -234.000; -141.000
385.076;  565.400;  982.000;  912.000
385.206;  225.300;  369.000;  480.000
385.335;  -26.900; -549.000; -417.000
385.465;  -88.400; -655.000; -663.000
385.594;  280.400;  -53.000;  -44.000
385.724;  640.000; -868.000; -838.000
385.853;  235.500; -296.000; -270.000
385.982; 2159.200; -743.000; -787.000
386.112; 3209.700;-1052.000; -871.000
386.241;  193.300; -307.000; -312.000
386.371;  106.100; -174.000;  -87.000
386.500;    1.500; -825.000; -789.000
386.629;   83.600; -874.000; -817.000
386.759;  164.900;  -43.000;   68.000
386.888;   59.700; -170.000; -250.000
387.017; -114.600; -648.000; -620.000
387.147; -134.500; -771.000; -798.000
387.276;   41.900; -410.000; -397.000
387.405;   68.000; -398.000; -342.000
387.535;  -38.300; -452.000; -361.000
387.664;  -76.900; -692.000; -620.000
387.793;  138.400; -198.000; -113.000
387.922;  872.300;  255.000;  200.000
388.052;   60.100; -576.000; -423.000
388.181;   45.000; -342.000; -472.000
388.310;  -27.400; -889.000; -710.000
388.439;  -64.200; -749.000; -742.000
388.568;  358.500;  365.000;  244.000
388.697; 1573.000; -756.000; -653.000
388.826;  282.800; -768.000; -666.000
388.956;  118.000; -285.000; -307.000
389.085;  -18.200; -347.000; -287.000
389.214; -186.600; -842.000; -872.000
389.343;  -77.200; -645.000; -413.000
389.472;  838.800;  126.000;  149.000
389.601; 1008.400;   91.000;    0.000
389.730;    5.900; -568.000; -687.000
389.859;  142.800;  226.000;   46.000
389.988;  314.300; -423.000; -408.000
390.117;  238.200; -168.000; -146.000
390.246;   19.900; -331.000; -320.000
390.375;  169.200; -673.000; -626.000
390.504;  -79.100; -703.000; -621.000
390.633; -135.600; -672.000; -726.000
390.761; -116.100; -732.000; -645.000
390.890;   63.600;   -4.000; -130.000
391.019;   12.700; -421.000; -441.000
391.148; -221.900; -826.000; -855.000
391.277;  -92.200; -576.000; -493.000
391.406; -137.900; -821.000; -805.000
391.534;   96.300;  574.000; -301.000
391.663;  -89.200; -583.000; -645.000
391.792; -142.200; -673.000; -701.000
391.921;  235.800;   -3.000;   15.000
392.050;  293.100; -287.000; -228.000
392.178; -109.600;-1206.000;-1061.000
392.307;  240.300; -758.000; -712.000
392.436;  118.600; -427.000; -641.000
392.564;   78.000;  166.000;   -6.000
392.693; -168.400; -860.000; -682.000
392.822;  352.000; -529.000; -534.000
392.950;  112.300; -880.000; -714.000
393.079;  505.200; -188.000; -328.000
393.208;   18.100; -488.000; -511.000
393.336;   17.400; -170.000; -145.000
393.465;  -63.300; -317.000; -199.000
393.593;   71.400;   62.000;   79.000
393.722; -288.900;-1121.000; -916.000
393.850;    0.800; -188.000;  -61.000
393.979; -250.000; -926.000; -805.000
394.107;  -75.900; -517.000; -537.000
394.236;  -22.200; -570.000; -507.000
394.364;  488.300;  383.000;  206.000
394.493;  768.600; -911.000; -767.000
394.621;   20.000; -955.000; -916.000
394.750; 1513.900; -873.000; -923.000
394.878; 6091.000; -247.000; -149.000
395.007; 7801.600; -721.000; -807.000
395.135;  593.600; -790.000; -721.000
395.263; -123.700;-1038.000;-1040.000
395.392;   92.300;  -25.000; -107.000
395.520; -151.300; -818.000; -679.000
395.648; -154.900; -865.000; -915.000
395.777;   -2.100; -366.000; -405.000
395.905;  -60.100; -449.000; -564.000
396.033;  105.700;  217.000;  172.000
396.162; 1263.200; -399.000; -453.000
396.290; 1037.100;  -17.000;   -2.000
396.418;  185.200; -555.000; -514.000
396.546; -125.300; -571.000; -466.000
396.674; -161.200; -850.000; -878.000
396.803;   38.200;  -72.000;  -23.000
396.931;  185.500; -179.000; -199.000
397.059;   58.600;-1026.000; -989.000
397.187; -203.000;-1026.000; -975.000
397.315; -235.300; -884.000; -649.000
397.443; -152.300; -592.000; -443.000
397.572; -145.600; -578.000; -424.000
397.700;  -21.500; -607.000; -614.000
397.828;   81.000;  120.000;  -90.000
397.956;  -34.400; -508.000; -478.000
398.084; -114.300; -767.000; -626.000
398.212;  122.200;  137.000;  124.000
398.340;   37.900;  -56.000;  159.000
398.468;   38.900; -390.000; -169.000
398.596; -241.400; -993.000; -953.000
398.724; -215.700; -762.000; -767.000
398.852; -272.400;-1024.000; -976.000
398.980;  -68.000; -560.000; -560.000
399.108;  -91.600; -982.000; -735.000
399.236;   97.600;   13.000;    8.000
399.363;   59.700;  222.000;  196.000
399.491; -109.000; -404.000; -398.000
399.619; -224.600; -829.000; -800.000
399.747; -178.100; -859.000; -771.000
399.875;  188.800;  220.000;  234.000
400.003;  -67.700; -359.000; -284.000
400.130; -130.200; -421.000; -341.000
400.258;   -9.400;  -83.000;   38.000
400.386;  -81.800; -352.000; -168.000
400.514;  -65.900; -526.000; -587.000
400.641; -157.300; -928.000; -802.000
400.769; -237.100; -979.000; -888.000
400.897; -171.000; -838.000; -793.000
401.025;   10.500; -166.000; -152.000
401.152;   22.300;  220.000;   38.000
401.280;  -91.900; -430.000; -429.000
401.408; -172.400; -712.000; -576.000
401.535; -161.300; -735.000; -758.000
401.663; -354.300;-1134.000;-1054.000
401.790; -119.500; -514.000; -525.000
401.918;  146.100;  436.000;  405.000
402.046;   20.300;  134.000;  122.000
402.173;   -6.300;  -18.000;    7.000
402.301;  -87.700; -519.000; -397.000
402.428;  154.200;  528.000;  383.000
402.556; -230.300;-1188.000; -913.000
402.683;  -37.800;  -20.000;   -1.000
402.811;   22.600;  -37.000; -206.000
402.938;   12.500;   20.000;   27.000
403.066;  313.900; -574.000; -558.000
403.193;  528.700;  299.000;  239.000
403.321;  418.200; -396.000; -574.000
403.448;  536.300;   83.000;   27.000
403.575;  257.800;  -90.000;  -46.000
403.703; -172.100; -732.000; -557.000
403.830;  -94.500; -531.000; -496.000
403.957; -225.400;-1117.000;-1023.000
404.085;   72.200;  -61.000; -172.000
404.212;  241.300;  -50.000;   63.000
404.339;  578.300; -566.000; -306.000
404.467;11921.000; -612.000; -524.000
404.594; 7055.800; -287.000; -227.000
404.721; 1580.600; -869.000; -764.000
404.848;  196.700; -113.000; -202.000
404.976; -144.200; -856.000; -783.000
405.103;   25.900;  -14.000;  -82.000
405.230;   48.300;  190.000;  226.000
405.357;  114.900;  117.000;   44.000
405.484;  551.900;  -49.000;    5.000
405.612;  109.300; -548.000; -563.000
405.739;  -97.800; -488.000; -243.000
405.866;  244.600;  669.000;  385.000
405.993;  -35.700; -398.000; -102.000
406.120; -217.200; -801.000; -887.000
406.247;  -68.800; -323.000; -342.000
406.374;  827.800;  540.000;  629.000
406.501;  131.500; -632.000; -702.000
406.628; -102.100; -621.000; -589.000
406.755; -149.000; -803.000; -620.000
406.882;  -35.600; -228.000; -277.000
407.009; -180.000; -719.000; -628.000
407.136;  128.200; -480.000; -401.000
407.263;  190.000; -939.000; -829.000
407.390; -104.000; -692.000; -614.000
407.517; -290.700;-1139.000;-1187.000
407.644;  -84.400; -332.000; -256.000
407.771; -107.400; -249.000; -287.000
407.898;   70.600;  168.000;  328.000
408.025; -124.200; -421.000; -313.000
408.151;    2.400;   82.000;  153.000
408.278;  -83.200; -267.000; -216.000
408.405; -170.900; -931.000; -899.000
408.532;  -90.100; -549.000; -542.000
408.659; -179.600; -677.000; -648.000
408.785; -351.400;-1298.000;-1170.000
408.912;  -57.100; -412.000; -296.000
409.039; -157.000; -610.000; -686.000
409.166; -145.800; -591.000; -555.000
409.292; -185.900; -571.000; -534.000
409.419; -187.400; -665.000; -649.000
409.546; -142.200; -431.000; -192.000
409.672; -134.000; -713.000; -545.000
409.799;   -2.700;  -36.000;   34.000
409.926;  -21.300; -180.000; -179.000
410.052; -309.600;-1127.000;-1091.000
410.179;  -81.500; -368.000; -392.000
410.305; -112.300; -375.000; -493.000
410.432;  -34.900; -220.000; -333.000
410.558; -128.600; -305.000; -380.000
410.685; -159.400; -688.000; -431.000
410.812; -166.600; -409.000; -588.000
410.938; -204.700; -964.000; -808.000
411.065; -142.800; -671.000; -645.000
411.191;   -1.800; -189.000; -174.000
411.317; -205.300; -823.000; -742.000
411.444;  -86.300; -317.000; -246.000
411.570;  -88.700; -339.000; -294.000
411.697; -206.300; -758.000; -752.000
411.823; -297.400; -989.000; -999.000
411.949;   -7.700;  -56.000;   17.000
412.076; -171.400; -539.000; -519.000
412.202; -184.900; -758.000; -757.000
412.329; -206.400; -798.000; -752.000
412.455; -185.400; -821.000; -657.000
412.581;  -14.900;  -15.000;  172.000
412.707; -106.800; -540.000; -457.000
412.834;   68.800;  156.000;  219.000
412.960; -155.700; -785.000; -784.000
413.086; -177.800; -743.000; -701.000
413.212;  321.200;  604.000;  578.000
413.339; -116.300; -685.000; -701.000
413.465;   12.800; -364.000; -310.000
413.591; -172.500; -757.000; -474.000
413.717;  -46.200; -358.000; -366.000
413.843; -236.200; -839.000; -861.000
413.969;  -43.900;  -47.000; -292.000
414.096; -166.600; -679.000; -679.000
414.222;   74.200;  -33.000;   85.000
414.348;  -16.700; -652.000; -385.000
414.474;  192.300;   38.000;  -52.000
414.600;   -0.700; -126.000; -144.000
414.726;   45.500;  -96.000;  -55.000
414.852;  -58.300; -365.000; -342.000
414.978;  135.200;  104.000;  -18.000
415.104;  153.500;   38.000;   80.000
415.230;   88.500; -329.000; -330.000
415.356;   73.600; -409.000; -514.000
415.482;  446.700;   13.000;  -35.000
415.608;  563.200; -247.000; -323.000
415.734; 1997.300;   67.000;   38.000
415.860;41097.800; -875.000; -767.000
415.986;26903.100; -685.000; -607.000
416.111; 2270.200; -798.000; -652.000
416.237;  568.300; -424.000; -571.000
416.363; 2546.500; -765.000; -733.000
416.489; 8312.400; -324.000; -251.000
416.615;  867.600; -707.000; -742.000
416.741;   22.500; -677.000; -784.000
416.866; -128.400; -673.000; -736.000
416.992; -170.500; -801.000; -818.000
417.118;   39.600;  -41.000;  -80.000
417.244;  -86.400; -798.000; -531.000
417.369; -146.700; -801.000; -612.000
417.495;   58.300; -325.000; -254.000
417.621; -136.800;-1015.000; -803.000
417.746;   30.000; -579.000; -572.000
417.872;  167.400; -254.000; -144.000
417.998;  186.700; -515.000; -530.000
418.123; 2412.800;-1073.000; -845.000
418.249;10814.700; -512.000; -601.000
418.374; 1424.500; -916.000; -824.000
418.500;  250.200; -383.000; -482.000
418.626;  278.100;   70.000;  -59.000
418.751;  279.400; -549.000; -448.000
418.877;  404.900; -637.000; -643.000
419.002; 4129.000; -688.000; -560.000
419.128;25592.800; -930.000; -721.000
419.253; 5637.900; -967.000; -837.000
419.379;  811.500; -391.000; -338.000
419.504;  836.700;  325.000;  415.000
419.629; 1046.800; -393.000; -212.000
419.755; 7920.200; -317.000; -254.000
419.880;42526.100;  -98.000;   67.000
420.006;23492.900; -280.000; -221.000
420.131;56451.000; -662.000; -775.000
420.256; 7413.400; -315.000; -316.000
420.382; 1032.200; -665.000; -687.000
420.507;  207.200; -649.000; -778.000
420.632;  217.300; -337.000; -339.000
420.758;  370.200; -251.000; -425.000
420.883; -162.400; -876.000; -672.000
421.008; -154.800; -775.000; -619.000
421.133; -121.400; -509.000; -467.000
421.259;  -18.100; -325.000; -259.000
421.384; -188.200; -834.000; -693.000
421.509;  -67.000;-1052.000; -862.000
421.634; 1775.500; -936.000; -820.000
421.759;  691.000; -359.000; -327.000
421.885; -110.400; -717.000; -656.000
422.010; -135.900; -673.000; -542.000
422.135; -245.500; -695.000; -727.000
422.260;  135.200;  340.000;  280.000
422.385;  -46.500;   12.000;  -98.000
422.510;  102.800;  151.000;  -26.000
422.635;   90.200;  -87.000;  -43.000
422.760;  206.200; -766.000; -791.000
422.885;  141.000;  -57.000;  -80.000
423.010;  -11.000; -112.000; -169.000
423.135; -129.500; -481.000; -561.000
423.260;   -1.500; -150.000; -245.000
423.385;  160.700;  476.000;  222.000
423.510;  122.900;   71.000;  -22.000
423.635;  140.400;  133.000;   45.000
423.760;  175.800;  383.000;  328.000
423.885;  156.800;  336.000;  391.000
424.010;   68.200;  -68.000;  -13.000
424.135;    0.000;    5.000;  -33.000
424.259; -106.100; -654.000; -457.000
424.384;  -54.800; -279.000; -272.000
424.509;   15.700; -260.000; -186.000
424.634; -149.800; -761.000; -623.000
424.759;  -12.100; -688.000; -544.000
424.883;   20.300; -506.000; -527.000
425.008;  394.700; -502.000; -410.000
425.133; 4087.400; -679.000; -653.000
425.258; 1738.600; -517.000; -381.000
425.382; 1757.000; -867.000; -774.000
425.507; 4016.800; -487.000; -543.000
425.632;  748.400; -802.000; -663.000
425.756;  992.500; -256.000; -146.000
425.881;14429.300; -831.000; -857.000
426.006;35072.000; -604.000; -355.000
426.130; 4978.100; -696.000; -508.000
426.255;  688.300; -611.000; -491.000
426.379;  319.500; -189.000; -577.000
426.504;  817.400;  660.000;  544.000
426.629; 8447.900; -519.000; -466.000
426.753; 5207.900;   64.000;  -46.000
426.878;  625.800; -252.000; -288.000
427.002;  430.800; -651.000; -668.000
427.127; 3459.400;  -35.000; -158.000
427.251;23286.000;  372.000;  401.000
427.375; 5824.300; -191.000; -173.000
427.500; 3655.600; -616.000; -610.000
427.624; 1108.800; -234.000; -400.000
427.749;  213.000; -216.000; -225.000
427.873;  -64.100; -499.000; -412.000
427.997;  -19.600; -222.000; -230.000
428.122;  202.100;  795.000;  703.000
428.246;  187.700;  433.000;  434.000
428.371; -206.800; -869.000; -773.000
428.495; -144.600; -624.000; -646.000
428.619;    6.900; -186.000; -117.000
428.743;   99.500;   65.000;  132.000
428.868;   19.400; -732.000; -643.000
428.992; 2238.700; -219.000; -326.000
429.116;  847.300; -329.000; -357.000
429.240;  496.400;  419.000;  426.000
429.365;  -12.600; -454.000; -574.000
429.489;  -33.300; -638.000; -647.000
429.613;   80.000; -236.000; -177.000
429.737;  166.600; -563.000; -432.000
429.861;  637.700; -247.000; -133.000
429.985;12046.300; -425.000; -305.000
430.109;11821.900; -770.000; -908.000
430.234; 1325.900;   76.000;  -50.000
430.358;  165.600; -250.000; -160.000
430.482;  -35.000; -672.000; -564.000
430.606;  -68.900; -655.000; -375.000
430.730;   81.100; -437.000; -388.000
430.854;  193.900; -909.000; -835.000
430.978;  -98.500; -795.000; -764.000
431.102;  -74.800; -499.000; -422.000
431.226; -167.000; -874.000; -815.000
431.350;  143.600;  345.000;  422.000
431.474;  -90.000; -661.000; -373.000
431.597; -267.400;-1060.000; -848.000
431.721;  -96.100; -276.000; -267.000
431.845; -207.400; -704.000; -472.000
431.969; -109.700; -304.000; -349.000
432.093; -168.300; -395.000; -317.000
432.217;   24.300;   32.000;   82.000
432.341;  -97.600; -523.000; -518.000
432.464;   90.100;   96.000;   40.000
432.588;  361.400; -401.000; -329.000
432.712;  207.600;  -52.000;  -52.000
432.836;  165.900;  213.000;  263.000
432.959;    2.900; -372.000; -311.000
433.083;  250.700;   11.000;    2.000
433.207;  829.800;  285.000;  930.000
433.330;10907.400; -391.000; -200.000
433.454;12276.600; -654.000; -638.000
433.578; 7192.900;  583.000;  278.000
433.701; 1183.900; -623.000; -675.000
433.825;  211.900; -292.000; -299.000
433.949;  326.200;   28.000;  -72.000
434.072;   72.300; -410.000; -323.000
434.196;   30.900; -309.000; -117.000
434.319; 7795.400;25482.000;25124.000
434.443; 1542.400; -656.000; -603.000
434.566; 5270.000;  281.000;   62.000
434.690;  820.000; -637.000; -383.000
434.813;  112.600; -251.000; -173.000
434.937; -111.800; -569.000; -696.000
435.060;  -28.900; -423.000; -332.000
435.184;  501.300; -492.000; -217.000
435.307;  275.300;  159.000;  102.000
435.431;    2.100;  -40.000;   24.000
435.554; -114.600; -399.000; -240.000
435.677;  -83.400; -350.000; -258.000
435.801;    3.500;  -25.000;   49.000
435.924;   26.600;    1.000;  -67.000
436.048; -204.300;-1019.000; -732.000
436.171;  -76.400; -240.000;  -66.000
436.294;    8.300; -248.000; -229.000
436.417;  226.200; -963.000; -849.000
436.541; -153.500; -814.000; -840.000
436.664;  -61.200; -242.000; -316.000
436.787;   34.000;   13.000;  113.000
436.910; -152.700; -792.000; -422.000
437.034;   53.000;  142.000;  143.000
437.157;  149.000;  -11.000;    0.000
437.280;  -81.700; -392.000; -292.000
437.403; -174.500; -982.000; -869.000
437.526;  961.600; -903.000; -865.000
437.649; 3204.300; -505.000; -332.000
437.772;  387.700; -692.000; -540.000
437.896;  269.800;  700.000;  544.000
438.019; -173.300; -758.000; -503.000
438.142; -134.500; -596.000; -506.000
438.265;   -3.500; -639.000; -670.000
438.388;  904.200; -520.000; -410.000
438.511;  112.400; -597.000; -394.000
438.634;  -52.700; -247.000; -125.000
438.757; -242.900; -693.000; -619.000
438.880;   10.200;  -34.000;  -57.000
439.003; -112.500; -417.000; -437.000
439.126;  -90.400; -287.000; -167.000
439.248;  -65.300;  -98.000; -139.000
439.371;  -39.200;    9.000;  -53.000
439.494;  120.000;  510.000;  439.000
439.617;    5.100;   65.000;  -88.000
439.740; -298.200; -968.000; -816.000
439.863; -202.900; -755.000; -595.000
439.986; -188.000; -476.000; -431.000
440.108;  -44.600; -161.000; -112.000
440.231; -300.600; -950.000; -836.000
440.354;  -42.500;  -64.000; -150.000
440.477;   71.200; -566.000; -542.000
440.599;   58.500; -200.000; -225.000
440.722; -219.000; -709.000; -586.000
440.845;  192.500;  751.000;  928.000
440.968; -142.500; -415.000; -311.000
441.090;  -91.800; -199.000;  -33.000
441.213; -280.500;-1021.000; -825.000
441.336;  -38.700; -159.000;   -5.000
441.458; -129.500; -549.000; -396.000
441.581; -127.500; -628.000; -629.000
441.703;  -74.000; -152.000;   13.000
441.826; -177.200; -557.000; -400.000
441.948;  -52.500;   56.000;   51.000
442.071;  125.600;  555.000;  424.000
442.193; -189.800; -531.000; -485.000
442.316;  124.300;  152.000;   97.000
442.438;  131.200; -233.000;  -10.000
442.561;  196.600;  272.000;  262.000
442.683;  840.100; -809.000; -522.000
442.806; 1665.700;   -8.000;   74.000
442.928;  -38.700; -859.000; -604.000
443.051;  -87.000; -577.000; -373.000
443.173; -145.200; -341.000; -339.000
443.295; -101.400; -263.000; -371.000
443.418;  -78.100; -321.000;  -29.000
443.540;   36.400; -106.000;   -4.000
443.662; -190.400; -563.000; -465.000
443.785;   47.300;  335.000;  199.000
443.907; -167.400; -362.000; -208.000
444.029; -216.300; -767.000; -494.000
444.152; -224.900; -644.000; -554.000
444.274;   -2.100;  -18.000;  -24.000
444.396; -155.100; -461.000; -221.000
444.518; -208.200; -691.000; -454.000
444.640; -167.000; -268.000; -111.000
444.763;   46.700;  388.000;  249.000
444.885; -207.400; -432.000; -392.000
445.007;   -7.700;   35.000;   86.000
445.129; -174.200; -610.000; -515.000
445.251; -138.300; -372.000; -439.000
445.373; -222.600; -537.000; -386.000
445.495;   73.200;  242.000;  350.000
445.617;  180.700;  853.000;  753.000
445.739;  -74.200; -215.000;  -97.000
445.861;  -32.300; -245.000; -112.000
445.984;  -18.200; -267.000; -101.000
446.105;  333.700; -418.000; -251.000
446.227;  931.100; -176.000;  -19.000
446.349;   -5.800; -358.000; -249.000
446.471; -170.900; -615.000; -448.000
446.593;  -85.200; -316.000;   19.000
446.715;   47.200;  -67.000;   41.000
446.837;  227.600;  697.000;  832.000
446.959; -145.600; -457.000; -478.000
447.081; -216.400; -628.000; -518.000
447.203;  204.400;  862.000;  834.000
447.325; -115.300; -270.000;   42.000
447.446;   67.700;  286.000;  530.000
447.568; -273.400; -921.000; -803.000
447.690; -111.200; -236.000; -245.000
447.812; -245.100; -798.000; -519.000
447.933;    9.800;  155.000;  127.000
448.055; -116.700; -306.000; -261.000
448.177;  318.900;   31.000;   79.000
448.299;   92.000; -935.000; -727.000
448.420;   95.100;  -25.000;  159.000
448.542;  -54.900;   -3.000;   33.000
448.664;   45.600;  109.000;  322.000
448.785;   20.700;  265.000;   83.000
448.907;  -87.700; -614.000; -353.000
449.028;  -82.800; -771.000; -471.000
449.150;  172.500;  492.000;  589.000
449.272; -328.300;-1044.000; -913.000
449.393;  164.100;  612.000;  694.000
449.515; -237.500; -634.000; -581.000
449.636;  -56.500; -264.000; -155.000
449.758;  165.400;  763.000;  622.000
449.879; -137.300; -498.000; -396.000
450.001; -102.100; -149.000;  -49.000
450.122;  -20.600;  -95.000;  162.000
450.244;   16.000;   37.000;  364.000
450.365; -112.000; -495.000; -301.000
450.486;   -2.000;   80.000;  268.000
450.608;  129.300;  393.000;  326.000
450.729;  216.900;  578.000;  645.000
450.850;   75.700; -574.000; -466.000
450.972; 1802.400; -552.000; -389.000
451.093;10278.700;  190.000;  588.000
451.214; 4017.800; -516.000; -337.000
451.336;  791.100;  773.000;  579.000
451.457;  187.000;  264.000;  393.000
451.578;   -8.500; -118.000;  -74.000
451.699; -148.600; -546.000; -540.000
451.821;  -55.500; -284.000;  -50.000
451.942;   85.600;  278.000;  285.000
452.063;  179.400;  228.000;  419.000
452.184; 1289.400;  -54.000;  -49.000
452.305; 2231.900;  103.000;  170.000
452.427;  260.900; -549.000; -301.000
452.548;   19.500;   23.000;   79.000
452.669;  -80.200; -257.000;  -89.000
452.790;  -27.100;    3.000;  -18.000
452.911;   25.500;  195.000;  259.000
453.032;  -90.200; -289.000;  -60.000
453.153;  -32.600;  -29.000;   81.000
453.274;  188.400;  737.000;  868.000
453.395;  -35.300;  -51.000;  175.000
453.516;  294.400; 1317.000; 1388.000
453.637;  -85.900; -205.000; -150.000
453.758;  -44.500;   15.000;   69.000
453.879; -186.700; -462.000; -250.000
454.000;  252.000; 1086.000;  948.000
454.121; -188.900; -554.000; -326.000
454.242; -181.200; -599.000; -383.000
454.362;  -74.300;  -99.000;  114.000
454.483;    1.400; -309.000; -229.000
454.604;  140.500;  512.000;  580.000
454.725; -204.900; -627.000; -555.000
454.846; -170.100; -474.000; -406.000
454.967;   44.000;  230.000;  539.000
455.087;   -5.700;  179.000;  153.000
455.208;  127.000;  554.000;  856.000
455.329;  -61.700;  -22.000;   82.000
455.450;  186.700;  473.000;  633.000
455.570; -108.800; -234.000; -211.000
455.691;  -20.300;  201.000;  407.000
455.812; -154.700; -270.000;  -92.000
455.932;  -82.000;  107.000;  -97.000
456.053;  -94.300;   36.000;   24.000
456.173; -162.100; -433.000; -355.000
456.294; -210.700; -476.000; -303.000
456.415;  -74.100;  -73.000;   70.000
456.535;    0.100;  297.000;  273.000
456.656;    1.000;  132.000;  240.000
456.776;  -60.000;    3.000;  298.000
456.897;   76.200;  308.000;  513.000
457.017;  -92.300; -153.000;   -3.000
457.138; -152.400; -402.000; -249.000
457.258;  -14.500;  263.000;  224.000
457.379;   51.700;  509.000;  521.000
457.499;    9.300;  443.000;  432.000
457.620; -180.600; -407.000; -231.000
457.740; -149.800; -132.000;  -11.000
457.860;  -50.000;   87.000;   44.000
457.981;  -21.700;  132.000;  124.000
458.101; -110.100;  -89.000;   40.000
458.221;   27.600;  336.000;  402.000
458.342;  -53.700;   -4.000;  -37.000
458.462;   97.800;  617.000;  352.000
458.582;  -38.100; -302.000; -294.000
458.703;   66.400;  303.000;  154.000
458.823;   35.500;   22.000;  163.000
458.943;   87.100;  341.000;  467.000
459.063;   15.100; 1124.000;  192.000
459.183;   30.800;  328.000;  313.000
459.304;   77.600;  315.000;  517.000
459.424;  -36.300; -246.000;  -89.000
459.544;  790.400;  388.000;  764.000
459.664; 1751.100;  499.000;  506.000
459.784;  662.900; 1004.000; 1175.000
459.904;  161.300;  867.000;  744.000
460.024;  184.500;  867.000;  684.000
460.144;   62.700;  449.000;  554.000
460.264;   70.000;  515.000;  327.000
460.385; -126.300; -145.000; -119.000
460.505;  148.800;  905.000;  858.000
460.625; -119.900;  -17.000;  -68.000
460.745;   39.400;  396.000;  541.000
460.864;  -33.000;  153.000;  469.000
460.984;   93.900;  499.000;  573.000
461.104;  396.300; 1656.000; 1775.000
461.224;  113.800;  657.000;  650.000
461.344;   28.300;  431.000;  360.000
461.464;  -10.600;  258.000;  513.000
461.584;   46.000;  283.000;  466.000
461.704;  -50.200;   58.000;  108.000
461.824;  -51.900;  238.000;  259.000
461.943;  -15.000;  191.000;  130.000
462.063; -118.400;    2.000;  324.000
462.183;  131.500;  639.000;  717.000
462.303;  285.100; 1678.000; 1230.000
462.422;  153.900;  781.000;  840.000
462.542;  -35.900;  271.000;  391.000
462.662;  159.900;  353.000;  380.000
462.782;  618.000;  833.000;  572.000
462.901; 1024.200;  545.000;  717.000
463.021;  646.800; 1702.000; 1638.000
463.141;   99.200;  337.000;  770.000
463.260;   39.700;  614.000;  474.000
463.380;   89.600;  902.000;  884.000
463.499;    6.600;  342.000;  332.000
463.619;    5.300;  581.000;  559.000
463.738;  315.900; 1644.000;  903.000
463.858;  100.500;  657.000;  811.000
463.978;  -22.000;  542.000;  396.000
464.097;  166.200;  921.000; 1114.000
464.217;  303.400; 1196.000; 1143.000
464.336;  330.600; 1068.000; 1130.000
464.455;   -7.100;  328.000;  659.000
464.575;  149.100;  597.000;  602.000
464.694;  334.200; 1204.000; 1179.000
464.814;  334.500; 1190.000; 1138.000
464.933;  206.500; 1095.000; 1027.000
465.052;  307.800; 1412.000; 1054.000
465.172;  226.000;  922.000;  799.000
465.291;  352.100; 1376.000; 1320.000
465.410;   94.700;  462.000;  735.000
465.530;  239.200; 1355.000; 1310.000
465.649;  189.700; 1209.000; 1273.000
465.768;  365.100; 1673.000; 1508.000
465.888;  151.100;  941.000; 1174.000
466.007;  243.100; 1335.000; 1440.000
466.126;   49.000;  721.000;  641.000
466.245;  195.300; 1176.000; 1187.000
466.364;   86.100;  950.000; 1060.000
466.484;  214.000; 1024.000; 1213.000
466.603;   93.900; 1101.000; 1222.000
466.722;  305.600; 1490.000; 1769.000
466.841;  228.500; 1151.000; 1401.000
466.960;  147.100; 1069.000;  972.000
467.079;  360.100; 1971.000; 1786.000
467.198;  153.000; 1238.000; 1181.000
467.317;  227.800; 1768.000; 1162.000
467.436;  197.900; 1709.000; 1261.000
467.555;  336.400; 1796.000; 1746.000
467.674;  202.700; 1227.000; 1329.000
467.793;  151.500; 1376.000; 1374.000
467.912;  235.100; 1658.000; 1539.000
468.031;  350.100; 2038.000; 1930.000
468.150;  354.100; 1842.000; 1837.000
468.269;  473.800; 2313.000; 2090.000
468.388;  463.700; 2168.000; 2339.000
468.507;  635.500; 2884.000; 2903.000
468.626;  632.700; 2555.000; 2541.000
468.744;  385.500; 2018.000; 2174.000
468.863;  490.900; 2312.000; 2523.000
468.982;  256.000; 1503.000; 1555.000
469.101;  529.700; 2788.000; 2692.000
469.220;  383.200; 2333.000; 2176.000
469.338;  569.600; 2935.000; 3051.000
469.457;  464.500; 2719.000; 2545.000
469.576;  789.900; 3953.000; 3784.000
469.695;  535.900; 2877.000; 3066.000
469.813;  932.200; 4148.000; 4192.000
469.932;  872.300; 4255.000; 4485.000
470.051;  949.500; 4075.000; 4161.000
470.169; 1905.200; 4470.000; 4338.000
470.288; 3020.400; 4700.000; 4809.000
470.406; 1744.400; 5059.000; 5194.000
470.525; 1366.200; 6101.000; 5787.000
470.644; 1383.400; 6847.000; 6794.000
470.762; 1782.100; 8397.000; 7873.000
470.881; 1899.900; 8651.000; 8464.000
470.999; 2195.900; 9685.000; 9151.000
471.118; 2285.600;11174.000;10711.000

