
Integration time [ms]: 100.000
Averaging Nr. [scans]: 40
Smoothing Nr. [pixels]: 0
Data measured with spectrometer [name]: 2101012U2
Wave   ;Sample   ;Dark     ;Reference
[nm]   ;[counts] ;[counts] ;[counts] 

197.733;   54.150;  516.000;  404.000
197.879;  -87.025; -610.000; -634.000
198.025;  -54.100; -475.000; -420.000
198.171;  -66.650; -602.000; -612.000
198.317;  -31.000; -401.000; -316.000
198.463;  -61.075; -655.000; -404.000
198.609;   16.375;  181.000; -137.000
198.755;  -91.100; -644.000; -410.000
198.901;  -78.475; -505.000; -424.000
199.047;  -71.125; -615.000; -488.000
199.193;  -46.025; -230.000; -468.000
199.339;  -41.425; -222.000; -369.000
199.485;   37.200;  330.000;  271.000
199.631;   13.275;  227.000;  310.000
199.777;  -60.525; -466.000; -398.000
199.923;  -68.525; -610.000; -424.000
200.069;   -0.225; -141.000;  -58.000
200.215;   44.975;  128.000;  453.000
200.361;   40.025;  243.000;  477.000
200.507;  -68.675; -600.000; -373.000
200.653;  -30.275; -371.000; -194.000
200.798;  -22.200; -215.000; -125.000
200.944;  -16.800; -146.000;  -41.000
201.090;   36.925;   61.000;  222.000
201.236;   -6.950; -116.000; -158.000
201.382;  128.600;  874.000;  903.000
201.528;   -9.950;  -58.000;  -48.000
201.674;  -52.375; -386.000; -293.000
201.819;  -72.750; -540.000; -439.000
201.965;  -91.650; -699.000; -447.000
202.111;  -34.275; -273.000; -226.000
202.257;  -43.350; -250.000; -238.000
202.402;    4.350;   13.000;  -36.000
202.548;  -21.100; -169.000; -116.000
202.694;   78.450;  410.000; -183.000
202.840;  -74.600; -603.000; -531.000
202.985;  -73.925; -681.000; -639.000
203.131; -111.325; -832.000; -666.000
203.277;  -37.775; -199.000; -262.000
203.423;  -59.750; -434.000; -520.000
203.568;  -40.925; -462.000; -237.000
203.714;  -56.600; -535.000; -542.000
203.860;  -95.875; -682.000; -641.000
204.005;   27.175;  112.000;  167.000
204.151;   85.050;  561.000;  556.000
204.296;  -50.750; -354.000; -221.000
204.442;  -84.875; -600.000; -547.000
204.588;  -85.750; -592.000; -579.000
204.733;   17.850;  178.000;  168.000
204.879; -125.275;-1018.000; -822.000
205.025;    4.425;  -99.000;  126.000
205.170;    3.700;  -17.000;   94.000
205.316;   75.675;  438.000;  661.000
205.461;  -87.600; -698.000; -554.000
205.607;   89.675;  609.000;  665.000
205.752;  -87.325; -626.000; -551.000
205.898;  -58.825; -501.000; -391.000
206.043;  -66.100; -578.000; -506.000
206.189;  -48.900; -243.000; -285.000
206.334;   75.725;  554.000;  606.000
206.480;   78.900;  409.000;  239.000
206.625;  -93.325; -529.000; -552.000
206.771;  -66.675; -451.000; -373.000
206.916;  -36.175; -210.000; -537.000
207.062;  -78.800; -545.000; -591.000
207.207;  -66.800; -546.000; -443.000
207.353;   53.125;  185.000;  460.000
207.498;    3.175;  196.000;   85.000
207.643;  -49.225; -501.000; -370.000
207.789; -145.550;-1069.000; -910.000
207.934;  -96.875; -665.000; -713.000
208.080;  -29.650; -154.000;   66.000
208.225;   -3.950;  -22.000;  -57.000
208.370;  -75.050; -727.000; -619.000
208.516;  -76.175; -741.000; -487.000
208.661;  -28.325; -127.000;  -69.000
208.806;  -19.000; -165.000; -171.000
208.952; -121.600;-1044.000; -731.000
209.097;   83.900;  378.000;  349.000
209.242;  -32.725; -307.000; -382.000
209.387;   59.750;  392.000;  350.000
209.533;  -48.050; -321.000; -350.000
209.678;   73.275;  472.000;  543.000
209.823;  -55.775; -408.000; -310.000
209.969; -109.875; -860.000; -757.000
210.114; -109.875; -907.000; -719.000
210.259; -125.250; -939.000; -889.000
210.404;  -11.225; -171.000;  103.000
210.549;   15.625;  108.000;    3.000
210.695;  -12.275;   -3.000;  -95.000
210.840;   28.800;   94.000;   67.000
210.985;  -69.375; -484.000; -303.000
211.130;   65.475;  268.000;  406.000
211.275;   17.675;  207.000;  199.000
211.420;  -51.975; -300.000; -289.000
211.566;  -75.075; -536.000; -489.000
211.711;   22.200;  218.000;  157.000
211.856;  -63.625; -545.000; -519.000
212.001;    1.775;  151.000;   44.000
212.146;   34.025;  153.000;   49.000
212.291;  -26.000; -210.000; -186.000
212.436;  -23.525; -280.000;   -6.000
212.581;  -87.125; -685.000; -653.000
212.726;  -59.450; -487.000; -538.000
212.871;  -65.675; -552.000; -217.000
213.016; -158.025;-1172.000;-1029.000
213.161;   64.150;  406.000;  291.000
213.306;  -74.300; -435.000; -577.000
213.451; -101.350; -778.000; -689.000
213.596;  -42.700; -455.000; -347.000
213.741;  -61.325; -448.000; -538.000
213.886;  -85.675; -498.000; -517.000
214.031;  -28.450; -294.000; -124.000
214.176;  -39.050; -408.000; -341.000
214.321;  -13.925; -296.000; -157.000
214.466;  -27.525; -163.000;  -43.000
214.611;   -4.425;  -61.000;  -10.000
214.756; -122.450; -948.000; -858.000
214.901;  -20.450; -388.000; -226.000
215.046; -128.800; -797.000; -825.000
215.191;   19.825;  128.000;   35.000
215.336;   -9.175; -157.000;  -19.000
215.480;  -73.700; -684.000; -505.000
215.625;   -4.300; -175.000;  -19.000
215.770;  -95.225; -757.000; -662.000
215.915;  -28.400;   -5.000;  -97.000
216.060;   -6.275; -113.000;  -21.000
216.205; -114.200; -731.000; -779.000
216.349;  -76.275; -470.000; -533.000
216.494; -142.025; -939.000; -867.000
216.639; -127.400; -823.000; -888.000
216.784;  -86.000; -577.000; -525.000
216.929;   58.100;  392.000;  281.000
217.073;   -5.225; -244.000;  -31.000
217.218;    2.025;   78.000;  -47.000
217.363; -110.075; -656.000; -618.000
217.507;  -81.225; -623.000; -588.000
217.652; -127.375; -845.000; -874.000
217.797;  -83.900; -708.000; -659.000
217.942; -108.325; -856.000; -720.000
218.086;   69.700;  608.000;  539.000
218.231;  -12.375; -174.000;  -26.000
218.376;  -40.350; -337.000; -229.000
218.520;   -1.225;  -41.000;   96.000
218.665;  -32.925; -338.000; -204.000
218.810;  -36.225; -275.000; -233.000
218.954;   -1.725;  201.000;   35.000
219.099; -119.750; -713.000; -963.000
219.243;  -75.600; -589.000; -554.000
219.388;  -28.025; -264.000; -136.000
219.532;  -23.050; -116.000; -116.000
219.677;  -81.300; -564.000; -521.000
219.822;    9.925;   33.000;   89.000
219.966;   13.525;   17.000;  -99.000
220.111;  -31.300; -328.000;  -40.000
220.255; -116.775; -797.000; -750.000
220.400;  -21.350; -180.000; -146.000
220.544;  -68.925; -516.000; -450.000
220.689;  -69.925; -422.000; -451.000
220.833;  -31.150; -123.000;  -58.000
220.978;  -52.050; -393.000; -563.000
221.122;   18.400;  319.000;  307.000
221.267; -125.350; -906.000; -837.000
221.411;  -67.925; -478.000; -394.000
221.555;  -12.150; -104.000;  -23.000
221.700;  -47.875; -329.000; -222.000
221.844;   36.125;  255.000;  272.000
221.989;  -43.325; -328.000; -311.000
222.133;  -40.325; -289.000; -307.000
222.277;   -5.625;    5.000;   78.000
222.422;   19.350;  227.000;  113.000
222.566;  -38.900; -381.000; -214.000
222.711;  -53.075; -414.000; -479.000
222.855;  -79.400; -643.000; -586.000
222.999;  -83.925; -642.000; -717.000
223.144;  -27.525; -195.000; -194.000
223.288;   31.125;  423.000;  251.000
223.432;   19.950;  184.000;  230.000
223.576;   19.550;  152.000;  -21.000
223.721;   32.075;  364.000;  273.000
223.865;  -83.175; -472.000; -475.000
224.009;  244.000; 1673.000; 1631.000
224.153;  -83.950; -660.000; -671.000
224.298;  -75.075; -531.000; -489.000
224.442;  -18.875;  -74.000;  -33.000
224.586;   -7.425; -169.000; -106.000
224.730;  -96.675; -858.000; -670.000
224.875; -109.975; -739.000; -688.000
225.019;   16.425;  102.000;  188.000
225.163;   58.675;  208.000;  341.000
225.307;    2.725;   97.000;  -91.000
225.451;   56.900;  360.000;  481.000
225.595;   29.400;  264.000;  176.000
225.739;  -12.175; -170.000;  -94.000
225.884;    4.425;   86.000;    5.000
226.028; -113.350; -760.000; -626.000
226.172;  -43.350; -260.000; -273.000
226.316; -122.750; -941.000; -902.000
226.460;  -87.250; -645.000; -493.000
226.604;  -55.625; -406.000; -400.000
226.748; -106.450; -836.000; -733.000
226.892;  -32.400; -227.000; -181.000
227.036;  -60.400; -537.000; -447.000
227.180;  -56.350; -551.000; -375.000
227.324;  -69.550; -561.000; -580.000
227.468; -123.350; -819.000; -717.000
227.612;   13.750;  242.000;  -28.000
227.756; -106.275; -845.000; -698.000
227.900;   55.875;  342.000;  441.000
228.044;  -52.850; -509.000; -290.000
228.188;   62.975;  448.000;  568.000
228.332;  -83.650; -546.000; -472.000
228.476;  -33.775; -223.000; -149.000
228.620;  -38.825; -210.000; -150.000
228.764;   63.050;  431.000;  349.000
228.908;  -22.750; -155.000;   30.000
229.052;  -64.700; -615.000; -528.000
229.195;  -25.350; -172.000;   13.000
229.339;  -33.900; -235.000; -305.000
229.483;  -26.225;    5.000; -162.000
229.627;  -15.375; -156.000;  139.000
229.771;  -40.975; -218.000; -294.000
229.915;   16.225;  230.000;   79.000
230.059;  -88.650; -648.000; -663.000
230.202;  -47.350; -370.000; -317.000
230.346;   -5.900; -107.000;  107.000
230.490;  -72.825; -489.000; -521.000
230.634; -108.850; -736.000; -553.000
230.777;   72.375;  478.000;  509.000
230.921;  -64.425; -450.000; -359.000
231.065;  -53.900; -246.000; -286.000
231.209;   21.400;  261.000;  265.000
231.352;   18.725;   54.000;   40.000
231.496;   28.025;  568.000;  188.000
231.640;  -95.700; -693.000; -621.000
231.783;   64.200;  546.000;  525.000
231.927;  -53.375; -294.000; -365.000
232.071; -128.675; -962.000; -736.000
232.214; -121.350; -980.000; -764.000
232.358;  -89.000; -683.000; -599.000
232.502;   15.425;  -19.000;    7.000
232.645; -143.975;-1090.000; -927.000
232.789;  -28.200; -257.000; -218.000
232.933;  -54.125; -407.000; -224.000
233.076; -125.225;-1038.000; -897.000
233.220;  -92.625; -752.000; -777.000
233.363;  -80.050; -669.000; -477.000
233.507;   64.625;  371.000;  129.000
233.650;  -99.850; -764.000; -834.000
233.794;   48.550;  438.000;  461.000
233.938;  -67.450; -530.000; -362.000
234.081;    0.000;  -93.000;   31.000
234.225;  -72.425; -631.000; -539.000
234.368; -113.875; -773.000; -723.000
234.512;  -56.325; -385.000; -299.000
234.655;  -91.425; -582.000; -555.000
234.798;  -83.325; -493.000; -466.000
234.942; -134.925; -884.000;-1002.000
235.085;  -75.925; -651.000; -443.000
235.229;  -77.925; -405.000; -410.000
235.372;  -47.075; -247.000; -191.000
235.516;  -75.425; -397.000; -321.000
235.659;   10.725;   92.000;  121.000
235.802;  -21.225;  -38.000;  -22.000
235.946;   16.325;  335.000;  215.000
236.089;   25.700;  126.000;  250.000
236.233;   53.225;  275.000;  298.000
236.376;  -57.625; -235.000; -378.000
236.519;  -58.900; -297.000; -319.000
236.663;  -18.800; -215.000; -117.000
236.806; -141.100;-1029.000; -999.000
236.949;   39.950;  543.000;  431.000
237.092;   54.600;  412.000;  391.000
237.236;  -76.550; -589.000; -502.000
237.379;   61.150;  352.000;  428.000
237.522; -115.325; -879.000; -768.000
237.666;  -29.350; -271.000;   18.000
237.809; -116.100; -851.000; -823.000
237.952;   35.025;  469.000;  271.000
238.095;  -60.500; -447.000; -442.000
238.238;   90.825;  688.000;  700.000
238.382;   -1.750;  166.000;  103.000
238.525;  -82.975; -598.000; -511.000
238.668; -139.800;-1060.000; -985.000
238.811;  -88.575; -638.000; -643.000
238.954;  -78.000; -483.000; -334.000
239.097;   84.875;  617.000;  664.000
239.241;   22.175;  394.000;  326.000
239.384;  -33.075; -254.000; -214.000
239.527;  -64.950; -424.000; -224.000
239.670; -151.075; -994.000;-1091.000
239.813; -120.175; -696.000; -658.000
239.956;   76.200;  579.000;  473.000
240.099; -113.600; -778.000; -725.000
240.242;   46.925;  428.000;  432.000
240.385;   57.000;  466.000;  450.000
240.528;  -85.725; -706.000; -473.000
240.671;    2.275;  189.000;  134.000
240.814;  -52.125; -441.000; -158.000
240.957; -121.550; -767.000; -578.000
241.100;  -98.125; -779.000; -755.000
241.243; -151.000;-1234.000; -893.000
241.386;  -79.450; -508.000; -379.000
241.529;  -83.825; -735.000; -547.000
241.672;  -71.050; -566.000; -495.000
241.815; -125.725; -832.000; -808.000
241.958;  -39.050; -125.000; -182.000
242.101;  -79.625; -545.000; -390.000
242.244;  -44.600; -270.000; -325.000
242.387;  -47.350; -304.000; -246.000
242.530;   69.750;  470.000;  134.000
242.673;  -52.275; -381.000; -309.000
242.815; -128.975; -925.000; -899.000
242.958;  -72.050; -482.000; -381.000
243.101;   12.425;  132.000;  187.000
243.244;  -74.025; -564.000; -521.000
243.387;  -54.575; -313.000; -316.000
243.530; -102.500; -657.000; -674.000
243.672;   -7.850;   43.000;  -92.000
243.815;  -53.400; -355.000; -283.000
243.958;   -3.100;   98.000;  -26.000
244.101;   -7.075;   59.000;  -16.000
244.243;   -7.225;  -47.000;  101.000
244.386; -117.875; -761.000; -630.000
244.529;  -21.625; -132.000; -139.000
244.672; -166.100;-1154.000; -951.000
244.814; -100.125; -621.000; -794.000
244.957;  -71.975; -380.000; -304.000
245.100;  -78.200; -489.000; -489.000
245.242;  -59.625; -387.000; -374.000
245.385;   -5.500;  -59.000;  -39.000
245.528; -134.800; -871.000; -705.000
245.670;   89.000;  612.000;  634.000
245.813;  -92.425; -599.000; -547.000
245.956;  -41.700; -324.000; -275.000
246.098;  -81.700; -508.000; -650.000
246.241;   -6.725;  194.000;   48.000
246.383;  -14.450; -119.000;  -73.000
246.526;  -91.450; -454.000; -525.000
246.669; -117.475; -889.000; -780.000
246.811;   17.100;  172.000;   -1.000
246.954;  -66.925; -512.000; -426.000
247.096;  -25.075;  -84.000;   -6.000
247.239;  -70.275; -482.000; -445.000
247.381;  -79.600; -647.000; -488.000
247.524;   80.775;  645.000;  679.000
247.666;  -10.625;   58.000;   11.000
247.809; -118.825; -887.000; -691.000
247.951;  -13.225;  -75.000;  138.000
248.094;   25.800;  432.000;  308.000
248.236; -175.375;-1262.000;-1238.000
248.378;   -2.500; -356.000;  -81.000
248.521;  -39.650; -334.000; -337.000
248.663;  -26.550; -236.000; -267.000
248.806;   -8.550; -300.000; -266.000
248.948;  -94.625; -886.000; -763.000
249.090;  -45.175; -428.000; -398.000
249.233;  -54.400; -344.000; -381.000
249.375;  -72.275; -474.000; -451.000
249.518;  -23.150;  -83.000; -133.000
249.660;  -13.525; -103.000;    3.000
249.802; -174.250;-1303.000;-1189.000
249.945;  -80.925; -612.000; -540.000
250.087; -122.125; -834.000; -768.000
250.229;  -56.075; -362.000; -480.000
250.371;  -75.775; -494.000; -439.000
250.514;  -64.800; -310.000; -244.000
250.656;  -72.400;   69.000;  102.000
250.798; -127.275; -849.000; -800.000
250.940;  -60.575; -322.000; -322.000
251.083;  -28.625; -335.000; -111.000
251.225;   59.775;  338.000;  310.000
251.367;  -47.375; -274.000; -373.000
251.509;  -42.025; -265.000; -210.000
251.651; -102.375; -731.000; -671.000
251.794;   57.575;  538.000;  632.000
251.936; -112.375; -821.000; -747.000
252.078;  -82.275; -540.000; -461.000
252.220;  -73.700; -645.000; -477.000
252.362;   79.600;  344.000;  462.000
252.504;  -83.775; -677.000; -584.000
252.646; -111.275; -875.000; -722.000
252.788;   -9.900;   14.000; -128.000
252.931;  -33.875; -257.000; -253.000
253.073;  -49.950; -376.000; -317.000
253.215;   -6.900;  141.000;  122.000
253.357;   -9.500;   82.000; -153.000
253.499;  -50.400; -374.000; -234.000
253.641;  -95.500; -749.000; -594.000
253.783;  -90.425; -609.000; -527.000
253.925; -114.225; -586.000; -591.000
254.067; -115.825; -744.000; -667.000
254.209;  -31.450; -391.000; -259.000
254.351; -138.050; -865.000; -883.000
254.493;  -64.325; -441.000; -417.000
254.635; -129.900; -936.000; -818.000
254.777;  -92.975; -752.000; -687.000
254.918;  -72.050; -512.000; -430.000
255.060;  -66.625; -551.000; -395.000
255.202;  -62.400; -473.000; -261.000
255.344;  -80.150; -658.000; -455.000
255.486;  -82.575; -471.000; -406.000
255.628; -103.175; -780.000; -781.000
255.770;  -85.725; -676.000; -536.000
255.912;  -75.025; -559.000; -468.000
256.053;  -81.650; -730.000; -508.000
256.195;  149.950; 1008.000;  903.000
256.337; -101.250; -861.000; -595.000
256.479;   51.600;  532.000;  416.000
256.621;  -62.300; -394.000; -212.000
256.762; -100.225; -789.000; -742.000
256.904;   32.775;  485.000;  487.000
257.046;  -35.300; -381.000; -271.000
257.188;  -42.875; -351.000; -264.000
257.329;  -80.000; -525.000; -464.000
257.471; -117.975; -939.000; -807.000
257.613;  -70.475; -584.000; -498.000
257.755; -139.250;-1073.000; -982.000
257.896;   29.300;  286.000;  392.000
258.038;  -71.075; -403.000; -352.000
258.180;  -45.600; -354.000; -279.000
258.321;  -83.325; -581.000; -457.000
258.463;    2.625;  -71.000;  133.000
258.605;  -90.750; -562.000; -570.000
258.746; -127.650; -886.000; -772.000
258.888; -155.675;-1026.000;-1020.000
259.029;    0.225;  121.000;   -8.000
259.171;  -95.775; -614.000; -550.000
259.313;   -0.550;  -49.000;  -47.000
259.454;  -77.775; -536.000; -414.000
259.596;  -55.425; -483.000; -390.000
259.737;  -86.400; -590.000; -474.000
259.879;   38.900;  217.000;  311.000
260.020;   95.425;  901.000;  636.000
260.162;  -35.625; -146.000; -253.000
260.303; -121.600; -768.000; -687.000
260.445;  -98.500; -609.000; -613.000
260.586;   34.425;  392.000;  157.000
260.728;  -54.175; -360.000; -248.000
260.869; -128.550; -350.000; -343.000
261.011;   68.700;  706.000;  537.000
261.152;  -54.600; -479.000; -319.000
261.293;  -87.325; -576.000; -595.000
261.435;  -31.925; -219.000; -184.000
261.576;  -55.075; -455.000; -325.000
261.718;   46.600;  420.000;  470.000
261.859; -138.850; -940.000; -949.000
262.000; -135.700; -951.000;-1016.000
262.142;  -33.550;  -52.000;  -60.000
262.283; -121.475; -808.000; -691.000
262.424;  -94.550; -666.000; -625.000
262.566; -160.450;-1161.000; -983.000
262.707; -119.375; -840.000; -830.000
262.848; -136.550; -769.000; -726.000
262.990;  -49.050; -362.000; -345.000
263.131;   82.800;  650.000;  681.000
263.272;   -5.700;  -61.000;  -41.000
263.413;  -87.150; -589.000; -561.000
263.555;  -68.700; -669.000; -143.000
263.696;  -79.800; -550.000; -641.000
263.837;  -64.550; -449.000; -551.000
263.978;   -7.700;   -5.000;  -77.000
264.119;  -55.800; -283.000; -264.000
264.261; -123.525; -847.000; -630.000
264.402;    2.100;   33.000;   40.000
264.543;  -62.075; -509.000; -524.000
264.684;  -18.000;   61.000;  -50.000
264.825;  -85.225; -816.000; -538.000
264.966;  -23.750;  -84.000;  -67.000
265.107; -114.975; -646.000; -670.000
265.248; -124.625; -825.000; -812.000
265.390;   -6.125;  152.000;   -9.000
265.531;  -22.725; -238.000; -107.000
265.672;  -78.300; -557.000; -630.000
265.813;   57.575;  563.000;  439.000
265.954; -147.700; -959.000; -940.000
266.095;   -9.325; -372.000; -322.000
266.236;  -99.725; -686.000; -548.000
266.377;  -48.375; -243.000; -297.000
266.518;  -79.150; -619.000; -547.000
266.659;   13.825;  170.000;  268.000
266.800;    4.750;   83.000;   85.000
266.941;  -75.975; -487.000; -478.000
267.082;   17.450;  354.000;   99.000
267.223;  -48.275; -344.000; -273.000
267.364; -122.025; -892.000; -686.000
267.504;  -16.025;    3.000;  135.000
267.645;    0.025;  160.000;   67.000
267.786;  -38.900; -147.000;  -86.000
267.927;  -71.375; -473.000; -379.000
268.068;   -7.900; -186.000;  -61.000
268.209;  -42.075; -175.000; -413.000
268.350;  -68.575; -388.000; -532.000
268.490;  -94.475; -648.000; -521.000
268.631;   14.175;  127.000;  225.000
268.772; -108.175; -874.000; -647.000
268.913;  -52.175; -328.000; -476.000
269.054;  -12.475; -117.000;   12.000
269.194;  -65.800; -418.000; -402.000
269.335; -170.150;-1137.000;-1074.000
269.476;  -18.750;   33.000;  -35.000
269.617;  -56.375; -347.000; -392.000
269.757;  -84.825; -713.000; -646.000
269.898; -106.675; -856.000; -613.000
270.039;  -68.600; -415.000; -405.000
270.180; -134.975; -952.000; -816.000
270.320;  -37.150; -190.000; -250.000
270.461;  -61.350; -277.000; -249.000
270.602;  -18.100; -186.000; -156.000
270.742; -123.750; -868.000; -943.000
270.883;  -64.700; -442.000; -390.000
271.023;  -68.900; -358.000; -357.000
271.164;  -82.600; -607.000; -528.000
271.305;  -90.225; -666.000; -654.000
271.445;  -99.975; -722.000; -683.000
271.586;  -74.475; -462.000; -283.000
271.726;  -50.875; -397.000; -322.000
271.867;  -64.900; -594.000; -534.000
272.008;  179.625; -473.000; -285.000
272.148;  127.000;  462.000;  468.000
272.289;   10.750; -113.000; -181.000
272.429;   18.925;   19.000;  185.000
272.570; -108.300; -633.000; -737.000
272.710; -107.425; -825.000; -775.000
272.851;  -17.000;  113.000; -130.000
272.991; -173.725;-1173.000;-1077.000
273.131;  -61.650; -419.000; -459.000
273.272;  -99.750; -683.000; -723.000
273.412;    3.200; -143.000;  -31.000
273.553;  -60.850; -488.000; -507.000
273.693;  138.800;  913.000;  858.000
273.834;  -81.600; -894.000; -692.000
273.974;  -77.375; -664.000; -615.000
274.114;  -99.800; -772.000; -560.000
274.255;   74.425;  414.000;  373.000
274.395;   -1.775; -180.000; -125.000
274.535;   47.050;  199.000;  350.000
274.676;   19.525;  225.000;   94.000
274.816;    3.275;  110.000;   34.000
274.956;  -80.775; -624.000; -690.000
275.097;  -73.775;-1014.000; -922.000
275.237; -118.275; -913.000; -803.000
275.377;  -87.275; -778.000; -689.000
275.517; -137.650; -878.000; -937.000
275.658;  -55.575; -590.000; -555.000
275.798;  -57.775; -606.000; -413.000
275.938;   27.700;  215.000;  323.000
276.078;  -78.475; -626.000; -395.000
276.218;   15.650;   99.000;  104.000
276.359; -114.100;-1026.000;-1024.000
276.499;  -74.800; -605.000; -446.000
276.639;  -27.000; -305.000; -151.000
276.779;  -45.825; -475.000; -357.000
276.919; -102.300; -783.000; -624.000
277.059;  -26.200; -261.000; -212.000
277.199;  -46.900; -357.000; -259.000
277.340;   49.200;  287.000;  175.000
277.480; -118.250; -840.000; -693.000
277.620;   31.025;  192.000;   16.000
277.760; -196.150;-1533.000;-1294.000
277.900;   29.375;  113.000;   33.000
278.040;   22.175;  137.000;  159.000
278.180;   35.675;  270.000;  170.000
278.320;    9.800;   21.000;   56.000
278.460;  -81.025; -443.000; -469.000
278.600;  -88.075; -708.000; -598.000
278.740;   67.175;  448.000;  224.000
278.880;  -27.650; -768.000; -791.000
279.020;   -1.475; -194.000; -144.000
279.160; -101.100; -672.000; -595.000
279.300; -121.950; -926.000; -873.000
279.440;  -83.350; -709.000; -622.000
279.579;  -35.300;-1014.000; -929.000
279.719;  -54.300; -410.000; -394.000
279.859;   72.100;   -4.000;   41.000
279.999;   23.400; -208.000;  101.000
280.139;  -24.525; -435.000; -387.000
280.279;  -71.125; -708.000; -745.000
280.419;  -15.575; -229.000; -147.000
280.559;  -26.100; -259.000; -180.000
280.698;  -78.800; -790.000; -639.000
280.838;  -81.550; -778.000; -800.000
280.978; -105.400; -846.000; -790.000
281.118; -107.200; -811.000; -704.000
281.257;   -6.200;   24.000;    6.000
281.397;  -97.675;-1094.000; -960.000
281.537;  -75.725; -599.000; -712.000
281.677;  -27.550; -150.000; -101.000
281.816;  -94.450; -700.000; -630.000
281.956;  -43.225; -193.000; -257.000
282.096;  -68.525; -539.000; -396.000
282.235; -107.025; -672.000; -638.000
282.375;  -15.175; -243.000;  -98.000
282.515;  -94.475; -715.000; -707.000
282.654;   34.525;   29.000;  106.000
282.794;   18.200;  388.000;  244.000
282.934;  -46.525; -530.000; -491.000
283.073; -132.000;-1030.000; -857.000
283.213;  -56.400; -460.000; -467.000
283.353;  -23.575; -408.000; -349.000
283.492;  -29.950; -264.000; -296.000
283.632;  -30.975; -254.000; -168.000
283.771;  -98.500; -859.000; -730.000
283.911;  -48.625; -369.000; -260.000
284.050; -118.025; -794.000; -748.000
284.190; -162.750;-1229.000;-1096.000
284.329; -153.575;-1055.000; -964.000
284.469;  -46.175; -516.000; -591.000
284.608;  -61.850; -559.000; -598.000
284.748;  -77.400; -614.000; -570.000
284.887;   -0.950;  -87.000;  -20.000
285.027; -112.700; -844.000; -892.000
285.166;  -39.850; -192.000; -249.000
285.306;   29.975; -116.000;  -33.000
285.445;  -41.225; -229.000; -343.000
285.584;  -91.000; -630.000; -494.000
285.724;  -45.825; -282.000; -322.000
285.863; -108.775; -857.000; -507.000
286.002;  -47.975; -366.000; -276.000
286.142; -102.375; -715.000; -622.000
286.281;  -77.925; -525.000; -493.000
286.420;  -75.000; -554.000; -417.000
286.560;   96.675;  653.000;  623.000
286.699; -126.625; -958.000; -912.000
286.838;  -70.200; -590.000; -591.000
286.978;  -72.375; -533.000; -537.000
287.117; -124.625;-1085.000; -950.000
287.256;  -21.950; -228.000; -211.000
287.395;  -56.375; -197.000; -378.000
287.535;  -39.900; -370.000; -298.000
287.674;  -74.875; -509.000; -484.000
287.813;   56.325;  661.000;  533.000
287.952; -139.500;-1010.000; -871.000
288.091; -149.850;-1049.000; -915.000
288.231;   -0.125;   13.000;   15.000
288.370; -172.825;-1217.000;-1200.000
288.509;  -95.700; -728.000; -645.000
288.648;  -92.150; -770.000; -548.000
288.787;  -39.125; -243.000;  -87.000
288.926;  -41.550; -454.000; -475.000
289.065;  128.650;  859.000;  672.000
289.204;  -43.500; -377.000; -217.000
289.344; -101.175; -791.000; -690.000
289.483;   41.675;  416.000;  304.000
289.622;  -25.425; -291.000; -149.000
289.761;  -10.800; -309.000; -166.000
289.900; -113.875; -785.000; -626.000
290.039;   -9.850;  -12.000;  -95.000
290.178;  -38.775; -274.000; -180.000
290.317;  -78.350; -618.000; -479.000
290.456;  -68.375; -463.000; -451.000
290.595; -150.475; -961.000; -833.000
290.734; -135.150; -904.000; -891.000
290.873;  -54.650; -456.000; -420.000
291.011; -108.125; -833.000; -843.000
291.150;  -95.875; -770.000; -682.000
291.289;  -20.225; -343.000; -110.000
291.428;  -92.225; -599.000; -480.000
291.567;  -46.925; -370.000; -442.000
291.706;    1.525;  109.000;  154.000
291.845;  -77.525; -597.000; -505.000
291.984; -167.700;-1234.000;-1061.000
292.122;   79.025;  602.000;  582.000
292.261;   48.675;  620.000;  463.000
292.400;    8.700; -144.000;  211.000
292.539; -126.675; -959.000; -813.000
292.678;  -37.050; -325.000; -300.000
292.816; -154.525;-1136.000; -965.000
292.955;  -88.725; -844.000; -684.000
293.094;  -19.775; -173.000; -337.000
293.233;  -65.050; -556.000; -400.000
293.371;  -37.325; -225.000;  -84.000
293.510; -113.200; -866.000; -780.000
293.649; -119.650; -959.000; -924.000
293.787;  -42.925;-1083.000;-1012.000
293.926;   -0.425; -113.000;  -32.000
294.065;  -37.375; -379.000; -290.000
294.203;   62.825;  298.000;  406.000
294.342;   33.100;   74.000;  156.000
294.481; 6301.550;51180.000; -836.000
294.619;  -18.675; -425.000; -582.000
294.758; -135.700;-1230.000;-1137.000
294.896;   95.575; -125.000;    5.000
295.035; -103.275;-1040.000;-1006.000
295.174; -120.725;-1082.000; -954.000
295.312;  -40.600; -323.000; -203.000
295.451;    2.925; -307.000; -428.000
295.589;  -39.350; -389.000; -518.000
295.728;   23.800; -292.000; -165.000
295.866;   20.425;  -36.000;  -51.000
296.005;  -61.925; -584.000; -341.000
296.143;  -58.575; -558.000; -596.000
296.282;  -92.450; -957.000; -881.000
296.420;  -75.600; -657.000; -557.000
296.559;  -84.850; -892.000; -633.000
296.697;   68.550; -847.000; -665.000
296.835;  137.125;-1141.000;-1002.000
296.974;   78.625;  -23.000;   39.000
297.112;   38.350; -443.000; -504.000
297.251;  -54.400; -815.000; -755.000
297.389;  136.550; -576.000; -438.000
297.527;   54.075; -145.000;  -83.000
297.666;  -48.075; -486.000; -438.000
297.804;  -50.150; -404.000; -264.000
297.942;    0.650; -136.000; -161.000
298.081;    4.300; -183.000;   63.000
298.219;   94.550;  -17.000;  -19.000
298.357;   62.725; -144.000;  -71.000
298.495;   58.375; -810.000; -812.000
298.634;  105.825;  245.000;  219.000
298.772;  100.125; -220.000; -338.000
298.910;  -29.600; -309.000; -182.000
299.048;   -9.500; -130.000; -153.000
299.187;  -15.575; -350.000; -250.000
299.325;   24.250;   52.000;  122.000
299.463;   96.925; -389.000; -299.000
299.601;  163.800; -327.000; -271.000
299.739;  -85.800; -908.000; -883.000
299.877;  -84.400; -791.000; -703.000
300.016;  -47.075;-1095.000; -935.000
300.154;  201.525;  -19.000; -161.000
300.292;  100.675; -428.000; -348.000
300.430;   53.250; -408.000; -291.000
300.568; -101.875; -940.000; -874.000
300.706;  -36.950; -366.000; -469.000
300.844;  -59.650;-1108.000; -979.000
300.982;  127.550;  246.000;  282.000
301.120;  -96.525; -965.000; -866.000
301.258;  -57.575; -812.000; -705.000
301.396;   56.275;  104.000;  -41.000
301.534;  120.750; -218.000; -293.000
301.672;   46.175; -664.000; -521.000
301.810;   61.275; -613.000; -545.000
301.948;  157.025;   53.000;  149.000
302.086;  708.200; -250.000;  -32.000
302.224; 1139.150; -610.000; -585.000
302.362;   66.625; -558.000; -622.000
302.500;   13.625; -923.000; -893.000
302.638;  136.250;  128.000;  245.000
302.776;    1.500; -352.000; -408.000
302.913;   44.750;  447.000;  236.000
303.051;   12.225;  -86.000;  -23.000
303.189;   78.200;   90.000;  118.000
303.327;   -8.225; -341.000; -256.000
303.465;  -84.200; -832.000; -588.000
303.603;  -80.950; -805.000; -604.000
303.740;  114.000;  417.000;  241.000
303.878;   41.600; -800.000; -759.000
304.016;  -85.500; -915.000; -790.000
304.154; -119.075;-1123.000;-1152.000
304.291;  -23.350; -505.000; -554.000
304.429;   26.025;  102.000;   74.000
304.567; -126.950; -908.000; -893.000
304.705;  -43.000; -408.000; -515.000
304.842;  122.325; -616.000; -540.000
304.980;   60.175;  215.000;   35.000
305.118;   79.750; -367.000; -365.000
305.255;  -38.375; -945.000; -927.000
305.393;   80.275;  178.000;  239.000
305.531;  -93.825;-1173.000; -956.000
305.668;  -60.525; -663.000; -582.000
305.806;  103.925; -358.000; -439.000
305.943;  134.200; -629.000; -637.000
306.081;   82.375; -378.000; -267.000
306.219;  -92.475; -863.000; -748.000
306.356;   15.075;  158.000;   27.000
306.494;  107.200;  981.000;  761.000
306.631;    1.450;  -11.000;  -55.000
306.769;   13.700; -613.000; -485.000
306.906;   -1.350; -284.000; -258.000
307.044;  -61.375; -473.000; -488.000
307.181;  -72.125; -410.000; -332.000
307.319;   22.725;  112.000;   87.000
307.456; -154.875;-1191.000;-1153.000
307.594;  -94.850; -980.000; -727.000
307.731;   -7.200; -371.000; -164.000
307.868;   -5.475;  -15.000;   20.000
308.006; -142.725; -961.000; -847.000
308.143;  -68.775; -618.000; -330.000
308.281;  139.250;  -37.000; -254.000
308.418;  -15.925; -748.000; -640.000
308.555;  -61.925; -400.000; -250.000
308.693;  -80.625; -577.000; -573.000
308.830; -105.100; -712.000; -657.000
308.967;  -17.200; -215.000;  -95.000
309.105;  -50.250; -507.000; -396.000
309.242;   29.025; -468.000; -367.000
309.379;  263.375; -577.000; -655.000
309.517;  -54.500; -936.000; -948.000
309.654; -100.175; -910.000; -734.000
309.791;  -70.250; -662.000; -580.000
309.928; -109.700; -977.000; -914.000
310.065;  210.100;  819.000;  697.000
310.203;   21.175; -825.000; -850.000
310.340;   16.450; -465.000; -321.000
310.477;  -63.700; -412.000; -516.000
310.614;  -69.250; -383.000; -473.000
310.751;  -64.825; -427.000; -518.000
310.889;  -18.225;    1.000;   11.000
311.026; -154.025;-1161.000; -939.000
311.163;  -42.700; -386.000; -380.000
311.300;  -73.975; -512.000; -479.000
311.437;  -68.575; -658.000; -619.000
311.574; -159.700;-1226.000; -985.000
311.711;  -47.500; -595.000; -433.000
311.848;  -26.475; -380.000; -388.000
311.985;   19.350;  270.000;   93.000
312.122; -113.275; -932.000; -762.000
312.259; -117.300; -941.000; -994.000
312.396;  -73.425; -508.000; -551.000
312.533;  -86.225; -812.000; -790.000
312.670; -121.200;-1070.000; -898.000
312.807;  -39.950; -352.000; -367.000
312.944;  -54.150; -513.000; -611.000
313.081;  -28.350; -150.000; -415.000
313.218; -104.375;-1111.000; -867.000
313.355;    3.125; -531.000; -449.000
313.492;   32.800; -455.000; -292.000
313.629;  157.800;  815.000;  735.000
313.766; -138.875;-1176.000;-1008.000
313.902;  -17.300; -186.000;   21.000
314.039;  -39.775; -372.000; -289.000
314.176;   48.000;  286.000;  192.000
314.313;  -69.750; -569.000; -473.000
314.450;  -76.625; -788.000; -684.000
314.587;  -49.850; -468.000; -480.000
314.723;   16.850;  -78.000;  130.000
314.860;   46.850;  318.000;  332.000
314.997;   39.325;  223.000;  142.000
315.134;  -34.375; -385.000; -368.000
315.270;  -31.650; -480.000; -496.000
315.407; -111.025;-1094.000; -967.000
315.544;  -36.575; -657.000; -538.000
315.681;  -51.150; -681.000; -565.000
315.817;   35.900; -133.000; -176.000
315.954;   46.275; -613.000; -392.000
316.091; -123.725;-1045.000;-1023.000
316.227;  -20.375;  -71.000; -179.000
316.364;    4.150;   23.000;    6.000
316.500;  -44.850; -113.000; -300.000
316.637;  -31.450; -181.000; -302.000
316.774;  -88.100; -625.000; -358.000
316.910;  -90.425; -598.000; -629.000
317.047;  -61.375; -487.000; -351.000
317.183;  -49.900; -435.000; -566.000
317.320;  -44.500; -367.000; -321.000
317.456;  -78.925; -733.000; -805.000
317.593;  -75.350; -598.000; -641.000
317.729;   13.275;  168.000;  -67.000
317.866; -195.625;-1434.000;-1285.000
318.002;  -94.400; -708.000; -948.000
318.139;  -80.925; -883.000; -867.000
318.275; -102.075;-1003.000; -738.000
318.412;  -54.800; -517.000; -336.000
318.548;  -14.075; -751.000; -720.000
318.685;  -81.150; -985.000; -888.000
318.821; -109.300; -762.000; -735.000
318.957;  -12.000;   34.000;  -23.000
319.094;   47.850;  297.000;  154.000
319.230;  -50.575; -756.000; -742.000
319.367;  149.000; -471.000; -520.000
319.503;   64.975; -538.000; -436.000
319.639;  -92.150; -877.000; -793.000
319.775;  -54.450; -750.000; -685.000
319.912;  -48.550; -424.000; -519.000
320.048;  -94.525;-1184.000;-1184.000
320.184;   64.525;   59.000;   70.000
320.321;  -56.725; -497.000; -467.000
320.457;   58.725;  475.000;  662.000
320.593;  -62.600; -375.000; -382.000
320.729; -115.100; -732.000; -734.000
320.866;  -62.000; -577.000; -635.000
321.002;  -71.625; -759.000; -809.000
321.138;  -17.750; -135.000; -211.000
321.274;   77.025; -148.000; -115.000
321.410;  -15.050; -585.000; -353.000
321.546;  -23.625;-1011.000; -911.000
321.683;   69.775;  400.000;  185.000
321.819;    7.325;  -48.000; -117.000
321.955; -104.575; -743.000; -722.000
322.091;  -51.575; -585.000; -540.000
322.227;   -1.675; -382.000; -202.000
322.363;  -14.525; -320.000; -215.000
322.499;  -37.225; -343.000; -331.000
322.635;  177.450;  636.000;  443.000
322.771;   41.600; -139.000;   12.000
322.907;   97.700;  129.000;  327.000
323.043;  -10.725; -115.000; -206.000
323.179;  -32.800; -394.000; -363.000
323.315;   80.775; -401.000; -371.000
323.451;  143.675; -328.000; -236.000
323.587;   69.575;  -60.000;  -77.000
323.723;   39.450; -682.000; -601.000
323.859;   -8.175; -258.000;  -76.000
323.995;  -34.600; -467.000; -409.000
324.131; -116.450; -967.000; -892.000
324.267;  -41.600; -254.000; -276.000
324.402; -117.175; -960.000; -983.000
324.538;    3.000; -279.000; -104.000
324.674;   48.950;  164.000;   77.000
324.810;  182.000;  226.000;  308.000
324.946;   37.700; -810.000; -658.000
325.082;  -57.425; -568.000; -475.000
325.217;   -9.750;  -62.000;   16.000
325.353; -103.425; -764.000; -659.000
325.489;  -79.400; -540.000; -506.000
325.625;  -75.100; -579.000; -525.000
325.760;   36.625;  517.000;  376.000
325.896;  -54.150; -515.000; -702.000
326.032;  -49.075; -403.000; -352.000
326.168;  -57.175; -462.000; -369.000
326.303;  -52.025; -352.000; -461.000
326.439;  -24.025; -336.000; -276.000
326.575;    5.225; -190.000;  -29.000
326.710;    3.850; -156.000;  -30.000
326.846;    9.550;  146.000;  103.000
326.982;  -91.350; -530.000; -548.000
327.117;  -63.950; -481.000; -442.000
327.253; -104.150; -745.000; -742.000
327.388; -131.875;-1137.000;-1153.000
327.524;  -29.225; -811.000; -578.000
327.659;  -19.650;  -58.000;  -22.000
327.795;  -14.650;   69.000;   45.000
327.931;  -82.450; -723.000; -499.000
328.066;  -13.550; -417.000; -276.000
328.202;   -0.900;   12.000; -129.000
328.337;  110.800;  957.000;  713.000
328.473;   48.325;  -12.000;  -74.000
328.608;  -11.525; -256.000; -267.000
328.743;  -80.500; -799.000; -664.000
328.879;   21.125;  214.000;  114.000
329.014;  -27.075; -102.000; -122.000
329.150;  -80.825; -358.000; -483.000
329.285;  -60.625; -465.000; -466.000
329.421;  -50.825; -548.000; -246.000
329.556;  -15.900;  -36.000;   85.000
329.691; -108.750; -633.000; -615.000
329.827;  -82.875; -626.000; -480.000
329.962;  -39.300;  131.000; -301.000
330.097;  -98.800; -673.000; -585.000
330.233;  -61.025; -410.000; -223.000
330.368; -112.175; -839.000; -628.000
330.503;   -8.450;    3.000;   98.000
330.638;   20.150;  -93.000; -125.000
330.774;  -42.800; -609.000; -530.000
330.909;  -30.975; -434.000; -244.000
331.044;  -83.925; -714.000; -708.000
331.179; -164.200;-1217.000;-1109.000
331.315;   15.075;   77.000;   20.000
331.450;   12.375;  157.000;  285.000
331.585;  -90.600; -805.000; -706.000
331.720;  -80.900; -510.000; -460.000
331.855;  -14.175;  -35.000; -102.000
331.990;  140.450;   62.000;  138.000
332.126;   81.700; -110.000;   71.000
332.261;  -26.400; -379.000; -265.000
332.396;   -6.325; -135.000; -242.000
332.531; -117.925;-1074.000;-1031.000
332.666;   -3.450; -519.000; -363.000
332.801;  -95.600; -726.000; -807.000
332.936;  -32.075; -192.000; -122.000
333.071; -153.050; -870.000; -817.000
333.206;   36.575;  307.000;  379.000
333.341;   50.675;  344.000;  418.000
333.476;  -80.225; -627.000; -623.000
333.611;  -26.025; -251.000; -173.000
333.746;  -40.250; -381.000; -464.000
333.881;  -87.025; -973.000; -935.000
334.016; -129.700; -936.000; -917.000
334.151; -116.750; -746.000; -702.000
334.286;   43.025;  152.000;  186.000
334.421;   -2.500; -125.000; -178.000
334.556;  -66.775; -611.000; -567.000
334.690;  -62.225; -631.000; -577.000
334.825;   88.225;  381.000;   83.000
334.960;  -38.250; -285.000; -413.000
335.095;   30.175;  135.000;  -91.000
335.230;  -92.225; -722.000; -738.000
335.365; -104.400;-1084.000; -990.000
335.499;  -97.025;-1108.000;-1037.000
335.634;   45.125;    9.000;  534.000
335.769;  -82.825; -755.000; -720.000
335.904;  -40.025; -603.000; -561.000
336.038;  -30.150; -735.000; -657.000
336.173;  -94.850;-1206.000;-1194.000
336.308;   46.500; -116.000; -189.000
336.443;   31.700; -544.000; -634.000
336.577;  -47.650; -936.000; -787.000
336.712;   88.250;   -4.000;  -12.000
336.847;   -1.550; -724.000; -607.000
336.981;  107.350; -272.000; -208.000
337.116;  353.650;  615.000;  501.000
337.250;  233.975; -434.000; -421.000
337.385;  149.950; -297.000; -208.000
337.520;    3.600; -632.000; -603.000
337.654;  -34.900; -215.000; -126.000
337.789; -126.850; -989.000; -933.000
337.923;   -8.175; -104.000; -205.000
338.058;  -71.225; -673.000; -738.000
338.192;  -22.300; -611.000; -488.000
338.327;   -1.225;  -18.000; -155.000
338.461;  -67.100; -299.000; -469.000
338.596;  -89.775; -780.000; -638.000
338.730; -100.725; -767.000; -803.000
338.865;   49.825;  -46.000; -140.000
338.999; -101.125; -846.000; -702.000
339.134;  -52.300; -634.000; -536.000
339.268;    4.075; -741.000; -603.000
339.403;  230.875; -740.000; -775.000
339.537;   21.300; -894.000; -820.000
339.671; -116.125; -829.000; -813.000
339.806;  -87.300; -556.000; -512.000
339.940;    1.275; -261.000; -235.000
340.074;  -90.950; -685.000; -510.000
340.209;  -49.050; -351.000; -230.000
340.343;  -85.900; -517.000; -573.000
340.477;  160.175;  998.000; 1036.000
340.612;  -85.925;-1033.000; -900.000
340.746;   80.475; -199.000; -243.000
340.880;  -56.525; -924.000; -785.000
341.014;  -13.150;  -45.000; -154.000
341.149; -105.700; -756.000; -718.000
341.283; -112.175; -839.000; -754.000
341.417;  -64.025;-1124.000; -938.000
341.551;  229.750; -768.000; -708.000
341.685;  -16.750; -633.000; -611.000
341.820;  -65.000; -562.000; -493.000
341.954;  -45.000; -218.000; -349.000
342.088; -147.100;-1102.000;-1019.000
342.222;   69.450;  565.000;  618.000
342.356;  -50.625; -395.000; -335.000
342.490;  -73.600; -880.000; -841.000
342.624;  -36.575; -339.000; -242.000
342.758;   28.875; -364.000; -312.000
342.892;  -43.300; -710.000; -585.000
343.026;  -19.625;  -58.000; -116.000
343.160;  -65.925; -426.000; -376.000
343.294;  -76.175; -474.000; -337.000
343.428;   -4.000; -488.000; -448.000
343.562;   13.075; -172.000;  -23.000
343.696;  -11.000; -385.000; -314.000
343.830;    7.250; -362.000; -356.000
343.964;   35.850; -231.000; -168.000
344.098; 1193.875;  199.000;   70.000
344.232;  980.125; -266.000; -127.000
344.366;   83.475; -567.000; -453.000
344.500;  100.575; -665.000; -744.000
344.634;   58.775; -324.000; -164.000
344.768;    5.100; -531.000; -341.000
344.902;   27.000;  278.000;  256.000
345.035;  -71.525; -556.000; -496.000
345.169; -139.850; -933.000; -656.000
345.303;  -18.100; -308.000; -482.000
345.437;  -43.900; -826.000; -717.000
345.571;  -80.050; -675.000; -594.000
345.704;  -65.950; -309.000; -532.000
345.838;  -18.125; -331.000; -284.000
345.972;  -19.200; -543.000; -495.000
346.106;  111.725; -179.000; -190.000
346.239;  407.725; -312.000; -243.000
346.373;   16.250; -343.000; -302.000
346.507; -135.950; -950.000; -962.000
346.640;  205.400;  -30.000;   13.000
346.774;  -12.450; -650.000; -797.000
346.908;  -11.950; -138.000;  -11.000
347.041;  -87.175; -646.000; -593.000
347.175;    3.400;  259.000;   27.000
347.309;  -50.575; -698.000; -628.000
347.442; -108.575; -883.000; -732.000
347.576;  342.600;  670.000;  668.000
347.709;  261.650; -123.000;  -52.000
347.843;  -49.525; -933.000; -825.000
347.976;   43.925;  235.000;  294.000
348.110; -182.150;-1268.000;-1186.000
348.243; -107.575; -679.000; -772.000
348.377;   14.075;  -26.000;   60.000
348.510;   48.375;  403.000;  540.000
348.644;   -9.650;  -37.000; -159.000
348.777;   18.950;  180.000;  191.000
348.911;  -32.750; -142.000; -112.000
349.044;  209.250;  471.000;  448.000
349.178;  238.300;-1069.000;-1006.000
349.311;  123.125;  141.000;  255.000
349.444;  -24.225; -927.000; -813.000
349.578;  -12.250; -347.000; -200.000
349.711;  -72.350; -959.000; -862.000
349.845;   36.375; -661.000; -591.000
349.978; -133.725;-1224.000;-1137.000
350.111;  -84.125; -546.000; -612.000
350.244;  -78.375; -596.000; -700.000
350.378;   29.375; -392.000; -393.000
350.511;  -70.600; -393.000; -426.000
350.644;  -96.250; -808.000; -806.000
350.778;   15.350;  168.000;  104.000
350.911;   15.000;  134.000;  140.000
351.044;  -88.300; -685.000; -615.000
351.177;   -5.225; -321.000; -281.000
351.310;   -2.500;    3.000; -131.000
351.444;  -50.900; -888.000; -788.000
351.577;  171.925;  140.000;   90.000
351.710;  107.600;  593.000;  417.000
351.843;  -34.025; -165.000;  -77.000
351.976;    7.375;  149.000;  -79.000
352.109;  -75.050; -621.000; -612.000
352.242;   -6.950; -464.000; -419.000
352.376;  -27.925; -580.000; -636.000
352.509;  282.125; -437.000; -356.000
352.642;   59.125; -654.000; -604.000
352.775;   80.425; -141.000;  -98.000
352.908; -109.225; -933.000; -904.000
353.041;  -92.150; -814.000; -824.000
353.174;  -48.500; -551.000; -424.000
353.307;  -84.825; -753.000; -764.000
353.440;   86.275;  541.000;  453.000
353.573; -102.800; -957.000;-1008.000
353.706;  -49.325; -384.000; -558.000
353.839;  -22.425; -264.000; -220.000
353.971;  -77.000; -657.000; -512.000
354.104;  -74.000; -896.000; -835.000
354.237;  -32.750; -627.000; -662.000
354.370;  -75.275; -846.000; -879.000
354.503; -169.100;-1231.000;-1308.000
354.636;  -23.475; -529.000; -348.000
354.769; -118.075; -937.000; -860.000
354.902;    3.325; -230.000; -139.000
355.034;   -7.600; -164.000; -220.000
355.167;  -17.600; -262.000; -162.000
355.300;  -89.000;-1061.000; -880.000
355.433;  685.050;  -71.000;  -14.000
355.565; 1049.775; -402.000; -384.000
355.698;  252.625; -356.000; -296.000
355.831;  -11.900; -882.000; -801.000
355.964;  136.100; -285.000; -170.000
356.096;  -63.975; -856.000; -843.000
356.229;   35.925; -523.000; -530.000
356.362;  204.025; -373.000; -266.000
356.494;  410.875; -229.000; -162.000
356.627;  570.450;  269.000;  377.000
356.760;  531.875;  120.000;   53.000
356.892;  622.250; -286.000; -601.000
357.025;  791.450;  403.000;  389.000
357.157;  790.575; -167.000; -179.000
357.290;  380.550; -856.000; -713.000
357.423;  143.100; -667.000; -556.000
357.555;  151.600; -217.000; -228.000
357.688;  155.700; -483.000; -364.000
357.820;  518.700; -870.000; -877.000
357.953; 4035.725; -563.000; -589.000
358.085; 1012.750; -632.000; -612.000
358.218; 1763.525;-1131.000; -932.000
358.350;  321.025;  -58.000;  312.000
358.483;  -92.925;-1300.000;-1187.000
358.615;   30.900;-1182.000;-1078.000
358.747;    6.600;-1187.000;-1058.000
358.880;   60.650; -810.000; -744.000
359.012;   14.900; -376.000; -202.000
359.145;  -36.600; -480.000; -511.000
359.277;   90.575; -962.000; -913.000
359.409; 3498.575;  536.000;  231.000
359.542;  920.275; -738.000; -688.000
359.674;   89.025;   46.000;   13.000
359.806;  -66.475; -565.000; -438.000
359.939;  -59.325; -617.000; -516.000
360.071;  -45.650; -583.000; -579.000
360.203;  -17.225; -411.000; -364.000
360.335;   54.100;  164.000;  -16.000
360.468;  203.050; -249.000; -307.000
360.600; 2622.750; -547.000; -454.000
360.732; 1838.925; -546.000; -423.000
360.864;  239.825;-1216.000;-1044.000
360.996;  415.625; -516.000; -554.000
361.129;   85.325; -389.000; -598.000
361.261;   20.225;  110.000; -113.000
361.393;  -37.075; -252.000; -214.000
361.525;   27.900;   94.000;  244.000
361.657;  -34.625; -821.000; -703.000
361.789;   40.350; -139.000; -155.000
361.921;  365.750; -642.000; -593.000
362.053;  331.575;  524.000;  541.000
362.185;   79.325;  288.000;   72.000
362.318;  -65.300; -709.000; -705.000
362.450;  204.325;  294.000;  444.000
362.582;  316.375; -913.000; -870.000
362.714;   -1.050; -353.000; -332.000
362.846;  -79.025; -606.000; -490.000
362.978; -142.575; -941.000; -811.000
363.109;   77.425; -161.000; -260.000
363.241;  564.275; -739.000; -749.000
363.373;  302.025; -649.000; -564.000
363.505;  428.175; -186.000;  -91.000
363.637;  109.600; -787.000; -601.000
363.769; -110.375;-1067.000;-1080.000
363.901;  -69.350; -596.000; -654.000
364.033;  -92.250;-1103.000;-1062.000
364.165;   13.925; -283.000; -283.000
364.296;   49.450; -316.000; -177.000
364.428;  -13.900;-1344.000;-1220.000
364.560;  -67.550; -679.000; -661.000
364.692;  -55.850; -738.000; -835.000
364.824;  432.350; -588.000; -456.000
364.955;  378.225; -402.000; -564.000
365.087;  435.175;-1097.000; -852.000
365.219;   -3.625; -686.000; -816.000
365.351;  -69.700; -526.000; -572.000
365.482;   62.075;  300.000;  240.000
365.614;  -44.750; -402.000; -314.000
365.746;  -92.275; -729.000; -752.000
365.877;  -95.850; -706.000; -672.000
366.009;  148.850;  -35.000;  -62.000
366.141; -131.950;-1249.000;-1134.000
366.272; -108.725; -803.000; -719.000
366.404; -117.800;-1005.000; -874.000
366.535;  -13.350; -139.000;  -12.000
366.667;  -88.700; -644.000; -649.000
366.799;   32.450;  353.000;  203.000
366.930; -106.200; -862.000; -996.000
367.062;   97.275; -639.000; -613.000
367.193;   51.450; -872.000; -842.000
367.325;  -70.775; -580.000; -684.000
367.456;  135.475; -246.000;   31.000
367.588;  109.275; -371.000; -318.000
367.719;   16.000;  -44.000;  -45.000
367.851;   -7.250; -222.000; -241.000
367.982;  -24.725; -875.000; -732.000
368.113;  159.450; -475.000; -358.000
368.245; -105.275; -960.000; -841.000
368.376;   -5.075; -254.000; -302.000
368.508;  -12.675; -188.000; -263.000
368.639; -131.600;-1166.000;-1034.000
368.770;   15.375; -670.000; -589.000
368.902;  -35.925; -836.000; -926.000
369.033;  -85.625; -906.000; -855.000
369.164;  -62.350; -720.000; -653.000
369.296;  -96.600; -452.000; -601.000
369.427;   11.975; -209.000; -144.000
369.558;  -34.975; -593.000; -377.000
369.689;  -85.975; -721.000; -569.000
369.821; -128.500; -951.000; -845.000
369.952;  -22.400;   42.000; -108.000
370.083;  -45.300; -229.000; -108.000
370.214;  -75.000; -735.000; -650.000
370.345;   15.300;   65.000;   81.000
370.477;  -70.200; -810.000; -790.000
370.608;  337.225; -328.000; -264.000
370.739;   -9.250;-1233.000;-1292.000
370.870;    1.400;-1102.000; -923.000
371.001;  134.825; -378.000; -467.000
371.132;  -64.575; -754.000; -735.000
371.263;  -11.225;  -42.000; -148.000
371.394; -130.225; -841.000; -748.000
371.525;   41.700;  345.000;  225.000
371.657;  -64.100; -808.000; -670.000
371.788;   76.125;  103.000;  199.000
371.919;  225.525; -384.000; -304.000
372.050; 4488.000;  -91.000; -156.000
372.181; 1341.875; -188.000; -294.000
372.311;  480.925;   42.000; -127.000
372.442;   71.875; -457.000; -451.000
372.573;   -3.900; -444.000; -340.000
372.704; -106.375;-1008.000; -980.000
372.835;  121.050; -228.000; -289.000
372.966;  -37.325; -646.000; -554.000
373.097;  -56.925; -575.000; -711.000
373.228;  -20.550; -717.000; -542.000
373.359;  207.375; -824.000; -536.000
373.490; 1269.375; -881.000; -727.000
373.620; 1530.625;-1001.000; -803.000
373.751; 2370.200; -332.000; -396.000
373.882; 1072.575; -663.000; -733.000
374.013;  117.375; -449.000; -262.000
374.143;  -33.050; -581.000; -659.000
374.274;  -89.650; -987.000; -908.000
374.405;  214.550; -388.000; -276.000
374.536;  633.775; -526.000; -387.000
374.666; 1547.075; -759.000; -807.000
374.797;  329.325; -817.000; -868.000
374.928; 1223.125; -710.000; -560.000
375.058; 1188.200; -535.000; -500.000
375.189;   91.875;  -59.000;  -93.000
375.320;  -89.325; -928.000;-1034.000
375.450;  -27.100; -625.000; -616.000
375.581;  -47.650; -526.000; -436.000
375.712;  -25.650; -574.000; -250.000
375.842;  426.175; -438.000; -415.000
375.973;  301.175; -554.000; -513.000
376.103;   -1.450; -665.000; -648.000
376.234;  -75.375; -531.000; -552.000
376.364;   -9.800; -944.000; -867.000
376.495;  381.450;  925.000;  529.000
376.625;   55.025; -472.000; -485.000
376.756;  110.725; -709.000; -678.000
376.886;  -30.750;-1178.000;-1026.000
377.017;  -14.125;-1048.000;-1061.000
377.147;  171.775; -786.000; -782.000
377.278;   46.500;  174.000;  228.000
377.408; -112.925; -801.000; -815.000
377.538; -102.200; -707.000; -693.000
377.669;  -74.775; -537.000; -613.000
377.799;  -63.525; -645.000; -635.000
377.929;  -21.025; -610.000; -428.000
378.060; -108.475; -781.000; -847.000
378.190;  -65.550; -726.000; -531.000
378.320;  -44.075; -401.000; -406.000
378.451;    5.125; -131.000;  -22.000
378.581;   21.000;  -67.000; -110.000
378.711;  191.725; 1035.000;  866.000
378.841;   10.550; -533.000; -675.000
378.972;  -37.700; -871.000; -751.000
379.102;   25.425; -652.000; -579.000
379.232;    9.175; -126.000;  -73.000
379.362; -109.525;-1001.000; -885.000
379.492;   65.850; -373.000; -424.000
379.623;  133.750;    0.000;  111.000
379.753;  -71.500;-1107.000; -974.000
379.883;  264.775;   59.000;  156.000
380.013;   55.600;-1081.000;-1017.000
380.143;  -93.975;-1097.000;-1056.000
380.273;  -83.000; -985.000; -861.000
380.403;   14.100; -344.000; -257.000
380.533;   17.125; -651.000; -664.000
380.663;   95.825;  173.000;  128.000
380.793;  -63.225;-1027.000;-1074.000
380.923;   -3.625; -103.000;  -34.000
381.053;  -81.425; -613.000; -623.000
381.183;  -21.125; -106.000; -248.000
381.313;   77.650; -656.000; -470.000
381.443;   69.825; -692.000; -473.000
381.573;  326.750; -402.000; -409.000
381.703;  455.250;-1249.000;-1095.000
381.833;  -86.150;-1454.000;-1336.000
381.963;  150.025; -134.000;  -87.000
382.093; 1655.325; -925.000; -909.000
382.223;  500.900; -713.000; -602.000
382.353;   19.675; -801.000; -608.000
382.482;  576.900;-1091.000; -964.000
382.612;  962.325; -872.000; -644.000
382.742;  520.600; -695.000; -622.000
382.872;  400.150; -565.000; -551.000
383.002;   82.050;  347.000; -132.000
383.131;   -2.925; -226.000; -160.000
383.261;  -30.675; -706.000; -768.000
383.391;  254.000; -552.000; -377.000
383.521; 2004.800;  451.000;  263.000
383.650;  370.275; -947.000; -904.000
383.780;  -42.525; -783.000; -656.000
383.910;  127.600;  880.000;  802.000
384.039;   57.725; -794.000; -656.000
384.169;  318.525;-1205.000;-1017.000
384.299;   16.175; -650.000; -662.000
384.428;  -54.725; -764.000; -680.000
384.558;  -40.275; -308.000; -275.000
384.687;  -12.875; -414.000; -334.000
384.817;   37.750;   75.000;   -2.000
384.947;   67.425; -234.000; -141.000
385.076;  366.775;  982.000;  912.000
385.206;  145.050;  369.000;  480.000
385.335;   -0.600; -549.000; -417.000
385.465;  -49.425; -655.000; -663.000
385.594;  217.850;  -53.000;  -44.000
385.724;  652.450; -868.000; -838.000
385.853;  187.350; -296.000; -270.000
385.982; 1848.975; -743.000; -787.000
386.112; 2780.700;-1052.000; -871.000
386.241;  226.600; -307.000; -312.000
386.371;   43.550; -174.000;  -87.000
386.500;   15.650; -825.000; -789.000
386.629;    4.300; -874.000; -817.000
386.759;   76.200;  -43.000;   68.000
386.888;   23.425; -170.000; -250.000
387.017;  -51.800; -648.000; -620.000
387.147;  -65.300; -771.000; -798.000
387.276;   36.000; -410.000; -397.000
387.405;   57.325; -398.000; -342.000
387.535;  -26.500; -452.000; -361.000
387.664;  -56.000; -692.000; -620.000
387.793;  105.300; -198.000; -113.000
387.922;  719.775;  255.000;  200.000
388.052;   89.550; -576.000; -423.000
388.181;   87.400; -342.000; -472.000
388.310;  115.950; -889.000; -710.000
388.439;   18.075; -749.000; -742.000
388.568;  287.000;  365.000;  244.000
388.697; 1481.800; -756.000; -653.000
388.826;  314.075; -768.000; -666.000
388.956;   98.625; -285.000; -307.000
389.085;   -0.350; -347.000; -287.000
389.214; -105.850; -842.000; -872.000
389.343;  -37.550; -645.000; -413.000
389.472;  301.175;  126.000;  149.000
389.601;  443.950;   91.000;    0.000
389.730;   30.700; -568.000; -687.000
389.859;   88.550;  226.000;   46.000
389.988;  260.975; -423.000; -408.000
390.117;  195.275; -168.000; -146.000
390.246;   19.950; -331.000; -320.000
390.375;  176.050; -673.000; -626.000
390.504;  -48.325; -703.000; -621.000
390.633;  -82.175; -672.000; -726.000
390.761;  -34.550; -732.000; -645.000
390.890;   77.450;   -4.000; -130.000
391.019;    7.825; -421.000; -441.000
391.148; -120.375; -826.000; -855.000
391.277;  -49.850; -576.000; -493.000
391.406;  -30.250; -821.000; -805.000
391.534;   33.975;  574.000; -301.000
391.663;  -36.650; -583.000; -645.000
391.792;  -51.100; -673.000; -701.000
391.921;  201.700;   -3.000;   15.000
392.050;  322.450; -287.000; -228.000
392.178;   27.275;-1206.000;-1061.000
392.307;  227.800; -758.000; -712.000
392.436;  128.350; -427.000; -641.000
392.564;   24.125;  166.000;   -6.000
392.693;  -67.975; -860.000; -682.000
392.822;  321.850; -529.000; -534.000
392.950;  181.625; -880.000; -714.000
393.079;  460.125; -188.000; -328.000
393.208;   66.825; -488.000; -511.000
393.336;   -6.375; -170.000; -145.000
393.465;  -50.775; -317.000; -199.000
393.593;    3.375;   62.000;   79.000
393.722; -146.975;-1121.000; -916.000
393.850;  -23.525; -188.000;  -61.000
393.979; -152.125; -926.000; -805.000
394.107;  -53.525; -517.000; -537.000
394.236;    6.775; -570.000; -507.000
394.364;  196.575;  383.000;  206.000
394.493;  280.600; -911.000; -767.000
394.621;  -41.575; -955.000; -916.000
394.750;  467.825; -873.000; -923.000
394.878; 2041.775; -247.000; -149.000
395.007; 2716.925; -721.000; -807.000
395.135;  170.375; -790.000; -721.000
395.263;  -96.850;-1038.000;-1040.000
395.392;    1.375;  -25.000; -107.000
395.520; -134.775; -818.000; -679.000
395.648;  -68.925; -865.000; -915.000
395.777;    5.900; -366.000; -405.000
395.905;  -42.325; -449.000; -564.000
396.033;   28.225;  217.000;  172.000
396.162;  502.575; -399.000; -453.000
396.290;  425.650;  -17.000;   -2.000
396.418;  152.175; -555.000; -514.000
396.546;  -68.000; -571.000; -466.000
396.674;  -84.025; -850.000; -878.000
396.803;   23.150;  -72.000;  -23.000
396.931;  163.375; -179.000; -199.000
397.059;  141.850;-1026.000; -989.000
397.187;  -93.125;-1026.000; -975.000
397.315; -127.975; -884.000; -649.000
397.443;  -76.575; -592.000; -443.000
397.572;  -83.650; -578.000; -424.000
397.700;   29.550; -607.000; -614.000
397.828;   56.050;  120.000;  -90.000
397.956;  -37.625; -508.000; -478.000
398.084;  -86.575; -767.000; -626.000
398.212;   41.575;  137.000;  124.000
398.340;   35.950;  -56.000;  159.000
398.468;   70.100; -390.000; -169.000
398.596; -125.125; -993.000; -953.000
398.724; -120.925; -762.000; -767.000
398.852; -162.950;-1024.000; -976.000
398.980;  -60.350; -560.000; -560.000
399.108;  -39.975; -982.000; -735.000
399.236;   43.275;   13.000;    8.000
399.363;   29.625;  222.000;  196.000
399.491;  -60.300; -404.000; -398.000
399.619; -111.725; -829.000; -800.000
399.747;  -82.800; -859.000; -771.000
399.875;  114.825;  220.000;  234.000
400.003;  -56.500; -359.000; -284.000
400.130;  -90.450; -421.000; -341.000
400.258;  -32.550;  -83.000;   38.000
400.386;  -75.575; -352.000; -168.000
400.514;  -24.350; -526.000; -587.000
400.641;  -56.125; -928.000; -802.000
400.769; -134.550; -979.000; -888.000
400.897;  -96.775; -838.000; -793.000
401.025;   -7.200; -166.000; -152.000
401.152;    6.075;  220.000;   38.000
401.280;  -67.300; -430.000; -429.000
401.408; -100.300; -712.000; -576.000
401.535;  -90.300; -735.000; -758.000
401.663; -181.100;-1134.000;-1054.000
401.790;  -79.450; -514.000; -525.000
401.918;   62.050;  436.000;  405.000
402.046;  -26.550;  134.000;  122.000
402.173;  -36.925;  -18.000;    7.000
402.301;  -79.200; -519.000; -397.000
402.428;   62.250;  528.000;  383.000
402.556; -135.900;-1188.000; -913.000
402.683;  -28.425;  -20.000;   -1.000
402.811;  -28.450;  -37.000; -206.000
402.938;   -9.700;   20.000;   27.000
403.066;  293.150; -574.000; -558.000
403.193;  432.375;  299.000;  239.000
403.321;  376.675; -396.000; -574.000
403.448;  407.225;   83.000;   27.000
403.575;  195.250;  -90.000;  -46.000
403.703;  -80.525; -732.000; -557.000
403.830;  -59.650; -531.000; -496.000
403.957; -149.225;-1117.000;-1023.000
404.085;    1.350;  -61.000; -172.000
404.212;  118.350;  -50.000;   63.000
404.339;  189.150; -566.000; -306.000
404.467; 3931.450; -612.000; -524.000
404.594; 3108.225; -287.000; -227.000
404.721;  891.750; -869.000; -764.000
404.848;   70.325; -113.000; -202.000
404.976;  -86.675; -856.000; -783.000
405.103;   -1.475;  -14.000;  -82.000
405.230;   12.750;  190.000;  226.000
405.357;   35.700;  117.000;   44.000
405.484;  181.425;  -49.000;    5.000
405.612;   14.325; -548.000; -563.000
405.739;  -50.900; -488.000; -243.000
405.866;   90.950;  669.000;  385.000
405.993;  -21.575; -398.000; -102.000
406.120; -129.300; -801.000; -887.000
406.247;  -36.925; -323.000; -342.000
406.374;  621.500;  540.000;  629.000
406.501;  193.750; -632.000; -702.000
406.628;  -83.150; -621.000; -589.000
406.755;  -87.675; -803.000; -620.000
406.882;  -34.250; -228.000; -277.000
407.009;  -97.800; -719.000; -628.000
407.136;  104.450; -480.000; -401.000
407.263;  241.150; -939.000; -829.000
407.390;  -67.500; -692.000; -614.000
407.517; -147.600;-1139.000;-1187.000
407.644;  -47.750; -332.000; -256.000
407.771;  -66.700; -249.000; -287.000
407.898;   12.950;  168.000;  328.000
408.025;  -59.175; -421.000; -313.000
408.151;  -11.600;   82.000;  153.000
408.278;  -65.900; -267.000; -216.000
408.405; -109.750; -931.000; -899.000
408.532;  -76.450; -549.000; -542.000
408.659; -126.300; -677.000; -648.000
408.785; -194.000;-1298.000;-1170.000
408.912;  -64.125; -412.000; -296.000
409.039; -108.725; -610.000; -686.000
409.166;  -96.650; -591.000; -555.000
409.292; -108.150; -571.000; -534.000
409.419; -122.700; -665.000; -649.000
409.546;  -83.925; -431.000; -192.000
409.672; -115.725; -713.000; -545.000
409.799;  -12.350;  -36.000;   34.000
409.926;  -43.750; -180.000; -179.000
410.052; -178.400;-1127.000;-1091.000
410.179;  -58.825; -368.000; -392.000
410.305;  -79.900; -375.000; -493.000
410.432;  -35.225; -220.000; -333.000
410.558;  -84.800; -305.000; -380.000
410.685; -111.225; -688.000; -431.000
410.812;  -97.875; -409.000; -588.000
410.938; -128.175; -964.000; -808.000
411.065;  -89.300; -671.000; -645.000
411.191;  -12.000; -189.000; -174.000
411.317; -111.100; -823.000; -742.000
411.444;  -75.575; -317.000; -246.000
411.570;  -77.250; -339.000; -294.000
411.697; -123.200; -758.000; -752.000
411.823; -159.625; -989.000; -999.000
411.949;  -13.475;  -56.000;   17.000
412.076; -113.025; -539.000; -519.000
412.202; -108.500; -758.000; -757.000
412.329; -115.325; -798.000; -752.000
412.455; -118.800; -821.000; -657.000
412.581;  -13.050;  -15.000;  172.000
412.707;  -57.350; -540.000; -457.000
412.834;   30.325;  156.000;  219.000
412.960;  -79.350; -785.000; -784.000
413.086;  -94.150; -743.000; -701.000
413.212;  204.700;  604.000;  578.000
413.339;  -38.275; -685.000; -701.000
413.465;   36.650; -364.000; -310.000
413.591;  -69.850; -757.000; -474.000
413.717;  -43.750; -358.000; -366.000
413.843; -130.325; -839.000; -861.000
413.969;  -68.150;  -47.000; -292.000
414.096;  -85.375; -679.000; -679.000
414.222;  -12.500;  -33.000;   85.000
414.348;   -1.650; -652.000; -385.000
414.474;  135.975;   38.000;  -52.000
414.600;  -16.150; -126.000; -144.000
414.726;  -27.600;  -96.000;  -55.000
414.852;  -64.875; -365.000; -342.000
414.978;   17.400;  104.000;  -18.000
415.104;   44.950;   38.000;   80.000
415.230;   17.400; -329.000; -330.000
415.356;   31.950; -409.000; -514.000
415.482;  174.900;   13.000;  -35.000
415.608;  211.825; -247.000; -323.000
415.734;  745.375;   67.000;   38.000
415.860;15599.200; -875.000; -767.000
415.986;10868.550; -685.000; -607.000
416.111;  872.175; -798.000; -652.000
416.237;  161.725; -424.000; -571.000
416.363;  764.750; -765.000; -733.000
416.489; 2835.400; -324.000; -251.000
416.615;  242.125; -707.000; -742.000
416.741;  -52.325; -677.000; -784.000
416.866; -101.125; -673.000; -736.000
416.992; -137.700; -801.000; -818.000
417.118;  -31.300;  -41.000;  -80.000
417.244;  -65.025; -798.000; -531.000
417.369;  -79.600; -801.000; -612.000
417.495;    2.375; -325.000; -254.000
417.621;  -72.000;-1015.000; -803.000
417.746;   -1.675; -579.000; -572.000
417.872;   34.300; -254.000; -144.000
417.998;   15.000; -515.000; -530.000
418.123;  730.950;-1073.000; -845.000
418.249; 3766.725; -512.000; -601.000
418.374;  461.525; -916.000; -824.000
418.500;   52.900; -383.000; -482.000
418.626;   78.400;   70.000;  -59.000
418.751;  101.450; -549.000; -448.000
418.877;  119.250; -637.000; -643.000
419.002; 1304.500; -688.000; -560.000
419.128; 8831.100; -930.000; -721.000
419.253; 1971.350; -967.000; -837.000
419.379;  247.800; -391.000; -338.000
419.504;  303.700;  325.000;  415.000
419.629;  337.725; -393.000; -212.000
419.755; 2362.350; -317.000; -254.000
419.880;13432.325;  -98.000;   67.000
420.006; 8111.125; -280.000; -221.000
420.131;21679.100; -662.000; -775.000
420.256; 3010.500; -315.000; -316.000
420.382;  384.825; -665.000; -687.000
420.507;   31.700; -649.000; -778.000
420.632;  214.375; -337.000; -339.000
420.758;  374.675; -251.000; -425.000
420.883;  -73.175; -876.000; -672.000
421.008; -105.950; -775.000; -619.000
421.133;  -74.975; -509.000; -467.000
421.259;  -44.175; -325.000; -259.000
421.384;  -93.025; -834.000; -693.000
421.509;   13.750;-1052.000; -862.000
421.634; 1848.100; -936.000; -820.000
421.759;  777.125; -359.000; -327.000
421.885;  -29.550; -717.000; -656.000
422.010;  -61.725; -673.000; -542.000
422.135; -144.800; -695.000; -727.000
422.260;   35.175;  340.000;  280.000
422.385;  -40.925;   12.000;  -98.000
422.510;    6.925;  151.000;  -26.000
422.635;   28.875;  -87.000;  -43.000
422.760;   92.525; -766.000; -791.000
422.885;   52.100;  -57.000;  -80.000
423.010;  -35.050; -112.000; -169.000
423.135;  -76.250; -481.000; -561.000
423.260;  -12.225; -150.000; -245.000
423.385;   89.625;  476.000;  222.000
423.510;   56.525;   71.000;  -22.000
423.635;  100.375;  133.000;   45.000
423.760;   72.100;  383.000;  328.000
423.885;   50.600;  336.000;  391.000
424.010;   25.475;  -68.000;  -13.000
424.135;  -40.575;    5.000;  -33.000
424.259; -103.100; -654.000; -457.000
424.384;  -61.375; -279.000; -272.000
424.509;  -19.575; -260.000; -186.000
424.634; -119.250; -761.000; -623.000
424.759;  -38.150; -688.000; -544.000
424.883;  -19.175; -506.000; -527.000
425.008;  123.150; -502.000; -410.000
425.133; 1444.600; -679.000; -653.000
425.258;  622.750; -517.000; -381.000
425.382; 1260.000; -867.000; -774.000
425.507; 3181.725; -487.000; -543.000
425.632;  434.925; -802.000; -663.000
425.756;  299.950; -256.000; -146.000
425.881; 4020.925; -831.000; -857.000
426.006;10260.600; -604.000; -355.000
426.130; 1672.825; -696.000; -508.000
426.255;  202.550; -611.000; -491.000
426.379;  109.100; -189.000; -577.000
426.504;  301.850;  660.000;  544.000
426.629; 3176.625; -519.000; -466.000
426.753; 2092.525;   64.000;  -46.000
426.878;  225.175; -252.000; -288.000
427.002;   89.775; -651.000; -668.000
427.127; 1256.650;  -35.000; -158.000
427.251; 8071.925;  372.000;  401.000
427.375; 2272.600; -191.000; -173.000
427.500; 2722.450; -616.000; -610.000
427.624;  900.100; -234.000; -400.000
427.749;  126.575; -216.000; -225.000
427.873;  -13.300; -499.000; -412.000
427.997;  -32.400; -222.000; -230.000
428.122;  100.000;  795.000;  703.000
428.246;  104.500;  433.000;  434.000
428.371; -128.775; -869.000; -773.000
428.495; -122.125; -624.000; -646.000
428.619;  -18.950; -186.000; -117.000
428.743;   39.950;   65.000;  132.000
428.868;   60.175; -732.000; -643.000
428.992; 1801.350; -219.000; -326.000
429.116;  738.200; -329.000; -357.000
429.240;  370.350;  419.000;  426.000
429.365;    2.475; -454.000; -574.000
429.489;  -37.750; -638.000; -647.000
429.613;   18.675; -236.000; -177.000
429.737;   21.075; -563.000; -432.000
429.861;  220.775; -247.000; -133.000
429.985; 4143.675; -425.000; -305.000
430.109; 4316.475; -770.000; -908.000
430.234;  496.725;   76.000;  -50.000
430.358;   28.775; -250.000; -160.000
430.482;  -79.200; -672.000; -564.000
430.606;  -70.400; -655.000; -375.000
430.730;   46.575; -437.000; -388.000
430.854;  226.825; -909.000; -835.000
430.978;  -42.375; -795.000; -764.000
431.102;  -58.525; -499.000; -422.000
431.226;  -86.000; -874.000; -815.000
431.350;   71.150;  345.000;  422.000
431.474;  -61.600; -661.000; -373.000
431.597; -141.650;-1060.000; -848.000
431.721;  -87.375; -276.000; -267.000
431.845; -133.800; -704.000; -472.000
431.969;  -78.450; -304.000; -349.000
432.093;  -86.825; -395.000; -317.000
432.217;  -11.275;   32.000;   82.000
432.341;  -91.675; -523.000; -518.000
432.464;   18.275;   96.000;   40.000
432.588;  315.975; -401.000; -329.000
432.712;  154.025;  -52.000;  -52.000
432.836;   40.650;  213.000;  263.000
432.959;  -33.825; -372.000; -311.000
433.083;   52.200;   11.000;    2.000
433.207;  281.900;  285.000;  930.000
433.330; 3492.525; -391.000; -200.000
433.454; 4103.225; -654.000; -638.000
433.578; 2491.725;  583.000;  278.000
433.701;  465.450; -623.000; -675.000
433.825;  204.150; -292.000; -299.000
433.949;  350.300;   28.000;  -72.000
434.072;  158.825; -410.000; -323.000
434.196;   -2.950; -309.000; -117.000
434.319; 3830.150;25482.000;25124.000
434.443;  684.500; -656.000; -603.000
434.566; 1919.100;  281.000;   62.000
434.690;  256.175; -637.000; -383.000
434.813;   36.200; -251.000; -173.000
434.937;  -71.400; -569.000; -696.000
435.060;    2.075; -423.000; -332.000
435.184;  619.725; -492.000; -217.000
435.307;  308.250;  159.000;  102.000
435.431;   20.375;  -40.000;   24.000
435.554;  -66.425; -399.000; -240.000
435.677;  -89.125; -350.000; -258.000
435.801;  -46.875;  -25.000;   49.000
435.924;   14.525;    1.000;  -67.000
436.048;  -75.250;-1019.000; -732.000
436.171;  -61.400; -240.000;  -66.000
436.294;  -34.225; -248.000; -229.000
436.417;   26.850; -963.000; -849.000
436.541; -101.675; -814.000; -840.000
436.664;  -55.400; -242.000; -316.000
436.787;  -22.875;   13.000;  113.000
436.910;  -99.825; -792.000; -422.000
437.034;   46.400;  142.000;  143.000
437.157;  128.450;  -11.000;    0.000
437.280;  -21.250; -392.000; -292.000
437.403;  -54.650; -982.000; -869.000
437.526; 1136.850; -903.000; -865.000
437.649; 3647.175; -505.000; -332.000
437.772;  576.400; -692.000; -540.000
437.896;  158.450;  700.000;  544.000
438.019;  -86.350; -758.000; -503.000
438.142;  -81.175; -596.000; -506.000
438.265;   42.700; -639.000; -670.000
438.388;  860.900; -520.000; -410.000
438.511;  200.400; -597.000; -394.000
438.634;  -30.975; -247.000; -125.000
438.757; -139.525; -693.000; -619.000
438.880;  -28.200;  -34.000;  -57.000
439.003;  -77.100; -417.000; -437.000
439.126;  -61.725; -287.000; -167.000
439.248;  -63.325;  -98.000; -139.000
439.371;  -59.950;    9.000;  -53.000
439.494;   32.175;  510.000;  439.000
439.617;  -59.925;   65.000;  -88.000
439.740; -183.250; -968.000; -816.000
439.863; -143.600; -755.000; -595.000
439.986; -119.475; -476.000; -431.000
440.108;  -43.825; -161.000; -112.000
440.231; -160.000; -950.000; -836.000
440.354;  -28.550;  -64.000; -150.000
440.477;   97.150; -566.000; -542.000
440.599;   38.325; -200.000; -225.000
440.722; -117.075; -709.000; -586.000
440.845;   59.000;  751.000;  928.000
440.968; -122.050; -415.000; -311.000
441.090;  -67.825; -199.000;  -33.000
441.213; -184.275;-1021.000; -825.000
441.336;  -59.700; -159.000;   -5.000
441.458;  -66.575; -549.000; -396.000
441.581;  -56.475; -628.000; -629.000
441.703;  -71.375; -152.000;   13.000
441.826; -128.075; -557.000; -400.000
441.948;  -42.175;   56.000;   51.000
442.071;   12.525;  555.000;  424.000
442.193; -109.700; -531.000; -485.000
442.316;   24.375;  152.000;   97.000
442.438;   21.400; -233.000;  -10.000
442.561;   82.300;  272.000;  262.000
442.683;  923.700; -809.000; -522.000
442.806; 1746.050;   -8.000;   74.000
442.928;  125.950; -859.000; -604.000
443.051;  -53.700; -577.000; -373.000
443.173;  -83.775; -341.000; -339.000
443.295;  -95.750; -263.000; -371.000
443.418;  -72.225; -321.000;  -29.000
443.540;  -10.325; -106.000;   -4.000
443.662; -126.925; -563.000; -465.000
443.785;  -26.175;  335.000;  199.000
443.907; -110.175; -362.000; -208.000
444.029; -132.375; -767.000; -494.000
444.152; -151.000; -644.000; -554.000
444.274;  -33.675;  -18.000;  -24.000
444.396; -118.775; -461.000; -221.000
444.518; -128.675; -691.000; -454.000
444.640; -118.400; -268.000; -111.000
444.763;  -32.425;  388.000;  249.000
444.885; -118.075; -432.000; -392.000
445.007;  -32.875;   35.000;   86.000
445.129; -110.325; -610.000; -515.000
445.251; -109.975; -372.000; -439.000
445.373; -131.325; -537.000; -386.000
445.495;    3.175;  242.000;  350.000
445.617;   56.050;  853.000;  753.000
445.739;  -62.225; -215.000;  -97.000
445.861;  -28.625; -245.000; -112.000
445.984;  -34.825; -267.000; -101.000
446.105;  329.875; -418.000; -251.000
446.227;  862.325; -176.000;  -19.000
446.349;   40.675; -358.000; -249.000
446.471;  -94.075; -615.000; -448.000
446.593;  -56.050; -316.000;   19.000
446.715;    7.675;  -67.000;   41.000
446.837;   71.275;  697.000;  832.000
446.959;  -97.625; -457.000; -478.000
447.081; -127.150; -628.000; -518.000
447.203;   46.850;  862.000;  834.000
447.325;  -89.625; -270.000;   42.000
447.446;   -2.375;  286.000;  530.000
447.568; -143.500; -921.000; -803.000
447.690;  -92.200; -236.000; -245.000
447.812; -156.550; -798.000; -519.000
447.933;  -38.825;  155.000;  127.000
448.055;  -74.850; -306.000; -261.000
448.177;  194.925;   31.000;   79.000
448.299;  153.625; -935.000; -727.000
448.420;   33.075;  -25.000;  159.000
448.542;  -42.950;   -3.000;   33.000
448.664;  -31.300;  109.000;  322.000
448.785;  -45.250;  265.000;   83.000
448.907;  -70.175; -614.000; -353.000
449.028;  -20.250; -771.000; -471.000
449.150;   65.275;  492.000;  589.000
449.272; -174.525;-1044.000; -913.000
449.393;   21.575;  612.000;  694.000
449.515; -155.350; -634.000; -581.000
449.636;  -55.150; -264.000; -155.000
449.758;   99.275;  763.000;  622.000
449.879; -103.450; -498.000; -396.000
450.001;  -83.200; -149.000;  -49.000
450.122;  -45.300;  -95.000;  162.000
450.244;  -29.550;   37.000;  364.000
450.365; -102.750; -495.000; -301.000
450.486;  -44.525;   80.000;  268.000
450.608;   -1.100;  393.000;  326.000
450.729;   50.100;  578.000;  645.000
450.850;  -56.050; -574.000; -466.000
450.972;  417.150; -552.000; -389.000
451.093; 3112.250;  190.000;  588.000
451.214; 1242.875; -516.000; -337.000
451.336;  253.050;  773.000;  579.000
451.457;   33.175;  264.000;  393.000
451.578;  -57.700; -118.000;  -74.000
451.699; -128.750; -546.000; -540.000
451.821;  -81.050; -284.000;  -50.000
451.942;  -18.150;  278.000;  285.000
452.063;    9.150;  228.000;  419.000
452.184;  357.275;  -54.000;  -49.000
452.305;  735.750;  103.000;  170.000
452.427;   39.350; -549.000; -301.000
452.548;  -30.425;   23.000;   79.000
452.669;  -37.800; -257.000;  -89.000
452.790;  -26.000;    3.000;  -18.000
452.911;   -5.200;  195.000;  259.000
453.032;  -78.575; -289.000;  -60.000
453.153;  -35.825;  -29.000;   81.000
453.274;   83.025;  737.000;  868.000
453.395;  -47.300;  -51.000;  175.000
453.516;  127.600; 1317.000; 1388.000
453.637;  -48.500; -205.000; -150.000
453.758;  -60.975;   15.000;   69.000
453.879; -116.875; -462.000; -250.000
454.000;   83.975; 1086.000;  948.000
454.121; -103.675; -554.000; -326.000
454.242; -122.550; -599.000; -383.000
454.362;  -60.500;  -99.000;  114.000
454.483;  -37.600; -309.000; -229.000
454.604;   78.800;  512.000;  580.000
454.725; -115.475; -627.000; -555.000
454.846; -116.375; -474.000; -406.000
454.967;  -39.475;  230.000;  539.000
455.087;  -57.550;  179.000;  153.000
455.208;   17.975;  554.000;  856.000
455.329;  -68.600;  -22.000;   82.000
455.450;    1.625;  473.000;  633.000
455.570;  -96.925; -234.000; -211.000
455.691;  -59.550;  201.000;  407.000
455.812; -111.775; -270.000;  -92.000
455.932;  -64.550;  107.000;  -97.000
456.053;  -83.475;   36.000;   24.000
456.173; -112.900; -433.000; -355.000
456.294; -138.125; -476.000; -303.000
456.415;  -62.700;  -73.000;   70.000
456.535;  -42.525;  297.000;  273.000
456.656;  -36.050;  132.000;  240.000
456.776;  -75.000;    3.000;  298.000
456.897;  -31.750;  308.000;  513.000
457.017;  -85.325; -153.000;   -3.000
457.138;  -94.050; -402.000; -249.000
457.258;  -28.750;  263.000;  224.000
457.379;  -22.200;  509.000;  521.000
457.499;  -28.125;  443.000;  432.000
457.620; -138.150; -407.000; -231.000
457.740;  -99.275; -132.000;  -11.000
457.860;  -66.475;   87.000;   44.000
457.981;  -43.475;  132.000;  124.000
458.101;  -65.050;  -89.000;   40.000
458.221;  -20.900;  336.000;  402.000
458.342;  -67.775;   -4.000;  -37.000
458.462;    3.250;  617.000;  352.000
458.582;  -71.450; -302.000; -294.000
458.703;  -22.425;  303.000;  154.000
458.823;  -43.250;   22.000;  163.000
458.943;    5.925;  341.000;  467.000
459.063;  -11.350; 1124.000;  192.000
459.183;  -31.325;  328.000;  313.000
459.304;  -12.800;  315.000;  517.000
459.424;  -54.600; -246.000;  -89.000
459.544;  238.800;  388.000;  764.000
459.664;  575.425;  499.000;  506.000
459.784;  241.725; 1004.000; 1175.000
459.904;   56.100;  867.000;  744.000
460.024;   99.200;  867.000;  684.000
460.144;   26.525;  449.000;  554.000
460.264;   -4.225;  515.000;  327.000
460.385;  -96.425; -145.000; -119.000
460.505;   36.675;  905.000;  858.000
460.625; -102.375;  -17.000;  -68.000
460.745;  -20.400;  396.000;  541.000
460.864;  -53.825;  153.000;  469.000
460.984;   14.375;  499.000;  573.000
461.104;  154.100; 1656.000; 1775.000
461.224;   23.575;  657.000;  650.000
461.344;  -17.750;  431.000;  360.000
461.464;  -38.525;  258.000;  513.000
461.584;   -6.125;  283.000;  466.000
461.704;  -38.700;   58.000;  108.000
461.824;  -47.625;  238.000;  259.000
461.943;  -43.250;  191.000;  130.000
462.063;  -68.500;    2.000;  324.000
462.183;   24.450;  639.000;  717.000
462.303;  119.075; 1678.000; 1230.000
462.422;   32.400;  781.000;  840.000
462.542;  -42.850;  271.000;  391.000
462.662;   23.500;  353.000;  380.000
462.782;  184.600;  833.000;  572.000
462.901;  334.500;  545.000;  717.000
463.021;  241.375; 1702.000; 1638.000
463.141;  -20.025;  337.000;  770.000
463.260;  -32.600;  614.000;  474.000
463.380;   12.000;  902.000;  884.000
463.499;  -33.050;  342.000;  332.000
463.619;  -41.225;  581.000;  559.000
463.738;  117.850; 1644.000;  903.000
463.858;   11.675;  657.000;  811.000
463.978;  -32.875;  542.000;  396.000
464.097;   14.400;  921.000; 1114.000
464.217;   89.700; 1196.000; 1143.000
464.336;   98.725; 1068.000; 1130.000
464.455;  -46.350;  328.000;  659.000
464.575;   60.900;  597.000;  602.000
464.694;  196.600; 1204.000; 1179.000
464.814;  117.750; 1190.000; 1138.000
464.933;   68.725; 1095.000; 1027.000
465.052;   99.925; 1412.000; 1054.000
465.172;   89.900;  922.000;  799.000
465.291;  156.900; 1376.000; 1320.000
465.410;    9.150;  462.000;  735.000
465.530;   84.625; 1355.000; 1310.000
465.649;   75.425; 1209.000; 1273.000
465.768;  144.700; 1673.000; 1508.000
465.888;   54.350;  941.000; 1174.000
466.007;   95.950; 1335.000; 1440.000
466.126;    3.425;  721.000;  641.000
466.245;   45.150; 1176.000; 1187.000
466.364;   25.450;  950.000; 1060.000
466.484;   49.350; 1024.000; 1213.000
466.603;   39.950; 1101.000; 1222.000
466.722;  122.625; 1490.000; 1769.000
466.841;   77.775; 1151.000; 1401.000
466.960;   31.625; 1069.000;  972.000
467.079;  125.350; 1971.000; 1786.000
467.198;   51.125; 1238.000; 1181.000
467.317;   75.475; 1768.000; 1162.000
467.436;   58.075; 1709.000; 1261.000
467.555;  113.975; 1796.000; 1746.000
467.674;   54.750; 1227.000; 1329.000
467.793;   32.300; 1376.000; 1374.000
467.912;  104.000; 1658.000; 1539.000
468.031;  141.775; 2038.000; 1930.000
468.150;  152.850; 1842.000; 1837.000
468.269;  202.725; 2313.000; 2090.000
468.388;  175.675; 2168.000; 2339.000
468.507;  257.925; 2884.000; 2903.000
468.626;  291.900; 2555.000; 2541.000
468.744;  139.475; 2018.000; 2174.000
468.863;  210.225; 2312.000; 2523.000
468.982;   84.250; 1503.000; 1555.000
469.101;  217.500; 2788.000; 2692.000
469.220;  162.150; 2333.000; 2176.000
469.338;  234.850; 2935.000; 3051.000
469.457;  206.525; 2719.000; 2545.000
469.576;  352.550; 3953.000; 3784.000
469.695;  236.875; 2877.000; 3066.000
469.813;  427.075; 4148.000; 4192.000
469.932;  399.600; 4255.000; 4485.000
470.051;  417.100; 4075.000; 4161.000
470.169;  711.850; 4470.000; 4338.000
470.288; 1171.900; 4700.000; 4809.000
470.406;  729.675; 5059.000; 5194.000
470.525;  596.000; 6101.000; 5787.000
470.644;  665.375; 6847.000; 6794.000
470.762;  812.875; 8397.000; 7873.000
470.881;  910.675; 8651.000; 8464.000
470.999; 1028.925; 9685.000; 9151.000
471.118; 1106.725;11174.000;10711.000

