
Integration time [ms]: 100.000
Averaging Nr. [scans]: 40
Smoothing Nr. [pixels]: 0
Data measured with spectrometer [name]: 2101012U2
Wave   ;Sample   ;Dark     ;Reference
[nm]   ;[counts] ;[counts] ;[counts] 

197.733;   65.700;  516.000;  404.000
197.879;  -80.275; -610.000; -634.000
198.025;  -51.450; -475.000; -420.000
198.171;  -81.100; -602.000; -612.000
198.317;  -25.325; -401.000; -316.000
198.463;  -67.525; -655.000; -404.000
198.609;   36.675;  181.000; -137.000
198.755;  -85.125; -644.000; -410.000
198.901;  -57.950; -505.000; -424.000
199.047;  -71.800; -615.000; -488.000
199.193;  -36.275; -230.000; -468.000
199.339;  -48.575; -222.000; -369.000
199.485;   41.625;  330.000;  271.000
199.631;   12.950;  227.000;  310.000
199.777;  -41.775; -466.000; -398.000
199.923;  -65.950; -610.000; -424.000
200.069;    0.525; -141.000;  -58.000
200.215;   62.075;  128.000;  453.000
200.361;   63.000;  243.000;  477.000
200.507;  -58.475; -600.000; -373.000
200.653;  -20.475; -371.000; -194.000
200.798;  -44.300; -215.000; -125.000
200.944;   -0.975; -146.000;  -41.000
201.090;   38.150;   61.000;  222.000
201.236;    0.625; -116.000; -158.000
201.382;  135.150;  874.000;  903.000
201.528;    0.025;  -58.000;  -48.000
201.674;  -34.125; -386.000; -293.000
201.819;  -42.300; -540.000; -439.000
201.965;  -80.050; -699.000; -447.000
202.111;  -20.000; -273.000; -226.000
202.257;  -34.375; -250.000; -238.000
202.402;    8.775;   13.000;  -36.000
202.548;  -42.075; -169.000; -116.000
202.694;   86.050;  410.000; -183.000
202.840;  -76.575; -603.000; -531.000
202.985;  -70.225; -681.000; -639.000
203.131; -102.775; -832.000; -666.000
203.277;   -9.550; -199.000; -262.000
203.423;  -51.300; -434.000; -520.000
203.568;  -52.975; -462.000; -237.000
203.714;  -67.950; -535.000; -542.000
203.860;  -64.975; -682.000; -641.000
204.005;    8.100;  112.000;  167.000
204.151;   91.875;  561.000;  556.000
204.296;  -46.475; -354.000; -221.000
204.442;  -65.250; -600.000; -547.000
204.588;  -72.775; -592.000; -579.000
204.733;   19.600;  178.000;  168.000
204.879; -115.450;-1018.000; -822.000
205.025;   18.125;  -99.000;  126.000
205.170;  -15.475;  -17.000;   94.000
205.316;   90.750;  438.000;  661.000
205.461;  -82.725; -698.000; -554.000
205.607;   96.750;  609.000;  665.000
205.752;  -76.825; -626.000; -551.000
205.898;  -38.500; -501.000; -391.000
206.043;  -63.850; -578.000; -506.000
206.189;  -28.925; -243.000; -285.000
206.334;   75.375;  554.000;  606.000
206.480;   83.950;  409.000;  239.000
206.625;  -84.225; -529.000; -552.000
206.771;  -28.325; -451.000; -373.000
206.916;  -31.350; -210.000; -537.000
207.062;  -71.900; -545.000; -591.000
207.207;  -64.125; -546.000; -443.000
207.353;   53.750;  185.000;  460.000
207.498;   18.850;  196.000;   85.000
207.643;  -45.225; -501.000; -370.000
207.789; -129.600;-1069.000; -910.000
207.934;  -94.850; -665.000; -713.000
208.080;  -30.800; -154.000;   66.000
208.225;  -11.325;  -22.000;  -57.000
208.370;  -82.675; -727.000; -619.000
208.516;  -77.625; -741.000; -487.000
208.661;  -34.100; -127.000;  -69.000
208.806;  -16.850; -165.000; -171.000
208.952; -130.025;-1044.000; -731.000
209.097;   81.850;  378.000;  349.000
209.242;  -40.850; -307.000; -382.000
209.387;   52.375;  392.000;  350.000
209.533;  -39.775; -321.000; -350.000
209.678;   73.625;  472.000;  543.000
209.823;  -57.800; -408.000; -310.000
209.969; -105.675; -860.000; -757.000
210.114; -101.300; -907.000; -719.000
210.259; -115.150; -939.000; -889.000
210.404;  -17.100; -171.000;  103.000
210.549;   23.975;  108.000;    3.000
210.695;  -23.450;   -3.000;  -95.000
210.840;   45.975;   94.000;   67.000
210.985;  -66.950; -484.000; -303.000
211.130;   69.325;  268.000;  406.000
211.275;   16.125;  207.000;  199.000
211.420;  -50.200; -300.000; -289.000
211.566;  -79.075; -536.000; -489.000
211.711;   30.450;  218.000;  157.000
211.856;  -69.475; -545.000; -519.000
212.001;   12.400;  151.000;   44.000
212.146;   28.600;  153.000;   49.000
212.291;  -19.425; -210.000; -186.000
212.436;  -27.650; -280.000;   -6.000
212.581;  -81.325; -685.000; -653.000
212.726;  -92.325; -487.000; -538.000
212.871;  -52.300; -552.000; -217.000
213.016; -148.625;-1172.000;-1029.000
213.161;   62.825;  406.000;  291.000
213.306;  -63.475; -435.000; -577.000
213.451;  -87.975; -778.000; -689.000
213.596;  -44.725; -455.000; -347.000
213.741;  -52.450; -448.000; -538.000
213.886;  -77.050; -498.000; -517.000
214.031;  -26.750; -294.000; -124.000
214.176;  -45.725; -408.000; -341.000
214.321;  -19.950; -296.000; -157.000
214.466;  -31.750; -163.000;  -43.000
214.611;    3.675;  -61.000;  -10.000
214.756; -123.900; -948.000; -858.000
214.901;  -14.600; -388.000; -226.000
215.046; -132.125; -797.000; -825.000
215.191;   14.050;  128.000;   35.000
215.336;  -10.450; -157.000;  -19.000
215.480;  -76.675; -684.000; -505.000
215.625;   -8.600; -175.000;  -19.000
215.770;  -87.850; -757.000; -662.000
215.915;   -1.300;   -5.000;  -97.000
216.060;   -0.825; -113.000;  -21.000
216.205; -113.600; -731.000; -779.000
216.349;  -69.375; -470.000; -533.000
216.494; -129.875; -939.000; -867.000
216.639; -119.475; -823.000; -888.000
216.784;  -91.200; -577.000; -525.000
216.929;   60.650;  392.000;  281.000
217.073;  -16.375; -244.000;  -31.000
217.218;   12.350;   78.000;  -47.000
217.363;  -86.775; -656.000; -618.000
217.507;  -75.775; -623.000; -588.000
217.652; -127.800; -845.000; -874.000
217.797;  -82.275; -708.000; -659.000
217.942; -109.550; -856.000; -720.000
218.086;   71.625;  608.000;  539.000
218.231;  -25.700; -174.000;  -26.000
218.376;  -30.925; -337.000; -229.000
218.520;   -2.250;  -41.000;   96.000
218.665;  -25.675; -338.000; -204.000
218.810;  -54.850; -275.000; -233.000
218.954;   26.675;  201.000;   35.000
219.099; -123.475; -713.000; -963.000
219.243;  -64.300; -589.000; -554.000
219.388;  -34.750; -264.000; -136.000
219.532;  -13.850; -116.000; -116.000
219.677;  -86.100; -564.000; -521.000
219.822;    5.650;   33.000;   89.000
219.966;    4.425;   17.000;  -99.000
220.111;  -33.950; -328.000;  -40.000
220.255;  -99.800; -797.000; -750.000
220.400;   -8.375; -180.000; -146.000
220.544;  -75.475; -516.000; -450.000
220.689;  -49.925; -422.000; -451.000
220.833;  -11.700; -123.000;  -58.000
220.978;  -47.825; -393.000; -563.000
221.122;   30.675;  319.000;  307.000
221.267; -108.900; -906.000; -837.000
221.411;  -61.925; -478.000; -394.000
221.555;   -2.300; -104.000;  -23.000
221.700;  -46.175; -329.000; -222.000
221.844;   36.500;  255.000;  272.000
221.989;  -54.175; -328.000; -311.000
222.133;  -25.450; -289.000; -307.000
222.277;  -21.500;    5.000;   78.000
222.422;   22.025;  227.000;  113.000
222.566;  -41.375; -381.000; -214.000
222.711;  -49.200; -414.000; -479.000
222.855;  -71.700; -643.000; -586.000
222.999;  -95.725; -642.000; -717.000
223.144;  -39.825; -195.000; -194.000
223.288;   65.875;  423.000;  251.000
223.432;   26.300;  184.000;  230.000
223.576;   15.225;  152.000;  -21.000
223.721;   50.575;  364.000;  273.000
223.865;  -51.300; -472.000; -475.000
224.009;  253.025; 1673.000; 1631.000
224.153;  -78.675; -660.000; -671.000
224.298;  -77.300; -531.000; -489.000
224.442;   -1.925;  -74.000;  -33.000
224.586;  -17.550; -169.000; -106.000
224.730;  -95.200; -858.000; -670.000
224.875; -118.175; -739.000; -688.000
225.019;   16.850;  102.000;  188.000
225.163;   49.775;  208.000;  341.000
225.307;   13.150;   97.000;  -91.000
225.451;   42.550;  360.000;  481.000
225.595;   36.025;  264.000;  176.000
225.739;  -14.475; -170.000;  -94.000
225.884;   16.375;   86.000;    5.000
226.028;  -99.275; -760.000; -626.000
226.172;  -30.725; -260.000; -273.000
226.316; -123.725; -941.000; -902.000
226.460;  -64.650; -645.000; -493.000
226.604;  -47.675; -406.000; -400.000
226.748;  -96.375; -836.000; -733.000
226.892;  -23.650; -227.000; -181.000
227.036;  -31.825; -537.000; -447.000
227.180;  -56.750; -551.000; -375.000
227.324;  -59.425; -561.000; -580.000
227.468; -115.100; -819.000; -717.000
227.612;   18.975;  242.000;  -28.000
227.756;  -96.925; -845.000; -698.000
227.900;   58.275;  342.000;  441.000
228.044;  -61.150; -509.000; -290.000
228.188;   65.325;  448.000;  568.000
228.332;  -87.625; -546.000; -472.000
228.476;  -16.900; -223.000; -149.000
228.620;  -33.550; -210.000; -150.000
228.764;   77.525;  431.000;  349.000
228.908;  -22.025; -155.000;   30.000
229.052;  -67.900; -615.000; -528.000
229.195;  -12.650; -172.000;   13.000
229.339;  -15.275; -235.000; -305.000
229.483;  -18.400;    5.000; -162.000
229.627;   13.150; -156.000;  139.000
229.771;  -49.000; -218.000; -294.000
229.915;   11.175;  230.000;   79.000
230.059;  -93.200; -648.000; -663.000
230.202;  -41.025; -370.000; -317.000
230.346;  -15.375; -107.000;  107.000
230.490;  -64.200; -489.000; -521.000
230.634; -114.475; -736.000; -553.000
230.777;   73.150;  478.000;  509.000
230.921;  -55.650; -450.000; -359.000
231.065;  -41.950; -246.000; -286.000
231.209;   25.075;  261.000;  265.000
231.352;   21.975;   54.000;   40.000
231.496;    8.450;  568.000;  188.000
231.640;  -85.625; -693.000; -621.000
231.783;   69.025;  546.000;  525.000
231.927;  -34.425; -294.000; -365.000
232.071; -126.875; -962.000; -736.000
232.214; -106.275; -980.000; -764.000
232.358; -109.225; -683.000; -599.000
232.502;   17.575;  -19.000;    7.000
232.645; -144.150;-1090.000; -927.000
232.789;  -16.575; -257.000; -218.000
232.933;  -51.825; -407.000; -224.000
233.076; -110.450;-1038.000; -897.000
233.220; -102.300; -752.000; -777.000
233.363;  -81.500; -669.000; -477.000
233.507;   51.050;  371.000;  129.000
233.650;  -83.525; -764.000; -834.000
233.794;   39.050;  438.000;  461.000
233.938;  -62.200; -530.000; -362.000
234.081;  -33.350;  -93.000;   31.000
234.225;  -69.350; -631.000; -539.000
234.368; -114.075; -773.000; -723.000
234.512;  -35.100; -385.000; -299.000
234.655;  -76.650; -582.000; -555.000
234.798;  -64.875; -493.000; -466.000
234.942; -130.250; -884.000;-1002.000
235.085;  -71.950; -651.000; -443.000
235.229;  -78.250; -405.000; -410.000
235.372;  -41.875; -247.000; -191.000
235.516;  -56.100; -397.000; -321.000
235.659;   35.325;   92.000;  121.000
235.802;  -31.625;  -38.000;  -22.000
235.946;   23.675;  335.000;  215.000
236.089;   30.550;  126.000;  250.000
236.233;   55.125;  275.000;  298.000
236.376;  -59.175; -235.000; -378.000
236.519;  -40.300; -297.000; -319.000
236.663;  -33.550; -215.000; -117.000
236.806; -138.300;-1029.000; -999.000
236.949;   48.400;  543.000;  431.000
237.092;   75.475;  412.000;  391.000
237.236;  -87.175; -589.000; -502.000
237.379;   64.175;  352.000;  428.000
237.522; -122.225; -879.000; -768.000
237.666;  -13.425; -271.000;   18.000
237.809; -128.100; -851.000; -823.000
237.952;   55.825;  469.000;  271.000
238.095;  -80.550; -447.000; -442.000
238.238;   85.525;  688.000;  700.000
238.382;   -0.175;  166.000;  103.000
238.525;  -75.150; -598.000; -511.000
238.668; -140.850;-1060.000; -985.000
238.811;  -86.700; -638.000; -643.000
238.954;  -52.600; -483.000; -334.000
239.097;  106.100;  617.000;  664.000
239.241;   10.425;  394.000;  326.000
239.384;  -31.775; -254.000; -214.000
239.527;  -52.100; -424.000; -224.000
239.670; -135.325; -994.000;-1091.000
239.813; -109.825; -696.000; -658.000
239.956;   75.850;  579.000;  473.000
240.099; -112.250; -778.000; -725.000
240.242;   58.400;  428.000;  432.000
240.385;   41.775;  466.000;  450.000
240.528;  -62.750; -706.000; -473.000
240.671;   15.500;  189.000;  134.000
240.814;  -52.775; -441.000; -158.000
240.957; -101.225; -767.000; -578.000
241.100;  -95.175; -779.000; -755.000
241.243; -141.425;-1234.000; -893.000
241.386;  -64.600; -508.000; -379.000
241.529;  -91.150; -735.000; -547.000
241.672;  -57.775; -566.000; -495.000
241.815; -124.875; -832.000; -808.000
241.958;  -28.900; -125.000; -182.000
242.101;  -88.700; -545.000; -390.000
242.244;  -35.425; -270.000; -325.000
242.387;  -39.025; -304.000; -246.000
242.530;   70.450;  470.000;  134.000
242.673;  -43.600; -381.000; -309.000
242.815; -120.225; -925.000; -899.000
242.958;  -75.000; -482.000; -381.000
243.101;    2.575;  132.000;  187.000
243.244;  -83.125; -564.000; -521.000
243.387;  -54.300; -313.000; -316.000
243.530; -111.025; -657.000; -674.000
243.672;    5.975;   43.000;  -92.000
243.815;  -56.050; -355.000; -283.000
243.958;    7.675;   98.000;  -26.000
244.101;  -12.825;   59.000;  -16.000
244.243;    4.950;  -47.000;  101.000
244.386; -107.500; -761.000; -630.000
244.529;  -32.650; -132.000; -139.000
244.672; -151.375;-1154.000; -951.000
244.814;  -82.875; -621.000; -794.000
244.957;  -64.075; -380.000; -304.000
245.100;  -62.925; -489.000; -489.000
245.242;  -65.625; -387.000; -374.000
245.385;    0.325;  -59.000;  -39.000
245.528; -136.225; -871.000; -705.000
245.670;   94.825;  612.000;  634.000
245.813;  -87.675; -599.000; -547.000
245.956;  -17.775; -324.000; -275.000
246.098;  -72.750; -508.000; -650.000
246.241;    9.100;  194.000;   48.000
246.383;  -24.500; -119.000;  -73.000
246.526;  -64.975; -454.000; -525.000
246.669; -124.650; -889.000; -780.000
246.811;   13.625;  172.000;   -1.000
246.954;  -60.850; -512.000; -426.000
247.096;  -18.225;  -84.000;   -6.000
247.239;  -70.800; -482.000; -445.000
247.381;  -78.075; -647.000; -488.000
247.524;   88.675;  645.000;  679.000
247.666;   -1.850;   58.000;   11.000
247.809; -120.325; -887.000; -691.000
247.951;   -8.000;  -75.000;  138.000
248.094;   32.525;  432.000;  308.000
248.236; -161.525;-1262.000;-1238.000
248.378;    9.150; -356.000;  -81.000
248.521;  -25.525; -334.000; -337.000
248.663;  -42.500; -236.000; -267.000
248.806;  -16.575; -300.000; -266.000
248.948; -106.800; -886.000; -763.000
249.090;  -43.325; -428.000; -398.000
249.233;  -50.925; -344.000; -381.000
249.375;  -61.850; -474.000; -451.000
249.518;  -12.075;  -83.000; -133.000
249.660;   -5.600; -103.000;    3.000
249.802; -176.350;-1303.000;-1189.000
249.945;  -68.200; -612.000; -540.000
250.087; -115.175; -834.000; -768.000
250.229;  -47.750; -362.000; -480.000
250.371;  -76.775; -494.000; -439.000
250.514;  -50.200; -310.000; -244.000
250.656;  -26.700;   69.000;  102.000
250.798; -118.475; -849.000; -800.000
250.940;  -58.550; -322.000; -322.000
251.083;  -17.000; -335.000; -111.000
251.225;   47.725;  338.000;  310.000
251.367;  -45.475; -274.000; -373.000
251.509;  -33.750; -265.000; -210.000
251.651;  -98.225; -731.000; -671.000
251.794;   52.775;  538.000;  632.000
251.936; -101.250; -821.000; -747.000
252.078;  -92.225; -540.000; -461.000
252.220;  -59.200; -645.000; -477.000
252.362;   73.050;  344.000;  462.000
252.504;  -66.525; -677.000; -584.000
252.646; -111.600; -875.000; -722.000
252.788;    8.500;   14.000; -128.000
252.931;  -38.700; -257.000; -253.000
253.073;  -53.300; -376.000; -317.000
253.215;   -7.275;  141.000;  122.000
253.357;   -8.025;   82.000; -153.000
253.499;  -45.675; -374.000; -234.000
253.641; -102.000; -749.000; -594.000
253.783;  -95.700; -609.000; -527.000
253.925;  -89.025; -586.000; -591.000
254.067; -113.850; -744.000; -667.000
254.209;  -20.725; -391.000; -259.000
254.351; -148.150; -865.000; -883.000
254.493;  -52.100; -441.000; -417.000
254.635; -134.200; -936.000; -818.000
254.777;  -80.375; -752.000; -687.000
254.918;  -66.000; -512.000; -430.000
255.060;  -54.575; -551.000; -395.000
255.202;  -59.000; -473.000; -261.000
255.344;  -67.400; -658.000; -455.000
255.486;  -81.900; -471.000; -406.000
255.628; -103.325; -780.000; -781.000
255.770;  -88.350; -676.000; -536.000
255.912;  -49.075; -559.000; -468.000
256.053;  -85.575; -730.000; -508.000
256.195;  165.275; 1008.000;  903.000
256.337; -115.025; -861.000; -595.000
256.479;   70.550;  532.000;  416.000
256.621;  -59.775; -394.000; -212.000
256.762; -101.250; -789.000; -742.000
256.904;   38.125;  485.000;  487.000
257.046;  -53.575; -381.000; -271.000
257.188;  -48.000; -351.000; -264.000
257.329;  -76.100; -525.000; -464.000
257.471; -126.125; -939.000; -807.000
257.613;  -69.675; -584.000; -498.000
257.755; -147.925;-1073.000; -982.000
257.896;   33.900;  286.000;  392.000
258.038;  -74.850; -403.000; -352.000
258.180;  -24.400; -354.000; -279.000
258.321; -106.325; -581.000; -457.000
258.463;    4.375;  -71.000;  133.000
258.605;  -94.025; -562.000; -570.000
258.746; -105.200; -886.000; -772.000
258.888; -158.900;-1026.000;-1020.000
259.029;   22.600;  121.000;   -8.000
259.171;  -93.450; -614.000; -550.000
259.313;  -11.000;  -49.000;  -47.000
259.454;  -87.500; -536.000; -414.000
259.596;  -48.400; -483.000; -390.000
259.737;  -82.950; -590.000; -474.000
259.879;   36.200;  217.000;  311.000
260.020;   95.525;  901.000;  636.000
260.162;  -29.825; -146.000; -253.000
260.303; -126.350; -768.000; -687.000
260.445;  -77.750; -609.000; -613.000
260.586;   34.750;  392.000;  157.000
260.728;  -38.500; -360.000; -248.000
260.869; -124.425; -350.000; -343.000
261.011;   95.000;  706.000;  537.000
261.152;  -61.025; -479.000; -319.000
261.293;  -92.950; -576.000; -595.000
261.435;  -40.725; -219.000; -184.000
261.576;  -53.750; -455.000; -325.000
261.718;   71.075;  420.000;  470.000
261.859; -139.050; -940.000; -949.000
262.000; -135.325; -951.000;-1016.000
262.142;  -29.000;  -52.000;  -60.000
262.283; -121.700; -808.000; -691.000
262.424;  -87.175; -666.000; -625.000
262.566; -176.400;-1161.000; -983.000
262.707; -106.375; -840.000; -830.000
262.848; -117.200; -769.000; -726.000
262.990;  -46.575; -362.000; -345.000
263.131;   66.725;  650.000;  681.000
263.272;  -11.600;  -61.000;  -41.000
263.413;  -92.550; -589.000; -561.000
263.555;  -64.500; -669.000; -143.000
263.696;  -93.475; -550.000; -641.000
263.837;  -56.825; -449.000; -551.000
263.978;  -16.675;   -5.000;  -77.000
264.119;  -48.175; -283.000; -264.000
264.261; -123.425; -847.000; -630.000
264.402;  -11.350;   33.000;   40.000
264.543;  -96.225; -509.000; -524.000
264.684;  -17.300;   61.000;  -50.000
264.825;  -69.175; -816.000; -538.000
264.966;  -10.450;  -84.000;  -67.000
265.107; -117.525; -646.000; -670.000
265.248; -117.250; -825.000; -812.000
265.390;   -7.000;  152.000;   -9.000
265.531;  -26.975; -238.000; -107.000
265.672;  -88.600; -557.000; -630.000
265.813;   67.950;  563.000;  439.000
265.954; -157.925; -959.000; -940.000
266.095;  -26.600; -372.000; -322.000
266.236;  -98.750; -686.000; -548.000
266.377;  -35.925; -243.000; -297.000
266.518;  -85.225; -619.000; -547.000
266.659;   31.850;  170.000;  268.000
266.800;    6.575;   83.000;   85.000
266.941;  -87.700; -487.000; -478.000
267.082;   24.775;  354.000;   99.000
267.223;  -47.325; -344.000; -273.000
267.364; -120.900; -892.000; -686.000
267.504;  -12.250;    3.000;  135.000
267.645;   -5.050;  160.000;   67.000
267.786;  -30.950; -147.000;  -86.000
267.927;  -82.325; -473.000; -379.000
268.068;  -18.950; -186.000;  -61.000
268.209;  -53.625; -175.000; -413.000
268.350;  -62.100; -388.000; -532.000
268.490;  -93.800; -648.000; -521.000
268.631;   18.475;  127.000;  225.000
268.772; -128.400; -874.000; -647.000
268.913;  -51.025; -328.000; -476.000
269.054;  -23.150; -117.000;   12.000
269.194;  -37.375; -418.000; -402.000
269.335; -162.200;-1137.000;-1074.000
269.476;  -15.575;   33.000;  -35.000
269.617;  -54.575; -347.000; -392.000
269.757;  -89.175; -713.000; -646.000
269.898; -104.500; -856.000; -613.000
270.039;  -61.850; -415.000; -405.000
270.180; -148.975; -952.000; -816.000
270.320;   -4.525; -190.000; -250.000
270.461;  -50.000; -277.000; -249.000
270.602;  -23.750; -186.000; -156.000
270.742; -140.825; -868.000; -943.000
270.883;  -56.075; -442.000; -390.000
271.023;  -56.975; -358.000; -357.000
271.164;  -78.025; -607.000; -528.000
271.305; -109.675; -666.000; -654.000
271.445;  -87.550; -722.000; -683.000
271.586;  -80.400; -462.000; -283.000
271.726;  -58.275; -397.000; -322.000
271.867;  -61.550; -594.000; -534.000
272.008;  164.900; -473.000; -285.000
272.148;  125.725;  462.000;  468.000
272.289;   15.500; -113.000; -181.000
272.429;    7.525;   19.000;  185.000
272.570;  -81.500; -633.000; -737.000
272.710; -105.300; -825.000; -775.000
272.851;  -26.800;  113.000; -130.000
272.991; -164.675;-1173.000;-1077.000
273.131;  -64.050; -419.000; -459.000
273.272; -100.900; -683.000; -723.000
273.412;   -4.000; -143.000;  -31.000
273.553;  -50.900; -488.000; -507.000
273.693;  130.950;  913.000;  858.000
273.834;  -92.950; -894.000; -692.000
273.974;  -93.450; -664.000; -615.000
274.114;  -90.125; -772.000; -560.000
274.255;   74.225;  414.000;  373.000
274.395;    7.100; -180.000; -125.000
274.535;   42.850;  199.000;  350.000
274.676;   32.225;  225.000;   94.000
274.816;    0.575;  110.000;   34.000
274.956;  -93.350; -624.000; -690.000
275.097;  -71.525;-1014.000; -922.000
275.237; -101.650; -913.000; -803.000
275.377; -100.325; -778.000; -689.000
275.517; -149.825; -878.000; -937.000
275.658;  -59.650; -590.000; -555.000
275.798;  -83.150; -606.000; -413.000
275.938;   32.300;  215.000;  323.000
276.078; -105.925; -626.000; -395.000
276.218;    5.225;   99.000;  104.000
276.359; -134.150;-1026.000;-1024.000
276.499;  -69.500; -605.000; -446.000
276.639;  -49.300; -305.000; -151.000
276.779;  -33.825; -475.000; -357.000
276.919; -114.800; -783.000; -624.000
277.059;  -28.375; -261.000; -212.000
277.199;  -39.475; -357.000; -259.000
277.340;   42.150;  287.000;  175.000
277.480; -123.250; -840.000; -693.000
277.620;   25.500;  192.000;   16.000
277.760; -202.800;-1533.000;-1294.000
277.900;   29.000;  113.000;   33.000
278.040;    7.400;  137.000;  159.000
278.180;   43.675;  270.000;  170.000
278.320;   -4.275;   21.000;   56.000
278.460;  -68.700; -443.000; -469.000
278.600; -100.650; -708.000; -598.000
278.740;   62.425;  448.000;  224.000
278.880;  -84.175; -768.000; -791.000
279.020;   -6.350; -194.000; -144.000
279.160;  -95.325; -672.000; -595.000
279.300; -104.150; -926.000; -873.000
279.440;  -97.600; -709.000; -622.000
279.579;  -33.100;-1014.000; -929.000
279.719;  -70.325; -410.000; -394.000
279.859;   73.650;   -4.000;   41.000
279.999;    9.150; -208.000;  101.000
280.139;  -24.350; -435.000; -387.000
280.279;  -71.650; -708.000; -745.000
280.419;  -22.825; -229.000; -147.000
280.559;  -45.125; -259.000; -180.000
280.698;  -82.050; -790.000; -639.000
280.838; -109.600; -778.000; -800.000
280.978;  -96.475; -846.000; -790.000
281.118; -123.500; -811.000; -704.000
281.257;    6.200;   24.000;    6.000
281.397; -127.725;-1094.000; -960.000
281.537; -103.775; -599.000; -712.000
281.677;  -33.175; -150.000; -101.000
281.816;  -89.575; -700.000; -630.000
281.956;  -48.825; -193.000; -257.000
282.096;  -68.675; -539.000; -396.000
282.235; -107.150; -672.000; -638.000
282.375;  -10.150; -243.000;  -98.000
282.515; -105.950; -715.000; -707.000
282.654;   27.800;   29.000;  106.000
282.794;   19.025;  388.000;  244.000
282.934;  -57.025; -530.000; -491.000
283.073; -137.850;-1030.000; -857.000
283.213;  -46.700; -460.000; -467.000
283.353;  -54.100; -408.000; -349.000
283.492;  -17.250; -264.000; -296.000
283.632;  -66.475; -254.000; -168.000
283.771;  -94.425; -859.000; -730.000
283.911;  -66.075; -369.000; -260.000
284.050; -111.475; -794.000; -748.000
284.190; -168.000;-1229.000;-1096.000
284.329; -154.175;-1055.000; -964.000
284.469;  -81.800; -516.000; -591.000
284.608;  -51.500; -559.000; -598.000
284.748;  -83.325; -614.000; -570.000
284.887;   -9.025;  -87.000;  -20.000
285.027; -138.950; -844.000; -892.000
285.166;  -23.825; -192.000; -249.000
285.306;   -1.875; -116.000;  -33.000
285.445;  -39.700; -229.000; -343.000
285.584; -113.875; -630.000; -494.000
285.724;  -37.925; -282.000; -322.000
285.863; -112.225; -857.000; -507.000
286.002;  -55.650; -366.000; -276.000
286.142; -113.100; -715.000; -622.000
286.281;  -74.750; -525.000; -493.000
286.420;  -82.075; -554.000; -417.000
286.560;   90.775;  653.000;  623.000
286.699; -151.775; -958.000; -912.000
286.838;  -77.500; -590.000; -591.000
286.978;  -94.125; -533.000; -537.000
287.117; -132.125;-1085.000; -950.000
287.256;  -41.825; -228.000; -211.000
287.395;  -56.525; -197.000; -378.000
287.535;  -50.025; -370.000; -298.000
287.674;  -83.725; -509.000; -484.000
287.813;   45.350;  661.000;  533.000
287.952; -127.650;-1010.000; -871.000
288.091; -149.250;-1049.000; -915.000
288.231;    7.175;   13.000;   15.000
288.370; -173.850;-1217.000;-1200.000
288.509;  -80.225; -728.000; -645.000
288.648; -102.050; -770.000; -548.000
288.787;  -34.075; -243.000;  -87.000
288.926;  -54.975; -454.000; -475.000
289.065;  127.450;  859.000;  672.000
289.204;  -59.225; -377.000; -217.000
289.344;  -97.700; -791.000; -690.000
289.483;   14.025;  416.000;  304.000
289.622;  -19.250; -291.000; -149.000
289.761;  -23.225; -309.000; -166.000
289.900; -111.550; -785.000; -626.000
290.039;  -21.900;  -12.000;  -95.000
290.178;  -43.675; -274.000; -180.000
290.317;  -93.925; -618.000; -479.000
290.456;  -62.975; -463.000; -451.000
290.595; -144.700; -961.000; -833.000
290.734; -133.075; -904.000; -891.000
290.873;  -68.575; -456.000; -420.000
291.011;  -94.200; -833.000; -843.000
291.150;  -97.575; -770.000; -682.000
291.289;  -31.150; -343.000; -110.000
291.428; -102.100; -599.000; -480.000
291.567;  -49.200; -370.000; -442.000
291.706;   -8.575;  109.000;  154.000
291.845;  -86.850; -597.000; -505.000
291.984; -181.100;-1234.000;-1061.000
292.122;   63.425;  602.000;  582.000
292.261;   40.100;  620.000;  463.000
292.400;   -6.000; -144.000;  211.000
292.539; -127.275; -959.000; -813.000
292.678;  -37.150; -325.000; -300.000
292.816; -156.725;-1136.000; -965.000
292.955;  -96.100; -844.000; -684.000
293.094;  -27.650; -173.000; -337.000
293.233;  -61.675; -556.000; -400.000
293.371;  -40.175; -225.000;  -84.000
293.510; -110.650; -866.000; -780.000
293.649; -136.275; -959.000; -924.000
293.787;  -79.975;-1083.000;-1012.000
293.926;   -4.700; -113.000;  -32.000
294.065;  -41.425; -379.000; -290.000
294.203;   43.950;  298.000;  406.000
294.342;   19.150;   74.000;  156.000
294.481; 5928.800;51180.000; -836.000
294.619;  -31.650; -425.000; -582.000
294.758; -155.075;-1230.000;-1137.000
294.896;   58.725; -125.000;    5.000
295.035; -133.650;-1040.000;-1006.000
295.174; -115.125;-1082.000; -954.000
295.312;  -33.350; -323.000; -203.000
295.451;  -14.475; -307.000; -428.000
295.589;  -68.750; -389.000; -518.000
295.728;   11.975; -292.000; -165.000
295.866;    6.875;  -36.000;  -51.000
296.005;  -65.950; -584.000; -341.000
296.143;  -82.900; -558.000; -596.000
296.282; -102.275; -957.000; -881.000
296.420;  -85.325; -657.000; -557.000
296.559;  -86.075; -892.000; -633.000
296.697;   -0.600; -847.000; -665.000
296.835;   34.475;-1141.000;-1002.000
296.974;   43.800;  -23.000;   39.000
297.112;    7.425; -443.000; -504.000
297.251;  -88.125; -815.000; -755.000
297.389;   84.725; -576.000; -438.000
297.527;   28.075; -145.000;  -83.000
297.666;  -61.075; -486.000; -438.000
297.804;  -48.775; -404.000; -264.000
297.942;  -14.550; -136.000; -161.000
298.081;  -26.200; -183.000;   63.000
298.219;   69.925;  -17.000;  -19.000
298.357;   24.425; -144.000;  -71.000
298.495;   14.350; -810.000; -812.000
298.634;   54.625;  245.000;  219.000
298.772;   52.100; -220.000; -338.000
298.910;  -43.050; -309.000; -182.000
299.048;   -7.225; -130.000; -153.000
299.187;  -41.875; -350.000; -250.000
299.325;   23.675;   52.000;  122.000
299.463;   23.425; -389.000; -299.000
299.601;   87.600; -327.000; -271.000
299.739; -114.875; -908.000; -883.000
299.877;  -83.075; -791.000; -703.000
300.016;  -58.225;-1095.000; -935.000
300.154;  152.600;  -19.000; -161.000
300.292;   34.000; -428.000; -348.000
300.430;   20.650; -408.000; -291.000
300.568; -112.300; -940.000; -874.000
300.706;  -46.025; -366.000; -469.000
300.844;  -94.750;-1108.000; -979.000
300.982;  118.900;  246.000;  282.000
301.120; -112.975; -965.000; -866.000
301.258;  -71.875; -812.000; -705.000
301.396;   21.525;  104.000;  -41.000
301.534;   56.775; -218.000; -293.000
301.672;  -27.350; -664.000; -521.000
301.810;   14.800; -613.000; -545.000
301.948;   94.200;   53.000;  149.000
302.086;  559.725; -250.000;  -32.000
302.224;  857.175; -610.000; -585.000
302.362;   21.750; -558.000; -622.000
302.500;  -41.450; -923.000; -893.000
302.638;   90.650;  128.000;  245.000
302.776;   -5.250; -352.000; -408.000
302.913;   48.675;  447.000;  236.000
303.051;   -7.875;  -86.000;  -23.000
303.189;   36.150;   90.000;  118.000
303.327;  -51.175; -341.000; -256.000
303.465;  -74.850; -832.000; -588.000
303.603; -104.150; -805.000; -604.000
303.740;  100.250;  417.000;  241.000
303.878;  -10.150; -800.000; -759.000
304.016;  -91.825; -915.000; -790.000
304.154; -144.000;-1123.000;-1152.000
304.291;  -43.750; -505.000; -554.000
304.429;   -3.925;  102.000;   74.000
304.567; -129.575; -908.000; -893.000
304.705;  -39.025; -408.000; -515.000
304.842;   89.550; -616.000; -540.000
304.980;   32.575;  215.000;   35.000
305.118;   22.050; -367.000; -365.000
305.255;  -94.975; -945.000; -927.000
305.393;   61.775;  178.000;  239.000
305.531; -120.675;-1173.000; -956.000
305.668;  -59.550; -663.000; -582.000
305.806;   78.000; -358.000; -439.000
305.943;   82.950; -629.000; -637.000
306.081;   37.975; -378.000; -267.000
306.219; -108.275; -863.000; -748.000
306.356;   -2.350;  158.000;   27.000
306.494;  101.300;  981.000;  761.000
306.631;   -7.400;  -11.000;  -55.000
306.769;   -2.800; -613.000; -485.000
306.906;  -19.800; -284.000; -258.000
307.044;  -71.700; -473.000; -488.000
307.181;  -61.050; -410.000; -332.000
307.319;   21.075;  112.000;   87.000
307.456; -190.950;-1191.000;-1153.000
307.594; -109.300; -980.000; -727.000
307.731;  -15.825; -371.000; -164.000
307.868;   -5.250;  -15.000;   20.000
308.006; -140.150; -961.000; -847.000
308.143;  -69.600; -618.000; -330.000
308.281;  116.175;  -37.000; -254.000
308.418;  -46.975; -748.000; -640.000
308.555;  -74.025; -400.000; -250.000
308.693;  -79.700; -577.000; -573.000
308.830; -121.525; -712.000; -657.000
308.967;  -18.300; -215.000;  -95.000
309.105;  -58.075; -507.000; -396.000
309.242;   19.700; -468.000; -367.000
309.379;  186.750; -577.000; -655.000
309.517;  -74.550; -936.000; -948.000
309.654; -124.175; -910.000; -734.000
309.791;  -64.875; -662.000; -580.000
309.928; -118.050; -977.000; -914.000
310.065;  159.525;  819.000;  697.000
310.203;  -29.000; -825.000; -850.000
310.340;  -18.850; -465.000; -321.000
310.477;  -83.050; -412.000; -516.000
310.614;  -75.325; -383.000; -473.000
310.751;  -69.950; -427.000; -518.000
310.889;  -12.625;    1.000;   11.000
311.026; -171.350;-1161.000; -939.000
311.163;  -49.050; -386.000; -380.000
311.300;  -81.375; -512.000; -479.000
311.437;  -81.000; -658.000; -619.000
311.574; -151.125;-1226.000; -985.000
311.711;  -58.550; -595.000; -433.000
311.848;  -50.100; -380.000; -388.000
311.985;    6.500;  270.000;   93.000
312.122; -119.975; -932.000; -762.000
312.259; -128.000; -941.000; -994.000
312.396; -100.400; -508.000; -551.000
312.533;  -97.150; -812.000; -790.000
312.670; -147.825;-1070.000; -898.000
312.807;  -38.600; -352.000; -367.000
312.944; -109.250; -513.000; -611.000
313.081;  -42.125; -150.000; -415.000
313.218; -111.925;-1111.000; -867.000
313.355;    6.375; -531.000; -449.000
313.492;  -10.925; -455.000; -292.000
313.629;  127.200;  815.000;  735.000
313.766; -178.300;-1176.000;-1008.000
313.902;  -18.450; -186.000;   21.000
314.039;  -60.925; -372.000; -289.000
314.176;   37.175;  286.000;  192.000
314.313;  -80.550; -569.000; -473.000
314.450;  -86.375; -788.000; -684.000
314.587;  -72.975; -468.000; -480.000
314.723;    5.100;  -78.000;  130.000
314.860;   29.800;  318.000;  332.000
314.997;   33.050;  223.000;  142.000
315.134;  -57.625; -385.000; -368.000
315.270;  -36.575; -480.000; -496.000
315.407; -127.700;-1094.000; -967.000
315.544;  -50.200; -657.000; -538.000
315.681;  -80.275; -681.000; -565.000
315.817;   17.625; -133.000; -176.000
315.954;    1.550; -613.000; -392.000
316.091; -129.525;-1045.000;-1023.000
316.227;  -34.175;  -71.000; -179.000
316.364;   19.800;   23.000;    6.000
316.500;  -51.000; -113.000; -300.000
316.637;  -48.300; -181.000; -302.000
316.774; -112.375; -625.000; -358.000
316.910;  -85.150; -598.000; -629.000
317.047;  -82.825; -487.000; -351.000
317.183;  -57.050; -435.000; -566.000
317.320;  -18.100; -367.000; -321.000
317.456;  -79.525; -733.000; -805.000
317.593;  -94.400; -598.000; -641.000
317.729;    4.825;  168.000;  -67.000
317.866; -203.775;-1434.000;-1285.000
318.002;  -90.900; -708.000; -948.000
318.139; -110.925; -883.000; -867.000
318.275; -108.850;-1003.000; -738.000
318.412;  -66.250; -517.000; -336.000
318.548;  -44.350; -751.000; -720.000
318.685; -112.000; -985.000; -888.000
318.821;  -94.350; -762.000; -735.000
318.957;  -24.950;   34.000;  -23.000
319.094;   30.925;  297.000;  154.000
319.230;  -65.850; -756.000; -742.000
319.367;  107.875; -471.000; -520.000
319.503;   39.325; -538.000; -436.000
319.639;  -92.700; -877.000; -793.000
319.775;  -63.875; -750.000; -685.000
319.912;  -48.525; -424.000; -519.000
320.048; -109.525;-1184.000;-1184.000
320.184;   63.850;   59.000;   70.000
320.321;  -56.850; -497.000; -467.000
320.457;   65.775;  475.000;  662.000
320.593;  -76.250; -375.000; -382.000
320.729; -108.450; -732.000; -734.000
320.866;  -87.950; -577.000; -635.000
321.002;  -92.875; -759.000; -809.000
321.138;  -11.250; -135.000; -211.000
321.274;   69.850; -148.000; -115.000
321.410;  -44.850; -585.000; -353.000
321.546;  -39.450;-1011.000; -911.000
321.683;   50.200;  400.000;  185.000
321.819;   -4.575;  -48.000; -117.000
321.955; -113.300; -743.000; -722.000
322.091;  -44.900; -585.000; -540.000
322.227;  -38.100; -382.000; -202.000
322.363;  -10.900; -320.000; -215.000
322.499;  -63.500; -343.000; -331.000
322.635;  145.925;  636.000;  443.000
322.771;    6.050; -139.000;   12.000
322.907;   88.525;  129.000;  327.000
323.043;  -29.025; -115.000; -206.000
323.179;  -38.850; -394.000; -363.000
323.315;   -0.875; -401.000; -371.000
323.451;   81.925; -328.000; -236.000
323.587;   36.900;  -60.000;  -77.000
323.723;   19.275; -682.000; -601.000
323.859;   -8.275; -258.000;  -76.000
323.995;  -41.700; -467.000; -409.000
324.131; -140.050; -967.000; -892.000
324.267;  -28.325; -254.000; -276.000
324.402; -139.775; -960.000; -983.000
324.538;  -13.925; -279.000; -104.000
324.674;    2.150;  164.000;   77.000
324.810;  108.600;  226.000;  308.000
324.946;  -21.000; -810.000; -658.000
325.082;  -80.275; -568.000; -475.000
325.217;  -21.725;  -62.000;   16.000
325.353;  -93.675; -764.000; -659.000
325.489;  -94.600; -540.000; -506.000
325.625;  -70.000; -579.000; -525.000
325.760;   51.000;  517.000;  376.000
325.896;  -28.900; -515.000; -702.000
326.032;  -56.100; -403.000; -352.000
326.168;  -54.475; -462.000; -369.000
326.303;  -61.300; -352.000; -461.000
326.439;  -27.775; -336.000; -276.000
326.575;  -13.850; -190.000;  -29.000
326.710;  -16.875; -156.000;  -30.000
326.846;  -35.800;  146.000;  103.000
326.982;  -99.375; -530.000; -548.000
327.117;  -80.875; -481.000; -442.000
327.253;  -87.725; -745.000; -742.000
327.388; -141.825;-1137.000;-1153.000
327.524;  -75.100; -811.000; -578.000
327.659;  -34.775;  -58.000;  -22.000
327.795;  -15.650;   69.000;   45.000
327.931;  -86.575; -723.000; -499.000
328.066;  -40.150; -417.000; -276.000
328.202;  -18.325;   12.000; -129.000
328.337;  106.400;  957.000;  713.000
328.473;   32.275;  -12.000;  -74.000
328.608;  -28.050; -256.000; -267.000
328.743; -107.175; -799.000; -664.000
328.879;   16.825;  214.000;  114.000
329.014;  -46.900; -102.000; -122.000
329.150;  -85.900; -358.000; -483.000
329.285;  -87.150; -465.000; -466.000
329.421;  -51.250; -548.000; -246.000
329.556;  -30.975;  -36.000;   85.000
329.691; -100.850; -633.000; -615.000
329.827;  -92.475; -626.000; -480.000
329.962;  -42.350;  131.000; -301.000
330.097; -106.800; -673.000; -585.000
330.233;  -42.600; -410.000; -223.000
330.368; -148.500; -839.000; -628.000
330.503;   -6.100;    3.000;   98.000
330.638;   -8.050;  -93.000; -125.000
330.774;  -72.000; -609.000; -530.000
330.909;  -60.775; -434.000; -244.000
331.044; -100.100; -714.000; -708.000
331.179; -193.025;-1217.000;-1109.000
331.315;    4.600;   77.000;   20.000
331.450;   12.725;  157.000;  285.000
331.585;  -95.450; -805.000; -706.000
331.720;  -92.675; -510.000; -460.000
331.855;  -20.225;  -35.000; -102.000
331.990;  245.950;   62.000;  138.000
332.126;  136.550; -110.000;   71.000
332.261;  -36.225; -379.000; -265.000
332.396;    7.425; -135.000; -242.000
332.531; -110.325;-1074.000;-1031.000
332.666;   34.225; -519.000; -363.000
332.801; -107.775; -726.000; -807.000
332.936;  -22.550; -192.000; -122.000
333.071; -140.500; -870.000; -817.000
333.206;   17.500;  307.000;  379.000
333.341;   13.150;  344.000;  418.000
333.476;  -87.275; -627.000; -623.000
333.611;  -55.500; -251.000; -173.000
333.746;  -57.975; -381.000; -464.000
333.881; -137.575; -973.000; -935.000
334.016; -133.925; -936.000; -917.000
334.151; -135.375; -746.000; -702.000
334.286;   33.900;  152.000;  186.000
334.421;  -35.175; -125.000; -178.000
334.556;  -77.400; -611.000; -567.000
334.690;  -92.525; -631.000; -577.000
334.825;   62.375;  381.000;   83.000
334.960;  -69.950; -285.000; -413.000
335.095;    1.350;  135.000;  -91.000
335.230; -114.700; -722.000; -738.000
335.365; -134.550;-1084.000; -990.000
335.499; -143.275;-1108.000;-1037.000
335.634;   19.375;    9.000;  534.000
335.769; -115.300; -755.000; -720.000
335.904;  -75.700; -603.000; -561.000
336.038;  -60.825; -735.000; -657.000
336.173; -135.650;-1206.000;-1194.000
336.308;  -11.200; -116.000; -189.000
336.443;  -13.600; -544.000; -634.000
336.577;  -80.450; -936.000; -787.000
336.712;   56.600;   -4.000;  -12.000
336.847;  -55.700; -724.000; -607.000
336.981;   54.500; -272.000; -208.000
337.116;  267.600;  615.000;  501.000
337.250;  130.250; -434.000; -421.000
337.385;  244.900; -297.000; -208.000
337.520;   88.900; -632.000; -603.000
337.654;  -44.775; -215.000; -126.000
337.789; -130.275; -989.000; -933.000
337.923;  -36.100; -104.000; -205.000
338.058;  -83.900; -673.000; -738.000
338.192;  -40.375; -611.000; -488.000
338.327;   -5.075;  -18.000; -155.000
338.461;  -76.275; -299.000; -469.000
338.596;  -97.550; -780.000; -638.000
338.730; -110.450; -767.000; -803.000
338.865;   87.050;  -46.000; -140.000
338.999;  -57.650; -846.000; -702.000
339.134;  -38.775; -634.000; -536.000
339.268;    3.250; -741.000; -603.000
339.403;  370.550; -740.000; -775.000
339.537;  138.100; -894.000; -820.000
339.671; -122.775; -829.000; -813.000
339.806;  -64.900; -556.000; -512.000
339.940;   12.775; -261.000; -235.000
340.074; -112.850; -685.000; -510.000
340.209;  -48.775; -351.000; -230.000
340.343; -110.300; -517.000; -573.000
340.477;  149.875;  998.000; 1036.000
340.612;  -59.625;-1033.000; -900.000
340.746;  156.700; -199.000; -243.000
340.880;  -97.350; -924.000; -785.000
341.014;  -22.550;  -45.000; -154.000
341.149; -131.200; -756.000; -718.000
341.283; -106.800; -839.000; -754.000
341.417; -112.175;-1124.000; -938.000
341.551;   99.900; -768.000; -708.000
341.685;  -35.925; -633.000; -611.000
341.820;  -55.400; -562.000; -493.000
341.954;  -53.600; -218.000; -349.000
342.088; -136.700;-1102.000;-1019.000
342.222;   44.450;  565.000;  618.000
342.356;  -69.725; -395.000; -335.000
342.490; -103.425; -880.000; -841.000
342.624;  -47.500; -339.000; -242.000
342.758;  -26.950; -364.000; -312.000
342.892;  -78.450; -710.000; -585.000
343.026;  -61.175;  -58.000; -116.000
343.160;  -64.750; -426.000; -376.000
343.294;  -80.375; -474.000; -337.000
343.428;  -22.750; -488.000; -448.000
343.562;  -29.800; -172.000;  -23.000
343.696;  -48.075; -385.000; -314.000
343.830;  -30.825; -362.000; -356.000
343.964;    3.800; -231.000; -168.000
344.098;  793.000;  199.000;   70.000
344.232;  701.675; -266.000; -127.000
344.366;   64.075; -567.000; -453.000
344.500;   40.625; -665.000; -744.000
344.634;   18.225; -324.000; -164.000
344.768;  -21.000; -531.000; -341.000
344.902;    9.750;  278.000;  256.000
345.035;  -85.000; -556.000; -496.000
345.169; -136.750; -933.000; -656.000
345.303;  -60.250; -308.000; -482.000
345.437;  -99.725; -826.000; -717.000
345.571;  -81.525; -675.000; -594.000
345.704;  -74.025; -309.000; -532.000
345.838;   -6.600; -331.000; -284.000
345.972;  -47.475; -543.000; -495.000
346.106;  161.575; -179.000; -190.000
346.239;  388.475; -312.000; -243.000
346.373;    0.250; -343.000; -302.000
346.507; -156.700; -950.000; -962.000
346.640;  121.925;  -30.000;   13.000
346.774;  -65.225; -650.000; -797.000
346.908;  -23.725; -138.000;  -11.000
347.041; -114.175; -646.000; -593.000
347.175;    2.875;  259.000;   27.000
347.309;  -79.825; -698.000; -628.000
347.442; -107.700; -883.000; -732.000
347.576;  262.950;  670.000;  668.000
347.709;  174.300; -123.000;  -52.000
347.843; -106.225; -933.000; -825.000
347.976;   33.100;  235.000;  294.000
348.110; -189.950;-1268.000;-1186.000
348.243; -118.525; -679.000; -772.000
348.377;   -4.475;  -26.000;   60.000
348.510;   52.200;  403.000;  540.000
348.644;  -53.075;  -37.000; -159.000
348.777;   -2.250;  180.000;  191.000
348.911;  -53.100; -142.000; -112.000
349.044;  156.825;  471.000;  448.000
349.178;  126.925;-1069.000;-1006.000
349.311;  110.150;  141.000;  255.000
349.444;  -16.925; -927.000; -813.000
349.578;  -12.425; -347.000; -200.000
349.711; -116.375; -959.000; -862.000
349.845;    8.300; -661.000; -591.000
349.978; -163.200;-1224.000;-1137.000
350.111;  -97.875; -546.000; -612.000
350.244;  -75.800; -596.000; -700.000
350.378;   -3.250; -392.000; -393.000
350.511;  -82.725; -393.000; -426.000
350.644; -119.900; -808.000; -806.000
350.778;   13.425;  168.000;  104.000
350.911;    4.825;  134.000;  140.000
351.044;  -93.800; -685.000; -615.000
351.177;  -27.375; -321.000; -281.000
351.310;  -25.475;    3.000; -131.000
351.444;  -76.075; -888.000; -788.000
351.577;   98.750;  140.000;   90.000
351.710;   91.350;  593.000;  417.000
351.843;  -28.350; -165.000;  -77.000
351.976;  -22.175;  149.000;  -79.000
352.109; -104.675; -621.000; -612.000
352.242;  -30.675; -464.000; -419.000
352.376;  -64.350; -580.000; -636.000
352.509;  136.875; -437.000; -356.000
352.642;   -8.325; -654.000; -604.000
352.775;   61.400; -141.000;  -98.000
352.908; -116.325; -933.000; -904.000
353.041; -101.725; -814.000; -824.000
353.174;  -69.450; -551.000; -424.000
353.307;  -91.825; -753.000; -764.000
353.440;   69.150;  541.000;  453.000
353.573; -108.225; -957.000;-1008.000
353.706;  -74.125; -384.000; -558.000
353.839;  -32.875; -264.000; -220.000
353.971;  -89.000; -657.000; -512.000
354.104;  -85.975; -896.000; -835.000
354.237;  -49.500; -627.000; -662.000
354.370;  -86.800; -846.000; -879.000
354.503; -189.425;-1231.000;-1308.000
354.636;  -49.150; -529.000; -348.000
354.769; -138.325; -937.000; -860.000
354.902;  -22.900; -230.000; -139.000
355.034;  -35.525; -164.000; -220.000
355.167;  -21.450; -262.000; -162.000
355.300; -113.925;-1061.000; -880.000
355.433;  993.225;  -71.000;  -14.000
355.565; 1537.150; -402.000; -384.000
355.698;  383.075; -356.000; -296.000
355.831;   -9.800; -882.000; -801.000
355.964;   58.225; -285.000; -170.000
356.096; -105.500; -856.000; -843.000
356.229;  -12.225; -523.000; -530.000
356.362;  341.725; -373.000; -266.000
356.494;  604.350; -229.000; -162.000
356.627;  424.500;  269.000;  377.000
356.760;  656.700;  120.000;   53.000
356.892;  982.725; -286.000; -601.000
357.025;  608.775;  403.000;  389.000
357.157;  516.275; -167.000; -179.000
357.290;  705.125; -856.000; -713.000
357.423;  194.200; -667.000; -556.000
357.555;   92.575; -217.000; -228.000
357.688;  100.425; -483.000; -364.000
357.820;  407.800; -870.000; -877.000
357.953; 3502.875; -563.000; -589.000
358.085;  732.050; -632.000; -612.000
358.218;  951.125;-1131.000; -932.000
358.350;  172.375;  -58.000;  312.000
358.483; -140.750;-1300.000;-1187.000
358.615;  -38.575;-1182.000;-1078.000
358.747;  -90.575;-1187.000;-1058.000
358.880;   -1.950; -810.000; -744.000
359.012;  -18.425; -376.000; -202.000
359.145;  -51.650; -480.000; -511.000
359.277;   29.500; -962.000; -913.000
359.409; 2867.875;  536.000;  231.000
359.542;  725.125; -738.000; -688.000
359.674;   55.800;   46.000;   13.000
359.806;  -70.125; -565.000; -438.000
359.939;  -31.800; -617.000; -516.000
360.071;  -12.675; -583.000; -579.000
360.203;  -12.425; -411.000; -364.000
360.335;   39.675;  164.000;  -16.000
360.468;  173.875; -249.000; -307.000
360.600; 2327.750; -547.000; -454.000
360.732; 2946.975; -546.000; -423.000
360.864;  383.150;-1216.000;-1044.000
360.996;  228.450; -516.000; -554.000
361.129;   24.425; -389.000; -598.000
361.261;   19.575;  110.000; -113.000
361.393;  -42.100; -252.000; -214.000
361.525;   31.725;   94.000;  244.000
361.657;  -56.250; -821.000; -703.000
361.789;    1.325; -139.000; -155.000
361.921;  183.250; -642.000; -593.000
362.053;  237.250;  524.000;  541.000
362.185;   45.500;  288.000;   72.000
362.318;  -90.175; -709.000; -705.000
362.450;  108.475;  294.000;  444.000
362.582;   63.625; -913.000; -870.000
362.714;  -63.450; -353.000; -332.000
362.846;  -82.900; -606.000; -490.000
362.978; -144.275; -941.000; -811.000
363.109;   35.375; -161.000; -260.000
363.241;  368.725; -739.000; -749.000
363.373;  441.825; -649.000; -564.000
363.505;  677.775; -186.000;  -91.000
363.637;  148.125; -787.000; -601.000
363.769; -130.525;-1067.000;-1080.000
363.901;  -74.625; -596.000; -654.000
364.033; -139.200;-1103.000;-1062.000
364.165;  -12.850; -283.000; -283.000
364.296;   77.700; -316.000; -177.000
364.428;   73.125;-1344.000;-1220.000
364.560;  -80.975; -679.000; -661.000
364.692;  -70.200; -738.000; -835.000
364.824;  205.675; -588.000; -456.000
364.955;  436.625; -402.000; -564.000
365.087;  968.325;-1097.000; -852.000
365.219;    7.700; -686.000; -816.000
365.351;  -69.225; -526.000; -572.000
365.482;   50.650;  300.000;  240.000
365.614;  -50.225; -402.000; -314.000
365.746; -104.450; -729.000; -752.000
365.877;  -99.350; -706.000; -672.000
366.009;  270.350;  -35.000;  -62.000
366.141;  -95.475;-1249.000;-1134.000
366.272; -113.575; -803.000; -719.000
366.404; -125.600;-1005.000; -874.000
366.535;  -15.875; -139.000;  -12.000
366.667; -101.950; -644.000; -649.000
366.799;   46.575;  353.000;  203.000
366.930; -137.325; -862.000; -996.000
367.062;  119.700; -639.000; -613.000
367.193;  151.175; -872.000; -842.000
367.325;  -70.800; -580.000; -684.000
367.456;   38.975; -246.000;   31.000
367.588;  170.625; -371.000; -318.000
367.719;   22.850;  -44.000;  -45.000
367.851;  -34.525; -222.000; -241.000
367.982;  -67.575; -875.000; -732.000
368.113;   79.550; -475.000; -358.000
368.245; -125.250; -960.000; -841.000
368.376;  -23.350; -254.000; -302.000
368.508;  -31.075; -188.000; -263.000
368.639; -143.950;-1166.000;-1034.000
368.770;  -31.850; -670.000; -589.000
368.902;  -82.300; -836.000; -926.000
369.033; -105.275; -906.000; -855.000
369.164;  -50.100; -720.000; -653.000
369.296; -122.950; -452.000; -601.000
369.427;   -7.625; -209.000; -144.000
369.558;  -61.275; -593.000; -377.000
369.689;  -76.000; -721.000; -569.000
369.821; -147.000; -951.000; -845.000
369.952;  -14.475;   42.000; -108.000
370.083;  -48.550; -229.000; -108.000
370.214;  -87.300; -735.000; -650.000
370.345;  -12.525;   65.000;   81.000
370.477;  -93.675; -810.000; -790.000
370.608;  196.650; -328.000; -264.000
370.739;  -53.725;-1233.000;-1292.000
370.870;  -65.900;-1102.000; -923.000
371.001;   64.425; -378.000; -467.000
371.132;  -96.675; -754.000; -735.000
371.263;  -19.050;  -42.000; -148.000
371.394; -147.325; -841.000; -748.000
371.525;   31.925;  345.000;  225.000
371.657;  -95.900; -808.000; -670.000
371.788;   59.950;  103.000;  199.000
371.919;  135.325; -384.000; -304.000
372.050; 3316.875;  -91.000; -156.000
372.181;  959.750; -188.000; -294.000
372.311;  315.025;   42.000; -127.000
372.442;   18.175; -457.000; -451.000
372.573;  -14.875; -444.000; -340.000
372.704; -124.375;-1008.000; -980.000
372.835;   69.625; -228.000; -289.000
372.966;  -73.750; -646.000; -554.000
373.097;  -69.675; -575.000; -711.000
373.228;  -54.650; -717.000; -542.000
373.359;  113.300; -824.000; -536.000
373.490;  802.100; -881.000; -727.000
373.620; 1023.625;-1001.000; -803.000
373.751; 1587.775; -332.000; -396.000
373.882;  677.050; -663.000; -733.000
374.013;   45.300; -449.000; -262.000
374.143;  -47.275; -581.000; -659.000
374.274; -120.150; -987.000; -908.000
374.405;  130.925; -388.000; -276.000
374.536;  369.450; -526.000; -387.000
374.666;  969.650; -759.000; -807.000
374.797;  171.400; -817.000; -868.000
374.928;  756.400; -710.000; -560.000
375.058;  760.650; -535.000; -500.000
375.189;   51.825;  -59.000;  -93.000
375.320; -133.550; -928.000;-1034.000
375.450;  -48.650; -625.000; -616.000
375.581;  -50.300; -526.000; -436.000
375.712;  -24.575; -574.000; -250.000
375.842;  238.175; -438.000; -415.000
375.973;  172.475; -554.000; -513.000
376.103;  -70.625; -665.000; -648.000
376.234;  -81.975; -531.000; -552.000
376.364;  -61.825; -944.000; -867.000
376.495;  286.600;  925.000;  529.000
376.625;  -25.175; -472.000; -485.000
376.756;   52.925; -709.000; -678.000
376.886;  -98.475;-1178.000;-1026.000
377.017;   48.275;-1048.000;-1061.000
377.147;  357.800; -786.000; -782.000
377.278;   60.450;  174.000;  228.000
377.408; -136.725; -801.000; -815.000
377.538;  -98.425; -707.000; -693.000
377.669;  -88.575; -537.000; -613.000
377.799;  -92.775; -645.000; -635.000
377.929;  -82.300; -610.000; -428.000
378.060; -124.400; -781.000; -847.000
378.190;  -66.350; -726.000; -531.000
378.320;  -58.875; -401.000; -406.000
378.451;  -25.125; -131.000;  -22.000
378.581;  -20.250;  -67.000; -110.000
378.711;  124.225; 1035.000;  866.000
378.841;  -21.650; -533.000; -675.000
378.972;  -93.600; -871.000; -751.000
379.102;  -22.825; -652.000; -579.000
379.232;  -33.950; -126.000;  -73.000
379.362; -123.450;-1001.000; -885.000
379.492;  -20.300; -373.000; -424.000
379.623;   94.575;    0.000;  111.000
379.753; -121.975;-1107.000; -974.000
379.883;  183.875;   59.000;  156.000
380.013;  -22.375;-1081.000;-1017.000
380.143; -107.650;-1097.000;-1056.000
380.273; -107.850; -985.000; -861.000
380.403;  -16.100; -344.000; -257.000
380.533;  -42.975; -651.000; -664.000
380.663;   67.625;  173.000;  128.000
380.793; -125.675;-1027.000;-1074.000
380.923;  -23.300; -103.000;  -34.000
381.053; -117.775; -613.000; -623.000
381.183;  -36.650; -106.000; -248.000
381.313;   15.625; -656.000; -470.000
381.443;   33.275; -692.000; -473.000
381.573;  158.650; -402.000; -409.000
381.703;  202.700;-1249.000;-1095.000
381.833; -158.000;-1454.000;-1336.000
381.963;  100.175; -134.000;  -87.000
382.093; 1277.850; -925.000; -909.000
382.223;  393.625; -713.000; -602.000
382.353;  -41.475; -801.000; -608.000
382.482;  315.450;-1091.000; -964.000
382.612;  699.875; -872.000; -644.000
382.742;  386.400; -695.000; -622.000
382.872;  205.800; -565.000; -551.000
383.002;   60.550;  347.000; -132.000
383.131;  -32.925; -226.000; -160.000
383.261;  -53.500; -706.000; -768.000
383.391;  277.125; -552.000; -377.000
383.521; 3332.500;  451.000;  263.000
383.650;  798.075; -947.000; -904.000
383.780;   -4.300; -783.000; -656.000
383.910;   91.950;  880.000;  802.000
384.039;    1.550; -794.000; -656.000
384.169;  154.225;-1205.000;-1017.000
384.299;  -45.175; -650.000; -662.000
384.428;  -88.350; -764.000; -680.000
384.558;  -36.650; -308.000; -275.000
384.687;  -60.925; -414.000; -334.000
384.817;    2.050;   75.000;   -2.000
384.947;   -3.300; -234.000; -141.000
385.076;  247.800;  982.000;  912.000
385.206;   56.400;  369.000;  480.000
385.335;  -39.725; -549.000; -417.000
385.465; -101.000; -655.000; -663.000
385.594;  109.200;  -53.000;  -44.000
385.724;  341.350; -868.000; -838.000
385.853;   88.950; -296.000; -270.000
385.982; 1218.325; -743.000; -787.000
386.112; 1934.175;-1052.000; -871.000
386.241;  109.125; -307.000; -312.000
386.371;   19.200; -174.000;  -87.000
386.500;  -28.475; -825.000; -789.000
386.629;    7.300; -874.000; -817.000
386.759;   38.800;  -43.000;   68.000
386.888;  -26.300; -170.000; -250.000
387.017;  -92.225; -648.000; -620.000
387.147; -100.200; -771.000; -798.000
387.276;  -13.600; -410.000; -397.000
387.405;   -8.350; -398.000; -342.000
387.535;  -53.750; -452.000; -361.000
387.664;  -80.225; -692.000; -620.000
387.793;   36.700; -198.000; -113.000
387.922;  466.550;  255.000;  200.000
388.052;   -3.450; -576.000; -423.000
388.181;   -9.600; -342.000; -472.000
388.310;  -41.000; -889.000; -710.000
388.439;  -54.575; -749.000; -742.000
388.568;  149.475;  365.000;  244.000
388.697;  918.425; -756.000; -653.000
388.826;  157.925; -768.000; -666.000
388.956;   41.200; -285.000; -307.000
389.085;  -43.675; -347.000; -287.000
389.214; -117.950; -842.000; -872.000
389.343;  -71.250; -645.000; -413.000
389.472;  409.250;  126.000;  149.000
389.601;  512.700;   91.000;    0.000
389.730;    3.350; -568.000; -687.000
389.859;   49.425;  226.000;   46.000
389.988;  165.725; -423.000; -408.000
390.117;  108.800; -168.000; -146.000
390.246;  -33.200; -331.000; -320.000
390.375;   62.700; -673.000; -626.000
390.504;  -67.700; -703.000; -621.000
390.633; -111.400; -672.000; -726.000
390.761;  -80.175; -732.000; -645.000
390.890;   13.725;   -4.000; -130.000
391.019;  -44.725; -421.000; -441.000
391.148; -134.050; -826.000; -855.000
391.277;  -84.200; -576.000; -493.000
391.406; -112.425; -821.000; -805.000
391.534;    6.200;  574.000; -301.000
391.663;  -84.450; -583.000; -645.000
391.792;  -97.000; -673.000; -701.000
391.921;   74.050;   -3.000;   15.000
392.050;  152.350; -287.000; -228.000
392.178;  -71.550;-1206.000;-1061.000
392.307;  119.450; -758.000; -712.000
392.436;   51.500; -427.000; -641.000
392.564;   11.875;  166.000;   -6.000
392.693; -106.025; -860.000; -682.000
392.822;  176.200; -529.000; -534.000
392.950;   61.600; -880.000; -714.000
393.079;  279.400; -188.000; -328.000
393.208;   -2.475; -488.000; -511.000
393.336;  -22.425; -170.000; -145.000
393.465;  -40.300; -317.000; -199.000
393.593;  -12.500;   62.000;   79.000
393.722; -178.275;-1121.000; -916.000
393.850;  -37.750; -188.000;  -61.000
393.979; -153.175; -926.000; -805.000
394.107;  -70.950; -517.000; -537.000
394.236;  -50.850; -570.000; -507.000
394.364;  179.825;  383.000;  206.000
394.493;  221.350; -911.000; -767.000
394.621;  -40.400; -955.000; -916.000
394.750;  710.200; -873.000; -923.000
394.878; 3020.525; -247.000; -149.000
395.007; 4071.800; -721.000; -807.000
395.135;  305.425; -790.000; -721.000
395.263;  -90.250;-1038.000;-1040.000
395.392;   -2.200;  -25.000; -107.000
395.520; -152.875; -818.000; -679.000
395.648;  -96.825; -865.000; -915.000
395.777;  -35.125; -366.000; -405.000
395.905;  -66.600; -449.000; -564.000
396.033;    0.225;  217.000;  172.000
396.162;  396.600; -399.000; -453.000
396.290;  354.850;  -17.000;   -2.000
396.418;   61.400; -555.000; -514.000
396.546;  -80.750; -571.000; -466.000
396.674; -107.425; -850.000; -878.000
396.803;   -0.475;  -72.000;  -23.000
396.931;   59.550; -179.000; -199.000
397.059;    1.450;-1026.000; -989.000
397.187; -108.875;-1026.000; -975.000
397.315; -156.300; -884.000; -649.000
397.443;  -96.525; -592.000; -443.000
397.572; -101.225; -578.000; -424.000
397.700;  -39.750; -607.000; -614.000
397.828;   -6.650;  120.000;  -90.000
397.956;  -62.750; -508.000; -478.000
398.084;  -74.575; -767.000; -626.000
398.212;   25.075;  137.000;  124.000
398.340;   -4.950;  -56.000;  159.000
398.468;   11.700; -390.000; -169.000
398.596; -157.525; -993.000; -953.000
398.724; -127.900; -762.000; -767.000
398.852; -169.550;-1024.000; -976.000
398.980;  -64.250; -560.000; -560.000
399.108;  -58.050; -982.000; -735.000
399.236;   37.900;   13.000;    8.000
399.363;   -5.600;  222.000;  196.000
399.491;  -68.700; -404.000; -398.000
399.619; -141.075; -829.000; -800.000
399.747; -108.325; -859.000; -771.000
399.875;   66.275;  220.000;  234.000
400.003;  -56.925; -359.000; -284.000
400.130; -105.250; -421.000; -341.000
400.258;  -28.600;  -83.000;   38.000
400.386;  -81.800; -352.000; -168.000
400.514;  -63.675; -526.000; -587.000
400.641; -117.675; -928.000; -802.000
400.769; -147.400; -979.000; -888.000
400.897; -135.675; -838.000; -793.000
401.025;  -36.500; -166.000; -152.000
401.152;  -10.600;  220.000;   38.000
401.280;  -77.300; -430.000; -429.000
401.408; -140.150; -712.000; -576.000
401.535; -117.275; -735.000; -758.000
401.663; -203.200;-1134.000;-1054.000
401.790;  -94.050; -514.000; -525.000
401.918;   25.100;  436.000;  405.000
402.046;  -20.425;  134.000;  122.000
402.173;  -59.950;  -18.000;    7.000
402.301;  -88.875; -519.000; -397.000
402.428;   25.025;  528.000;  383.000
402.556; -148.400;-1188.000; -913.000
402.683;  -38.475;  -20.000;   -1.000
402.811;  -16.575;  -37.000; -206.000
402.938;  -18.125;   20.000;   27.000
403.066;  159.450; -574.000; -558.000
403.193;  295.675;  299.000;  239.000
403.321;  226.900; -396.000; -574.000
403.448;  261.075;   83.000;   27.000
403.575;  125.725;  -90.000;  -46.000
403.703; -107.450; -732.000; -557.000
403.830;  -70.150; -531.000; -496.000
403.957; -148.650;-1117.000;-1023.000
404.085;    8.100;  -61.000; -172.000
404.212;   92.000;  -50.000;   63.000
404.339;  278.850; -566.000; -306.000
404.467; 5999.200; -612.000; -524.000
404.594; 3732.925; -287.000; -227.000
404.721;  829.275; -869.000; -764.000
404.848;   71.050; -113.000; -202.000
404.976; -118.000; -856.000; -783.000
405.103;  -12.650;  -14.000;  -82.000
405.230;    2.900;  190.000;  226.000
405.357;   20.725;  117.000;   44.000
405.484;  269.650;  -49.000;    5.000
405.612;   41.525; -548.000; -563.000
405.739;  -66.775; -488.000; -243.000
405.866;   99.950;  669.000;  385.000
405.993;  -62.400; -398.000; -102.000
406.120; -140.400; -801.000; -887.000
406.247;  -75.125; -323.000; -342.000
406.374;  379.175;  540.000;  629.000
406.501;   41.900; -632.000; -702.000
406.628;  -83.750; -621.000; -589.000
406.755; -100.825; -803.000; -620.000
406.882;  -46.625; -228.000; -277.000
407.009; -115.050; -719.000; -628.000
407.136;   17.075; -480.000; -401.000
407.263;   76.200; -939.000; -829.000
407.390;  -86.200; -692.000; -614.000
407.517; -185.825;-1139.000;-1187.000
407.644;  -57.875; -332.000; -256.000
407.771;  -76.125; -249.000; -287.000
407.898;    1.300;  168.000;  328.000
408.025;  -77.150; -421.000; -313.000
408.151;  -22.050;   82.000;  153.000
408.278;  -64.550; -267.000; -216.000
408.405; -129.950; -931.000; -899.000
408.532;  -75.200; -549.000; -542.000
408.659; -125.825; -677.000; -648.000
408.785; -202.825;-1298.000;-1170.000
408.912;  -62.200; -412.000; -296.000
409.039; -116.775; -610.000; -686.000
409.166;  -99.750; -591.000; -555.000
409.292; -129.350; -571.000; -534.000
409.419; -124.350; -665.000; -649.000
409.546;  -87.900; -431.000; -192.000
409.672; -100.850; -713.000; -545.000
409.799;  -23.200;  -36.000;   34.000
409.926;  -37.275; -180.000; -179.000
410.052; -177.825;-1127.000;-1091.000
410.179;  -61.875; -368.000; -392.000
410.305;  -95.200; -375.000; -493.000
410.432;  -55.500; -220.000; -333.000
410.558;  -97.275; -305.000; -380.000
410.685; -114.100; -688.000; -431.000
410.812; -103.675; -409.000; -588.000
410.938; -148.450; -964.000; -808.000
411.065; -101.600; -671.000; -645.000
411.191;  -22.075; -189.000; -174.000
411.317; -141.400; -823.000; -742.000
411.444;  -69.700; -317.000; -246.000
411.570;  -82.125; -339.000; -294.000
411.697; -132.975; -758.000; -752.000
411.823; -179.100; -989.000; -999.000
411.949;  -36.450;  -56.000;   17.000
412.076; -126.300; -539.000; -519.000
412.202; -123.400; -758.000; -757.000
412.329; -131.550; -798.000; -752.000
412.455; -113.325; -821.000; -657.000
412.581;  -25.950;  -15.000;  172.000
412.707;  -69.800; -540.000; -457.000
412.834;   -3.875;  156.000;  219.000
412.960;  -85.850; -785.000; -784.000
413.086; -118.675; -743.000; -701.000
413.212;  137.700;  604.000;  578.000
413.339;  -84.150; -685.000; -701.000
413.465;   -5.075; -364.000; -310.000
413.591; -103.825; -757.000; -474.000
413.717;  -53.300; -358.000; -366.000
413.843; -160.800; -839.000; -861.000
413.969;  -52.325;  -47.000; -292.000
414.096; -101.700; -679.000; -679.000
414.222;   -4.975;  -33.000;   85.000
414.348;  -55.750; -652.000; -385.000
414.474;   87.750;   38.000;  -52.000
414.600;  -20.100; -126.000; -144.000
414.726;  -11.950;  -96.000;  -55.000
414.852;  -56.125; -365.000; -342.000
414.978;   21.325;  104.000;  -18.000
415.104;   38.050;   38.000;   80.000
415.230;    9.050; -329.000; -330.000
415.356;   25.200; -409.000; -514.000
415.482;  188.825;   13.000;  -35.000
415.608;  260.250; -247.000; -323.000
415.734;  968.975;   67.000;   38.000
415.860;20426.275; -875.000; -767.000
415.986;14485.800; -685.000; -607.000
416.111; 1238.850; -798.000; -652.000
416.237;  235.625; -424.000; -571.000
416.363; 1180.225; -765.000; -733.000
416.489; 4310.425; -324.000; -251.000
416.615;  417.925; -707.000; -742.000
416.741;  -27.025; -677.000; -784.000
416.866; -108.750; -673.000; -736.000
416.992; -121.200; -801.000; -818.000
417.118;  -27.675;  -41.000;  -80.000
417.244;  -76.975; -798.000; -531.000
417.369; -101.625; -801.000; -612.000
417.495;  -19.725; -325.000; -254.000
417.621;  -95.775;-1015.000; -803.000
417.746;   -0.850; -579.000; -572.000
417.872;   36.600; -254.000; -144.000
417.998;   46.400; -515.000; -530.000
418.123; 1101.425;-1073.000; -845.000
418.249; 5551.650; -512.000; -601.000
418.374;  755.600; -916.000; -824.000
418.500;  100.650; -383.000; -482.000
418.626;  123.000;   70.000;  -59.000
418.751;  108.375; -549.000; -448.000
418.877;  207.825; -637.000; -643.000
419.002; 1887.175; -688.000; -560.000
419.128;12923.075; -930.000; -721.000
419.253; 3121.250; -967.000; -837.000
419.379;  418.700; -391.000; -338.000
419.504;  407.075;  325.000;  415.000
419.629;  526.875; -393.000; -212.000
419.755; 3829.550; -317.000; -254.000
419.880;22158.100;  -98.000;   67.000
420.006;11869.750; -280.000; -221.000
420.131;30023.975; -662.000; -775.000
420.256; 4234.125; -315.000; -316.000
420.382;  520.300; -665.000; -687.000
420.507;   72.050; -649.000; -778.000
420.632;  109.325; -337.000; -339.000
420.758;  187.250; -251.000; -425.000
420.883;  -96.975; -876.000; -672.000
421.008;  -99.525; -775.000; -619.000
421.133;  -91.850; -509.000; -467.000
421.259;  -58.500; -325.000; -259.000
421.384; -139.050; -834.000; -693.000
421.509;  -53.050;-1052.000; -862.000
421.634;  974.525; -936.000; -820.000
421.759;  402.750; -359.000; -327.000
421.885;  -83.550; -717.000; -656.000
422.010;  -96.850; -673.000; -542.000
422.135; -144.425; -695.000; -727.000
422.260;   20.025;  340.000;  280.000
422.385;  -56.275;   12.000;  -98.000
422.510;    1.225;  151.000;  -26.000
422.635;   -4.375;  -87.000;  -43.000
422.760;   87.850; -766.000; -791.000
422.885;   29.525;  -57.000;  -80.000
423.010;  -38.250; -112.000; -169.000
423.135; -106.100; -481.000; -561.000
423.260;  -20.050; -150.000; -245.000
423.385;   64.750;  476.000;  222.000
423.510;   29.475;   71.000;  -22.000
423.635;   51.025;  133.000;   45.000
423.760;   52.925;  383.000;  328.000
423.885;   61.200;  336.000;  391.000
424.010;    0.550;  -68.000;  -13.000
424.135;  -39.225;    5.000;  -33.000
424.259;  -90.475; -654.000; -457.000
424.384;  -71.375; -279.000; -272.000
424.509;  -30.275; -260.000; -186.000
424.634; -123.200; -761.000; -623.000
424.759;  -20.750; -688.000; -544.000
424.883;  -20.475; -506.000; -527.000
425.008;  168.200; -502.000; -410.000
425.133; 2070.325; -679.000; -653.000
425.258;  924.375; -517.000; -381.000
425.382;  952.500; -867.000; -774.000
425.507; 2404.200; -487.000; -543.000
425.632;  399.000; -802.000; -663.000
425.756;  463.300; -256.000; -146.000
425.881; 7023.550; -831.000; -857.000
426.006;18617.200; -604.000; -355.000
426.130; 2827.100; -696.000; -508.000
426.255;  352.100; -611.000; -491.000
426.379;  161.325; -189.000; -577.000
426.504;  375.750;  660.000;  544.000
426.629; 4147.025; -519.000; -466.000
426.753; 2768.950;   64.000;  -46.000
426.878;  322.200; -252.000; -288.000
427.002;  134.900; -651.000; -668.000
427.127; 1640.325;  -35.000; -158.000
427.251;11797.025;  372.000;  401.000
427.375; 3233.875; -191.000; -173.000
427.500; 2142.450; -616.000; -610.000
427.624;  703.350; -234.000; -400.000
427.749;   77.425; -216.000; -225.000
427.873;  -60.675; -499.000; -412.000
427.997;  -51.875; -222.000; -230.000
428.122;   62.000;  795.000;  703.000
428.246;   67.350;  433.000;  434.000
428.371; -135.525; -869.000; -773.000
428.495; -114.975; -624.000; -646.000
428.619;  -53.450; -186.000; -117.000
428.743;   17.625;   65.000;  132.000
428.868;   -3.400; -732.000; -643.000
428.992; 1290.325; -219.000; -326.000
429.116;  499.825; -329.000; -357.000
429.240;  237.925;  419.000;  426.000
429.365;  -46.875; -454.000; -574.000
429.489;  -61.750; -638.000; -647.000
429.613;    4.700; -236.000; -177.000
429.737;   27.450; -563.000; -432.000
429.861;  245.375; -247.000; -133.000
429.985; 5761.750; -425.000; -305.000
430.109; 6202.825; -770.000; -908.000
430.234;  702.450;   76.000;  -50.000
430.358;   50.525; -250.000; -160.000
430.482;  -74.925; -672.000; -564.000
430.606;  -87.175; -655.000; -375.000
430.730;  -14.500; -437.000; -388.000
430.854;   67.875; -909.000; -835.000
430.978;  -88.100; -795.000; -764.000
431.102; -102.350; -499.000; -422.000
431.226; -123.500; -874.000; -815.000
431.350;   11.050;  345.000;  422.000
431.474;  -77.025; -661.000; -373.000
431.597; -169.775;-1060.000; -848.000
431.721;  -87.250; -276.000; -267.000
431.845; -133.300; -704.000; -472.000
431.969;  -93.500; -304.000; -349.000
432.093;  -94.200; -395.000; -317.000
432.217;  -21.400;   32.000;   82.000
432.341; -106.525; -523.000; -518.000
432.464;   -2.350;   96.000;   40.000
432.588;  136.725; -401.000; -329.000
432.712;   74.975;  -52.000;  -52.000
432.836;   32.525;  213.000;  263.000
432.959;  -20.150; -372.000; -311.000
433.083;   85.125;   11.000;    2.000
433.207;  372.875;  285.000;  930.000
433.330; 5364.825; -391.000; -200.000
433.454; 6409.750; -654.000; -638.000
433.578; 3696.150;  583.000;  278.000
433.701;  652.500; -623.000; -675.000
433.825;  117.350; -292.000; -299.000
433.949;  126.250;   28.000;  -72.000
434.072;   27.950; -410.000; -323.000
434.196;  -34.100; -309.000; -117.000
434.319; 3781.175;25482.000;25124.000
434.443;  733.775; -656.000; -603.000
434.566; 2726.575;  281.000;   62.000
434.690;  439.200; -637.000; -383.000
434.813;   36.400; -251.000; -173.000
434.937;  -76.325; -569.000; -696.000
435.060;  -59.175; -423.000; -332.000
435.184;  214.025; -492.000; -217.000
435.307;  114.975;  159.000;  102.000
435.431;  -25.275;  -40.000;   24.000
435.554;  -91.775; -399.000; -240.000
435.677;  -93.200; -350.000; -258.000
435.801;  -54.100;  -25.000;   49.000
435.924;  -36.325;    1.000;  -67.000
436.048; -143.575;-1019.000; -732.000
436.171;  -75.200; -240.000;  -66.000
436.294;  -38.075; -248.000; -229.000
436.417;  101.450; -963.000; -849.000
436.541; -107.150; -814.000; -840.000
436.664;  -55.725; -242.000; -316.000
436.787;  -39.050;   13.000;  113.000
436.910; -118.575; -792.000; -422.000
437.034;  -19.775;  142.000;  143.000
437.157;   28.300;  -11.000;    0.000
437.280;  -61.325; -392.000; -292.000
437.403; -118.650; -982.000; -869.000
437.526;  490.525; -903.000; -865.000
437.649; 1850.775; -505.000; -332.000
437.772;  240.125; -692.000; -540.000
437.896;   98.800;  700.000;  544.000
438.019; -109.200; -758.000; -503.000
438.142;  -99.875; -596.000; -506.000
438.265;  -39.350; -639.000; -670.000
438.388;  459.650; -520.000; -410.000
438.511;   46.175; -597.000; -394.000
438.634;  -51.375; -247.000; -125.000
438.757; -155.725; -693.000; -619.000
438.880;  -39.275;  -34.000;  -57.000
439.003;  -99.250; -417.000; -437.000
439.126;  -69.650; -287.000; -167.000
439.248;  -75.450;  -98.000; -139.000
439.371;  -51.575;    9.000;  -53.000
439.494;   17.700;  510.000;  439.000
439.617;  -52.800;   65.000;  -88.000
439.740; -194.400; -968.000; -816.000
439.863; -149.125; -755.000; -595.000
439.986; -134.950; -476.000; -431.000
440.108;  -51.050; -161.000; -112.000
440.231; -182.725; -950.000; -836.000
440.354;  -49.525;  -64.000; -150.000
440.477;    3.575; -566.000; -542.000
440.599;  -26.200; -200.000; -225.000
440.722; -140.325; -709.000; -586.000
440.845;   74.775;  751.000;  928.000
440.968; -114.600; -415.000; -311.000
441.090;  -64.975; -199.000;  -33.000
441.213; -178.650;-1021.000; -825.000
441.336;  -64.100; -159.000;   -5.000
441.458;  -90.625; -549.000; -396.000
441.581;  -92.025; -628.000; -629.000
441.703;  -65.175; -152.000;   13.000
441.826; -117.900; -557.000; -400.000
441.948;  -63.775;   56.000;   51.000
442.071;   27.950;  555.000;  424.000
442.193; -129.000; -531.000; -485.000
442.316;    6.925;  152.000;   97.000
442.438;   31.225; -233.000;  -10.000
442.561;   65.150;  272.000;  262.000
442.683;  424.900; -809.000; -522.000
442.806;  965.375;   -8.000;   74.000
442.928;  -11.850; -859.000; -604.000
443.051;  -81.400; -577.000; -373.000
443.173; -100.925; -341.000; -339.000
443.295;  -97.550; -263.000; -371.000
443.418;  -87.250; -321.000;  -29.000
443.540;  -20.575; -106.000;   -4.000
443.662; -129.700; -563.000; -465.000
443.785;  -16.875;  335.000;  199.000
443.907; -106.025; -362.000; -208.000
444.029; -129.075; -767.000; -494.000
444.152; -150.400; -644.000; -554.000
444.274;  -22.750;  -18.000;  -24.000
444.396; -121.275; -461.000; -221.000
444.518; -131.450; -691.000; -454.000
444.640; -113.450; -268.000; -111.000
444.763;  -21.400;  388.000;  249.000
444.885; -127.450; -432.000; -392.000
445.007;  -29.475;   35.000;   86.000
445.129; -130.575; -610.000; -515.000
445.251; -112.575; -372.000; -439.000
445.373; -156.225; -537.000; -386.000
445.495;    0.625;  242.000;  350.000
445.617;   37.400;  853.000;  753.000
445.739;  -67.825; -215.000;  -97.000
445.861;  -40.000; -245.000; -112.000
445.984;  -41.625; -267.000; -101.000
446.105;  148.450; -418.000; -251.000
446.227;  518.625; -176.000;  -19.000
446.349;  -17.000; -358.000; -249.000
446.471; -116.050; -615.000; -448.000
446.593;  -80.950; -316.000;   19.000
446.715;   -8.950;  -67.000;   41.000
446.837;   66.075;  697.000;  832.000
446.959; -109.800; -457.000; -478.000
447.081; -145.950; -628.000; -518.000
447.203;   72.475;  862.000;  834.000
447.325;  -97.100; -270.000;   42.000
447.446;  -21.250;  286.000;  530.000
447.568; -167.150; -921.000; -803.000
447.690;  -91.200; -236.000; -245.000
447.812; -154.975; -798.000; -519.000
447.933;  -36.300;  155.000;  127.000
448.055;  -82.250; -306.000; -261.000
448.177;  125.925;   31.000;   79.000
448.299;   44.825; -935.000; -727.000
448.420;    9.675;  -25.000;  159.000
448.542;  -60.775;   -3.000;   33.000
448.664;  -31.400;  109.000;  322.000
448.785;  -47.575;  265.000;   83.000
448.907;  -85.750; -614.000; -353.000
449.028;  -56.425; -771.000; -471.000
449.150;   66.375;  492.000;  589.000
449.272; -199.225;-1044.000; -913.000
449.393;   24.225;  612.000;  694.000
449.515; -154.875; -634.000; -581.000
449.636;  -55.125; -264.000; -155.000
449.758;   56.150;  763.000;  622.000
449.879; -104.025; -498.000; -396.000
450.001;  -94.000; -149.000;  -49.000
450.122;  -34.975;  -95.000;  162.000
450.244;  -23.025;   37.000;  364.000
450.365;  -90.975; -495.000; -301.000
450.486;  -39.825;   80.000;  268.000
450.608;   38.275;  393.000;  326.000
450.729;   62.200;  578.000;  645.000
450.850;   18.125; -574.000; -466.000
450.972;  804.875; -552.000; -389.000
451.093; 5175.700;  190.000;  588.000
451.214; 2181.350; -516.000; -337.000
451.336;  384.550;  773.000;  579.000
451.457;   62.050;  264.000;  393.000
451.578;  -34.200; -118.000;  -74.000
451.699; -138.075; -546.000; -540.000
451.821;  -66.175; -284.000;  -50.000
451.942;   -8.775;  278.000;  285.000
452.063;   37.025;  228.000;  419.000
452.184;  588.450;  -54.000;  -49.000
452.305; 1112.225;  103.000;  170.000
452.427;  125.625; -549.000; -301.000
452.548;  -20.625;   23.000;   79.000
452.669;  -66.675; -257.000;  -89.000
452.790;  -51.500;    3.000;  -18.000
452.911;  -14.900;  195.000;  259.000
453.032;  -82.700; -289.000;  -60.000
453.153;  -52.950;  -29.000;   81.000
453.274;   74.475;  737.000;  868.000
453.395;  -65.225;  -51.000;  175.000
453.516;  124.625; 1317.000; 1388.000
453.637;  -89.850; -205.000; -150.000
453.758;  -54.875;   15.000;   69.000
453.879; -114.025; -462.000; -250.000
454.000;   73.000; 1086.000;  948.000
454.121; -117.600; -554.000; -326.000
454.242; -126.725; -599.000; -383.000
454.362;  -63.675;  -99.000;  114.000
454.483;  -26.950; -309.000; -229.000
454.604;   40.425;  512.000;  580.000
454.725; -148.675; -627.000; -555.000
454.846; -134.375; -474.000; -406.000
454.967;  -15.875;  230.000;  539.000
455.087;  -59.950;  179.000;  153.000
455.208;   13.400;  554.000;  856.000
455.329;  -68.000;  -22.000;   82.000
455.450;   49.450;  473.000;  633.000
455.570;  -96.075; -234.000; -211.000
455.691;  -50.500;  201.000;  407.000
455.812; -113.650; -270.000;  -92.000
455.932;  -67.000;  107.000;  -97.000
456.053;  -82.875;   36.000;   24.000
456.173; -117.600; -433.000; -355.000
456.294; -145.825; -476.000; -303.000
456.415;  -76.775;  -73.000;   70.000
456.535;  -41.400;  297.000;  273.000
456.656;  -38.875;  132.000;  240.000
456.776;  -72.425;    3.000;  298.000
456.897;  -10.225;  308.000;  513.000
457.017;  -95.275; -153.000;   -3.000
457.138; -111.425; -402.000; -249.000
457.258;  -42.700;  263.000;  224.000
457.379;   -5.975;  509.000;  521.000
457.499;  -36.025;  443.000;  432.000
457.620; -132.675; -407.000; -231.000
457.740; -104.975; -132.000;  -11.000
457.860;  -52.550;   87.000;   44.000
457.981;  -56.275;  132.000;  124.000
458.101;  -75.325;  -89.000;   40.000
458.221;  -12.925;  336.000;  402.000
458.342;  -53.275;   -4.000;  -37.000
458.462;   17.000;  617.000;  352.000
458.582;  -35.200; -302.000; -294.000
458.703;  -13.675;  303.000;  154.000
458.823;  -20.775;   22.000;  163.000
458.943;   24.175;  341.000;  467.000
459.063;  -13.525; 1124.000;  192.000
459.183;  -32.100;  328.000;  313.000
459.304;    9.675;  315.000;  517.000
459.424;  -81.900; -246.000;  -89.000
459.544;  336.100;  388.000;  764.000
459.664;  861.350;  499.000;  506.000
459.784;  316.025; 1004.000; 1175.000
459.904;   57.625;  867.000;  744.000
460.024;   70.225;  867.000;  684.000
460.144;  -10.250;  449.000;  554.000
460.264;  -17.300;  515.000;  327.000
460.385; -114.500; -145.000; -119.000
460.505;   37.050;  905.000;  858.000
460.625;  -99.450;  -17.000;  -68.000
460.745;  -29.425;  396.000;  541.000
460.864;  -73.875;  153.000;  469.000
460.984;    0.425;  499.000;  573.000
461.104;  121.125; 1656.000; 1775.000
461.224;   18.000;  657.000;  650.000
461.344;  -44.950;  431.000;  360.000
461.464;  -35.200;  258.000;  513.000
461.584;  -31.925;  283.000;  466.000
461.704;  -68.125;   58.000;  108.000
461.824;  -67.225;  238.000;  259.000
461.943;  -45.775;  191.000;  130.000
462.063;  -84.875;    2.000;  324.000
462.183;   47.625;  639.000;  717.000
462.303;   83.525; 1678.000; 1230.000
462.422;   39.300;  781.000;  840.000
462.542;  -45.425;  271.000;  391.000
462.662;   43.650;  353.000;  380.000
462.782;  230.325;  833.000;  572.000
462.901;  476.900;  545.000;  717.000
463.021;  276.925; 1702.000; 1638.000
463.141;  -20.075;  337.000;  770.000
463.260;  -22.250;  614.000;  474.000
463.380;    8.450;  902.000;  884.000
463.499;  -30.775;  342.000;  332.000
463.619;  -18.900;  581.000;  559.000
463.738;  106.550; 1644.000;  903.000
463.858;   -8.300;  657.000;  811.000
463.978;  -60.325;  542.000;  396.000
464.097;   52.250;  921.000; 1114.000
464.217;  106.975; 1196.000; 1143.000
464.336;  120.150; 1068.000; 1130.000
464.455;  -34.225;  328.000;  659.000
464.575;   39.925;  597.000;  602.000
464.694;  152.950; 1204.000; 1179.000
464.814;  133.275; 1190.000; 1138.000
464.933;   75.700; 1095.000; 1027.000
465.052;  100.450; 1412.000; 1054.000
465.172;   73.900;  922.000;  799.000
465.291;  125.850; 1376.000; 1320.000
465.410;  -13.475;  462.000;  735.000
465.530;   87.600; 1355.000; 1310.000
465.649;   47.025; 1209.000; 1273.000
465.768;  147.725; 1673.000; 1508.000
465.888;   35.050;  941.000; 1174.000
466.007;   84.650; 1335.000; 1440.000
466.126;  -21.450;  721.000;  641.000
466.245;   32.725; 1176.000; 1187.000
466.364;   25.500;  950.000; 1060.000
466.484;   53.500; 1024.000; 1213.000
466.603;   26.475; 1101.000; 1222.000
466.722;  122.625; 1490.000; 1769.000
466.841;   69.175; 1151.000; 1401.000
466.960;   48.850; 1069.000;  972.000
467.079;  118.375; 1971.000; 1786.000
467.198;   62.175; 1238.000; 1181.000
467.317;   75.050; 1768.000; 1162.000
467.436;   66.725; 1709.000; 1261.000
467.555;  118.575; 1796.000; 1746.000
467.674;   63.075; 1227.000; 1329.000
467.793;   30.825; 1376.000; 1374.000
467.912;   70.225; 1658.000; 1539.000
468.031;  128.625; 2038.000; 1930.000
468.150;  151.075; 1842.000; 1837.000
468.269;  178.025; 2313.000; 2090.000
468.388;  183.575; 2168.000; 2339.000
468.507;  253.400; 2884.000; 2903.000
468.626;  242.700; 2555.000; 2541.000
468.744;  135.825; 2018.000; 2174.000
468.863;  188.250; 2312.000; 2523.000
468.982;  100.350; 1503.000; 1555.000
469.101;  232.575; 2788.000; 2692.000
469.220;  144.550; 2333.000; 2176.000
469.338;  254.800; 2935.000; 3051.000
469.457;  183.125; 2719.000; 2545.000
469.576;  339.800; 3953.000; 3784.000
469.695;  228.000; 2877.000; 3066.000
469.813;  447.075; 4148.000; 4192.000
469.932;  388.400; 4255.000; 4485.000
470.051;  432.725; 4075.000; 4161.000
470.169;  864.750; 4470.000; 4338.000
470.288; 1524.050; 4700.000; 4809.000
470.406;  864.550; 5059.000; 5194.000
470.525;  633.775; 6101.000; 5787.000
470.644;  647.700; 6847.000; 6794.000
470.762;  826.275; 8397.000; 7873.000
470.881;  911.100; 8651.000; 8464.000
470.999; 1064.525; 9685.000; 9151.000
471.118; 1092.925;11174.000;10711.000

