
Integration time [ms]: 100.000
Averaging Nr. [scans]: 40
Smoothing Nr. [pixels]: 0
Data measured with spectrometer [name]: 2101012U2
Wave   ;Sample   ;Dark     ;Reference
[nm]   ;[counts] ;[counts] ;[counts] 

197.733;   53.275;  516.000;  404.000
197.879;  -74.275; -610.000; -634.000
198.025;  -51.725; -475.000; -420.000
198.171;  -61.575; -602.000; -612.000
198.317;  -12.575; -401.000; -316.000
198.463;  -45.950; -655.000; -404.000
198.609;   36.200;  181.000; -137.000
198.755;  -70.650; -644.000; -410.000
198.901;  -64.975; -505.000; -424.000
199.047;  -62.450; -615.000; -488.000
199.193;  -42.475; -230.000; -468.000
199.339;  -34.200; -222.000; -369.000
199.485;   37.950;  330.000;  271.000
199.631;   12.950;  227.000;  310.000
199.777;  -54.425; -466.000; -398.000
199.923;  -55.375; -610.000; -424.000
200.069;    7.225; -141.000;  -58.000
200.215;   52.750;  128.000;  453.000
200.361;   37.900;  243.000;  477.000
200.507;  -60.450; -600.000; -373.000
200.653;  -19.850; -371.000; -194.000
200.798;  -29.150; -215.000; -125.000
200.944;  -15.200; -146.000;  -41.000
201.090;   42.425;   61.000;  222.000
201.236;   -1.600; -116.000; -158.000
201.382;  128.125;  874.000;  903.000
201.528;    0.725;  -58.000;  -48.000
201.674;  -52.200; -386.000; -293.000
201.819;  -61.550; -540.000; -439.000
201.965;  -86.050; -699.000; -447.000
202.111;  -30.350; -273.000; -226.000
202.257;  -39.125; -250.000; -238.000
202.402;   17.950;   13.000;  -36.000
202.548;  -17.700; -169.000; -116.000
202.694;   78.725;  410.000; -183.000
202.840;  -65.450; -603.000; -531.000
202.985;  -61.100; -681.000; -639.000
203.131; -100.050; -832.000; -666.000
203.277;  -12.700; -199.000; -262.000
203.423;  -54.100; -434.000; -520.000
203.568;  -36.050; -462.000; -237.000
203.714;  -52.050; -535.000; -542.000
203.860;  -80.725; -682.000; -641.000
204.005;    9.125;  112.000;  167.000
204.151;   86.975;  561.000;  556.000
204.296;  -47.000; -354.000; -221.000
204.442;  -80.675; -600.000; -547.000
204.588;  -66.100; -592.000; -579.000
204.733;    4.625;  178.000;  168.000
204.879; -128.975;-1018.000; -822.000
205.025;    3.150;  -99.000;  126.000
205.170;   12.650;  -17.000;   94.000
205.316;   88.425;  438.000;  661.000
205.461;  -72.350; -698.000; -554.000
205.607;   87.275;  609.000;  665.000
205.752;  -75.225; -626.000; -551.000
205.898;  -47.675; -501.000; -391.000
206.043;  -60.575; -578.000; -506.000
206.189;  -41.825; -243.000; -285.000
206.334;   76.650;  554.000;  606.000
206.480;   66.825;  409.000;  239.000
206.625;  -77.975; -529.000; -552.000
206.771;  -51.525; -451.000; -373.000
206.916;  -34.225; -210.000; -537.000
207.062;  -62.600; -545.000; -591.000
207.207;  -67.100; -546.000; -443.000
207.353;   52.100;  185.000;  460.000
207.498;   18.800;  196.000;   85.000
207.643;  -55.775; -501.000; -370.000
207.789; -127.000;-1069.000; -910.000
207.934;  -90.900; -665.000; -713.000
208.080;  -17.675; -154.000;   66.000
208.225;  -11.975;  -22.000;  -57.000
208.370;  -90.800; -727.000; -619.000
208.516;  -66.575; -741.000; -487.000
208.661;  -30.475; -127.000;  -69.000
208.806;  -11.700; -165.000; -171.000
208.952; -118.825;-1044.000; -731.000
209.097;   63.200;  378.000;  349.000
209.242;  -45.025; -307.000; -382.000
209.387;   60.925;  392.000;  350.000
209.533;  -50.400; -321.000; -350.000
209.678;   73.925;  472.000;  543.000
209.823;  -46.575; -408.000; -310.000
209.969;  -94.700; -860.000; -757.000
210.114;  -97.575; -907.000; -719.000
210.259; -117.650; -939.000; -889.000
210.404;  -10.500; -171.000;  103.000
210.549;   27.050;  108.000;    3.000
210.695;  -12.725;   -3.000;  -95.000
210.840;   35.050;   94.000;   67.000
210.985;  -65.625; -484.000; -303.000
211.130;   58.825;  268.000;  406.000
211.275;   13.425;  207.000;  199.000
211.420;  -41.200; -300.000; -289.000
211.566;  -53.575; -536.000; -489.000
211.711;   30.675;  218.000;  157.000
211.856;  -58.375; -545.000; -519.000
212.001;    8.525;  151.000;   44.000
212.146;   36.075;  153.000;   49.000
212.291;  -26.200; -210.000; -186.000
212.436;  -29.600; -280.000;   -6.000
212.581;  -81.725; -685.000; -653.000
212.726;  -69.725; -487.000; -538.000
212.871;  -42.775; -552.000; -217.000
213.016; -151.225;-1172.000;-1029.000
213.161;   60.675;  406.000;  291.000
213.306;  -64.025; -435.000; -577.000
213.451;  -90.250; -778.000; -689.000
213.596;  -50.175; -455.000; -347.000
213.741;  -45.800; -448.000; -538.000
213.886;  -71.300; -498.000; -517.000
214.031;  -21.375; -294.000; -124.000
214.176;  -42.800; -408.000; -341.000
214.321;  -33.825; -296.000; -157.000
214.466;   -8.000; -163.000;  -43.000
214.611;  -16.450;  -61.000;  -10.000
214.756; -116.325; -948.000; -858.000
214.901;  -22.525; -388.000; -226.000
215.046; -113.050; -797.000; -825.000
215.191;   15.775;  128.000;   35.000
215.336;  -13.375; -157.000;  -19.000
215.480;  -65.900; -684.000; -505.000
215.625;  -19.200; -175.000;  -19.000
215.770;  -81.825; -757.000; -662.000
215.915;   -5.500;   -5.000;  -97.000
216.060;  -23.000; -113.000;  -21.000
216.205; -107.325; -731.000; -779.000
216.349;  -82.525; -470.000; -533.000
216.494; -130.325; -939.000; -867.000
216.639; -120.400; -823.000; -888.000
216.784;  -82.075; -577.000; -525.000
216.929;   45.150;  392.000;  281.000
217.073;   -8.875; -244.000;  -31.000
217.218;   -0.025;   78.000;  -47.000
217.363;  -72.975; -656.000; -618.000
217.507;  -80.500; -623.000; -588.000
217.652; -121.350; -845.000; -874.000
217.797;  -81.425; -708.000; -659.000
217.942; -106.875; -856.000; -720.000
218.086;   63.000;  608.000;  539.000
218.231;  -19.725; -174.000;  -26.000
218.376;  -31.475; -337.000; -229.000
218.520;    8.175;  -41.000;   96.000
218.665;  -34.775; -338.000; -204.000
218.810;  -44.000; -275.000; -233.000
218.954;   14.425;  201.000;   35.000
219.099;  -96.325; -713.000; -963.000
219.243;  -69.725; -589.000; -554.000
219.388;  -29.625; -264.000; -136.000
219.532;    0.350; -116.000; -116.000
219.677;  -77.900; -564.000; -521.000
219.822;    3.050;   33.000;   89.000
219.966;   -6.325;   17.000;  -99.000
220.111;  -41.600; -328.000;  -40.000
220.255; -100.700; -797.000; -750.000
220.400;  -23.175; -180.000; -146.000
220.544;  -57.300; -516.000; -450.000
220.689;  -67.900; -422.000; -451.000
220.833;  -27.400; -123.000;  -58.000
220.978;  -52.725; -393.000; -563.000
221.122;   29.150;  319.000;  307.000
221.267; -116.475; -906.000; -837.000
221.411;  -61.275; -478.000; -394.000
221.555;   -7.525; -104.000;  -23.000
221.700;  -47.000; -329.000; -222.000
221.844;   23.775;  255.000;  272.000
221.989;  -51.100; -328.000; -311.000
222.133;  -39.525; -289.000; -307.000
222.277;   -7.025;    5.000;   78.000
222.422;   22.750;  227.000;  113.000
222.566;  -31.725; -381.000; -214.000
222.711;  -59.950; -414.000; -479.000
222.855;  -83.050; -643.000; -586.000
222.999;  -86.050; -642.000; -717.000
223.144;  -35.700; -195.000; -194.000
223.288;   37.975;  423.000;  251.000
223.432;   29.025;  184.000;  230.000
223.576;    8.175;  152.000;  -21.000
223.721;   34.425;  364.000;  273.000
223.865;  -57.525; -472.000; -475.000
224.009;  232.800; 1673.000; 1631.000
224.153;  -92.700; -660.000; -671.000
224.298;  -59.575; -531.000; -489.000
224.442;   -8.600;  -74.000;  -33.000
224.586;   -7.875; -169.000; -106.000
224.730;  -94.850; -858.000; -670.000
224.875; -109.550; -739.000; -688.000
225.019;   -6.275;  102.000;  188.000
225.163;   48.000;  208.000;  341.000
225.307;   22.350;   97.000;  -91.000
225.451;   55.125;  360.000;  481.000
225.595;   37.175;  264.000;  176.000
225.739;    3.025; -170.000;  -94.000
225.884;   -3.000;   86.000;    5.000
226.028;  -98.025; -760.000; -626.000
226.172;  -37.800; -260.000; -273.000
226.316; -114.375; -941.000; -902.000
226.460;  -61.500; -645.000; -493.000
226.604;  -50.200; -406.000; -400.000
226.748;  -99.550; -836.000; -733.000
226.892;  -34.775; -227.000; -181.000
227.036;  -51.625; -537.000; -447.000
227.180;  -54.700; -551.000; -375.000
227.324;  -68.300; -561.000; -580.000
227.468; -113.775; -819.000; -717.000
227.612;   10.875;  242.000;  -28.000
227.756;  -93.750; -845.000; -698.000
227.900;   52.900;  342.000;  441.000
228.044;  -58.625; -509.000; -290.000
228.188;   56.075;  448.000;  568.000
228.332;  -88.475; -546.000; -472.000
228.476;  -34.025; -223.000; -149.000
228.620;  -25.875; -210.000; -150.000
228.764;   62.500;  431.000;  349.000
228.908;  -12.500; -155.000;   30.000
229.052;  -55.300; -615.000; -528.000
229.195;   -7.675; -172.000;   13.000
229.339;  -33.950; -235.000; -305.000
229.483;  -29.050;    5.000; -162.000
229.627;   10.400; -156.000;  139.000
229.771;  -46.925; -218.000; -294.000
229.915;    9.150;  230.000;   79.000
230.059;  -73.600; -648.000; -663.000
230.202;  -37.600; -370.000; -317.000
230.346;   -9.175; -107.000;  107.000
230.490;  -63.750; -489.000; -521.000
230.634; -109.225; -736.000; -553.000
230.777;   65.800;  478.000;  509.000
230.921;  -56.325; -450.000; -359.000
231.065;  -36.600; -246.000; -286.000
231.209;   25.875;  261.000;  265.000
231.352;   18.250;   54.000;   40.000
231.496;   21.450;  568.000;  188.000
231.640;  -75.125; -693.000; -621.000
231.783;   53.175;  546.000;  525.000
231.927;  -48.250; -294.000; -365.000
232.071; -101.750; -962.000; -736.000
232.214; -109.550; -980.000; -764.000
232.358;  -91.950; -683.000; -599.000
232.502;   -3.925;  -19.000;    7.000
232.645; -128.225;-1090.000; -927.000
232.789;  -23.100; -257.000; -218.000
232.933;  -49.650; -407.000; -224.000
233.076; -134.775;-1038.000; -897.000
233.220; -103.525; -752.000; -777.000
233.363;  -66.850; -669.000; -477.000
233.507;   59.700;  371.000;  129.000
233.650; -100.825; -764.000; -834.000
233.794;   32.650;  438.000;  461.000
233.938;  -59.050; -530.000; -362.000
234.081;  -31.850;  -93.000;   31.000
234.225;  -70.250; -631.000; -539.000
234.368; -114.200; -773.000; -723.000
234.512;  -61.250; -385.000; -299.000
234.655;  -87.775; -582.000; -555.000
234.798;  -64.375; -493.000; -466.000
234.942; -117.600; -884.000;-1002.000
235.085;  -85.325; -651.000; -443.000
235.229;  -65.450; -405.000; -410.000
235.372;  -53.300; -247.000; -191.000
235.516;  -67.325; -397.000; -321.000
235.659;    5.550;   92.000;  121.000
235.802;  -14.250;  -38.000;  -22.000
235.946;   23.475;  335.000;  215.000
236.089;   28.750;  126.000;  250.000
236.233;   51.075;  275.000;  298.000
236.376;  -41.050; -235.000; -378.000
236.519;  -55.075; -297.000; -319.000
236.663;  -25.450; -215.000; -117.000
236.806; -132.125;-1029.000; -999.000
236.949;   52.375;  543.000;  431.000
237.092;   63.275;  412.000;  391.000
237.236;  -77.000; -589.000; -502.000
237.379;   58.625;  352.000;  428.000
237.522; -118.075; -879.000; -768.000
237.666;  -23.275; -271.000;   18.000
237.809; -128.100; -851.000; -823.000
237.952;   42.050;  469.000;  271.000
238.095;  -59.275; -447.000; -442.000
238.238;   70.925;  688.000;  700.000
238.382;   12.450;  166.000;  103.000
238.525;  -76.375; -598.000; -511.000
238.668; -137.725;-1060.000; -985.000
238.811;  -78.575; -638.000; -643.000
238.954;  -48.475; -483.000; -334.000
239.097;   95.825;  617.000;  664.000
239.241;   21.825;  394.000;  326.000
239.384;  -36.450; -254.000; -214.000
239.527;  -55.650; -424.000; -224.000
239.670; -143.050; -994.000;-1091.000
239.813; -118.000; -696.000; -658.000
239.956;   71.300;  579.000;  473.000
240.099; -119.125; -778.000; -725.000
240.242;   55.550;  428.000;  432.000
240.385;   45.750;  466.000;  450.000
240.528;  -71.975; -706.000; -473.000
240.671;   33.775;  189.000;  134.000
240.814;  -35.750; -441.000; -158.000
240.957; -112.250; -767.000; -578.000
241.100;  -91.050; -779.000; -755.000
241.243; -137.525;-1234.000; -893.000
241.386;  -71.550; -508.000; -379.000
241.529;  -78.425; -735.000; -547.000
241.672;  -61.225; -566.000; -495.000
241.815; -106.625; -832.000; -808.000
241.958;  -29.050; -125.000; -182.000
242.101;  -75.175; -545.000; -390.000
242.244;  -45.575; -270.000; -325.000
242.387;  -36.725; -304.000; -246.000
242.530;   47.800;  470.000;  134.000
242.673;  -36.650; -381.000; -309.000
242.815; -117.500; -925.000; -899.000
242.958;  -57.775; -482.000; -381.000
243.101;   18.275;  132.000;  187.000
243.244;  -84.150; -564.000; -521.000
243.387;  -50.775; -313.000; -316.000
243.530; -104.525; -657.000; -674.000
243.672;  -14.325;   43.000;  -92.000
243.815;  -49.800; -355.000; -283.000
243.958;   -3.875;   98.000;  -26.000
244.101;   -1.600;   59.000;  -16.000
244.243;  -22.450;  -47.000;  101.000
244.386;  -95.800; -761.000; -630.000
244.529;  -23.675; -132.000; -139.000
244.672; -143.750;-1154.000; -951.000
244.814;  -89.625; -621.000; -794.000
244.957;  -57.250; -380.000; -304.000
245.100;  -85.800; -489.000; -489.000
245.242;  -50.525; -387.000; -374.000
245.385;   -3.325;  -59.000;  -39.000
245.528; -123.000; -871.000; -705.000
245.670;   76.800;  612.000;  634.000
245.813;  -94.750; -599.000; -547.000
245.956;  -29.950; -324.000; -275.000
246.098;  -82.050; -508.000; -650.000
246.241;   -4.400;  194.000;   48.000
246.383;  -15.125; -119.000;  -73.000
246.526;  -72.025; -454.000; -525.000
246.669; -115.975; -889.000; -780.000
246.811;   12.800;  172.000;   -1.000
246.954;  -65.700; -512.000; -426.000
247.096;  -28.875;  -84.000;   -6.000
247.239;  -78.300; -482.000; -445.000
247.381;  -67.525; -647.000; -488.000
247.524;   81.650;  645.000;  679.000
247.666;  -12.700;   58.000;   11.000
247.809; -111.675; -887.000; -691.000
247.951;   -3.300;  -75.000;  138.000
248.094;   21.550;  432.000;  308.000
248.236; -157.975;-1262.000;-1238.000
248.378;    9.225; -356.000;  -81.000
248.521;  -17.600; -334.000; -337.000
248.663;  -50.375; -236.000; -267.000
248.806;  -21.050; -300.000; -266.000
248.948;  -88.350; -886.000; -763.000
249.090;  -41.875; -428.000; -398.000
249.233;  -44.975; -344.000; -381.000
249.375;  -72.825; -474.000; -451.000
249.518;  -32.350;  -83.000; -133.000
249.660;   -3.200; -103.000;    3.000
249.802; -163.450;-1303.000;-1189.000
249.945;  -69.950; -612.000; -540.000
250.087; -113.700; -834.000; -768.000
250.229;  -53.825; -362.000; -480.000
250.371;  -66.675; -494.000; -439.000
250.514;  -49.450; -310.000; -244.000
250.656;    0.750;   69.000;  102.000
250.798; -122.225; -849.000; -800.000
250.940;  -63.975; -322.000; -322.000
251.083;  -27.775; -335.000; -111.000
251.225;   51.325;  338.000;  310.000
251.367;  -24.525; -274.000; -373.000
251.509;  -34.850; -265.000; -210.000
251.651;  -87.575; -731.000; -671.000
251.794;   49.275;  538.000;  632.000
251.936; -109.750; -821.000; -747.000
252.078;  -66.075; -540.000; -461.000
252.220;  -77.125; -645.000; -477.000
252.362;   81.000;  344.000;  462.000
252.504;  -71.800; -677.000; -584.000
252.646; -116.450; -875.000; -722.000
252.788;  -12.350;   14.000; -128.000
252.931;  -40.500; -257.000; -253.000
253.073;  -42.125; -376.000; -317.000
253.215;    0.525;  141.000;  122.000
253.357;  -17.350;   82.000; -153.000
253.499;  -53.800; -374.000; -234.000
253.641;  -95.625; -749.000; -594.000
253.783;  -88.550; -609.000; -527.000
253.925;  -94.075; -586.000; -591.000
254.067; -113.750; -744.000; -667.000
254.209;  -31.950; -391.000; -259.000
254.351; -132.575; -865.000; -883.000
254.493;  -59.975; -441.000; -417.000
254.635; -123.450; -936.000; -818.000
254.777;  -99.925; -752.000; -687.000
254.918;  -63.725; -512.000; -430.000
255.060;  -60.625; -551.000; -395.000
255.202;  -52.925; -473.000; -261.000
255.344;  -88.075; -658.000; -455.000
255.486;  -73.325; -471.000; -406.000
255.628;  -87.050; -780.000; -781.000
255.770;  -75.750; -676.000; -536.000
255.912;  -67.825; -559.000; -468.000
256.053;  -94.325; -730.000; -508.000
256.195;  150.950; 1008.000;  903.000
256.337; -103.600; -861.000; -595.000
256.479;   59.625;  532.000;  416.000
256.621;  -48.400; -394.000; -212.000
256.762;  -93.325; -789.000; -742.000
256.904;   45.275;  485.000;  487.000
257.046;  -53.350; -381.000; -271.000
257.188;  -35.450; -351.000; -264.000
257.329;  -73.125; -525.000; -464.000
257.471; -112.725; -939.000; -807.000
257.613;  -63.050; -584.000; -498.000
257.755; -153.675;-1073.000; -982.000
257.896;   24.325;  286.000;  392.000
258.038;  -69.225; -403.000; -352.000
258.180;  -46.450; -354.000; -279.000
258.321;  -89.725; -581.000; -457.000
258.463;   -4.975;  -71.000;  133.000
258.605;  -80.725; -562.000; -570.000
258.746; -103.200; -886.000; -772.000
258.888; -141.050;-1026.000;-1020.000
259.029;   12.275;  121.000;   -8.000
259.171;  -94.200; -614.000; -550.000
259.313;    6.275;  -49.000;  -47.000
259.454;  -72.800; -536.000; -414.000
259.596;  -59.275; -483.000; -390.000
259.737;  -79.625; -590.000; -474.000
259.879;   33.050;  217.000;  311.000
260.020;   91.325;  901.000;  636.000
260.162;  -31.525; -146.000; -253.000
260.303; -117.850; -768.000; -687.000
260.445;  -90.875; -609.000; -613.000
260.586;   23.200;  392.000;  157.000
260.728;  -36.025; -360.000; -248.000
260.869; -109.025; -350.000; -343.000
261.011;   71.275;  706.000;  537.000
261.152;  -62.600; -479.000; -319.000
261.293;  -70.650; -576.000; -595.000
261.435;  -39.475; -219.000; -184.000
261.576;  -52.975; -455.000; -325.000
261.718;   57.950;  420.000;  470.000
261.859; -136.950; -940.000; -949.000
262.000; -136.350; -951.000;-1016.000
262.142;  -30.275;  -52.000;  -60.000
262.283; -103.525; -808.000; -691.000
262.424;  -90.850; -666.000; -625.000
262.566; -149.650;-1161.000; -983.000
262.707; -104.150; -840.000; -830.000
262.848; -125.175; -769.000; -726.000
262.990;  -62.425; -362.000; -345.000
263.131;   77.125;  650.000;  681.000
263.272;   -5.825;  -61.000;  -41.000
263.413;  -95.275; -589.000; -561.000
263.555;  -80.925; -669.000; -143.000
263.696;  -84.150; -550.000; -641.000
263.837;  -65.950; -449.000; -551.000
263.978;   -1.525;   -5.000;  -77.000
264.119;  -41.700; -283.000; -264.000
264.261; -121.550; -847.000; -630.000
264.402;    0.700;   33.000;   40.000
264.543;  -85.775; -509.000; -524.000
264.684;  -17.100;   61.000;  -50.000
264.825;  -71.975; -816.000; -538.000
264.966;  -19.100;  -84.000;  -67.000
265.107; -112.850; -646.000; -670.000
265.248; -124.700; -825.000; -812.000
265.390;   -7.200;  152.000;   -9.000
265.531;  -15.575; -238.000; -107.000
265.672;  -83.300; -557.000; -630.000
265.813;   59.950;  563.000;  439.000
265.954; -143.800; -959.000; -940.000
266.095;  -20.750; -372.000; -322.000
266.236; -100.100; -686.000; -548.000
266.377;  -49.325; -243.000; -297.000
266.518;  -71.025; -619.000; -547.000
266.659;   21.975;  170.000;  268.000
266.800;    3.050;   83.000;   85.000
266.941;  -78.200; -487.000; -478.000
267.082;   23.825;  354.000;   99.000
267.223;  -56.475; -344.000; -273.000
267.364; -111.775; -892.000; -686.000
267.504;  -23.650;    3.000;  135.000
267.645;   -9.450;  160.000;   67.000
267.786;  -31.675; -147.000;  -86.000
267.927;  -68.250; -473.000; -379.000
268.068;  -17.700; -186.000;  -61.000
268.209;  -33.475; -175.000; -413.000
268.350;  -54.150; -388.000; -532.000
268.490;  -78.125; -648.000; -521.000
268.631;   20.250;  127.000;  225.000
268.772; -116.075; -874.000; -647.000
268.913;  -58.525; -328.000; -476.000
269.054;  -11.800; -117.000;   12.000
269.194;  -51.275; -418.000; -402.000
269.335; -156.975;-1137.000;-1074.000
269.476;  -30.300;   33.000;  -35.000
269.617;  -51.250; -347.000; -392.000
269.757;  -86.750; -713.000; -646.000
269.898; -108.800; -856.000; -613.000
270.039;  -68.050; -415.000; -405.000
270.180; -147.025; -952.000; -816.000
270.320;  -29.700; -190.000; -250.000
270.461;  -40.100; -277.000; -249.000
270.602;  -26.300; -186.000; -156.000
270.742; -127.950; -868.000; -943.000
270.883;  -63.625; -442.000; -390.000
271.023;  -43.925; -358.000; -357.000
271.164;  -69.925; -607.000; -528.000
271.305; -104.475; -666.000; -654.000
271.445;  -85.225; -722.000; -683.000
271.586;  -63.100; -462.000; -283.000
271.726;  -43.000; -397.000; -322.000
271.867;  -50.100; -594.000; -534.000
272.008;  188.125; -473.000; -285.000
272.148;  138.725;  462.000;  468.000
272.289;   16.925; -113.000; -181.000
272.429;   25.225;   19.000;  185.000
272.570;  -88.975; -633.000; -737.000
272.710; -105.100; -825.000; -775.000
272.851;  -22.850;  113.000; -130.000
272.991; -159.625;-1173.000;-1077.000
273.131;  -77.775; -419.000; -459.000
273.272; -105.550; -683.000; -723.000
273.412;   -3.875; -143.000;  -31.000
273.553;  -59.575; -488.000; -507.000
273.693;  128.700;  913.000;  858.000
273.834;  -94.525; -894.000; -692.000
273.974;  -79.150; -664.000; -615.000
274.114;  -86.400; -772.000; -560.000
274.255;   59.750;  414.000;  373.000
274.395;   18.225; -180.000; -125.000
274.535;   35.625;  199.000;  350.000
274.676;   16.950;  225.000;   94.000
274.816;   -2.950;  110.000;   34.000
274.956;  -76.050; -624.000; -690.000
275.097;  -60.000;-1014.000; -922.000
275.237; -111.100; -913.000; -803.000
275.377; -102.850; -778.000; -689.000
275.517; -142.575; -878.000; -937.000
275.658;  -55.475; -590.000; -555.000
275.798;  -70.950; -606.000; -413.000
275.938;   10.600;  215.000;  323.000
276.078;  -99.375; -626.000; -395.000
276.218;   16.250;   99.000;  104.000
276.359; -120.625;-1026.000;-1024.000
276.499;  -71.225; -605.000; -446.000
276.639;  -31.625; -305.000; -151.000
276.779;  -54.575; -475.000; -357.000
276.919; -103.925; -783.000; -624.000
277.059;  -11.650; -261.000; -212.000
277.199;  -32.275; -357.000; -259.000
277.340;   52.450;  287.000;  175.000
277.480; -108.050; -840.000; -693.000
277.620;   27.450;  192.000;   16.000
277.760; -195.325;-1533.000;-1294.000
277.900;    7.800;  113.000;   33.000
278.040;   27.450;  137.000;  159.000
278.180;   23.375;  270.000;  170.000
278.320;   -6.075;   21.000;   56.000
278.460;  -71.275; -443.000; -469.000
278.600;  -83.600; -708.000; -598.000
278.740;   45.950;  448.000;  224.000
278.880;  -42.175; -768.000; -791.000
279.020;  -20.650; -194.000; -144.000
279.160;  -93.625; -672.000; -595.000
279.300; -126.575; -926.000; -873.000
279.440;  -82.050; -709.000; -622.000
279.579;    9.025;-1014.000; -929.000
279.719;  -42.850; -410.000; -394.000
279.859;   91.075;   -4.000;   41.000
279.999;   37.475; -208.000;  101.000
280.139;    0.250; -435.000; -387.000
280.279;  -72.425; -708.000; -745.000
280.419;  -18.100; -229.000; -147.000
280.559;  -17.125; -259.000; -180.000
280.698;  -93.250; -790.000; -639.000
280.838;  -89.950; -778.000; -800.000
280.978; -107.625; -846.000; -790.000
281.118;  -98.075; -811.000; -704.000
281.257;   -2.625;   24.000;    6.000
281.397; -112.150;-1094.000; -960.000
281.537;  -88.100; -599.000; -712.000
281.677;  -28.950; -150.000; -101.000
281.816;  -96.550; -700.000; -630.000
281.956;  -25.875; -193.000; -257.000
282.096;  -63.725; -539.000; -396.000
282.235;  -99.400; -672.000; -638.000
282.375;  -33.725; -243.000;  -98.000
282.515; -110.475; -715.000; -707.000
282.654;   14.225;   29.000;  106.000
282.794;   29.200;  388.000;  244.000
282.934;  -56.800; -530.000; -491.000
283.073; -132.775;-1030.000; -857.000
283.213;  -63.925; -460.000; -467.000
283.353;  -35.225; -408.000; -349.000
283.492;  -43.350; -264.000; -296.000
283.632;  -45.500; -254.000; -168.000
283.771;  -98.000; -859.000; -730.000
283.911;  -47.575; -369.000; -260.000
284.050; -108.275; -794.000; -748.000
284.190; -167.150;-1229.000;-1096.000
284.329; -136.650;-1055.000; -964.000
284.469;  -53.700; -516.000; -591.000
284.608;  -52.700; -559.000; -598.000
284.748;  -86.400; -614.000; -570.000
284.887;   -7.425;  -87.000;  -20.000
285.027; -116.950; -844.000; -892.000
285.166;  -39.400; -192.000; -249.000
285.306;   13.075; -116.000;  -33.000
285.445;  -35.425; -229.000; -343.000
285.584;  -97.425; -630.000; -494.000
285.724;  -38.100; -282.000; -322.000
285.863; -119.050; -857.000; -507.000
286.002;  -60.600; -366.000; -276.000
286.142; -110.475; -715.000; -622.000
286.281;  -68.950; -525.000; -493.000
286.420;  -68.400; -554.000; -417.000
286.560;   79.750;  653.000;  623.000
286.699; -136.900; -958.000; -912.000
286.838;  -84.350; -590.000; -591.000
286.978;  -82.850; -533.000; -537.000
287.117; -141.150;-1085.000; -950.000
287.256;  -32.125; -228.000; -211.000
287.395;  -50.200; -197.000; -378.000
287.535;  -54.250; -370.000; -298.000
287.674;  -83.425; -509.000; -484.000
287.813;   42.175;  661.000;  533.000
287.952; -132.700;-1010.000; -871.000
288.091; -153.825;-1049.000; -915.000
288.231;    9.575;   13.000;   15.000
288.370; -181.925;-1217.000;-1200.000
288.509;  -81.800; -728.000; -645.000
288.648; -100.950; -770.000; -548.000
288.787;  -41.800; -243.000;  -87.000
288.926;  -54.950; -454.000; -475.000
289.065;  104.450;  859.000;  672.000
289.204;  -46.450; -377.000; -217.000
289.344;  -93.375; -791.000; -690.000
289.483;   30.125;  416.000;  304.000
289.622;  -32.650; -291.000; -149.000
289.761;  -22.625; -309.000; -166.000
289.900; -100.275; -785.000; -626.000
290.039;  -29.175;  -12.000;  -95.000
290.178;  -46.025; -274.000; -180.000
290.317;  -77.000; -618.000; -479.000
290.456;  -63.325; -463.000; -451.000
290.595; -128.425; -961.000; -833.000
290.734; -138.425; -904.000; -891.000
290.873;  -56.250; -456.000; -420.000
291.011; -104.425; -833.000; -843.000
291.150; -102.725; -770.000; -682.000
291.289;  -19.975; -343.000; -110.000
291.428;  -91.550; -599.000; -480.000
291.567;  -53.050; -370.000; -442.000
291.706;   -6.050;  109.000;  154.000
291.845; -104.450; -597.000; -505.000
291.984; -164.875;-1234.000;-1061.000
292.122;   58.625;  602.000;  582.000
292.261;   37.825;  620.000;  463.000
292.400;   12.750; -144.000;  211.000
292.539; -126.850; -959.000; -813.000
292.678;  -18.675; -325.000; -300.000
292.816; -162.125;-1136.000; -965.000
292.955;  -83.425; -844.000; -684.000
293.094;  -29.450; -173.000; -337.000
293.233;  -68.825; -556.000; -400.000
293.371;  -30.700; -225.000;  -84.000
293.510; -120.475; -866.000; -780.000
293.649; -122.525; -959.000; -924.000
293.787;  -50.250;-1083.000;-1012.000
293.926;   -0.450; -113.000;  -32.000
294.065;  -40.975; -379.000; -290.000
294.203;   41.025;  298.000;  406.000
294.342;   17.200;   74.000;  156.000
294.481; 5379.350;51180.000; -836.000
294.619;  -33.500; -425.000; -582.000
294.758; -140.250;-1230.000;-1137.000
294.896;   70.525; -125.000;    5.000
295.035; -110.400;-1040.000;-1006.000
295.174; -119.250;-1082.000; -954.000
295.312;  -23.350; -323.000; -203.000
295.451;    1.150; -307.000; -428.000
295.589;  -48.650; -389.000; -518.000
295.728;   12.975; -292.000; -165.000
295.866;   11.650;  -36.000;  -51.000
296.005;  -49.750; -584.000; -341.000
296.143;  -80.350; -558.000; -596.000
296.282; -102.825; -957.000; -881.000
296.420;  -89.850; -657.000; -557.000
296.559;  -76.950; -892.000; -633.000
296.697;   41.325; -847.000; -665.000
296.835;   81.125;-1141.000;-1002.000
296.974;   49.450;  -23.000;   39.000
297.112;   15.275; -443.000; -504.000
297.251;  -68.300; -815.000; -755.000
297.389;  103.025; -576.000; -438.000
297.527;   39.300; -145.000;  -83.000
297.666;  -55.500; -486.000; -438.000
297.804;  -43.025; -404.000; -264.000
297.942;  -17.650; -136.000; -161.000
298.081;   -0.425; -183.000;   63.000
298.219;   78.025;  -17.000;  -19.000
298.357;   65.050; -144.000;  -71.000
298.495;   39.625; -810.000; -812.000
298.634;   73.125;  245.000;  219.000
298.772;   60.900; -220.000; -338.000
298.910;  -29.725; -309.000; -182.000
299.048;   -8.375; -130.000; -153.000
299.187;  -25.550; -350.000; -250.000
299.325;   22.850;   52.000;  122.000
299.463;   63.525; -389.000; -299.000
299.601;  121.175; -327.000; -271.000
299.739;  -88.375; -908.000; -883.000
299.877;  -83.350; -791.000; -703.000
300.016;  -25.925;-1095.000; -935.000
300.154;  192.275;  -19.000; -161.000
300.292;   57.700; -428.000; -348.000
300.430;   42.650; -408.000; -291.000
300.568; -102.500; -940.000; -874.000
300.706;  -49.175; -366.000; -469.000
300.844;  -66.325;-1108.000; -979.000
300.982;  121.625;  246.000;  282.000
301.120;  -98.500; -965.000; -866.000
301.258;  -65.275; -812.000; -705.000
301.396;   42.225;  104.000;  -41.000
301.534;   96.925; -218.000; -293.000
301.672;   -1.625; -664.000; -521.000
301.810;   51.425; -613.000; -545.000
301.948;  141.725;   53.000;  149.000
302.086;  689.175; -250.000;  -32.000
302.224; 1040.375; -610.000; -585.000
302.362;   46.150; -558.000; -622.000
302.500;  -18.525; -923.000; -893.000
302.638;  115.400;  128.000;  245.000
302.776;    7.600; -352.000; -408.000
302.913;   57.700;  447.000;  236.000
303.051;    1.775;  -86.000;  -23.000
303.189;   51.525;   90.000;  118.000
303.327;  -21.025; -341.000; -256.000
303.465;  -75.850; -832.000; -588.000
303.603;  -90.850; -805.000; -604.000
303.740;   98.800;  417.000;  241.000
303.878;   36.100; -800.000; -759.000
304.016; -101.150; -915.000; -790.000
304.154; -109.600;-1123.000;-1152.000
304.291;  -43.475; -505.000; -554.000
304.429;    7.425;  102.000;   74.000
304.567; -120.650; -908.000; -893.000
304.705;  -50.075; -408.000; -515.000
304.842;  121.375; -616.000; -540.000
304.980;   58.625;  215.000;   35.000
305.118;   76.625; -367.000; -365.000
305.255;  -64.975; -945.000; -927.000
305.393;   61.000;  178.000;  239.000
305.531;  -99.025;-1173.000; -956.000
305.668;  -79.250; -663.000; -582.000
305.806;  119.375; -358.000; -439.000
305.943;  129.500; -629.000; -637.000
306.081;   63.650; -378.000; -267.000
306.219; -105.100; -863.000; -748.000
306.356;    8.300;  158.000;   27.000
306.494;  114.150;  981.000;  761.000
306.631;    7.550;  -11.000;  -55.000
306.769;   11.800; -613.000; -485.000
306.906;   -4.975; -284.000; -258.000
307.044;  -56.675; -473.000; -488.000
307.181;  -54.575; -410.000; -332.000
307.319;   -1.900;  112.000;   87.000
307.456; -159.050;-1191.000;-1153.000
307.594;  -92.775; -980.000; -727.000
307.731;   -5.725; -371.000; -164.000
307.868;   10.225;  -15.000;   20.000
308.006; -129.250; -961.000; -847.000
308.143;  -55.925; -618.000; -330.000
308.281;  191.225;  -37.000; -254.000
308.418;   13.800; -748.000; -640.000
308.555;  -55.025; -400.000; -250.000
308.693;  -88.950; -577.000; -573.000
308.830;  -96.150; -712.000; -657.000
308.967;  -11.500; -215.000;  -95.000
309.105;  -42.025; -507.000; -396.000
309.242;   45.250; -468.000; -367.000
309.379;  381.625; -577.000; -655.000
309.517;  -50.525; -936.000; -948.000
309.654;  -95.725; -910.000; -734.000
309.791;  -66.775; -662.000; -580.000
309.928; -104.750; -977.000; -914.000
310.065;  176.200;  819.000;  697.000
310.203;   10.100; -825.000; -850.000
310.340;    7.400; -465.000; -321.000
310.477;  -75.400; -412.000; -516.000
310.614;  -65.825; -383.000; -473.000
310.751;  -79.600; -427.000; -518.000
310.889;  -22.750;    1.000;   11.000
311.026; -149.350;-1161.000; -939.000
311.163;  -54.475; -386.000; -380.000
311.300;  -72.275; -512.000; -479.000
311.437;  -76.775; -658.000; -619.000
311.574; -152.925;-1226.000; -985.000
311.711;  -57.900; -595.000; -433.000
311.848;  -17.475; -380.000; -388.000
311.985;    0.500;  270.000;   93.000
312.122; -113.000; -932.000; -762.000
312.259; -118.675; -941.000; -994.000
312.396;  -83.800; -508.000; -551.000
312.533;  -92.175; -812.000; -790.000
312.670; -133.300;-1070.000; -898.000
312.807;  -28.825; -352.000; -367.000
312.944;  -89.500; -513.000; -611.000
313.081;  -23.200; -150.000; -415.000
313.218;  -89.800;-1111.000; -867.000
313.355;   10.975; -531.000; -449.000
313.492;   -0.775; -455.000; -292.000
313.629;  120.050;  815.000;  735.000
313.766; -136.725;-1176.000;-1008.000
313.902;  -19.575; -186.000;   21.000
314.039;  -52.850; -372.000; -289.000
314.176;   27.950;  286.000;  192.000
314.313;  -58.400; -569.000; -473.000
314.450;  -58.100; -788.000; -684.000
314.587;  -60.575; -468.000; -480.000
314.723;    3.300;  -78.000;  130.000
314.860;   27.425;  318.000;  332.000
314.997;   37.350;  223.000;  142.000
315.134;  -38.525; -385.000; -368.000
315.270;  -20.525; -480.000; -496.000
315.407; -113.225;-1094.000; -967.000
315.544;  -53.400; -657.000; -538.000
315.681;  -47.050; -681.000; -565.000
315.817;   21.650; -133.000; -176.000
315.954;   18.100; -613.000; -392.000
316.091; -125.275;-1045.000;-1023.000
316.227;  -16.550;  -71.000; -179.000
316.364;   -8.200;   23.000;    6.000
316.500;  -56.550; -113.000; -300.000
316.637;  -29.425; -181.000; -302.000
316.774;  -99.225; -625.000; -358.000
316.910; -102.525; -598.000; -629.000
317.047;  -77.175; -487.000; -351.000
317.183;  -54.500; -435.000; -566.000
317.320;  -14.400; -367.000; -321.000
317.456;  -70.775; -733.000; -805.000
317.593;  -93.300; -598.000; -641.000
317.729;    5.775;  168.000;  -67.000
317.866; -199.450;-1434.000;-1285.000
318.002;  -94.950; -708.000; -948.000
318.139;  -84.650; -883.000; -867.000
318.275; -105.475;-1003.000; -738.000
318.412;  -67.400; -517.000; -336.000
318.548;  -15.150; -751.000; -720.000
318.685;  -94.550; -985.000; -888.000
318.821;  -81.700; -762.000; -735.000
318.957;  -16.575;   34.000;  -23.000
319.094;   33.900;  297.000;  154.000
319.230;  -61.025; -756.000; -742.000
319.367;  152.875; -471.000; -520.000
319.503;   70.000; -538.000; -436.000
319.639;  -99.900; -877.000; -793.000
319.775;  -59.550; -750.000; -685.000
319.912;  -65.900; -424.000; -519.000
320.048;  -75.925;-1184.000;-1184.000
320.184;   76.650;   59.000;   70.000
320.321;  -69.450; -497.000; -467.000
320.457;   58.725;  475.000;  662.000
320.593;  -65.475; -375.000; -382.000
320.729;  -98.650; -732.000; -734.000
320.866;  -73.700; -577.000; -635.000
321.002;  -81.325; -759.000; -809.000
321.138;  -10.850; -135.000; -211.000
321.274;   71.650; -148.000; -115.000
321.410;  -25.175; -585.000; -353.000
321.546;  -15.225;-1011.000; -911.000
321.683;   61.700;  400.000;  185.000
321.819;    2.475;  -48.000; -117.000
321.955; -103.500; -743.000; -722.000
322.091;  -34.725; -585.000; -540.000
322.227;   -9.600; -382.000; -202.000
322.363;  -25.925; -320.000; -215.000
322.499;  -30.725; -343.000; -331.000
322.635;  180.250;  636.000;  443.000
322.771;   47.750; -139.000;   12.000
322.907;   92.825;  129.000;  327.000
323.043;  -17.900; -115.000; -206.000
323.179;  -34.475; -394.000; -363.000
323.315;   31.675; -401.000; -371.000
323.451;  121.075; -328.000; -236.000
323.587;   76.100;  -60.000;  -77.000
323.723;   41.175; -682.000; -601.000
323.859;   -8.750; -258.000;  -76.000
323.995;  -29.475; -467.000; -409.000
324.131; -118.225; -967.000; -892.000
324.267;  -49.325; -254.000; -276.000
324.402; -126.425; -960.000; -983.000
324.538;   -4.550; -279.000; -104.000
324.674;   36.525;  164.000;   77.000
324.810;  151.125;  226.000;  308.000
324.946;    9.750; -810.000; -658.000
325.082;  -69.250; -568.000; -475.000
325.217;   -6.850;  -62.000;   16.000
325.353; -106.050; -764.000; -659.000
325.489;  -85.025; -540.000; -506.000
325.625;  -74.575; -579.000; -525.000
325.760;   49.700;  517.000;  376.000
325.896;  -18.675; -515.000; -702.000
326.032;  -68.475; -403.000; -352.000
326.168;  -63.300; -462.000; -369.000
326.303;  -56.425; -352.000; -461.000
326.439;  -14.650; -336.000; -276.000
326.575;   -0.750; -190.000;  -29.000
326.710;   -2.975; -156.000;  -30.000
326.846;   -3.600;  146.000;  103.000
326.982;  -87.250; -530.000; -548.000
327.117;  -61.825; -481.000; -442.000
327.253;  -80.250; -745.000; -742.000
327.388; -132.725;-1137.000;-1153.000
327.524;  -27.550; -811.000; -578.000
327.659;  -14.275;  -58.000;  -22.000
327.795;  -14.475;   69.000;   45.000
327.931;  -74.625; -723.000; -499.000
328.066;  -28.850; -417.000; -276.000
328.202;  -36.700;   12.000; -129.000
328.337;   90.075;  957.000;  713.000
328.473;   35.900;  -12.000;  -74.000
328.608;  -21.450; -256.000; -267.000
328.743;  -73.625; -799.000; -664.000
328.879;   22.125;  214.000;  114.000
329.014;  -29.475; -102.000; -122.000
329.150;  -75.825; -358.000; -483.000
329.285;  -69.125; -465.000; -466.000
329.421;  -47.700; -548.000; -246.000
329.556;  -18.725;  -36.000;   85.000
329.691;  -99.425; -633.000; -615.000
329.827;  -74.425; -626.000; -480.000
329.962;  -40.075;  131.000; -301.000
330.097;  -89.325; -673.000; -585.000
330.233;  -47.775; -410.000; -223.000
330.368; -119.250; -839.000; -628.000
330.503;  -15.450;    3.000;   98.000
330.638;    7.600;  -93.000; -125.000
330.774;  -47.825; -609.000; -530.000
330.909;  -47.500; -434.000; -244.000
331.044;  -83.150; -714.000; -708.000
331.179; -178.500;-1217.000;-1109.000
331.315;    8.375;   77.000;   20.000
331.450;   23.175;  157.000;  285.000
331.585;  -94.125; -805.000; -706.000
331.720;  -85.675; -510.000; -460.000
331.855;  -22.050;  -35.000; -102.000
331.990;  240.050;   62.000;  138.000
332.126;  134.225; -110.000;   71.000
332.261;  -23.525; -379.000; -265.000
332.396;    0.000; -135.000; -242.000
332.531; -106.925;-1074.000;-1031.000
332.666;   31.275; -519.000; -363.000
332.801; -111.900; -726.000; -807.000
332.936;  -22.075; -192.000; -122.000
333.071; -139.875; -870.000; -817.000
333.206;    8.725;  307.000;  379.000
333.341;   32.900;  344.000;  418.000
333.476;  -94.450; -627.000; -623.000
333.611;  -44.500; -251.000; -173.000
333.746;  -37.750; -381.000; -464.000
333.881; -112.025; -973.000; -935.000
334.016; -128.925; -936.000; -917.000
334.151; -114.200; -746.000; -702.000
334.286;   16.350;  152.000;  186.000
334.421;  -21.250; -125.000; -178.000
334.556;  -78.550; -611.000; -567.000
334.690;  -80.075; -631.000; -577.000
334.825;   55.550;  381.000;   83.000
334.960;  -60.850; -285.000; -413.000
335.095;   -8.075;  135.000;  -91.000
335.230;  -95.050; -722.000; -738.000
335.365; -140.475;-1084.000; -990.000
335.499; -113.825;-1108.000;-1037.000
335.634;    1.575;    9.000;  534.000
335.769;  -99.075; -755.000; -720.000
335.904;  -52.775; -603.000; -561.000
336.038;  -41.375; -735.000; -657.000
336.173; -115.950;-1206.000;-1194.000
336.308;   17.050; -116.000; -189.000
336.443;   19.850; -544.000; -634.000
336.577;  -63.650; -936.000; -787.000
336.712;   56.125;   -4.000;  -12.000
336.847;  -20.750; -724.000; -607.000
336.981;   78.700; -272.000; -208.000
337.116;  306.675;  615.000;  501.000
337.250;  184.900; -434.000; -421.000
337.385;  241.800; -297.000; -208.000
337.520;   73.775; -632.000; -603.000
337.654;  -28.250; -215.000; -126.000
337.789; -128.325; -989.000; -933.000
337.923;  -23.725; -104.000; -205.000
338.058;  -92.625; -673.000; -738.000
338.192;  -22.075; -611.000; -488.000
338.327;   -5.700;  -18.000; -155.000
338.461;  -75.225; -299.000; -469.000
338.596;  -84.800; -780.000; -638.000
338.730;  -98.925; -767.000; -803.000
338.865;   95.575;  -46.000; -140.000
338.999;  -55.725; -846.000; -702.000
339.134;  -23.800; -634.000; -536.000
339.268;   22.350; -741.000; -603.000
339.403;  351.950; -740.000; -775.000
339.537;  110.575; -894.000; -820.000
339.671; -112.650; -829.000; -813.000
339.806;  -63.675; -556.000; -512.000
339.940;    3.025; -261.000; -235.000
340.074;  -93.475; -685.000; -510.000
340.209;  -45.825; -351.000; -230.000
340.343;  -90.875; -517.000; -573.000
340.477;  149.475;  998.000; 1036.000
340.612;  -50.425;-1033.000; -900.000
340.746;  130.650; -199.000; -243.000
340.880;  -65.075; -924.000; -785.000
341.014;  -12.400;  -45.000; -154.000
341.149; -103.675; -756.000; -718.000
341.283; -109.600; -839.000; -754.000
341.417;  -86.175;-1124.000; -938.000
341.551;  153.200; -768.000; -708.000
341.685;  -21.900; -633.000; -611.000
341.820;  -46.475; -562.000; -493.000
341.954;  -53.350; -218.000; -349.000
342.088; -145.550;-1102.000;-1019.000
342.222;   52.350;  565.000;  618.000
342.356;  -52.950; -395.000; -335.000
342.490;  -93.100; -880.000; -841.000
342.624;  -40.575; -339.000; -242.000
342.758;    2.500; -364.000; -312.000
342.892;  -55.125; -710.000; -585.000
343.026;  -35.150;  -58.000; -116.000
343.160;  -50.875; -426.000; -376.000
343.294;  -70.125; -474.000; -337.000
343.428;  -17.725; -488.000; -448.000
343.562;  -15.775; -172.000;  -23.000
343.696;  -28.700; -385.000; -314.000
343.830;   -7.825; -362.000; -356.000
343.964;   32.450; -231.000; -168.000
344.098; 1015.100;  199.000;   70.000
344.232;  855.050; -266.000; -127.000
344.366;   99.100; -567.000; -453.000
344.500;   77.600; -665.000; -744.000
344.634;   27.575; -324.000; -164.000
344.768;   -8.475; -531.000; -341.000
344.902;   27.825;  278.000;  256.000
345.035;  -72.825; -556.000; -496.000
345.169; -136.550; -933.000; -656.000
345.303;  -31.025; -308.000; -482.000
345.437;  -56.925; -826.000; -717.000
345.571;  -66.600; -675.000; -594.000
345.704;  -62.725; -309.000; -532.000
345.838;   -3.250; -331.000; -284.000
345.972;  -33.600; -543.000; -495.000
346.106;  162.600; -179.000; -190.000
346.239;  437.075; -312.000; -243.000
346.373;    9.750; -343.000; -302.000
346.507; -123.375; -950.000; -962.000
346.640;  150.250;  -30.000;   13.000
346.774;  -27.975; -650.000; -797.000
346.908;  -27.200; -138.000;  -11.000
347.041;  -92.175; -646.000; -593.000
347.175;    7.250;  259.000;   27.000
347.309;  -63.325; -698.000; -628.000
347.442;  -94.175; -883.000; -732.000
347.576;  305.550;  670.000;  668.000
347.709;  214.050; -123.000;  -52.000
347.843;  -88.900; -933.000; -825.000
347.976;   37.125;  235.000;  294.000
348.110; -190.800;-1268.000;-1186.000
348.243;  -98.675; -679.000; -772.000
348.377;   12.775;  -26.000;   60.000
348.510;   46.025;  403.000;  540.000
348.644;  -25.875;  -37.000; -159.000
348.777;   -0.100;  180.000;  191.000
348.911;  -56.575; -142.000; -112.000
349.044;  184.900;  471.000;  448.000
349.178;  196.300;-1069.000;-1006.000
349.311;  128.175;  141.000;  255.000
349.444;  -13.200; -927.000; -813.000
349.578;  -13.050; -347.000; -200.000
349.711;  -98.450; -959.000; -862.000
349.845;   11.300; -661.000; -591.000
349.978; -136.400;-1224.000;-1137.000
350.111;  -90.900; -546.000; -612.000
350.244;  -65.800; -596.000; -700.000
350.378;   19.525; -392.000; -393.000
350.511;  -53.525; -393.000; -426.000
350.644;  -86.050; -808.000; -806.000
350.778;   22.900;  168.000;  104.000
350.911;    0.100;  134.000;  140.000
351.044;  -91.175; -685.000; -615.000
351.177;  -25.950; -321.000; -281.000
351.310;  -13.875;    3.000; -131.000
351.444;  -73.700; -888.000; -788.000
351.577;  142.625;  140.000;   90.000
351.710;   92.000;  593.000;  417.000
351.843;  -28.475; -165.000;  -77.000
351.976;    4.600;  149.000;  -79.000
352.109;  -96.525; -621.000; -612.000
352.242;  -31.775; -464.000; -419.000
352.376;  -46.275; -580.000; -636.000
352.509;  198.675; -437.000; -356.000
352.642;   41.000; -654.000; -604.000
352.775;   74.125; -141.000;  -98.000
352.908; -102.425; -933.000; -904.000
353.041;  -97.325; -814.000; -824.000
353.174;  -62.175; -551.000; -424.000
353.307;  -71.650; -753.000; -764.000
353.440;   76.350;  541.000;  453.000
353.573; -101.225; -957.000;-1008.000
353.706;  -49.800; -384.000; -558.000
353.839;  -10.050; -264.000; -220.000
353.971;  -86.850; -657.000; -512.000
354.104;  -70.625; -896.000; -835.000
354.237;  -28.450; -627.000; -662.000
354.370;  -84.050; -846.000; -879.000
354.503; -175.850;-1231.000;-1308.000
354.636;  -46.850; -529.000; -348.000
354.769; -126.650; -937.000; -860.000
354.902;    5.000; -230.000; -139.000
355.034;  -19.950; -164.000; -220.000
355.167;  -18.025; -262.000; -162.000
355.300;  -89.800;-1061.000; -880.000
355.433;  958.175;  -71.000;  -14.000
355.565; 1503.200; -402.000; -384.000
355.698;  379.125; -356.000; -296.000
355.831;    0.025; -882.000; -801.000
355.964;   86.050; -285.000; -170.000
356.096;  -79.025; -856.000; -843.000
356.229;   24.150; -523.000; -530.000
356.362;  310.650; -373.000; -266.000
356.494;  590.675; -229.000; -162.000
356.627;  530.675;  269.000;  377.000
356.760;  646.675;  120.000;   53.000
356.892;  926.350; -286.000; -601.000
357.025;  702.750;  403.000;  389.000
357.157;  684.375; -167.000; -179.000
357.290;  655.125; -856.000; -713.000
357.423;  183.800; -667.000; -556.000
357.555;  133.325; -217.000; -228.000
357.688;  136.025; -483.000; -364.000
357.820;  526.675; -870.000; -877.000
357.953; 4011.375; -563.000; -589.000
358.085;  940.700; -632.000; -612.000
358.218; 1327.925;-1131.000; -932.000
358.350;  243.000;  -58.000;  312.000
358.483; -109.250;-1300.000;-1187.000
358.615;    9.850;-1182.000;-1078.000
358.747;  -40.125;-1187.000;-1058.000
358.880;   29.675; -810.000; -744.000
359.012;    4.125; -376.000; -202.000
359.145;  -39.100; -480.000; -511.000
359.277;   76.075; -962.000; -913.000
359.409; 3326.175;  536.000;  231.000
359.542;  903.600; -738.000; -688.000
359.674;   90.650;   46.000;   13.000
359.806;  -53.650; -565.000; -438.000
359.939;  -42.950; -617.000; -516.000
360.071;  -16.225; -583.000; -579.000
360.203;  -11.750; -411.000; -364.000
360.335;   50.825;  164.000;  -16.000
360.468;  227.425; -249.000; -307.000
360.600; 2606.875; -547.000; -454.000
360.732; 2738.800; -546.000; -423.000
360.864;  398.525;-1216.000;-1044.000
360.996;  338.850; -516.000; -554.000
361.129;   76.975; -389.000; -598.000
361.261;   37.350;  110.000; -113.000
361.393;  -37.175; -252.000; -214.000
361.525;   33.550;   94.000;  244.000
361.657;  -28.350; -821.000; -703.000
361.789;   14.500; -139.000; -155.000
361.921;  276.600; -642.000; -593.000
362.053;  283.100;  524.000;  541.000
362.185;   66.175;  288.000;   72.000
362.318;  -78.425; -709.000; -705.000
362.450;  149.875;  294.000;  444.000
362.582;  135.500; -913.000; -870.000
362.714;  -26.000; -353.000; -332.000
362.846;  -92.625; -606.000; -490.000
362.978; -138.500; -941.000; -811.000
363.109;   60.375; -161.000; -260.000
363.241;  502.400; -739.000; -749.000
363.373;  428.525; -649.000; -564.000
363.505;  637.900; -186.000;  -91.000
363.637;  167.000; -787.000; -601.000
363.769; -101.525;-1067.000;-1080.000
363.901;  -57.550; -596.000; -654.000
364.033; -112.050;-1103.000;-1062.000
364.165;   -0.800; -283.000; -283.000
364.296;   79.850; -316.000; -177.000
364.428;   75.500;-1344.000;-1220.000
364.560;  -64.775; -679.000; -661.000
364.692;  -44.200; -738.000; -835.000
364.824;  307.225; -588.000; -456.000
364.955;  453.875; -402.000; -564.000
365.087;  862.650;-1097.000; -852.000
365.219;   18.250; -686.000; -816.000
365.351;  -54.600; -526.000; -572.000
365.482;   58.350;  300.000;  240.000
365.614;  -38.600; -402.000; -314.000
365.746;  -91.875; -729.000; -752.000
365.877;  -97.225; -706.000; -672.000
366.009;  241.850;  -35.000;  -62.000
366.141;  -79.650;-1249.000;-1134.000
366.272; -106.700; -803.000; -719.000
366.404; -112.300;-1005.000; -874.000
366.535;  -14.975; -139.000;  -12.000
366.667; -104.175; -644.000; -649.000
366.799;   37.125;  353.000;  203.000
366.930; -100.925; -862.000; -996.000
367.062;  121.150; -639.000; -613.000
367.193;  143.525; -872.000; -842.000
367.325;  -65.775; -580.000; -684.000
367.456;   61.450; -246.000;   31.000
367.588;  187.025; -371.000; -318.000
367.719;   22.150;  -44.000;  -45.000
367.851;  -20.225; -222.000; -241.000
367.982;  -26.375; -875.000; -732.000
368.113;  111.750; -475.000; -358.000
368.245; -103.100; -960.000; -841.000
368.376;  -21.325; -254.000; -302.000
368.508;  -20.575; -188.000; -263.000
368.639; -125.650;-1166.000;-1034.000
368.770;   -2.150; -670.000; -589.000
368.902;  -59.575; -836.000; -926.000
369.033;  -93.650; -906.000; -855.000
369.164;  -54.250; -720.000; -653.000
369.296; -107.825; -452.000; -601.000
369.427;    9.900; -209.000; -144.000
369.558;  -55.200; -593.000; -377.000
369.689;  -88.650; -721.000; -569.000
369.821; -117.275; -951.000; -845.000
369.952;  -15.850;   42.000; -108.000
370.083;  -48.825; -229.000; -108.000
370.214;  -76.175; -735.000; -650.000
370.345;   -5.175;   65.000;   81.000
370.477;  -80.975; -810.000; -790.000
370.608;  265.950; -328.000; -264.000
370.739;  -29.850;-1233.000;-1292.000
370.870;   -5.025;-1102.000; -923.000
371.001;   94.375; -378.000; -467.000
371.132;  -53.250; -754.000; -735.000
371.263;  -18.375;  -42.000; -148.000
371.394; -130.750; -841.000; -748.000
371.525;   32.675;  345.000;  225.000
371.657;  -88.200; -808.000; -670.000
371.788;   83.475;  103.000;  199.000
371.919;  198.525; -384.000; -304.000
372.050; 3989.325;  -91.000; -156.000
372.181; 1231.475; -188.000; -294.000
372.311;  403.825;   42.000; -127.000
372.442;   49.825; -457.000; -451.000
372.573;  -14.800; -444.000; -340.000
372.704; -112.600;-1008.000; -980.000
372.835;  105.625; -228.000; -289.000
372.966;  -49.200; -646.000; -554.000
373.097;  -67.925; -575.000; -711.000
373.228;  -25.250; -717.000; -542.000
373.359;  173.875; -824.000; -536.000
373.490; 1057.200; -881.000; -727.000
373.620; 1341.550;-1001.000; -803.000
373.751; 2002.475; -332.000; -396.000
373.882;  930.100; -663.000; -733.000
374.013;   99.275; -449.000; -262.000
374.143;  -42.125; -581.000; -659.000
374.274;  -92.450; -987.000; -908.000
374.405;  201.900; -388.000; -276.000
374.536;  495.550; -526.000; -387.000
374.666; 1274.800; -759.000; -807.000
374.797;  261.425; -817.000; -868.000
374.928;  993.000; -710.000; -560.000
375.058; 1017.375; -535.000; -500.000
375.189;  103.475;  -59.000;  -93.000
375.320;  -87.225; -928.000;-1034.000
375.450;  -43.600; -625.000; -616.000
375.581;  -53.650; -526.000; -436.000
375.712;  -22.025; -574.000; -250.000
375.842;  362.075; -438.000; -415.000
375.973;  258.650; -554.000; -513.000
376.103;  -21.750; -665.000; -648.000
376.234;  -66.550; -531.000; -552.000
376.364;  -28.500; -944.000; -867.000
376.495;  350.425;  925.000;  529.000
376.625;   14.925; -472.000; -485.000
376.756;   80.225; -709.000; -678.000
376.886;  -41.600;-1178.000;-1026.000
377.017;   46.675;-1048.000;-1061.000
377.147;  338.525; -786.000; -782.000
377.278;   44.850;  174.000;  228.000
377.408; -108.050; -801.000; -815.000
377.538;  -97.925; -707.000; -693.000
377.669;  -75.450; -537.000; -613.000
377.799;  -83.175; -645.000; -635.000
377.929;  -47.700; -610.000; -428.000
378.060; -118.475; -781.000; -847.000
378.190;  -59.500; -726.000; -531.000
378.320;  -58.800; -401.000; -406.000
378.451;   -9.350; -131.000;  -22.000
378.581;   -8.375;  -67.000; -110.000
378.711;  159.100; 1035.000;  866.000
378.841;  -10.475; -533.000; -675.000
378.972;  -63.400; -871.000; -751.000
379.102;   17.250; -652.000; -579.000
379.232;   -9.625; -126.000;  -73.000
379.362; -107.250;-1001.000; -885.000
379.492;   30.600; -373.000; -424.000
379.623;  120.750;    0.000;  111.000
379.753;  -89.200;-1107.000; -974.000
379.883;  210.525;   59.000;  156.000
380.013;   34.875;-1081.000;-1017.000
380.143;  -88.775;-1097.000;-1056.000
380.273;  -96.550; -985.000; -861.000
380.403;   -4.425; -344.000; -257.000
380.533;  -15.175; -651.000; -664.000
380.663;   65.050;  173.000;  128.000
380.793;  -67.700;-1027.000;-1074.000
380.923;  -15.550; -103.000;  -34.000
381.053;  -79.750; -613.000; -623.000
381.183;  -30.475; -106.000; -248.000
381.313;   49.100; -656.000; -470.000
381.443;   52.900; -692.000; -473.000
381.573;  245.925; -402.000; -409.000
381.703;  359.400;-1249.000;-1095.000
381.833;  -99.250;-1454.000;-1336.000
381.963;  129.075; -134.000;  -87.000
382.093; 1542.175; -925.000; -909.000
382.223;  508.625; -713.000; -602.000
382.353;   -2.525; -801.000; -608.000
382.482;  430.500;-1091.000; -964.000
382.612;  860.325; -872.000; -644.000
382.742;  506.100; -695.000; -622.000
382.872;  332.300; -565.000; -551.000
383.002;   80.050;  347.000; -132.000
383.131;   -3.650; -226.000; -160.000
383.261;  -37.675; -706.000; -768.000
383.391;  301.625; -552.000; -377.000
383.521; 3066.975;  451.000;  263.000
383.650;  752.200; -947.000; -904.000
383.780;   -5.050; -783.000; -656.000
383.910;  109.475;  880.000;  802.000
384.039;   37.850; -794.000; -656.000
384.169;  280.075;-1205.000;-1017.000
384.299;   -6.975; -650.000; -662.000
384.428;  -78.775; -764.000; -680.000
384.558;  -41.175; -308.000; -275.000
384.687;  -46.525; -414.000; -334.000
384.817;   22.475;   75.000;   -2.000
384.947;   41.150; -234.000; -141.000
385.076;  321.300;  982.000;  912.000
385.206;  118.325;  369.000;  480.000
385.335;  -16.150; -549.000; -417.000
385.465;  -62.975; -655.000; -663.000
385.594;  148.950;  -53.000;  -44.000
385.724;  504.325; -868.000; -838.000
385.853;  151.200; -296.000; -270.000
385.982; 1490.725; -743.000; -787.000
386.112; 2463.650;-1052.000; -871.000
386.241;  166.650; -307.000; -312.000
386.371;   25.100; -174.000;  -87.000
386.500;   21.350; -825.000; -789.000
386.629;   36.500; -874.000; -817.000
386.759;   55.925;  -43.000;   68.000
386.888;   -9.325; -170.000; -250.000
387.017;  -71.100; -648.000; -620.000
387.147;  -77.125; -771.000; -798.000
387.276;    7.100; -410.000; -397.000
387.405;   24.325; -398.000; -342.000
387.535;  -19.125; -452.000; -361.000
387.664;  -53.975; -692.000; -620.000
387.793;   78.850; -198.000; -113.000
387.922;  587.950;  255.000;  200.000
388.052;   56.975; -576.000; -423.000
388.181;   20.625; -342.000; -472.000
388.310;   31.750; -889.000; -710.000
388.439;  -30.750; -749.000; -742.000
388.568;  207.650;  365.000;  244.000
388.697; 1187.000; -756.000; -653.000
388.826;  270.550; -768.000; -666.000
388.956;   86.200; -285.000; -307.000
389.085;  -24.925; -347.000; -287.000
389.214; -117.200; -842.000; -872.000
389.343;  -47.975; -645.000; -413.000
389.472;  391.575;  126.000;  149.000
389.601;  514.550;   91.000;    0.000
389.730;   33.950; -568.000; -687.000
389.859;   69.425;  226.000;   46.000
389.988;  225.825; -423.000; -408.000
390.117;  162.200; -168.000; -146.000
390.246;  -11.650; -331.000; -320.000
390.375;  135.125; -673.000; -626.000
390.504;  -50.650; -703.000; -621.000
390.633;  -79.900; -672.000; -726.000
390.761;  -61.200; -732.000; -645.000
390.890;   28.275;   -4.000; -130.000
391.019;   -6.500; -421.000; -441.000
391.148; -115.275; -826.000; -855.000
391.277;  -58.650; -576.000; -493.000
391.406;  -57.550; -821.000; -805.000
391.534;   29.025;  574.000; -301.000
391.663;  -60.425; -583.000; -645.000
391.792;  -84.475; -673.000; -701.000
391.921;  118.800;   -3.000;   15.000
392.050;  224.475; -287.000; -228.000
392.178;  -11.600;-1206.000;-1061.000
392.307;  170.575; -758.000; -712.000
392.436;  107.375; -427.000; -641.000
392.564;    9.100;  166.000;   -6.000
392.693;  -80.275; -860.000; -682.000
392.822;  233.850; -529.000; -534.000
392.950;  123.775; -880.000; -714.000
393.079;  374.700; -188.000; -328.000
393.208;   49.375; -488.000; -511.000
393.336;   -2.775; -170.000; -145.000
393.465;  -39.825; -317.000; -199.000
393.593;   -6.550;   62.000;   79.000
393.722; -138.000;-1121.000; -916.000
393.850;  -43.275; -188.000;  -61.000
393.979; -146.550; -926.000; -805.000
394.107;  -51.000; -517.000; -537.000
394.236;  -14.325; -570.000; -507.000
394.364;  240.425;  383.000;  206.000
394.493;  412.550; -911.000; -767.000
394.621;   -2.000; -955.000; -916.000
394.750;  684.050; -873.000; -923.000
394.878; 2822.875; -247.000; -149.000
395.007; 3959.100; -721.000; -807.000
395.135;  306.400; -790.000; -721.000
395.263;  -83.825;-1038.000;-1040.000
395.392;    5.475;  -25.000; -107.000
395.520; -139.475; -818.000; -679.000
395.648;  -77.700; -865.000; -915.000
395.777;   -7.000; -366.000; -405.000
395.905;  -34.650; -449.000; -564.000
396.033;   13.000;  217.000;  172.000
396.162;  652.475; -399.000; -453.000
396.290;  603.350;  -17.000;   -2.000
396.418;  118.650; -555.000; -514.000
396.546;  -56.050; -571.000; -466.000
396.674;  -91.325; -850.000; -878.000
396.803;   18.175;  -72.000;  -23.000
396.931;  111.925; -179.000; -199.000
397.059;   91.725;-1026.000; -989.000
397.187;  -85.350;-1026.000; -975.000
397.315; -123.825; -884.000; -649.000
397.443;  -89.250; -592.000; -443.000
397.572;  -78.250; -578.000; -424.000
397.700;  -12.050; -607.000; -614.000
397.828;   38.275;  120.000;  -90.000
397.956;  -45.075; -508.000; -478.000
398.084;  -71.125; -767.000; -626.000
398.212;   36.700;  137.000;  124.000
398.340;   16.250;  -56.000;  159.000
398.468;   37.800; -390.000; -169.000
398.596; -117.450; -993.000; -953.000
398.724; -124.100; -762.000; -767.000
398.852; -157.575;-1024.000; -976.000
398.980;  -58.200; -560.000; -560.000
399.108;  -40.125; -982.000; -735.000
399.236;   38.625;   13.000;    8.000
399.363;   18.000;  222.000;  196.000
399.491;  -63.700; -404.000; -398.000
399.619; -124.700; -829.000; -800.000
399.747;  -89.500; -859.000; -771.000
399.875;   89.425;  220.000;  234.000
400.003;  -51.850; -359.000; -284.000
400.130;  -80.025; -421.000; -341.000
400.258;  -34.500;  -83.000;   38.000
400.386;  -63.125; -352.000; -168.000
400.514;  -42.250; -526.000; -587.000
400.641;  -79.700; -928.000; -802.000
400.769; -139.100; -979.000; -888.000
400.897; -110.500; -838.000; -793.000
401.025;  -20.000; -166.000; -152.000
401.152;  -10.600;  220.000;   38.000
401.280;  -84.150; -430.000; -429.000
401.408; -115.075; -712.000; -576.000
401.535; -107.475; -735.000; -758.000
401.663; -183.450;-1134.000;-1054.000
401.790;  -78.725; -514.000; -525.000
401.918;   39.350;  436.000;  405.000
402.046;  -24.575;  134.000;  122.000
402.173;  -30.125;  -18.000;    7.000
402.301;  -69.350; -519.000; -397.000
402.428;   33.350;  528.000;  383.000
402.556; -145.825;-1188.000; -913.000
402.683;  -21.400;  -20.000;   -1.000
402.811;  -17.675;  -37.000; -206.000
402.938;  -14.250;   20.000;   27.000
403.066;  231.000; -574.000; -558.000
403.193;  382.750;  299.000;  239.000
403.321;  287.750; -396.000; -574.000
403.448;  371.575;   83.000;   27.000
403.575;  157.400;  -90.000;  -46.000
403.703;  -86.275; -732.000; -557.000
403.830;  -61.775; -531.000; -496.000
403.957; -142.575;-1117.000;-1023.000
404.085;   -7.625;  -61.000; -172.000
404.212;  111.550;  -50.000;   63.000
404.339;  253.050; -566.000; -306.000
404.467; 5558.475; -612.000; -524.000
404.594; 3984.325; -287.000; -227.000
404.721; 1006.700; -869.000; -764.000
404.848;   84.650; -113.000; -202.000
404.976; -103.525; -856.000; -783.000
405.103;  -22.775;  -14.000;  -82.000
405.230;   14.750;  190.000;  226.000
405.357;   29.175;  117.000;   44.000
405.484;  263.425;  -49.000;    5.000
405.612;   56.450; -548.000; -563.000
405.739;  -52.050; -488.000; -243.000
405.866;   80.575;  669.000;  385.000
405.993;  -42.400; -398.000; -102.000
406.120; -134.325; -801.000; -887.000
406.247;  -50.150; -323.000; -342.000
406.374;  468.525;  540.000;  629.000
406.501;  151.550; -632.000; -702.000
406.628;  -83.075; -621.000; -589.000
406.755;  -74.250; -803.000; -620.000
406.882;  -40.625; -228.000; -277.000
407.009; -111.200; -719.000; -628.000
407.136;   63.050; -480.000; -401.000
407.263;  170.975; -939.000; -829.000
407.390;  -68.350; -692.000; -614.000
407.517; -157.825;-1139.000;-1187.000
407.644;  -53.250; -332.000; -256.000
407.771; -123.425; -249.000; -287.000
407.898;   -4.650;  168.000;  328.000
408.025;  -63.375; -421.000; -313.000
408.151;   -9.925;   82.000;  153.000
408.278;  -68.425; -267.000; -216.000
408.405; -104.925; -931.000; -899.000
408.532;  -71.650; -549.000; -542.000
408.659; -124.525; -677.000; -648.000
408.785; -186.425;-1298.000;-1170.000
408.912;  -62.900; -412.000; -296.000
409.039; -123.100; -610.000; -686.000
409.166;  -90.000; -591.000; -555.000
409.292; -106.300; -571.000; -534.000
409.419; -116.500; -665.000; -649.000
409.546;  -89.850; -431.000; -192.000
409.672; -115.400; -713.000; -545.000
409.799;   -8.500;  -36.000;   34.000
409.926;  -45.025; -180.000; -179.000
410.052; -168.225;-1127.000;-1091.000
410.179;  -53.075; -368.000; -392.000
410.305;  -91.800; -375.000; -493.000
410.432;  -50.950; -220.000; -333.000
410.558;  -91.700; -305.000; -380.000
410.685;  -92.750; -688.000; -431.000
410.812;  -86.750; -409.000; -588.000
410.938; -139.375; -964.000; -808.000
411.065;  -97.150; -671.000; -645.000
411.191;  -20.525; -189.000; -174.000
411.317; -118.850; -823.000; -742.000
411.444;  -60.425; -317.000; -246.000
411.570;  -59.875; -339.000; -294.000
411.697; -119.425; -758.000; -752.000
411.823; -153.700; -989.000; -999.000
411.949;  -39.450;  -56.000;   17.000
412.076; -111.725; -539.000; -519.000
412.202; -128.125; -758.000; -757.000
412.329; -122.175; -798.000; -752.000
412.455; -114.475; -821.000; -657.000
412.581;  -19.575;  -15.000;  172.000
412.707;  -56.900; -540.000; -457.000
412.834;   10.900;  156.000;  219.000
412.960;  -86.000; -785.000; -784.000
413.086;  -88.650; -743.000; -701.000
413.212;  162.100;  604.000;  578.000
413.339;  -45.350; -685.000; -701.000
413.465;    4.225; -364.000; -310.000
413.591; -104.875; -757.000; -474.000
413.717;  -67.000; -358.000; -366.000
413.843; -141.225; -839.000; -861.000
413.969;  -48.450;  -47.000; -292.000
414.096;  -79.950; -679.000; -679.000
414.222;  -15.700;  -33.000;   85.000
414.348;  -16.175; -652.000; -385.000
414.474;  110.400;   38.000;  -52.000
414.600;  -11.900; -126.000; -144.000
414.726;  -18.800;  -96.000;  -55.000
414.852;  -67.675; -365.000; -342.000
414.978;   33.000;  104.000;  -18.000
415.104;   38.850;   38.000;   80.000
415.230;   30.125; -329.000; -330.000
415.356;   36.575; -409.000; -514.000
415.482;  199.400;   13.000;  -35.000
415.608;  273.550; -247.000; -323.000
415.734;  951.100;   67.000;   38.000
415.860;19334.975; -875.000; -767.000
415.986;15030.125; -685.000; -607.000
416.111; 1311.875; -798.000; -652.000
416.237;  261.900; -424.000; -571.000
416.363; 1052.300; -765.000; -733.000
416.489; 4129.975; -324.000; -251.000
416.615;  469.925; -707.000; -742.000
416.741;   -3.500; -677.000; -784.000
416.866; -101.625; -673.000; -736.000
416.992; -122.050; -801.000; -818.000
417.118;  -36.100;  -41.000;  -80.000
417.244;  -54.425; -798.000; -531.000
417.369;  -77.825; -801.000; -612.000
417.495;  -19.300; -325.000; -254.000
417.621;  -75.900;-1015.000; -803.000
417.746;    5.175; -579.000; -572.000
417.872;   42.975; -254.000; -144.000
417.998;   34.575; -515.000; -530.000
418.123;  953.200;-1073.000; -845.000
418.249; 5340.175; -512.000; -601.000
418.374;  814.550; -916.000; -824.000
418.500;  114.600; -383.000; -482.000
418.626;  119.600;   70.000;  -59.000
418.751;  121.300; -549.000; -448.000
418.877;  207.350; -637.000; -643.000
419.002; 1674.450; -688.000; -560.000
419.128;12296.650; -930.000; -721.000
419.253; 3213.625; -967.000; -837.000
419.379;  425.250; -391.000; -338.000
419.504;  397.775;  325.000;  415.000
419.629;  517.575; -393.000; -212.000
419.755; 3252.650; -317.000; -254.000
419.880;20466.375;  -98.000;   67.000
420.006;11137.125; -280.000; -221.000
420.131;29327.450; -662.000; -775.000
420.256; 4519.075; -315.000; -316.000
420.382;  608.350; -665.000; -687.000
420.507;   72.975; -649.000; -778.000
420.632;  150.450; -337.000; -339.000
420.758;  281.350; -251.000; -425.000
420.883;  -69.050; -876.000; -672.000
421.008;  -93.225; -775.000; -619.000
421.133;  -73.300; -509.000; -467.000
421.259;  -52.225; -325.000; -259.000
421.384;  -99.950; -834.000; -693.000
421.509;  -31.925;-1052.000; -862.000
421.634; 1307.425; -936.000; -820.000
421.759;  621.375; -359.000; -327.000
421.885;  -38.575; -717.000; -656.000
422.010;  -76.850; -673.000; -542.000
422.135; -147.325; -695.000; -727.000
422.260;   34.950;  340.000;  280.000
422.385;  -45.375;   12.000;  -98.000
422.510;   15.175;  151.000;  -26.000
422.635;   33.375;  -87.000;  -43.000
422.760;  101.125; -766.000; -791.000
422.885;   64.975;  -57.000;  -80.000
423.010;  -36.325; -112.000; -169.000
423.135;  -86.550; -481.000; -561.000
423.260;  -10.800; -150.000; -245.000
423.385;   71.100;  476.000;  222.000
423.510;   40.325;   71.000;  -22.000
423.635;   83.350;  133.000;   45.000
423.760;   57.800;  383.000;  328.000
423.885;   60.225;  336.000;  391.000
424.010;    5.000;  -68.000;  -13.000
424.135;  -21.900;    5.000;  -33.000
424.259;  -87.850; -654.000; -457.000
424.384;  -65.375; -279.000; -272.000
424.509;  -29.050; -260.000; -186.000
424.634; -100.575; -761.000; -623.000
424.759;  -23.500; -688.000; -544.000
424.883;  -18.925; -506.000; -527.000
425.008;  149.950; -502.000; -410.000
425.133; 1955.550; -679.000; -653.000
425.258;  980.875; -517.000; -381.000
425.382; 1091.150; -867.000; -774.000
425.507; 2920.825; -487.000; -543.000
425.632;  502.075; -802.000; -663.000
425.756;  452.625; -256.000; -146.000
425.881; 5930.600; -831.000; -857.000
426.006;17159.900; -604.000; -355.000
426.130; 2873.700; -696.000; -508.000
426.255;  376.100; -611.000; -491.000
426.379;  170.775; -189.000; -577.000
426.504;  361.375;  660.000;  544.000
426.629; 3938.525; -519.000; -466.000
426.753; 2923.975;   64.000;  -46.000
426.878;  341.075; -252.000; -288.000
427.002;  170.250; -651.000; -668.000
427.127; 1506.550;  -35.000; -158.000
427.251;11152.875;  372.000;  401.000
427.375; 3451.950; -191.000; -173.000
427.500; 2473.050; -616.000; -610.000
427.624;  901.400; -234.000; -400.000
427.749;   93.850; -216.000; -225.000
427.873;  -27.775; -499.000; -412.000
427.997;  -39.025; -222.000; -230.000
428.122;   77.275;  795.000;  703.000
428.246;   76.850;  433.000;  434.000
428.371; -128.175; -869.000; -773.000
428.495; -106.750; -624.000; -646.000
428.619;  -33.450; -186.000; -117.000
428.743;   17.550;   65.000;  132.000
428.868;   21.750; -732.000; -643.000
428.992; 1507.025; -219.000; -326.000
429.116;  685.800; -329.000; -357.000
429.240;  309.000;  419.000;  426.000
429.365;   -4.850; -454.000; -574.000
429.489;  -22.775; -638.000; -647.000
429.613;   29.075; -236.000; -177.000
429.737;   40.300; -563.000; -432.000
429.861;  275.100; -247.000; -133.000
429.985; 5274.825; -425.000; -305.000
430.109; 6242.225; -770.000; -908.000
430.234;  746.025;   76.000;  -50.000
430.358;   73.200; -250.000; -160.000
430.482;  -55.925; -672.000; -564.000
430.606;  -73.500; -655.000; -375.000
430.730;   30.700; -437.000; -388.000
430.854;  162.450; -909.000; -835.000
430.978;  -61.300; -795.000; -764.000
431.102;  -81.275; -499.000; -422.000
431.226; -106.050; -874.000; -815.000
431.350;   31.975;  345.000;  422.000
431.474;  -80.800; -661.000; -373.000
431.597; -140.075;-1060.000; -848.000
431.721;  -91.100; -276.000; -267.000
431.845; -134.725; -704.000; -472.000
431.969;  -83.125; -304.000; -349.000
432.093;  -86.450; -395.000; -317.000
432.217;  -25.500;   32.000;   82.000
432.341;  -86.800; -523.000; -518.000
432.464;    6.625;   96.000;   40.000
432.588;  231.300; -401.000; -329.000
432.712;  123.125;  -52.000;  -52.000
432.836;   50.300;  213.000;  263.000
432.959;  -37.500; -372.000; -311.000
433.083;   76.150;   11.000;    2.000
433.207;  355.325;  285.000;  930.000
433.330; 4757.600; -391.000; -200.000
433.454; 6238.125; -654.000; -638.000
433.578; 3583.250;  583.000;  278.000
433.701;  713.525; -623.000; -675.000
433.825;  169.050; -292.000; -299.000
433.949;  189.975;   28.000;  -72.000
434.072;   80.800; -410.000; -323.000
434.196;  -17.750; -309.000; -117.000
434.319; 3575.750;25482.000;25124.000
434.443;  693.350; -656.000; -603.000
434.566; 2655.950;  281.000;   62.000
434.690;  493.275; -637.000; -383.000
434.813;   59.175; -251.000; -173.000
434.937;  -76.050; -569.000; -696.000
435.060;  -49.350; -423.000; -332.000
435.184;  342.500; -492.000; -217.000
435.307;  226.225;  159.000;  102.000
435.431;   -2.950;  -40.000;   24.000
435.554;  -72.900; -399.000; -240.000
435.677;  -87.775; -350.000; -258.000
435.801;  -40.150;  -25.000;   49.000
435.924;  -16.250;    1.000;  -67.000
436.048; -100.825;-1019.000; -732.000
436.171;  -77.700; -240.000;  -66.000
436.294;  -38.300; -248.000; -229.000
436.417;   98.350; -963.000; -849.000
436.541;  -63.450; -814.000; -840.000
436.664;  -51.700; -242.000; -316.000
436.787;  -30.300;   13.000;  113.000
436.910; -115.425; -792.000; -422.000
437.034;    9.600;  142.000;  143.000
437.157;   63.025;  -11.000;    0.000
437.280;  -30.425; -392.000; -292.000
437.403;  -82.100; -982.000; -869.000
437.526;  681.250; -903.000; -865.000
437.649; 2582.375; -505.000; -332.000
437.772;  444.750; -692.000; -540.000
437.896;  125.350;  700.000;  544.000
438.019;  -86.300; -758.000; -503.000
438.142;  -88.975; -596.000; -506.000
438.265;    4.875; -639.000; -670.000
438.388;  638.875; -520.000; -410.000
438.511;  150.975; -597.000; -394.000
438.634;  -30.725; -247.000; -125.000
438.757; -129.525; -693.000; -619.000
438.880;  -27.275;  -34.000;  -57.000
439.003;  -66.925; -417.000; -437.000
439.126;  -71.200; -287.000; -167.000
439.248;  -59.075;  -98.000; -139.000
439.371;  -67.425;    9.000;  -53.000
439.494;   18.475;  510.000;  439.000
439.617;  -56.600;   65.000;  -88.000
439.740; -168.575; -968.000; -816.000
439.863; -135.900; -755.000; -595.000
439.986; -123.925; -476.000; -431.000
440.108;  -60.025; -161.000; -112.000
440.231; -159.400; -950.000; -836.000
440.354;  -52.725;  -64.000; -150.000
440.477;   58.825; -566.000; -542.000
440.599;    8.325; -200.000; -225.000
440.722; -116.050; -709.000; -586.000
440.845;   51.400;  751.000;  928.000
440.968; -110.350; -415.000; -311.000
441.090;  -68.400; -199.000;  -33.000
441.213; -161.225;-1021.000; -825.000
441.336;  -51.625; -159.000;   -5.000
441.458;  -74.675; -549.000; -396.000
441.581;  -81.675; -628.000; -629.000
441.703;  -62.525; -152.000;   13.000
441.826; -101.100; -557.000; -400.000
441.948;  -46.725;   56.000;   51.000
442.071;   26.975;  555.000;  424.000
442.193; -109.500; -531.000; -485.000
442.316;   11.350;  152.000;   97.000
442.438;   45.375; -233.000;  -10.000
442.561;   76.400;  272.000;  262.000
442.683;  585.250; -809.000; -522.000
442.806; 1341.225;   -8.000;   74.000
442.928;   59.925; -859.000; -604.000
443.051;  -69.475; -577.000; -373.000
443.173; -101.775; -341.000; -339.000
443.295;  -80.900; -263.000; -371.000
443.418;  -74.850; -321.000;  -29.000
443.540;    5.400; -106.000;   -4.000
443.662; -120.500; -563.000; -465.000
443.785;  -11.475;  335.000;  199.000
443.907;  -98.100; -362.000; -208.000
444.029; -127.550; -767.000; -494.000
444.152; -132.850; -644.000; -554.000
444.274;  -34.225;  -18.000;  -24.000
444.396; -108.575; -461.000; -221.000
444.518; -138.150; -691.000; -454.000
444.640; -107.275; -268.000; -111.000
444.763;  -22.225;  388.000;  249.000
444.885; -125.775; -432.000; -392.000
445.007;  -32.300;   35.000;   86.000
445.129; -103.575; -610.000; -515.000
445.251; -111.325; -372.000; -439.000
445.373; -138.625; -537.000; -386.000
445.495;   -1.775;  242.000;  350.000
445.617;   45.250;  853.000;  753.000
445.739;  -80.100; -215.000;  -97.000
445.861;  -23.725; -245.000; -112.000
445.984;  -44.700; -267.000; -101.000
446.105;  222.750; -418.000; -251.000
446.227;  689.000; -176.000;  -19.000
446.349;   30.525; -358.000; -249.000
446.471; -113.600; -615.000; -448.000
446.593;  -49.475; -316.000;   19.000
446.715;    0.025;  -67.000;   41.000
446.837;   56.950;  697.000;  832.000
446.959;  -99.850; -457.000; -478.000
447.081; -134.300; -628.000; -518.000
447.203;   45.075;  862.000;  834.000
447.325; -101.075; -270.000;   42.000
447.446;  -13.675;  286.000;  530.000
447.568; -143.050; -921.000; -803.000
447.690;  -77.350; -236.000; -245.000
447.812; -144.375; -798.000; -519.000
447.933;  -35.675;  155.000;  127.000
448.055;  -69.300; -306.000; -261.000
448.177;  137.525;   31.000;   79.000
448.299;  110.300; -935.000; -727.000
448.420;   27.300;  -25.000;  159.000
448.542;  -36.325;   -3.000;   33.000
448.664;  -33.175;  109.000;  322.000
448.785;  -41.725;  265.000;   83.000
448.907;  -72.700; -614.000; -353.000
449.028;  -12.400; -771.000; -471.000
449.150;   61.975;  492.000;  589.000
449.272; -176.250;-1044.000; -913.000
449.393;   16.725;  612.000;  694.000
449.515; -134.625; -634.000; -581.000
449.636;  -68.550; -264.000; -155.000
449.758;   73.300;  763.000;  622.000
449.879; -111.500; -498.000; -396.000
450.001;  -77.950; -149.000;  -49.000
450.122;  -43.200;  -95.000;  162.000
450.244;  -34.250;   37.000;  364.000
450.365;  -87.700; -495.000; -301.000
450.486;  -35.625;   80.000;  268.000
450.608;   20.200;  393.000;  326.000
450.729;   59.125;  578.000;  645.000
450.850;   -1.925; -574.000; -466.000
450.972;  677.250; -552.000; -389.000
451.093; 4691.575;  190.000;  588.000
451.214; 2209.775; -516.000; -337.000
451.336;  369.300;  773.000;  579.000
451.457;   60.850;  264.000;  393.000
451.578;  -49.150; -118.000;  -74.000
451.699; -126.200; -546.000; -540.000
451.821;  -86.675; -284.000;  -50.000
451.942;  -34.375;  278.000;  285.000
452.063;   35.650;  228.000;  419.000
452.184;  514.075;  -54.000;  -49.000
452.305; 1100.725;  103.000;  170.000
452.427;  161.850; -549.000; -301.000
452.548;  -20.850;   23.000;   79.000
452.669;  -46.925; -257.000;  -89.000
452.790;  -43.225;    3.000;  -18.000
452.911;    0.825;  195.000;  259.000
453.032;  -71.725; -289.000;  -60.000
453.153;  -38.550;  -29.000;   81.000
453.274;   56.575;  737.000;  868.000
453.395;  -52.050;  -51.000;  175.000
453.516;  132.925; 1317.000; 1388.000
453.637;  -62.475; -205.000; -150.000
453.758;  -59.675;   15.000;   69.000
453.879; -119.725; -462.000; -250.000
454.000;   71.225; 1086.000;  948.000
454.121; -115.150; -554.000; -326.000
454.242; -112.650; -599.000; -383.000
454.362;  -58.475;  -99.000;  114.000
454.483;  -41.400; -309.000; -229.000
454.604;   38.700;  512.000;  580.000
454.725; -110.575; -627.000; -555.000
454.846;  -97.875; -474.000; -406.000
454.967;  -35.475;  230.000;  539.000
455.087;  -43.025;  179.000;  153.000
455.208;   21.600;  554.000;  856.000
455.329;  -56.075;  -22.000;   82.000
455.450;   27.500;  473.000;  633.000
455.570;  -70.050; -234.000; -211.000
455.691;  -44.225;  201.000;  407.000
455.812; -119.100; -270.000;  -92.000
455.932;  -68.175;  107.000;  -97.000
456.053;  -81.200;   36.000;   24.000
456.173; -119.000; -433.000; -355.000
456.294; -132.075; -476.000; -303.000
456.415;  -63.450;  -73.000;   70.000
456.535;  -30.025;  297.000;  273.000
456.656;  -38.825;  132.000;  240.000
456.776;  -69.300;    3.000;  298.000
456.897;  -11.750;  308.000;  513.000
457.017;  -71.075; -153.000;   -3.000
457.138;  -98.875; -402.000; -249.000
457.258;  -24.225;  263.000;  224.000
457.379;   -5.525;  509.000;  521.000
457.499;  -30.000;  443.000;  432.000
457.620; -131.600; -407.000; -231.000
457.740;  -92.025; -132.000;  -11.000
457.860;  -56.600;   87.000;   44.000
457.981;  -36.125;  132.000;  124.000
458.101;  -77.400;  -89.000;   40.000
458.221;  -20.225;  336.000;  402.000
458.342;  -66.825;   -4.000;  -37.000
458.462;   17.875;  617.000;  352.000
458.582;  -43.750; -302.000; -294.000
458.703;    7.000;  303.000;  154.000
458.823;  -20.925;   22.000;  163.000
458.943;   26.075;  341.000;  467.000
459.063;  -15.325; 1124.000;  192.000
459.183;  -22.950;  328.000;  313.000
459.304;   -2.775;  315.000;  517.000
459.424;  -47.875; -246.000;  -89.000
459.544;  302.600;  388.000;  764.000
459.664;  812.925;  499.000;  506.000
459.784;  342.550; 1004.000; 1175.000
459.904;   69.600;  867.000;  744.000
460.024;   60.275;  867.000;  684.000
460.144;    7.300;  449.000;  554.000
460.264;    5.200;  515.000;  327.000
460.385; -101.675; -145.000; -119.000
460.505;   25.525;  905.000;  858.000
460.625;  -95.850;  -17.000;  -68.000
460.745;  -23.600;  396.000;  541.000
460.864;  -44.950;  153.000;  469.000
460.984;   15.475;  499.000;  573.000
461.104;  139.400; 1656.000; 1775.000
461.224;   27.000;  657.000;  650.000
461.344;  -15.500;  431.000;  360.000
461.464;  -34.175;  258.000;  513.000
461.584;  -16.000;  283.000;  466.000
461.704;  -39.100;   58.000;  108.000
461.824;  -61.250;  238.000;  259.000
461.943;  -53.125;  191.000;  130.000
462.063;  -70.525;    2.000;  324.000
462.183;   18.475;  639.000;  717.000
462.303;  100.025; 1678.000; 1230.000
462.422;   24.800;  781.000;  840.000
462.542;  -39.625;  271.000;  391.000
462.662;   34.775;  353.000;  380.000
462.782;  259.375;  833.000;  572.000
462.901;  498.325;  545.000;  717.000
463.021;  302.025; 1702.000; 1638.000
463.141;  -10.800;  337.000;  770.000
463.260;  -12.025;  614.000;  474.000
463.380;    1.100;  902.000;  884.000
463.499;  -28.350;  342.000;  332.000
463.619;  -46.000;  581.000;  559.000
463.738;  107.875; 1644.000;  903.000
463.858;   10.725;  657.000;  811.000
463.978;  -31.900;  542.000;  396.000
464.097;   46.400;  921.000; 1114.000
464.217;  110.875; 1196.000; 1143.000
464.336;  102.925; 1068.000; 1130.000
464.455;  -31.000;  328.000;  659.000
464.575;   34.100;  597.000;  602.000
464.694;  165.900; 1204.000; 1179.000
464.814;  121.550; 1190.000; 1138.000
464.933;   88.975; 1095.000; 1027.000
465.052;  101.400; 1412.000; 1054.000
465.172;   87.325;  922.000;  799.000
465.291;  131.725; 1376.000; 1320.000
465.410;    7.350;  462.000;  735.000
465.530;   74.525; 1355.000; 1310.000
465.649;   72.125; 1209.000; 1273.000
465.768;  140.000; 1673.000; 1508.000
465.888;   40.175;  941.000; 1174.000
466.007;  106.850; 1335.000; 1440.000
466.126;    0.225;  721.000;  641.000
466.245;   45.300; 1176.000; 1187.000
466.364;   25.700;  950.000; 1060.000
466.484;   61.150; 1024.000; 1213.000
466.603;   51.725; 1101.000; 1222.000
466.722;  132.700; 1490.000; 1769.000
466.841;   97.025; 1151.000; 1401.000
466.960;   35.550; 1069.000;  972.000
467.079;  143.075; 1971.000; 1786.000
467.198;   57.900; 1238.000; 1181.000
467.317;   80.600; 1768.000; 1162.000
467.436;   77.225; 1709.000; 1261.000
467.555;  122.350; 1796.000; 1746.000
467.674;   62.375; 1227.000; 1329.000
467.793;   40.900; 1376.000; 1374.000
467.912;   91.325; 1658.000; 1539.000
468.031;  135.475; 2038.000; 1930.000
468.150;  140.675; 1842.000; 1837.000
468.269;  187.025; 2313.000; 2090.000
468.388;  173.575; 2168.000; 2339.000
468.507;  249.825; 2884.000; 2903.000
468.626;  263.400; 2555.000; 2541.000
468.744;  137.200; 2018.000; 2174.000
468.863;  183.850; 2312.000; 2523.000
468.982;   99.425; 1503.000; 1555.000
469.101;  226.150; 2788.000; 2692.000
469.220;  161.500; 2333.000; 2176.000
469.338;  260.375; 2935.000; 3051.000
469.457;  202.400; 2719.000; 2545.000
469.576;  355.950; 3953.000; 3784.000
469.695;  247.950; 2877.000; 3066.000
469.813;  430.050; 4148.000; 4192.000
469.932;  404.725; 4255.000; 4485.000
470.051;  434.675; 4075.000; 4161.000
470.169;  833.625; 4470.000; 4338.000
470.288; 1439.550; 4700.000; 4809.000
470.406;  889.250; 5059.000; 5194.000
470.525;  618.850; 6101.000; 5787.000
470.644;  652.375; 6847.000; 6794.000
470.762;  793.950; 8397.000; 7873.000
470.881;  886.125; 8651.000; 8464.000
470.999; 1041.925; 9685.000; 9151.000
471.118; 1119.425;11174.000;10711.000

