
Integration time [ms]: 100.000
Averaging Nr. [scans]: 40
Smoothing Nr. [pixels]: 0
Data measured with spectrometer [name]: 2101012U2
Wave   ;Sample   ;Dark     ;Reference
[nm]   ;[counts] ;[counts] ;[counts] 

197.733;   64.300;  516.000;  404.000
197.879;  -83.700; -610.000; -634.000
198.025;  -41.850; -475.000; -420.000
198.171;  -73.875; -602.000; -612.000
198.317;  -31.425; -401.000; -316.000
198.463;  -56.775; -655.000; -404.000
198.609;   37.275;  181.000; -137.000
198.755;  -76.100; -644.000; -410.000
198.901;  -61.050; -505.000; -424.000
199.047;  -54.400; -615.000; -488.000
199.193;  -37.225; -230.000; -468.000
199.339;  -30.875; -222.000; -369.000
199.485;   57.700;  330.000;  271.000
199.631;    9.525;  227.000;  310.000
199.777;  -44.200; -466.000; -398.000
199.923;  -62.875; -610.000; -424.000
200.069;    5.650; -141.000;  -58.000
200.215;   70.150;  128.000;  453.000
200.361;   54.725;  243.000;  477.000
200.507;  -61.050; -600.000; -373.000
200.653;  -11.425; -371.000; -194.000
200.798;  -35.400; -215.000; -125.000
200.944;    6.325; -146.000;  -41.000
201.090;   29.775;   61.000;  222.000
201.236;   -0.625; -116.000; -158.000
201.382;  131.600;  874.000;  903.000
201.528;   18.125;  -58.000;  -48.000
201.674;  -32.750; -386.000; -293.000
201.819;  -67.850; -540.000; -439.000
201.965;  -74.950; -699.000; -447.000
202.111;  -15.525; -273.000; -226.000
202.257;  -33.450; -250.000; -238.000
202.402;   22.025;   13.000;  -36.000
202.548;  -15.350; -169.000; -116.000
202.694;   86.800;  410.000; -183.000
202.840;  -65.425; -603.000; -531.000
202.985;  -63.225; -681.000; -639.000
203.131; -113.500; -832.000; -666.000
203.277;  -20.625; -199.000; -262.000
203.423;  -43.475; -434.000; -520.000
203.568;  -28.100; -462.000; -237.000
203.714;  -41.325; -535.000; -542.000
203.860;  -76.975; -682.000; -641.000
204.005;   17.250;  112.000;  167.000
204.151;   74.425;  561.000;  556.000
204.296;  -38.275; -354.000; -221.000
204.442;  -71.125; -600.000; -547.000
204.588;  -71.600; -592.000; -579.000
204.733;   21.750;  178.000;  168.000
204.879; -116.150;-1018.000; -822.000
205.025;   23.150;  -99.000;  126.000
205.170;    0.050;  -17.000;   94.000
205.316;   90.125;  438.000;  661.000
205.461;  -83.975; -698.000; -554.000
205.607;   83.325;  609.000;  665.000
205.752;  -66.950; -626.000; -551.000
205.898;  -47.850; -501.000; -391.000
206.043;  -52.275; -578.000; -506.000
206.189;  -40.275; -243.000; -285.000
206.334;   88.925;  554.000;  606.000
206.480;   97.100;  409.000;  239.000
206.625;  -76.725; -529.000; -552.000
206.771;  -35.600; -451.000; -373.000
206.916;  -23.775; -210.000; -537.000
207.062;  -63.150; -545.000; -591.000
207.207;  -59.075; -546.000; -443.000
207.353;   56.150;  185.000;  460.000
207.498;   20.025;  196.000;   85.000
207.643;  -48.025; -501.000; -370.000
207.789; -119.750;-1069.000; -910.000
207.934;  -79.275; -665.000; -713.000
208.080;  -26.500; -154.000;   66.000
208.225;    2.700;  -22.000;  -57.000
208.370;  -79.625; -727.000; -619.000
208.516;  -67.025; -741.000; -487.000
208.661;  -34.300; -127.000;  -69.000
208.806;   -8.375; -165.000; -171.000
208.952; -124.350;-1044.000; -731.000
209.097;   81.675;  378.000;  349.000
209.242;  -36.725; -307.000; -382.000
209.387;   70.025;  392.000;  350.000
209.533;  -43.750; -321.000; -350.000
209.678;   87.825;  472.000;  543.000
209.823;  -45.675; -408.000; -310.000
209.969;  -90.025; -860.000; -757.000
210.114; -106.150; -907.000; -719.000
210.259; -101.825; -939.000; -889.000
210.404;   -9.800; -171.000;  103.000
210.549;   25.875;  108.000;    3.000
210.695;   -8.600;   -3.000;  -95.000
210.840;   31.250;   94.000;   67.000
210.985;  -64.525; -484.000; -303.000
211.130;   81.650;  268.000;  406.000
211.275;   21.550;  207.000;  199.000
211.420;  -44.700; -300.000; -289.000
211.566;  -74.425; -536.000; -489.000
211.711;   26.475;  218.000;  157.000
211.856;  -52.525; -545.000; -519.000
212.001;   13.300;  151.000;   44.000
212.146;   25.300;  153.000;   49.000
212.291;  -12.425; -210.000; -186.000
212.436;  -26.875; -280.000;   -6.000
212.581;  -80.325; -685.000; -653.000
212.726;  -68.900; -487.000; -538.000
212.871;  -32.850; -552.000; -217.000
213.016; -136.925;-1172.000;-1029.000
213.161;   64.825;  406.000;  291.000
213.306;  -73.650; -435.000; -577.000
213.451;  -99.450; -778.000; -689.000
213.596;  -55.200; -455.000; -347.000
213.741;  -50.325; -448.000; -538.000
213.886;  -76.800; -498.000; -517.000
214.031;   -5.650; -294.000; -124.000
214.176;  -47.375; -408.000; -341.000
214.321;   -7.800; -296.000; -157.000
214.466;   -9.925; -163.000;  -43.000
214.611;   10.275;  -61.000;  -10.000
214.756; -120.950; -948.000; -858.000
214.901;  -14.225; -388.000; -226.000
215.046; -113.950; -797.000; -825.000
215.191;   31.925;  128.000;   35.000
215.336;   -7.850; -157.000;  -19.000
215.480;  -50.550; -684.000; -505.000
215.625;  -17.650; -175.000;  -19.000
215.770;  -69.975; -757.000; -662.000
215.915;  -10.350;   -5.000;  -97.000
216.060;    4.775; -113.000;  -21.000
216.205; -103.225; -731.000; -779.000
216.349;  -77.625; -470.000; -533.000
216.494; -129.225; -939.000; -867.000
216.639; -107.875; -823.000; -888.000
216.784;  -76.200; -577.000; -525.000
216.929;   61.775;  392.000;  281.000
217.073;    4.425; -244.000;  -31.000
217.218;   16.200;   78.000;  -47.000
217.363;  -83.225; -656.000; -618.000
217.507;  -77.850; -623.000; -588.000
217.652; -112.350; -845.000; -874.000
217.797;  -85.250; -708.000; -659.000
217.942; -104.975; -856.000; -720.000
218.086;   80.350;  608.000;  539.000
218.231;  -20.600; -174.000;  -26.000
218.376;  -25.425; -337.000; -229.000
218.520;   -7.300;  -41.000;   96.000
218.665;  -28.450; -338.000; -204.000
218.810;  -49.300; -275.000; -233.000
218.954;   15.925;  201.000;   35.000
219.099; -103.225; -713.000; -963.000
219.243;  -68.875; -589.000; -554.000
219.388;  -25.175; -264.000; -136.000
219.532;   -8.375; -116.000; -116.000
219.677;  -71.075; -564.000; -521.000
219.822;   10.850;   33.000;   89.000
219.966;   12.500;   17.000;  -99.000
220.111;  -31.900; -328.000;  -40.000
220.255;  -94.425; -797.000; -750.000
220.400;  -17.000; -180.000; -146.000
220.544;  -72.825; -516.000; -450.000
220.689;  -47.875; -422.000; -451.000
220.833;   -6.375; -123.000;  -58.000
220.978;  -44.725; -393.000; -563.000
221.122;   19.950;  319.000;  307.000
221.267; -109.950; -906.000; -837.000
221.411;  -52.925; -478.000; -394.000
221.555;   -4.550; -104.000;  -23.000
221.700;  -54.975; -329.000; -222.000
221.844;   44.250;  255.000;  272.000
221.989;  -47.500; -328.000; -311.000
222.133;  -32.725; -289.000; -307.000
222.277;   -9.100;    5.000;   78.000
222.422;   13.875;  227.000;  113.000
222.566;  -32.375; -381.000; -214.000
222.711;  -48.500; -414.000; -479.000
222.855;  -71.625; -643.000; -586.000
222.999;  -78.475; -642.000; -717.000
223.144;  -34.000; -195.000; -194.000
223.288;   59.425;  423.000;  251.000
223.432;   24.700;  184.000;  230.000
223.576;   17.600;  152.000;  -21.000
223.721;   40.800;  364.000;  273.000
223.865;  -53.250; -472.000; -475.000
224.009;  241.300; 1673.000; 1631.000
224.153;  -67.450; -660.000; -671.000
224.298;  -61.200; -531.000; -489.000
224.442;   -8.525;  -74.000;  -33.000
224.586;    0.225; -169.000; -106.000
224.730;  -89.650; -858.000; -670.000
224.875; -106.000; -739.000; -688.000
225.019;   30.625;  102.000;  188.000
225.163;   56.025;  208.000;  341.000
225.307;   20.100;   97.000;  -91.000
225.451;   53.875;  360.000;  481.000
225.595;   43.675;  264.000;  176.000
225.739;  -27.225; -170.000;  -94.000
225.884;   13.050;   86.000;    5.000
226.028;  -94.225; -760.000; -626.000
226.172;  -27.900; -260.000; -273.000
226.316; -103.725; -941.000; -902.000
226.460;  -57.850; -645.000; -493.000
226.604;  -37.550; -406.000; -400.000
226.748;  -97.900; -836.000; -733.000
226.892;  -27.250; -227.000; -181.000
227.036;  -37.450; -537.000; -447.000
227.180;  -57.925; -551.000; -375.000
227.324;  -53.050; -561.000; -580.000
227.468; -105.625; -819.000; -717.000
227.612;   11.075;  242.000;  -28.000
227.756;  -96.150; -845.000; -698.000
227.900;   62.000;  342.000;  441.000
228.044;  -62.400; -509.000; -290.000
228.188;   75.300;  448.000;  568.000
228.332;  -91.000; -546.000; -472.000
228.476;  -22.150; -223.000; -149.000
228.620;  -11.675; -210.000; -150.000
228.764;   70.400;  431.000;  349.000
228.908;  -13.950; -155.000;   30.000
229.052;  -57.675; -615.000; -528.000
229.195;   -2.825; -172.000;   13.000
229.339;  -13.725; -235.000; -305.000
229.483;  -27.550;    5.000; -162.000
229.627;  -11.075; -156.000;  139.000
229.771;  -47.525; -218.000; -294.000
229.915;   12.125;  230.000;   79.000
230.059;  -79.975; -648.000; -663.000
230.202;  -28.500; -370.000; -317.000
230.346;  -19.450; -107.000;  107.000
230.490;  -54.250; -489.000; -521.000
230.634; -109.500; -736.000; -553.000
230.777;   76.900;  478.000;  509.000
230.921;  -51.475; -450.000; -359.000
231.065;  -35.075; -246.000; -286.000
231.209;   36.650;  261.000;  265.000
231.352;   23.450;   54.000;   40.000
231.496;   24.725;  568.000;  188.000
231.640;  -72.950; -693.000; -621.000
231.783;   60.550;  546.000;  525.000
231.927;  -33.450; -294.000; -365.000
232.071; -110.675; -962.000; -736.000
232.214; -100.900; -980.000; -764.000
232.358;  -97.700; -683.000; -599.000
232.502;    7.625;  -19.000;    7.000
232.645; -137.100;-1090.000; -927.000
232.789;  -10.800; -257.000; -218.000
232.933;  -40.325; -407.000; -224.000
233.076; -126.325;-1038.000; -897.000
233.220; -105.925; -752.000; -777.000
233.363;  -75.375; -669.000; -477.000
233.507;   61.150;  371.000;  129.000
233.650;  -88.775; -764.000; -834.000
233.794;   57.025;  438.000;  461.000
233.938;  -48.500; -530.000; -362.000
234.081;   -6.600;  -93.000;   31.000
234.225;  -60.625; -631.000; -539.000
234.368; -106.175; -773.000; -723.000
234.512;  -28.875; -385.000; -299.000
234.655;  -82.525; -582.000; -555.000
234.798;  -67.200; -493.000; -466.000
234.942; -118.975; -884.000;-1002.000
235.085;  -73.375; -651.000; -443.000
235.229;  -71.700; -405.000; -410.000
235.372;  -44.700; -247.000; -191.000
235.516;  -46.125; -397.000; -321.000
235.659;   21.800;   92.000;  121.000
235.802;   -4.275;  -38.000;  -22.000
235.946;   32.400;  335.000;  215.000
236.089;   41.175;  126.000;  250.000
236.233;   45.075;  275.000;  298.000
236.376;  -45.500; -235.000; -378.000
236.519;  -41.950; -297.000; -319.000
236.663;  -14.350; -215.000; -117.000
236.806; -126.850;-1029.000; -999.000
236.949;   53.925;  543.000;  431.000
237.092;   68.000;  412.000;  391.000
237.236;  -76.550; -589.000; -502.000
237.379;   59.450;  352.000;  428.000
237.522; -106.900; -879.000; -768.000
237.666;   -9.675; -271.000;   18.000
237.809; -118.575; -851.000; -823.000
237.952;   27.675;  469.000;  271.000
238.095;  -61.075; -447.000; -442.000
238.238;   89.650;  688.000;  700.000
238.382;   -6.025;  166.000;  103.000
238.525;  -70.575; -598.000; -511.000
238.668; -144.775;-1060.000; -985.000
238.811;  -70.350; -638.000; -643.000
238.954;  -55.850; -483.000; -334.000
239.097;   84.625;  617.000;  664.000
239.241;   20.650;  394.000;  326.000
239.384;  -27.550; -254.000; -214.000
239.527;  -60.975; -424.000; -224.000
239.670; -123.525; -994.000;-1091.000
239.813; -105.950; -696.000; -658.000
239.956;   81.000;  579.000;  473.000
240.099; -100.250; -778.000; -725.000
240.242;   69.050;  428.000;  432.000
240.385;   38.775;  466.000;  450.000
240.528;  -68.025; -706.000; -473.000
240.671;   18.125;  189.000;  134.000
240.814;  -47.975; -441.000; -158.000
240.957;  -92.250; -767.000; -578.000
241.100;  -84.425; -779.000; -755.000
241.243; -138.025;-1234.000; -893.000
241.386;  -42.275; -508.000; -379.000
241.529;  -78.275; -735.000; -547.000
241.672;  -68.750; -566.000; -495.000
241.815; -108.700; -832.000; -808.000
241.958;  -20.125; -125.000; -182.000
242.101;  -80.200; -545.000; -390.000
242.244;  -26.000; -270.000; -325.000
242.387;  -44.975; -304.000; -246.000
242.530;   62.600;  470.000;  134.000
242.673;  -49.475; -381.000; -309.000
242.815; -120.075; -925.000; -899.000
242.958;  -70.375; -482.000; -381.000
243.101;   17.025;  132.000;  187.000
243.244;  -56.450; -564.000; -521.000
243.387;  -39.500; -313.000; -316.000
243.530; -100.650; -657.000; -674.000
243.672;    2.525;   43.000;  -92.000
243.815;  -55.150; -355.000; -283.000
243.958;    0.000;   98.000;  -26.000
244.101;  -11.950;   59.000;  -16.000
244.243;    0.150;  -47.000;  101.000
244.386; -112.675; -761.000; -630.000
244.529;  -18.925; -132.000; -139.000
244.672; -154.175;-1154.000; -951.000
244.814;  -84.975; -621.000; -794.000
244.957;  -52.700; -380.000; -304.000
245.100;  -76.550; -489.000; -489.000
245.242;  -48.375; -387.000; -374.000
245.385;    3.050;  -59.000;  -39.000
245.528; -117.325; -871.000; -705.000
245.670;   88.650;  612.000;  634.000
245.813;  -79.200; -599.000; -547.000
245.956;  -19.200; -324.000; -275.000
246.098;  -74.600; -508.000; -650.000
246.241;    3.950;  194.000;   48.000
246.383;  -15.300; -119.000;  -73.000
246.526;  -58.075; -454.000; -525.000
246.669; -119.550; -889.000; -780.000
246.811;   16.275;  172.000;   -1.000
246.954;  -57.275; -512.000; -426.000
247.096;  -12.450;  -84.000;   -6.000
247.239;  -60.400; -482.000; -445.000
247.381;  -59.950; -647.000; -488.000
247.524;   84.700;  645.000;  679.000
247.666;    7.125;   58.000;   11.000
247.809;  -97.350; -887.000; -691.000
247.951;    5.950;  -75.000;  138.000
248.094;   32.900;  432.000;  308.000
248.236; -145.375;-1262.000;-1238.000
248.378;   10.725; -356.000;  -81.000
248.521;  -20.300; -334.000; -337.000
248.663;  -35.350; -236.000; -267.000
248.806;  -18.025; -300.000; -266.000
248.948;  -92.475; -886.000; -763.000
249.090;  -30.775; -428.000; -398.000
249.233;  -44.725; -344.000; -381.000
249.375;  -57.200; -474.000; -451.000
249.518;  -16.675;  -83.000; -133.000
249.660;   -6.075; -103.000;    3.000
249.802; -144.825;-1303.000;-1189.000
249.945;  -75.225; -612.000; -540.000
250.087; -107.775; -834.000; -768.000
250.229;  -35.700; -362.000; -480.000
250.371;  -65.350; -494.000; -439.000
250.514;  -38.575; -310.000; -244.000
250.656;    5.075;   69.000;  102.000
250.798; -109.825; -849.000; -800.000
250.940;  -57.175; -322.000; -322.000
251.083;  -18.300; -335.000; -111.000
251.225;   56.350;  338.000;  310.000
251.367;  -48.775; -274.000; -373.000
251.509;  -33.450; -265.000; -210.000
251.651;  -91.150; -731.000; -671.000
251.794;   57.850;  538.000;  632.000
251.936;  -95.400; -821.000; -747.000
252.078;  -76.450; -540.000; -461.000
252.220;  -57.375; -645.000; -477.000
252.362;   84.775;  344.000;  462.000
252.504;  -66.775; -677.000; -584.000
252.646; -103.625; -875.000; -722.000
252.788;   -5.700;   14.000; -128.000
252.931;  -31.800; -257.000; -253.000
253.073;  -35.050; -376.000; -317.000
253.215;    7.475;  141.000;  122.000
253.357;   -2.075;   82.000; -153.000
253.499;  -47.950; -374.000; -234.000
253.641;  -76.500; -749.000; -594.000
253.783;  -94.750; -609.000; -527.000
253.925;  -74.575; -586.000; -591.000
254.067; -115.825; -744.000; -667.000
254.209;  -21.225; -391.000; -259.000
254.351; -133.350; -865.000; -883.000
254.493;  -62.400; -441.000; -417.000
254.635; -130.625; -936.000; -818.000
254.777;  -89.200; -752.000; -687.000
254.918;  -66.850; -512.000; -430.000
255.060;  -55.150; -551.000; -395.000
255.202;  -41.525; -473.000; -261.000
255.344;  -74.275; -658.000; -455.000
255.486;  -67.000; -471.000; -406.000
255.628;  -98.225; -780.000; -781.000
255.770;  -75.375; -676.000; -536.000
255.912;  -63.575; -559.000; -468.000
256.053;  -73.250; -730.000; -508.000
256.195;  162.675; 1008.000;  903.000
256.337;  -99.000; -861.000; -595.000
256.479;   73.975;  532.000;  416.000
256.621;  -57.575; -394.000; -212.000
256.762;  -89.375; -789.000; -742.000
256.904;   67.400;  485.000;  487.000
257.046;  -42.775; -381.000; -271.000
257.188;  -32.650; -351.000; -264.000
257.329;  -57.825; -525.000; -464.000
257.471; -125.150; -939.000; -807.000
257.613;  -51.575; -584.000; -498.000
257.755; -138.975;-1073.000; -982.000
257.896;   43.100;  286.000;  392.000
258.038;  -71.575; -403.000; -352.000
258.180;  -33.575; -354.000; -279.000
258.321;  -80.000; -581.000; -457.000
258.463;   -3.225;  -71.000;  133.000
258.605;  -97.175; -562.000; -570.000
258.746; -106.150; -886.000; -772.000
258.888; -144.375;-1026.000;-1020.000
259.029;   25.175;  121.000;   -8.000
259.171;  -92.400; -614.000; -550.000
259.313;   -6.800;  -49.000;  -47.000
259.454;  -81.600; -536.000; -414.000
259.596;  -48.375; -483.000; -390.000
259.737;  -63.975; -590.000; -474.000
259.879;   48.025;  217.000;  311.000
260.020;   91.650;  901.000;  636.000
260.162;  -22.450; -146.000; -253.000
260.303; -108.950; -768.000; -687.000
260.445;  -82.925; -609.000; -613.000
260.586;   27.600;  392.000;  157.000
260.728;  -32.475; -360.000; -248.000
260.869; -116.825; -350.000; -343.000
261.011;   79.150;  706.000;  537.000
261.152;  -54.125; -479.000; -319.000
261.293;  -77.550; -576.000; -595.000
261.435;  -33.075; -219.000; -184.000
261.576;  -33.600; -455.000; -325.000
261.718;   53.625;  420.000;  470.000
261.859; -116.500; -940.000; -949.000
262.000; -127.475; -951.000;-1016.000
262.142;  -14.750;  -52.000;  -60.000
262.283; -112.875; -808.000; -691.000
262.424;  -78.725; -666.000; -625.000
262.566; -159.800;-1161.000; -983.000
262.707; -110.575; -840.000; -830.000
262.848; -123.200; -769.000; -726.000
262.990;  -51.475; -362.000; -345.000
263.131;   79.200;  650.000;  681.000
263.272;   -9.225;  -61.000;  -41.000
263.413;  -85.300; -589.000; -561.000
263.555;  -67.125; -669.000; -143.000
263.696;  -89.675; -550.000; -641.000
263.837;  -58.075; -449.000; -551.000
263.978;  -19.175;   -5.000;  -77.000
264.119;  -36.100; -283.000; -264.000
264.261; -114.375; -847.000; -630.000
264.402;   -4.625;   33.000;   40.000
264.543;  -66.650; -509.000; -524.000
264.684;   -2.575;   61.000;  -50.000
264.825;  -73.950; -816.000; -538.000
264.966;  -13.025;  -84.000;  -67.000
265.107; -108.300; -646.000; -670.000
265.248; -113.975; -825.000; -812.000
265.390;    0.550;  152.000;   -9.000
265.531;  -14.200; -238.000; -107.000
265.672;  -81.125; -557.000; -630.000
265.813;   54.300;  563.000;  439.000
265.954; -135.250; -959.000; -940.000
266.095;  -17.225; -372.000; -322.000
266.236;  -88.350; -686.000; -548.000
266.377;  -41.725; -243.000; -297.000
266.518;  -69.600; -619.000; -547.000
266.659;   48.025;  170.000;  268.000
266.800;    6.875;   83.000;   85.000
266.941;  -77.975; -487.000; -478.000
267.082;   18.875;  354.000;   99.000
267.223;  -44.175; -344.000; -273.000
267.364; -121.925; -892.000; -686.000
267.504;   -5.850;    3.000;  135.000
267.645;   -6.575;  160.000;   67.000
267.786;  -28.800; -147.000;  -86.000
267.927;  -62.550; -473.000; -379.000
268.068;  -18.575; -186.000;  -61.000
268.209;  -40.850; -175.000; -413.000
268.350;  -49.025; -388.000; -532.000
268.490;  -77.950; -648.000; -521.000
268.631;   39.400;  127.000;  225.000
268.772; -105.225; -874.000; -647.000
268.913;  -59.050; -328.000; -476.000
269.054;  -17.975; -117.000;   12.000
269.194;  -33.250; -418.000; -402.000
269.335; -150.575;-1137.000;-1074.000
269.476;  -29.975;   33.000;  -35.000
269.617;  -41.950; -347.000; -392.000
269.757;  -79.075; -713.000; -646.000
269.898; -103.125; -856.000; -613.000
270.039;  -73.225; -415.000; -405.000
270.180; -135.475; -952.000; -816.000
270.320;  -22.450; -190.000; -250.000
270.461;  -38.075; -277.000; -249.000
270.602;  -17.525; -186.000; -156.000
270.742; -110.775; -868.000; -943.000
270.883;  -44.225; -442.000; -390.000
271.023;  -56.875; -358.000; -357.000
271.164;  -63.450; -607.000; -528.000
271.305;  -98.025; -666.000; -654.000
271.445;  -93.225; -722.000; -683.000
271.586;  -63.150; -462.000; -283.000
271.726;  -45.050; -397.000; -322.000
271.867;  -48.775; -594.000; -534.000
272.008;  183.600; -473.000; -285.000
272.148;  132.050;  462.000;  468.000
272.289;   18.475; -113.000; -181.000
272.429;   22.950;   19.000;  185.000
272.570;  -89.150; -633.000; -737.000
272.710; -103.475; -825.000; -775.000
272.851;  -27.850;  113.000; -130.000
272.991; -159.675;-1173.000;-1077.000
273.131;  -59.375; -419.000; -459.000
273.272;  -91.575; -683.000; -723.000
273.412;   11.675; -143.000;  -31.000
273.553;  -46.775; -488.000; -507.000
273.693;  133.800;  913.000;  858.000
273.834;  -86.800; -894.000; -692.000
273.974;  -83.750; -664.000; -615.000
274.114;  -99.775; -772.000; -560.000
274.255;   75.475;  414.000;  373.000
274.395;   -4.025; -180.000; -125.000
274.535;   45.350;  199.000;  350.000
274.676;   30.675;  225.000;   94.000
274.816;    2.725;  110.000;   34.000
274.956;  -76.425; -624.000; -690.000
275.097;  -52.250;-1014.000; -922.000
275.237; -116.225; -913.000; -803.000
275.377;  -82.200; -778.000; -689.000
275.517; -136.925; -878.000; -937.000
275.658;  -55.350; -590.000; -555.000
275.798;  -65.625; -606.000; -413.000
275.938;   30.700;  215.000;  323.000
276.078; -100.100; -626.000; -395.000
276.218;   11.850;   99.000;  104.000
276.359; -130.100;-1026.000;-1024.000
276.499;  -67.750; -605.000; -446.000
276.639;  -26.525; -305.000; -151.000
276.779;  -34.375; -475.000; -357.000
276.919;  -85.850; -783.000; -624.000
277.059;  -14.875; -261.000; -212.000
277.199;  -42.700; -357.000; -259.000
277.340;   58.625;  287.000;  175.000
277.480; -110.050; -840.000; -693.000
277.620;   39.875;  192.000;   16.000
277.760; -201.475;-1533.000;-1294.000
277.900;   10.200;  113.000;   33.000
278.040;   -4.150;  137.000;  159.000
278.180;   30.375;  270.000;  170.000
278.320;    0.625;   21.000;   56.000
278.460;  -65.025; -443.000; -469.000
278.600;  -92.500; -708.000; -598.000
278.740;   61.375;  448.000;  224.000
278.880;  -56.900; -768.000; -791.000
279.020;    0.525; -194.000; -144.000
279.160;  -75.575; -672.000; -595.000
279.300; -105.975; -926.000; -873.000
279.440;  -86.025; -709.000; -622.000
279.579;    0.050;-1014.000; -929.000
279.719;  -35.050; -410.000; -394.000
279.859;   66.725;   -4.000;   41.000
279.999;   34.925; -208.000;  101.000
280.139;  -17.150; -435.000; -387.000
280.279;  -68.900; -708.000; -745.000
280.419;  -10.425; -229.000; -147.000
280.559;  -37.950; -259.000; -180.000
280.698;  -96.125; -790.000; -639.000
280.838;  -99.575; -778.000; -800.000
280.978;  -96.950; -846.000; -790.000
281.118; -101.750; -811.000; -704.000
281.257;   -4.750;   24.000;    6.000
281.397; -112.150;-1094.000; -960.000
281.537;  -86.375; -599.000; -712.000
281.677;  -23.000; -150.000; -101.000
281.816;  -84.950; -700.000; -630.000
281.956;  -11.100; -193.000; -257.000
282.096;  -68.475; -539.000; -396.000
282.235; -105.475; -672.000; -638.000
282.375;  -23.125; -243.000;  -98.000
282.515; -103.575; -715.000; -707.000
282.654;   20.925;   29.000;  106.000
282.794;   19.300;  388.000;  244.000
282.934;  -55.850; -530.000; -491.000
283.073; -126.300;-1030.000; -857.000
283.213;  -39.750; -460.000; -467.000
283.353;  -30.800; -408.000; -349.000
283.492;  -21.400; -264.000; -296.000
283.632;  -35.175; -254.000; -168.000
283.771;  -87.225; -859.000; -730.000
283.911;  -46.625; -369.000; -260.000
284.050;  -89.050; -794.000; -748.000
284.190; -148.700;-1229.000;-1096.000
284.329; -127.475;-1055.000; -964.000
284.469;  -70.925; -516.000; -591.000
284.608;  -54.025; -559.000; -598.000
284.748;  -79.875; -614.000; -570.000
284.887;   -8.550;  -87.000;  -20.000
285.027; -117.050; -844.000; -892.000
285.166;  -33.875; -192.000; -249.000
285.306;    9.850; -116.000;  -33.000
285.445;  -29.525; -229.000; -343.000
285.584;  -98.725; -630.000; -494.000
285.724;  -42.850; -282.000; -322.000
285.863; -104.800; -857.000; -507.000
286.002;  -52.625; -366.000; -276.000
286.142;  -99.150; -715.000; -622.000
286.281;  -75.300; -525.000; -493.000
286.420;  -77.975; -554.000; -417.000
286.560;  101.250;  653.000;  623.000
286.699; -136.650; -958.000; -912.000
286.838;  -71.225; -590.000; -591.000
286.978;  -84.800; -533.000; -537.000
287.117; -127.575;-1085.000; -950.000
287.256;  -37.050; -228.000; -211.000
287.395;  -39.650; -197.000; -378.000
287.535;  -47.150; -370.000; -298.000
287.674;  -69.625; -509.000; -484.000
287.813;   65.925;  661.000;  533.000
287.952; -120.775;-1010.000; -871.000
288.091; -145.200;-1049.000; -915.000
288.231;   14.300;   13.000;   15.000
288.370; -162.125;-1217.000;-1200.000
288.509;  -90.375; -728.000; -645.000
288.648;  -90.975; -770.000; -548.000
288.787;  -23.700; -243.000;  -87.000
288.926;  -60.000; -454.000; -475.000
289.065;  101.050;  859.000;  672.000
289.204;  -55.025; -377.000; -217.000
289.344;  -82.100; -791.000; -690.000
289.483;   20.075;  416.000;  304.000
289.622;  -14.700; -291.000; -149.000
289.761;  -13.075; -309.000; -166.000
289.900; -107.100; -785.000; -626.000
290.039;  -15.725;  -12.000;  -95.000
290.178;  -47.125; -274.000; -180.000
290.317;  -71.000; -618.000; -479.000
290.456;  -59.450; -463.000; -451.000
290.595; -117.100; -961.000; -833.000
290.734; -131.325; -904.000; -891.000
290.873;  -64.500; -456.000; -420.000
291.011; -101.525; -833.000; -843.000
291.150;  -97.250; -770.000; -682.000
291.289;  -24.725; -343.000; -110.000
291.428;  -94.875; -599.000; -480.000
291.567;  -45.625; -370.000; -442.000
291.706;    6.500;  109.000;  154.000
291.845;  -80.175; -597.000; -505.000
291.984; -158.500;-1234.000;-1061.000
292.122;   75.275;  602.000;  582.000
292.261;   51.000;  620.000;  463.000
292.400;   11.900; -144.000;  211.000
292.539; -116.350; -959.000; -813.000
292.678;  -27.475; -325.000; -300.000
292.816; -154.900;-1136.000; -965.000
292.955;  -87.575; -844.000; -684.000
293.094;   -5.300; -173.000; -337.000
293.233;  -56.500; -556.000; -400.000
293.371;  -37.775; -225.000;  -84.000
293.510; -106.025; -866.000; -780.000
293.649; -127.850; -959.000; -924.000
293.787;  -50.975;-1083.000;-1012.000
293.926;   -5.625; -113.000;  -32.000
294.065;  -41.675; -379.000; -290.000
294.203;   53.200;  298.000;  406.000
294.342;   15.075;   74.000;  156.000
294.481; 6169.175;51180.000; -836.000
294.619;  -20.075; -425.000; -582.000
294.758; -144.100;-1230.000;-1137.000
294.896;   69.050; -125.000;    5.000
295.035; -117.650;-1040.000;-1006.000
295.174; -105.975;-1082.000; -954.000
295.312;  -44.300; -323.000; -203.000
295.451;  -10.050; -307.000; -428.000
295.589;  -46.500; -389.000; -518.000
295.728;   39.675; -292.000; -165.000
295.866;   10.625;  -36.000;  -51.000
296.005;  -54.675; -584.000; -341.000
296.143;  -73.100; -558.000; -596.000
296.282; -102.450; -957.000; -881.000
296.420;  -78.975; -657.000; -557.000
296.559;  -76.675; -892.000; -633.000
296.697;   16.725; -847.000; -665.000
296.835;   50.500;-1141.000;-1002.000
296.974;   49.825;  -23.000;   39.000
297.112;   15.925; -443.000; -504.000
297.251;  -71.900; -815.000; -755.000
297.389;   86.050; -576.000; -438.000
297.527;   31.275; -145.000;  -83.000
297.666;  -61.025; -486.000; -438.000
297.804;  -43.000; -404.000; -264.000
297.942;  -10.825; -136.000; -161.000
298.081;   -0.300; -183.000;   63.000
298.219;   59.875;  -17.000;  -19.000
298.357;   44.875; -144.000;  -71.000
298.495;   40.500; -810.000; -812.000
298.634;   67.850;  245.000;  219.000
298.772;   58.475; -220.000; -338.000
298.910;  -28.000; -309.000; -182.000
299.048;   -7.475; -130.000; -153.000
299.187;  -40.300; -350.000; -250.000
299.325;   32.825;   52.000;  122.000
299.463;   47.975; -389.000; -299.000
299.601;   97.075; -327.000; -271.000
299.739; -112.200; -908.000; -883.000
299.877;  -79.225; -791.000; -703.000
300.016;  -34.625;-1095.000; -935.000
300.154;  163.150;  -19.000; -161.000
300.292;   40.625; -428.000; -348.000
300.430;   19.225; -408.000; -291.000
300.568; -103.075; -940.000; -874.000
300.706;  -36.725; -366.000; -469.000
300.844;  -80.275;-1108.000; -979.000
300.982;  106.350;  246.000;  282.000
301.120; -111.750; -965.000; -866.000
301.258;  -60.775; -812.000; -705.000
301.396;   35.125;  104.000;  -41.000
301.534;   71.600; -218.000; -293.000
301.672;   -9.650; -664.000; -521.000
301.810;   25.900; -613.000; -545.000
301.948;  108.175;   53.000;  149.000
302.086;  615.625; -250.000;  -32.000
302.224;  924.950; -610.000; -585.000
302.362;   33.475; -558.000; -622.000
302.500;  -31.725; -923.000; -893.000
302.638;  119.175;  128.000;  245.000
302.776;    4.150; -352.000; -408.000
302.913;   41.200;  447.000;  236.000
303.051;    0.525;  -86.000;  -23.000
303.189;   52.000;   90.000;  118.000
303.327;  -31.975; -341.000; -256.000
303.465;  -70.250; -832.000; -588.000
303.603;  -97.300; -805.000; -604.000
303.740;  114.100;  417.000;  241.000
303.878;   13.575; -800.000; -759.000
304.016;  -81.025; -915.000; -790.000
304.154; -121.100;-1123.000;-1152.000
304.291;  -42.000; -505.000; -554.000
304.429;   12.750;  102.000;   74.000
304.567; -127.300; -908.000; -893.000
304.705;  -62.950; -408.000; -515.000
304.842;   95.925; -616.000; -540.000
304.980;   44.700;  215.000;   35.000
305.118;   52.075; -367.000; -365.000
305.255;  -86.675; -945.000; -927.000
305.393;   41.550;  178.000;  239.000
305.531;  -98.975;-1173.000; -956.000
305.668;  -64.075; -663.000; -582.000
305.806;   99.100; -358.000; -439.000
305.943;  118.675; -629.000; -637.000
306.081;   52.075; -378.000; -267.000
306.219;  -97.000; -863.000; -748.000
306.356;    8.100;  158.000;   27.000
306.494;  108.875;  981.000;  761.000
306.631;    2.875;  -11.000;  -55.000
306.769;    6.375; -613.000; -485.000
306.906;  -15.900; -284.000; -258.000
307.044;  -67.075; -473.000; -488.000
307.181;  -56.175; -410.000; -332.000
307.319;   23.375;  112.000;   87.000
307.456; -173.000;-1191.000;-1153.000
307.594;  -88.800; -980.000; -727.000
307.731;   -5.775; -371.000; -164.000
307.868;    7.975;  -15.000;   20.000
308.006; -133.775; -961.000; -847.000
308.143;  -53.475; -618.000; -330.000
308.281;  186.525;  -37.000; -254.000
308.418;    1.700; -748.000; -640.000
308.555;  -72.125; -400.000; -250.000
308.693;  -66.450; -577.000; -573.000
308.830; -111.925; -712.000; -657.000
308.967;  -14.550; -215.000;  -95.000
309.105;  -40.125; -507.000; -396.000
309.242;   44.100; -468.000; -367.000
309.379;  301.700; -577.000; -655.000
309.517;  -61.600; -936.000; -948.000
309.654; -102.450; -910.000; -734.000
309.791;  -60.525; -662.000; -580.000
309.928; -118.650; -977.000; -914.000
310.065;  173.650;  819.000;  697.000
310.203;  -22.525; -825.000; -850.000
310.340;   -5.375; -465.000; -321.000
310.477;  -80.400; -412.000; -516.000
310.614;  -69.575; -383.000; -473.000
310.751;  -88.375; -427.000; -518.000
310.889;  -20.625;    1.000;   11.000
311.026; -150.900;-1161.000; -939.000
311.163;  -35.200; -386.000; -380.000
311.300;  -77.075; -512.000; -479.000
311.437;  -66.475; -658.000; -619.000
311.574; -155.275;-1226.000; -985.000
311.711;  -46.025; -595.000; -433.000
311.848;  -44.100; -380.000; -388.000
311.985;   13.525;  270.000;   93.000
312.122; -110.300; -932.000; -762.000
312.259; -111.875; -941.000; -994.000
312.396;  -83.325; -508.000; -551.000
312.533; -104.075; -812.000; -790.000
312.670; -129.425;-1070.000; -898.000
312.807;  -40.925; -352.000; -367.000
312.944;  -71.925; -513.000; -611.000
313.081;  -22.000; -150.000; -415.000
313.218; -105.425;-1111.000; -867.000
313.355;   12.775; -531.000; -449.000
313.492;    0.275; -455.000; -292.000
313.629;  110.000;  815.000;  735.000
313.766; -156.525;-1176.000;-1008.000
313.902;  -10.525; -186.000;   21.000
314.039;  -58.100; -372.000; -289.000
314.176;   30.325;  286.000;  192.000
314.313;  -69.175; -569.000; -473.000
314.450;  -61.875; -788.000; -684.000
314.587;  -70.550; -468.000; -480.000
314.723;    0.550;  -78.000;  130.000
314.860;   27.950;  318.000;  332.000
314.997;   27.900;  223.000;  142.000
315.134;  -44.100; -385.000; -368.000
315.270;  -23.675; -480.000; -496.000
315.407; -125.375;-1094.000; -967.000
315.544;  -43.425; -657.000; -538.000
315.681;  -56.725; -681.000; -565.000
315.817;   44.600; -133.000; -176.000
315.954;    9.125; -613.000; -392.000
316.091; -117.025;-1045.000;-1023.000
316.227;  -37.975;  -71.000; -179.000
316.364;   -2.550;   23.000;    6.000
316.500;  -42.250; -113.000; -300.000
316.637;  -51.575; -181.000; -302.000
316.774;  -86.475; -625.000; -358.000
316.910;  -82.600; -598.000; -629.000
317.047;  -84.075; -487.000; -351.000
317.183;  -38.750; -435.000; -566.000
317.320;   -6.875; -367.000; -321.000
317.456;  -66.575; -733.000; -805.000
317.593;  -84.800; -598.000; -641.000
317.729;    6.075;  168.000;  -67.000
317.866; -203.700;-1434.000;-1285.000
318.002;  -81.600; -708.000; -948.000
318.139; -102.375; -883.000; -867.000
318.275; -119.225;-1003.000; -738.000
318.412;  -64.350; -517.000; -336.000
318.548;  -29.025; -751.000; -720.000
318.685; -100.725; -985.000; -888.000
318.821;  -94.975; -762.000; -735.000
318.957;  -13.875;   34.000;  -23.000
319.094;   34.200;  297.000;  154.000
319.230;  -62.150; -756.000; -742.000
319.367;  137.675; -471.000; -520.000
319.503;   48.200; -538.000; -436.000
319.639;  -81.300; -877.000; -793.000
319.775;  -63.300; -750.000; -685.000
319.912;  -50.150; -424.000; -519.000
320.048;  -81.875;-1184.000;-1184.000
320.184;   89.525;   59.000;   70.000
320.321;  -64.800; -497.000; -467.000
320.457;   70.100;  475.000;  662.000
320.593;  -64.525; -375.000; -382.000
320.729;  -97.150; -732.000; -734.000
320.866;  -75.800; -577.000; -635.000
321.002;  -75.000; -759.000; -809.000
321.138;    3.725; -135.000; -211.000
321.274;   78.875; -148.000; -115.000
321.410;  -22.125; -585.000; -353.000
321.546;  -36.650;-1011.000; -911.000
321.683;   38.525;  400.000;  185.000
321.819;   -1.075;  -48.000; -117.000
321.955;  -97.275; -743.000; -722.000
322.091;  -38.425; -585.000; -540.000
322.227;   -4.500; -382.000; -202.000
322.363;  -13.500; -320.000; -215.000
322.499;  -51.475; -343.000; -331.000
322.635;  160.750;  636.000;  443.000
322.771;   32.850; -139.000;   12.000
322.907;   90.200;  129.000;  327.000
323.043;  -19.850; -115.000; -206.000
323.179;  -36.675; -394.000; -363.000
323.315;   -1.425; -401.000; -371.000
323.451;   84.325; -328.000; -236.000
323.587;   64.675;  -60.000;  -77.000
323.723;   26.650; -682.000; -601.000
323.859;  -17.825; -258.000;  -76.000
323.995;  -23.625; -467.000; -409.000
324.131; -124.050; -967.000; -892.000
324.267;  -35.925; -254.000; -276.000
324.402; -111.250; -960.000; -983.000
324.538;  -12.275; -279.000; -104.000
324.674;   28.225;  164.000;   77.000
324.810;  111.200;  226.000;  308.000
324.946;    2.250; -810.000; -658.000
325.082;  -53.650; -568.000; -475.000
325.217;  -15.050;  -62.000;   16.000
325.353;  -97.575; -764.000; -659.000
325.489;  -92.225; -540.000; -506.000
325.625;  -65.900; -579.000; -525.000
325.760;   58.475;  517.000;  376.000
325.896;  -31.925; -515.000; -702.000
326.032;  -42.075; -403.000; -352.000
326.168;  -58.625; -462.000; -369.000
326.303;  -80.650; -352.000; -461.000
326.439;  -18.775; -336.000; -276.000
326.575;   13.225; -190.000;  -29.000
326.710;  -12.275; -156.000;  -30.000
326.846;  -17.275;  146.000;  103.000
326.982;  -84.050; -530.000; -548.000
327.117;  -84.425; -481.000; -442.000
327.253;  -85.300; -745.000; -742.000
327.388; -170.550;-1137.000;-1153.000
327.524;  -46.725; -811.000; -578.000
327.659;  -24.525;  -58.000;  -22.000
327.795;   -3.550;   69.000;   45.000
327.931;  -91.850; -723.000; -499.000
328.066;  -41.625; -417.000; -276.000
328.202;  -51.425;   12.000; -129.000
328.337;   94.675;  957.000;  713.000
328.473;   48.150;  -12.000;  -74.000
328.608;   -7.250; -256.000; -267.000
328.743;  -80.275; -799.000; -664.000
328.879;   26.150;  214.000;  114.000
329.014;  -37.550; -102.000; -122.000
329.150;  -70.900; -358.000; -483.000
329.285;  -71.850; -465.000; -466.000
329.421;  -50.750; -548.000; -246.000
329.556;  -33.125;  -36.000;   85.000
329.691;  -98.025; -633.000; -615.000
329.827;  -84.775; -626.000; -480.000
329.962;  -32.125;  131.000; -301.000
330.097;  -95.975; -673.000; -585.000
330.233;  -41.675; -410.000; -223.000
330.368; -134.375; -839.000; -628.000
330.503;  -21.150;    3.000;   98.000
330.638;    3.050;  -93.000; -125.000
330.774;  -55.700; -609.000; -530.000
330.909;  -50.200; -434.000; -244.000
331.044;  -90.750; -714.000; -708.000
331.179; -162.100;-1217.000;-1109.000
331.315;   13.025;   77.000;   20.000
331.450;    6.900;  157.000;  285.000
331.585;  -80.425; -805.000; -706.000
331.720; -103.275; -510.000; -460.000
331.855;  -11.600;  -35.000; -102.000
331.990;  255.175;   62.000;  138.000
332.126;  151.575; -110.000;   71.000
332.261;   -9.825; -379.000; -265.000
332.396;    7.800; -135.000; -242.000
332.531; -104.150;-1074.000;-1031.000
332.666;   29.775; -519.000; -363.000
332.801; -103.200; -726.000; -807.000
332.936;  -25.150; -192.000; -122.000
333.071; -139.925; -870.000; -817.000
333.206;   17.900;  307.000;  379.000
333.341;   26.425;  344.000;  418.000
333.476;  -80.875; -627.000; -623.000
333.611;  -40.250; -251.000; -173.000
333.746;  -50.225; -381.000; -464.000
333.881; -112.525; -973.000; -935.000
334.016; -119.200; -936.000; -917.000
334.151; -126.325; -746.000; -702.000
334.286;   24.575;  152.000;  186.000
334.421;  -18.575; -125.000; -178.000
334.556;  -79.675; -611.000; -567.000
334.690;  -84.625; -631.000; -577.000
334.825;   53.750;  381.000;   83.000
334.960;  -65.125; -285.000; -413.000
335.095;    0.900;  135.000;  -91.000
335.230;  -98.800; -722.000; -738.000
335.365; -122.025;-1084.000; -990.000
335.499; -124.100;-1108.000;-1037.000
335.634;   30.200;    9.000;  534.000
335.769; -101.175; -755.000; -720.000
335.904;  -69.000; -603.000; -561.000
336.038;  -62.825; -735.000; -657.000
336.173; -119.350;-1206.000;-1194.000
336.308;   16.750; -116.000; -189.000
336.443;   18.750; -544.000; -634.000
336.577;  -83.375; -936.000; -787.000
336.712;   64.400;   -4.000;  -12.000
336.847;  -25.125; -724.000; -607.000
336.981;   67.650; -272.000; -208.000
337.116;  274.425;  615.000;  501.000
337.250;  154.900; -434.000; -421.000
337.385;  264.200; -297.000; -208.000
337.520;   98.600; -632.000; -603.000
337.654;  -36.325; -215.000; -126.000
337.789; -120.575; -989.000; -933.000
337.923;  -29.975; -104.000; -205.000
338.058;  -88.375; -673.000; -738.000
338.192;  -31.675; -611.000; -488.000
338.327;    4.450;  -18.000; -155.000
338.461;  -61.225; -299.000; -469.000
338.596;  -96.350; -780.000; -638.000
338.730;  -97.775; -767.000; -803.000
338.865;   90.750;  -46.000; -140.000
338.999;  -42.500; -846.000; -702.000
339.134;  -18.975; -634.000; -536.000
339.268;   17.775; -741.000; -603.000
339.403;  387.825; -740.000; -775.000
339.537;  121.450; -894.000; -820.000
339.671; -115.050; -829.000; -813.000
339.806;  -62.400; -556.000; -512.000
339.940;   13.625; -261.000; -235.000
340.074;  -86.500; -685.000; -510.000
340.209;  -42.675; -351.000; -230.000
340.343;  -82.925; -517.000; -573.000
340.477;  148.175;  998.000; 1036.000
340.612;  -40.450;-1033.000; -900.000
340.746;  154.375; -199.000; -243.000
340.880;  -80.950; -924.000; -785.000
341.014;  -13.850;  -45.000; -154.000
341.149; -115.475; -756.000; -718.000
341.283; -111.525; -839.000; -754.000
341.417;  -97.825;-1124.000; -938.000
341.551;  120.975; -768.000; -708.000
341.685;  -38.000; -633.000; -611.000
341.820;  -65.125; -562.000; -493.000
341.954;  -40.825; -218.000; -349.000
342.088; -135.750;-1102.000;-1019.000
342.222;   35.450;  565.000;  618.000
342.356;  -53.525; -395.000; -335.000
342.490;  -82.550; -880.000; -841.000
342.624;  -35.525; -339.000; -242.000
342.758;   -8.050; -364.000; -312.000
342.892;  -72.175; -710.000; -585.000
343.026;  -44.825;  -58.000; -116.000
343.160;  -69.725; -426.000; -376.000
343.294;  -68.625; -474.000; -337.000
343.428;  -13.525; -488.000; -448.000
343.562;   -7.500; -172.000;  -23.000
343.696;  -18.050; -385.000; -314.000
343.830;  -17.250; -362.000; -356.000
343.964;   15.150; -231.000; -168.000
344.098;  878.125;  199.000;   70.000
344.232;  730.425; -266.000; -127.000
344.366;   94.650; -567.000; -453.000
344.500;   67.950; -665.000; -744.000
344.634;   35.050; -324.000; -164.000
344.768;  -28.250; -531.000; -341.000
344.902;   20.275;  278.000;  256.000
345.035;  -66.350; -556.000; -496.000
345.169; -124.750; -933.000; -656.000
345.303;  -24.950; -308.000; -482.000
345.437;  -71.425; -826.000; -717.000
345.571;  -71.725; -675.000; -594.000
345.704;  -65.150; -309.000; -532.000
345.838;   -5.075; -331.000; -284.000
345.972;  -43.675; -543.000; -495.000
346.106;  171.675; -179.000; -190.000
346.239;  420.675; -312.000; -243.000
346.373;   10.700; -343.000; -302.000
346.507; -135.900; -950.000; -962.000
346.640;  142.425;  -30.000;   13.000
346.774;  -54.550; -650.000; -797.000
346.908;  -11.350; -138.000;  -11.000
347.041;  -82.250; -646.000; -593.000
347.175;   10.725;  259.000;   27.000
347.309;  -71.025; -698.000; -628.000
347.442;  -84.175; -883.000; -732.000
347.576;  277.500;  670.000;  668.000
347.709;  175.800; -123.000;  -52.000
347.843;  -84.000; -933.000; -825.000
347.976;   30.050;  235.000;  294.000
348.110; -168.925;-1268.000;-1186.000
348.243;  -90.825; -679.000; -772.000
348.377;  -10.050;  -26.000;   60.000
348.510;   49.975;  403.000;  540.000
348.644;  -31.875;  -37.000; -159.000
348.777;    5.400;  180.000;  191.000
348.911;  -48.575; -142.000; -112.000
349.044;  166.025;  471.000;  448.000
349.178;  157.525;-1069.000;-1006.000
349.311;  131.125;  141.000;  255.000
349.444;    7.200; -927.000; -813.000
349.578;   -7.350; -347.000; -200.000
349.711; -100.775; -959.000; -862.000
349.845;  -21.400; -661.000; -591.000
349.978; -149.050;-1224.000;-1137.000
350.111;  -80.425; -546.000; -612.000
350.244;  -80.250; -596.000; -700.000
350.378;    6.575; -392.000; -393.000
350.511;  -60.350; -393.000; -426.000
350.644;  -97.375; -808.000; -806.000
350.778;    7.250;  168.000;  104.000
350.911;    9.350;  134.000;  140.000
351.044;  -94.050; -685.000; -615.000
351.177;  -28.575; -321.000; -281.000
351.310;  -10.725;    3.000; -131.000
351.444;  -79.550; -888.000; -788.000
351.577;  128.025;  140.000;   90.000
351.710;   98.250;  593.000;  417.000
351.843;  -28.775; -165.000;  -77.000
351.976;  -14.700;  149.000;  -79.000
352.109;  -87.900; -621.000; -612.000
352.242;  -16.600; -464.000; -419.000
352.376;  -72.900; -580.000; -636.000
352.509;  159.775; -437.000; -356.000
352.642;    7.075; -654.000; -604.000
352.775;   60.450; -141.000;  -98.000
352.908; -118.825; -933.000; -904.000
353.041;  -97.550; -814.000; -824.000
353.174;  -63.425; -551.000; -424.000
353.307;  -95.075; -753.000; -764.000
353.440;   73.350;  541.000;  453.000
353.573; -114.225; -957.000;-1008.000
353.706;  -56.800; -384.000; -558.000
353.839;  -12.450; -264.000; -220.000
353.971;  -78.650; -657.000; -512.000
354.104;  -81.275; -896.000; -835.000
354.237;  -33.350; -627.000; -662.000
354.370;  -74.400; -846.000; -879.000
354.503; -164.525;-1231.000;-1308.000
354.636;  -27.575; -529.000; -348.000
354.769; -122.650; -937.000; -860.000
354.902;   -9.475; -230.000; -139.000
355.034;  -34.875; -164.000; -220.000
355.167;  -16.875; -262.000; -162.000
355.300;  -79.075;-1061.000; -880.000
355.433;  988.025;  -71.000;  -14.000
355.565; 1554.550; -402.000; -384.000
355.698;  406.700; -356.000; -296.000
355.831;   -1.475; -882.000; -801.000
355.964;   72.325; -285.000; -170.000
356.096;  -80.600; -856.000; -843.000
356.229;   11.700; -523.000; -530.000
356.362;  334.625; -373.000; -266.000
356.494;  607.650; -229.000; -162.000
356.627;  475.600;  269.000;  377.000
356.760;  676.600;  120.000;   53.000
356.892;  993.850; -286.000; -601.000
357.025;  648.925;  403.000;  389.000
357.157;  571.925; -167.000; -179.000
357.290;  716.050; -856.000; -713.000
357.423;  220.925; -667.000; -556.000
357.555;  119.225; -217.000; -228.000
357.688;  125.925; -483.000; -364.000
357.820;  446.450; -870.000; -877.000
357.953; 3601.375; -563.000; -589.000
358.085;  815.975; -632.000; -612.000
358.218; 1054.375;-1131.000; -932.000
358.350;  195.100;  -58.000;  312.000
358.483; -122.450;-1300.000;-1187.000
358.615;  -21.225;-1182.000;-1078.000
358.747;  -57.375;-1187.000;-1058.000
358.880;   12.575; -810.000; -744.000
359.012;   -1.725; -376.000; -202.000
359.145;  -39.725; -480.000; -511.000
359.277;   63.525; -962.000; -913.000
359.409; 2967.500;  536.000;  231.000
359.542;  785.675; -738.000; -688.000
359.674;   78.625;   46.000;   13.000
359.806;  -55.675; -565.000; -438.000
359.939;  -44.425; -617.000; -516.000
360.071;   -7.050; -583.000; -579.000
360.203;   -7.800; -411.000; -364.000
360.335;   49.175;  164.000;  -16.000
360.468;  185.450; -249.000; -307.000
360.600; 2398.650; -547.000; -454.000
360.732; 2913.075; -546.000; -423.000
360.864;  429.425;-1216.000;-1044.000
360.996;  251.050; -516.000; -554.000
361.129;   35.550; -389.000; -598.000
361.261;   31.775;  110.000; -113.000
361.393;  -39.750; -252.000; -214.000
361.525;   24.700;   94.000;  244.000
361.657;  -37.700; -821.000; -703.000
361.789;   14.075; -139.000; -155.000
361.921;  207.825; -642.000; -593.000
362.053;  254.250;  524.000;  541.000
362.185;   56.275;  288.000;   72.000
362.318;  -72.925; -709.000; -705.000
362.450;  103.675;  294.000;  444.000
362.582;   95.750; -913.000; -870.000
362.714;  -42.300; -353.000; -332.000
362.846;  -79.150; -606.000; -490.000
362.978; -148.950; -941.000; -811.000
363.109;   44.725; -161.000; -260.000
363.241;  413.175; -739.000; -749.000
363.373;  459.050; -649.000; -564.000
363.505;  688.625; -186.000;  -91.000
363.637;  168.900; -787.000; -601.000
363.769; -110.200;-1067.000;-1080.000
363.901;  -59.500; -596.000; -654.000
364.033; -119.650;-1103.000;-1062.000
364.165;    3.550; -283.000; -283.000
364.296;   78.375; -316.000; -177.000
364.428;   85.100;-1344.000;-1220.000
364.560;  -65.300; -679.000; -661.000
364.692;  -57.725; -738.000; -835.000
364.824;  236.550; -588.000; -456.000
364.955;  447.450; -402.000; -564.000
365.087;  973.775;-1097.000; -852.000
365.219;   42.400; -686.000; -816.000
365.351;  -72.700; -526.000; -572.000
365.482;   64.075;  300.000;  240.000
365.614;  -42.200; -402.000; -314.000
365.746;  -97.375; -729.000; -752.000
365.877;  -86.375; -706.000; -672.000
366.009;  276.375;  -35.000;  -62.000
366.141;  -60.400;-1249.000;-1134.000
366.272; -113.050; -803.000; -719.000
366.404; -120.175;-1005.000; -874.000
366.535;  -22.725; -139.000;  -12.000
366.667;  -99.925; -644.000; -649.000
366.799;   37.575;  353.000;  203.000
366.930; -122.525; -862.000; -996.000
367.062;  130.050; -639.000; -613.000
367.193;  184.950; -872.000; -842.000
367.325;  -67.000; -580.000; -684.000
367.456;   47.125; -246.000;   31.000
367.588;  158.150; -371.000; -318.000
367.719;   27.975;  -44.000;  -45.000
367.851;   -6.550; -222.000; -241.000
367.982;  -51.375; -875.000; -732.000
368.113;   89.950; -475.000; -358.000
368.245; -109.675; -960.000; -841.000
368.376;  -33.000; -254.000; -302.000
368.508;  -26.225; -188.000; -263.000
368.639; -132.925;-1166.000;-1034.000
368.770;  -15.825; -670.000; -589.000
368.902;  -51.275; -836.000; -926.000
369.033;  -98.050; -906.000; -855.000
369.164;  -41.925; -720.000; -653.000
369.296; -103.775; -452.000; -601.000
369.427;   -1.825; -209.000; -144.000
369.558;  -52.500; -593.000; -377.000
369.689;  -95.050; -721.000; -569.000
369.821; -126.275; -951.000; -845.000
369.952;  -18.125;   42.000; -108.000
370.083;  -42.850; -229.000; -108.000
370.214;  -84.225; -735.000; -650.000
370.345;  -14.500;   65.000;   81.000
370.477;  -76.050; -810.000; -790.000
370.608;  214.550; -328.000; -264.000
370.739;  -55.525;-1233.000;-1292.000
370.870;  -43.200;-1102.000; -923.000
371.001;   89.475; -378.000; -467.000
371.132;  -71.050; -754.000; -735.000
371.263;  -27.425;  -42.000; -148.000
371.394; -119.400; -841.000; -748.000
371.525;   29.750;  345.000;  225.000
371.657;  -87.950; -808.000; -670.000
371.788;   77.750;  103.000;  199.000
371.919;  156.600; -384.000; -304.000
372.050; 3496.650;  -91.000; -156.000
372.181; 1079.225; -188.000; -294.000
372.311;  343.975;   42.000; -127.000
372.442;   37.200; -457.000; -451.000
372.573;  -27.375; -444.000; -340.000
372.704; -113.575;-1008.000; -980.000
372.835;   81.125; -228.000; -289.000
372.966;  -68.825; -646.000; -554.000
373.097;  -59.650; -575.000; -711.000
373.228;  -24.000; -717.000; -542.000
373.359;  119.050; -824.000; -536.000
373.490;  871.800; -881.000; -727.000
373.620; 1150.925;-1001.000; -803.000
373.751; 1684.575; -332.000; -396.000
373.882;  784.875; -663.000; -733.000
374.013;   66.750; -449.000; -262.000
374.143;  -34.875; -581.000; -659.000
374.274;  -97.600; -987.000; -908.000
374.405;  169.950; -388.000; -276.000
374.536;  404.500; -526.000; -387.000
374.666; 1069.850; -759.000; -807.000
374.797;  215.225; -817.000; -868.000
374.928;  811.750; -710.000; -560.000
375.058;  871.650; -535.000; -500.000
375.189;   77.825;  -59.000;  -93.000
375.320; -100.225; -928.000;-1034.000
375.450;  -24.900; -625.000; -616.000
375.581;  -52.525; -526.000; -436.000
375.712;  -33.725; -574.000; -250.000
375.842;  274.075; -438.000; -415.000
375.973;  207.125; -554.000; -513.000
376.103;  -46.350; -665.000; -648.000
376.234;  -75.825; -531.000; -552.000
376.364;  -46.825; -944.000; -867.000
376.495;  333.175;  925.000;  529.000
376.625;   -8.300; -472.000; -485.000
376.756;   52.425; -709.000; -678.000
376.886;  -69.150;-1178.000;-1026.000
377.017;   65.100;-1048.000;-1061.000
377.147;  354.150; -786.000; -782.000
377.278;   55.750;  174.000;  228.000
377.408; -116.650; -801.000; -815.000
377.538;  -97.600; -707.000; -693.000
377.669;  -81.100; -537.000; -613.000
377.799;  -94.850; -645.000; -635.000
377.929;  -69.325; -610.000; -428.000
378.060; -126.050; -781.000; -847.000
378.190;  -48.750; -726.000; -531.000
378.320;  -39.900; -401.000; -406.000
378.451;  -11.825; -131.000;  -22.000
378.581;   -4.800;  -67.000; -110.000
378.711;  135.150; 1035.000;  866.000
378.841;  -13.650; -533.000; -675.000
378.972;  -60.950; -871.000; -751.000
379.102;   -6.400; -652.000; -579.000
379.232;  -26.925; -126.000;  -73.000
379.362; -118.175;-1001.000; -885.000
379.492;   -4.950; -373.000; -424.000
379.623;  104.800;    0.000;  111.000
379.753;  -86.850;-1107.000; -974.000
379.883;  182.200;   59.000;  156.000
380.013;   -5.500;-1081.000;-1017.000
380.143;  -98.300;-1097.000;-1056.000
380.273; -101.325; -985.000; -861.000
380.403;    0.050; -344.000; -257.000
380.533;  -28.075; -651.000; -664.000
380.663;   71.250;  173.000;  128.000
380.793; -100.000;-1027.000;-1074.000
380.923;  -32.500; -103.000;  -34.000
381.053; -106.675; -613.000; -623.000
381.183;  -22.325; -106.000; -248.000
381.313;    7.100; -656.000; -470.000
381.443;   38.200; -692.000; -473.000
381.573;  178.175; -402.000; -409.000
381.703;  265.925;-1249.000;-1095.000
381.833; -138.625;-1454.000;-1336.000
381.963;  115.850; -134.000;  -87.000
382.093; 1388.450; -925.000; -909.000
382.223;  447.025; -713.000; -602.000
382.353;  -19.675; -801.000; -608.000
382.482;  334.275;-1091.000; -964.000
382.612;  746.400; -872.000; -644.000
382.742;  421.050; -695.000; -622.000
382.872;  257.175; -565.000; -551.000
383.002;   74.050;  347.000; -132.000
383.131;  -33.750; -226.000; -160.000
383.261;  -36.150; -706.000; -768.000
383.391;  279.250; -552.000; -377.000
383.521; 3268.375;  451.000;  263.000
383.650;  829.825; -947.000; -904.000
383.780;   -4.525; -783.000; -656.000
383.910;  106.900;  880.000;  802.000
384.039;   16.825; -794.000; -656.000
384.169;  199.475;-1205.000;-1017.000
384.299;  -24.275; -650.000; -662.000
384.428; -100.175; -764.000; -680.000
384.558;  -42.525; -308.000; -275.000
384.687;  -42.300; -414.000; -334.000
384.817;    9.625;   75.000;   -2.000
384.947;   13.750; -234.000; -141.000
385.076;  284.400;  982.000;  912.000
385.206;   85.600;  369.000;  480.000
385.335;  -38.225; -549.000; -417.000
385.465;  -76.950; -655.000; -663.000
385.594;  121.675;  -53.000;  -44.000
385.724;  405.875; -868.000; -838.000
385.853;  108.400; -296.000; -270.000
385.982; 1261.625; -743.000; -787.000
386.112; 2111.825;-1052.000; -871.000
386.241;  135.325; -307.000; -312.000
386.371;   16.225; -174.000;  -87.000
386.500;   -1.950; -825.000; -789.000
386.629;   17.925; -874.000; -817.000
386.759;   76.550;  -43.000;   68.000
386.888;  -19.850; -170.000; -250.000
387.017;  -74.725; -648.000; -620.000
387.147;  -76.475; -771.000; -798.000
387.276;  -13.025; -410.000; -397.000
387.405;   22.200; -398.000; -342.000
387.535;  -54.400; -452.000; -361.000
387.664;  -53.200; -692.000; -620.000
387.793;   56.050; -198.000; -113.000
387.922;  486.850;  255.000;  200.000
388.052;    7.500; -576.000; -423.000
388.181;    5.925; -342.000; -472.000
388.310;  -14.525; -889.000; -710.000
388.439;  -60.625; -749.000; -742.000
388.568;  181.375;  365.000;  244.000
388.697;  980.350; -756.000; -653.000
388.826;  215.925; -768.000; -666.000
388.956;   41.100; -285.000; -307.000
389.085;  -28.200; -347.000; -287.000
389.214; -107.250; -842.000; -872.000
389.343;  -54.450; -645.000; -413.000
389.472;  419.250;  126.000;  149.000
389.601;  546.050;   91.000;    0.000
389.730;   22.750; -568.000; -687.000
389.859;   47.975;  226.000;   46.000
389.988;  173.075; -423.000; -408.000
390.117;  134.850; -168.000; -146.000
390.246;  -12.075; -331.000; -320.000
390.375;   86.400; -673.000; -626.000
390.504;  -61.325; -703.000; -621.000
390.633;  -87.125; -672.000; -726.000
390.761;  -71.350; -732.000; -645.000
390.890;    9.275;   -4.000; -130.000
391.019;  -33.325; -421.000; -441.000
391.148; -138.150; -826.000; -855.000
391.277;  -73.825; -576.000; -493.000
391.406;  -81.725; -821.000; -805.000
391.534;   21.725;  574.000; -301.000
391.663;  -76.175; -583.000; -645.000
391.792;  -85.375; -673.000; -701.000
391.921;   88.675;   -3.000;   15.000
392.050;  161.675; -287.000; -228.000
392.178;  -52.375;-1206.000;-1061.000
392.307;  130.250; -758.000; -712.000
392.436;   74.825; -427.000; -641.000
392.564;   16.400;  166.000;   -6.000
392.693; -101.850; -860.000; -682.000
392.822;  176.325; -529.000; -534.000
392.950;   69.575; -880.000; -714.000
393.079;  309.700; -188.000; -328.000
393.208;   29.150; -488.000; -511.000
393.336;  -12.725; -170.000; -145.000
393.465;  -48.525; -317.000; -199.000
393.593;    3.850;   62.000;   79.000
393.722; -136.525;-1121.000; -916.000
393.850;  -26.200; -188.000;  -61.000
393.979; -139.075; -926.000; -805.000
394.107;  -68.850; -517.000; -537.000
394.236;  -31.575; -570.000; -507.000
394.364;  210.025;  383.000;  206.000
394.493;  359.075; -911.000; -767.000
394.621;   -6.450; -955.000; -916.000
394.750;  741.225; -873.000; -923.000
394.878; 3010.850; -247.000; -149.000
395.007; 4206.875; -721.000; -807.000
395.135;  331.625; -790.000; -721.000
395.263;  -79.575;-1038.000;-1040.000
395.392;   -7.325;  -25.000; -107.000
395.520; -146.775; -818.000; -679.000
395.648;  -90.500; -865.000; -915.000
395.777;  -16.100; -366.000; -405.000
395.905;  -33.750; -449.000; -564.000
396.033;    8.150;  217.000;  172.000
396.162;  555.450; -399.000; -453.000
396.290;  509.300;  -17.000;   -2.000
396.418;  100.450; -555.000; -514.000
396.546;  -57.575; -571.000; -466.000
396.674; -101.275; -850.000; -878.000
396.803;   -1.550;  -72.000;  -23.000
396.931;   82.375; -179.000; -199.000
397.059;   43.050;-1026.000; -989.000
397.187; -101.250;-1026.000; -975.000
397.315; -129.150; -884.000; -649.000
397.443;  -91.375; -592.000; -443.000
397.572;  -80.625; -578.000; -424.000
397.700;  -17.275; -607.000; -614.000
397.828;   -5.950;  120.000;  -90.000
397.956;  -36.950; -508.000; -478.000
398.084;  -59.850; -767.000; -626.000
398.212;   24.850;  137.000;  124.000
398.340;    6.275;  -56.000;  159.000
398.468;   30.775; -390.000; -169.000
398.596; -140.150; -993.000; -953.000
398.724; -125.675; -762.000; -767.000
398.852; -154.225;-1024.000; -976.000
398.980;  -58.450; -560.000; -560.000
399.108;  -64.375; -982.000; -735.000
399.236;   28.150;   13.000;    8.000
399.363;   23.800;  222.000;  196.000
399.491;  -57.525; -404.000; -398.000
399.619; -130.175; -829.000; -800.000
399.747; -105.250; -859.000; -771.000
399.875;   82.550;  220.000;  234.000
400.003;  -54.250; -359.000; -284.000
400.130;  -98.950; -421.000; -341.000
400.258;  -25.175;  -83.000;   38.000
400.386;  -73.550; -352.000; -168.000
400.514;  -48.425; -526.000; -587.000
400.641;  -87.750; -928.000; -802.000
400.769; -131.625; -979.000; -888.000
400.897; -110.350; -838.000; -793.000
401.025;  -15.250; -166.000; -152.000
401.152;    2.050;  220.000;   38.000
401.280;  -84.925; -430.000; -429.000
401.408; -113.575; -712.000; -576.000
401.535;  -95.650; -735.000; -758.000
401.663; -193.475;-1134.000;-1054.000
401.790;  -83.900; -514.000; -525.000
401.918;   42.675;  436.000;  405.000
402.046;  -21.425;  134.000;  122.000
402.173;  -35.825;  -18.000;    7.000
402.301;  -72.800; -519.000; -397.000
402.428;   33.550;  528.000;  383.000
402.556; -142.900;-1188.000; -913.000
402.683;  -41.450;  -20.000;   -1.000
402.811;  -30.275;  -37.000; -206.000
402.938;   -3.975;   20.000;   27.000
403.066;  163.975; -574.000; -558.000
403.193;  329.275;  299.000;  239.000
403.321;  241.275; -396.000; -574.000
403.448;  288.350;   83.000;   27.000
403.575;  138.275;  -90.000;  -46.000
403.703;  -90.850; -732.000; -557.000
403.830;  -72.350; -531.000; -496.000
403.957; -131.900;-1117.000;-1023.000
404.085;    4.725;  -61.000; -172.000
404.212;   96.400;  -50.000;   63.000
404.339;  283.950; -566.000; -306.000
404.467; 5940.675; -612.000; -524.000
404.594; 4017.225; -287.000; -227.000
404.721;  927.750; -869.000; -764.000
404.848;   84.350; -113.000; -202.000
404.976; -107.400; -856.000; -783.000
405.103;  -20.775;  -14.000;  -82.000
405.230;  -10.750;  190.000;  226.000
405.357;   23.825;  117.000;   44.000
405.484;  267.525;  -49.000;    5.000
405.612;   73.575; -548.000; -563.000
405.739;  -70.100; -488.000; -243.000
405.866;   82.875;  669.000;  385.000
405.993;  -46.475; -398.000; -102.000
406.120; -120.050; -801.000; -887.000
406.247;  -48.350; -323.000; -342.000
406.374;  402.500;  540.000;  629.000
406.501;   93.450; -632.000; -702.000
406.628;  -83.050; -621.000; -589.000
406.755;  -99.100; -803.000; -620.000
406.882;  -43.475; -228.000; -277.000
407.009; -111.725; -719.000; -628.000
407.136;   25.650; -480.000; -401.000
407.263;  124.575; -939.000; -829.000
407.390;  -64.575; -692.000; -614.000
407.517; -169.875;-1139.000;-1187.000
407.644;  -57.575; -332.000; -256.000
407.771; -129.150; -249.000; -287.000
407.898;   17.575;  168.000;  328.000
408.025;  -61.675; -421.000; -313.000
408.151;  -12.225;   82.000;  153.000
408.278;  -79.325; -267.000; -216.000
408.405; -107.125; -931.000; -899.000
408.532;  -71.350; -549.000; -542.000
408.659; -123.050; -677.000; -648.000
408.785; -200.925;-1298.000;-1170.000
408.912;  -65.600; -412.000; -296.000
409.039; -114.200; -610.000; -686.000
409.166;  -99.625; -591.000; -555.000
409.292; -103.025; -571.000; -534.000
409.419; -114.700; -665.000; -649.000
409.546;  -84.075; -431.000; -192.000
409.672; -111.525; -713.000; -545.000
409.799;  -20.600;  -36.000;   34.000
409.926;  -36.150; -180.000; -179.000
410.052; -175.575;-1127.000;-1091.000
410.179;  -60.550; -368.000; -392.000
410.305;  -81.750; -375.000; -493.000
410.432;  -34.950; -220.000; -333.000
410.558;  -86.100; -305.000; -380.000
410.685; -104.800; -688.000; -431.000
410.812;  -93.475; -409.000; -588.000
410.938; -127.625; -964.000; -808.000
411.065; -101.125; -671.000; -645.000
411.191;  -20.950; -189.000; -174.000
411.317; -111.550; -823.000; -742.000
411.444;  -57.425; -317.000; -246.000
411.570;  -71.025; -339.000; -294.000
411.697; -119.850; -758.000; -752.000
411.823; -164.375; -989.000; -999.000
411.949;  -22.150;  -56.000;   17.000
412.076; -106.500; -539.000; -519.000
412.202; -112.700; -758.000; -757.000
412.329; -124.125; -798.000; -752.000
412.455; -119.350; -821.000; -657.000
412.581;  -22.825;  -15.000;  172.000
412.707;  -49.925; -540.000; -457.000
412.834;   22.725;  156.000;  219.000
412.960;  -86.050; -785.000; -784.000
413.086; -104.275; -743.000; -701.000
413.212;  142.825;  604.000;  578.000
413.339;  -63.025; -685.000; -701.000
413.465;    4.800; -364.000; -310.000
413.591;  -92.800; -757.000; -474.000
413.717;  -55.925; -358.000; -366.000
413.843; -124.500; -839.000; -861.000
413.969;  -62.425;  -47.000; -292.000
414.096;  -96.000; -679.000; -679.000
414.222;    2.150;  -33.000;   85.000
414.348;  -27.300; -652.000; -385.000
414.474;  100.950;   38.000;  -52.000
414.600;   -1.725; -126.000; -144.000
414.726;   -0.325;  -96.000;  -55.000
414.852;  -59.125; -365.000; -342.000
414.978;   45.775;  104.000;  -18.000
415.104;   30.950;   38.000;   80.000
415.230;   21.900; -329.000; -330.000
415.356;   44.450; -409.000; -514.000
415.482;  209.050;   13.000;  -35.000
415.608;  288.850; -247.000; -323.000
415.734;  986.075;   67.000;   38.000
415.860;20182.225; -875.000; -767.000
415.986;15605.200; -685.000; -607.000
416.111; 1389.850; -798.000; -652.000
416.237;  270.925; -424.000; -571.000
416.363; 1137.650; -765.000; -733.000
416.489; 4425.350; -324.000; -251.000
416.615;  517.775; -707.000; -742.000
416.741;  -21.125; -677.000; -784.000
416.866;  -78.750; -673.000; -736.000
416.992; -116.000; -801.000; -818.000
417.118;  -29.500;  -41.000;  -80.000
417.244;  -66.050; -798.000; -531.000
417.369;  -80.250; -801.000; -612.000
417.495;    2.125; -325.000; -254.000
417.621;  -82.350;-1015.000; -803.000
417.746;   11.050; -579.000; -572.000
417.872;   54.250; -254.000; -144.000
417.998;   74.425; -515.000; -530.000
418.123; 1043.000;-1073.000; -845.000
418.249; 5666.350; -512.000; -601.000
418.374;  834.625; -916.000; -824.000
418.500;  126.725; -383.000; -482.000
418.626;  116.050;   70.000;  -59.000
418.751;  124.850; -549.000; -448.000
418.877;  218.450; -637.000; -643.000
419.002; 1771.650; -688.000; -560.000
419.128;13076.625; -930.000; -721.000
419.253; 3414.850; -967.000; -837.000
419.379;  459.775; -391.000; -338.000
419.504;  395.925;  325.000;  415.000
419.629;  530.025; -393.000; -212.000
419.755; 3548.875; -317.000; -254.000
419.880;22196.300;  -98.000;   67.000
420.006;11906.000; -280.000; -221.000
420.131;30893.825; -662.000; -775.000
420.256; 4695.725; -315.000; -316.000
420.382;  616.825; -665.000; -687.000
420.507;   79.200; -649.000; -778.000
420.632;  116.900; -337.000; -339.000
420.758;  216.275; -251.000; -425.000
420.883;  -80.225; -876.000; -672.000
421.008; -103.300; -775.000; -619.000
421.133;  -78.875; -509.000; -467.000
421.259;  -38.275; -325.000; -259.000
421.384; -119.225; -834.000; -693.000
421.509;  -67.875;-1052.000; -862.000
421.634; 1004.250; -936.000; -820.000
421.759;  489.100; -359.000; -327.000
421.885;  -60.400; -717.000; -656.000
422.010;  -73.650; -673.000; -542.000
422.135; -133.950; -695.000; -727.000
422.260;   30.950;  340.000;  280.000
422.385;  -27.150;   12.000;  -98.000
422.510;    4.800;  151.000;  -26.000
422.635;   20.050;  -87.000;  -43.000
422.760;  103.475; -766.000; -791.000
422.885;   68.325;  -57.000;  -80.000
423.010;  -28.725; -112.000; -169.000
423.135;  -88.350; -481.000; -561.000
423.260;  -16.475; -150.000; -245.000
423.385;   56.350;  476.000;  222.000
423.510;   19.300;   71.000;  -22.000
423.635;   62.400;  133.000;   45.000
423.760;   44.900;  383.000;  328.000
423.885;   47.575;  336.000;  391.000
424.010;   16.750;  -68.000;  -13.000
424.135;  -23.650;    5.000;  -33.000
424.259;  -87.000; -654.000; -457.000
424.384;  -61.300; -279.000; -272.000
424.509;  -28.525; -260.000; -186.000
424.634;  -88.000; -761.000; -623.000
424.759;   -5.150; -688.000; -544.000
424.883;  -20.475; -506.000; -527.000
425.008;  165.750; -502.000; -410.000
425.133; 2052.275; -679.000; -653.000
425.258; 1046.300; -517.000; -381.000
425.382;  957.525; -867.000; -774.000
425.507; 2571.025; -487.000; -543.000
425.632;  455.000; -802.000; -663.000
425.756;  497.825; -256.000; -146.000
425.881; 6560.700; -831.000; -857.000
426.006;19038.700; -604.000; -355.000
426.130; 3121.400; -696.000; -508.000
426.255;  399.400; -611.000; -491.000
426.379;  162.300; -189.000; -577.000
426.504;  378.150;  660.000;  544.000
426.629; 4078.050; -519.000; -466.000
426.753; 3005.750;   64.000;  -46.000
426.878;  344.475; -252.000; -288.000
427.002;  193.375; -651.000; -668.000
427.127; 1563.125;  -35.000; -158.000
427.251;11794.475;  372.000;  401.000
427.375; 3590.725; -191.000; -173.000
427.500; 2219.600; -616.000; -610.000
427.624;  811.625; -234.000; -400.000
427.749;   91.200; -216.000; -225.000
427.873;  -35.250; -499.000; -412.000
427.997;  -37.425; -222.000; -230.000
428.122;   69.950;  795.000;  703.000
428.246;   64.450;  433.000;  434.000
428.371; -119.875; -869.000; -773.000
428.495; -107.600; -624.000; -646.000
428.619;  -52.100; -186.000; -117.000
428.743;   21.550;   65.000;  132.000
428.868;   -0.150; -732.000; -643.000
428.992; 1308.450; -219.000; -326.000
429.116;  567.075; -329.000; -357.000
429.240;  266.150;  419.000;  426.000
429.365;  -25.525; -454.000; -574.000
429.489;  -35.850; -638.000; -647.000
429.613;   25.000; -236.000; -177.000
429.737;   35.325; -563.000; -432.000
429.861;  277.400; -247.000; -133.000
429.985; 5598.000; -425.000; -305.000
430.109; 6589.625; -770.000; -908.000
430.234;  775.325;   76.000;  -50.000
430.358;   76.925; -250.000; -160.000
430.482;  -57.625; -672.000; -564.000
430.606;  -70.325; -655.000; -375.000
430.730;    3.550; -437.000; -388.000
430.854;  103.275; -909.000; -835.000
430.978;  -67.200; -795.000; -764.000
431.102;  -84.075; -499.000; -422.000
431.226; -124.350; -874.000; -815.000
431.350;   31.775;  345.000;  422.000
431.474;  -71.025; -661.000; -373.000
431.597; -145.775;-1060.000; -848.000
431.721;  -75.550; -276.000; -267.000
431.845; -136.450; -704.000; -472.000
431.969;  -77.550; -304.000; -349.000
432.093;  -99.850; -395.000; -317.000
432.217;  -13.875;   32.000;   82.000
432.341;  -96.975; -523.000; -518.000
432.464;    3.200;   96.000;   40.000
432.588;  176.025; -401.000; -329.000
432.712;   88.500;  -52.000;  -52.000
432.836;   49.525;  213.000;  263.000
432.959;  -12.725; -372.000; -311.000
433.083;   79.150;   11.000;    2.000
433.207;  373.050;  285.000;  930.000
433.330; 5154.375; -391.000; -200.000
433.454; 6714.725; -654.000; -638.000
433.578; 3789.375;  583.000;  278.000
433.701;  764.525; -623.000; -675.000
433.825;  138.100; -292.000; -299.000
433.949;  136.625;   28.000;  -72.000
434.072;   49.550; -410.000; -323.000
434.196;  -16.350; -309.000; -117.000
434.319; 3697.350;25482.000;25124.000
434.443;  701.425; -656.000; -603.000
434.566; 2782.600;  281.000;   62.000
434.690;  514.875; -637.000; -383.000
434.813;   62.425; -251.000; -173.000
434.937;  -68.025; -569.000; -696.000
435.060;  -55.650; -423.000; -332.000
435.184;  238.050; -492.000; -217.000
435.307;  145.675;  159.000;  102.000
435.431;   -8.275;  -40.000;   24.000
435.554;  -83.150; -399.000; -240.000
435.677;  -87.350; -350.000; -258.000
435.801;  -42.975;  -25.000;   49.000
435.924;  -24.125;    1.000;  -67.000
436.048; -116.625;-1019.000; -732.000
436.171;  -78.875; -240.000;  -66.000
436.294;  -18.300; -248.000; -229.000
436.417;   98.450; -963.000; -849.000
436.541;  -70.950; -814.000; -840.000
436.664;  -44.150; -242.000; -316.000
436.787;  -19.500;   13.000;  113.000
436.910; -101.500; -792.000; -422.000
437.034;    6.300;  142.000;  143.000
437.157;   44.325;  -11.000;    0.000
437.280;  -49.075; -392.000; -292.000
437.403;  -81.075; -982.000; -869.000
437.526;  499.125; -903.000; -865.000
437.649; 2024.575; -505.000; -332.000
437.772;  330.800; -692.000; -540.000
437.896;  110.575;  700.000;  544.000
438.019; -110.325; -758.000; -503.000
438.142;  -98.775; -596.000; -506.000
438.265;  -31.825; -639.000; -670.000
438.388;  521.275; -520.000; -410.000
438.511;  102.075; -597.000; -394.000
438.634;  -59.275; -247.000; -125.000
438.757; -136.300; -693.000; -619.000
438.880;  -28.900;  -34.000;  -57.000
439.003;  -76.250; -417.000; -437.000
439.126;  -70.025; -287.000; -167.000
439.248;  -67.250;  -98.000; -139.000
439.371;  -50.150;    9.000;  -53.000
439.494;   22.625;  510.000;  439.000
439.617;  -54.000;   65.000;  -88.000
439.740; -182.375; -968.000; -816.000
439.863; -135.425; -755.000; -595.000
439.986; -115.900; -476.000; -431.000
440.108;  -54.375; -161.000; -112.000
440.231; -160.825; -950.000; -836.000
440.354;  -42.900;  -64.000; -150.000
440.477;   14.500; -566.000; -542.000
440.599;    2.950; -200.000; -225.000
440.722; -113.025; -709.000; -586.000
440.845;   63.225;  751.000;  928.000
440.968; -100.875; -415.000; -311.000
441.090;  -51.300; -199.000;  -33.000
441.213; -166.325;-1021.000; -825.000
441.336;  -54.250; -159.000;   -5.000
441.458;  -82.050; -549.000; -396.000
441.581;  -81.425; -628.000; -629.000
441.703;  -60.650; -152.000;   13.000
441.826; -111.575; -557.000; -400.000
441.948;  -45.825;   56.000;   51.000
442.071;   17.400;  555.000;  424.000
442.193; -119.825; -531.000; -485.000
442.316;   18.200;  152.000;   97.000
442.438;   38.850; -233.000;  -10.000
442.561;   64.800;  272.000;  262.000
442.683;  436.325; -809.000; -522.000
442.806; 1055.900;   -8.000;   74.000
442.928;   23.525; -859.000; -604.000
443.051;  -75.950; -577.000; -373.000
443.173;  -92.800; -341.000; -339.000
443.295;  -82.225; -263.000; -371.000
443.418;  -79.000; -321.000;  -29.000
443.540;   -1.125; -106.000;   -4.000
443.662; -121.650; -563.000; -465.000
443.785;  -16.775;  335.000;  199.000
443.907; -100.625; -362.000; -208.000
444.029; -123.775; -767.000; -494.000
444.152; -144.775; -644.000; -554.000
444.274;  -35.950;  -18.000;  -24.000
444.396; -110.375; -461.000; -221.000
444.518; -129.875; -691.000; -454.000
444.640; -105.425; -268.000; -111.000
444.763;  -23.050;  388.000;  249.000
444.885; -120.575; -432.000; -392.000
445.007;  -32.675;   35.000;   86.000
445.129; -115.825; -610.000; -515.000
445.251; -106.075; -372.000; -439.000
445.373; -136.700; -537.000; -386.000
445.495;  -13.050;  242.000;  350.000
445.617;   57.550;  853.000;  753.000
445.739;  -67.775; -215.000;  -97.000
445.861;  -42.275; -245.000; -112.000
445.984;  -32.900; -267.000; -101.000
446.105;  151.175; -418.000; -251.000
446.227;  564.725; -176.000;  -19.000
446.349;    8.150; -358.000; -249.000
446.471;  -90.625; -615.000; -448.000
446.593;  -54.525; -316.000;   19.000
446.715;    5.625;  -67.000;   41.000
446.837;   44.275;  697.000;  832.000
446.959; -103.825; -457.000; -478.000
447.081; -129.875; -628.000; -518.000
447.203;   54.850;  862.000;  834.000
447.325;  -94.100; -270.000;   42.000
447.446;   -3.025;  286.000;  530.000
447.568; -153.525; -921.000; -803.000
447.690;  -83.900; -236.000; -245.000
447.812; -149.850; -798.000; -519.000
447.933;  -17.550;  155.000;  127.000
448.055;  -64.700; -306.000; -261.000
448.177;  119.025;   31.000;   79.000
448.299;   76.150; -935.000; -727.000
448.420;   35.775;  -25.000;  159.000
448.542;  -46.000;   -3.000;   33.000
448.664;  -28.800;  109.000;  322.000
448.785;  -31.725;  265.000;   83.000
448.907;  -85.550; -614.000; -353.000
449.028;  -41.175; -771.000; -471.000
449.150;   57.350;  492.000;  589.000
449.272; -170.275;-1044.000; -913.000
449.393;   23.075;  612.000;  694.000
449.515; -144.825; -634.000; -581.000
449.636;  -68.050; -264.000; -155.000
449.758;   73.075;  763.000;  622.000
449.879; -100.925; -498.000; -396.000
450.001;  -69.150; -149.000;  -49.000
450.122;  -24.500;  -95.000;  162.000
450.244;  -22.150;   37.000;  364.000
450.365;  -74.850; -495.000; -301.000
450.486;  -36.150;   80.000;  268.000
450.608;   33.375;  393.000;  326.000
450.729;   83.525;  578.000;  645.000
450.850;   11.775; -574.000; -466.000
450.972;  748.825; -552.000; -389.000
451.093; 5106.375;  190.000;  588.000
451.214; 2433.200; -516.000; -337.000
451.336;  441.500;  773.000;  579.000
451.457;   77.175;  264.000;  393.000
451.578;  -41.950; -118.000;  -74.000
451.699; -114.700; -546.000; -540.000
451.821;  -61.825; -284.000;  -50.000
451.942;   10.200;  278.000;  285.000
452.063;   39.100;  228.000;  419.000
452.184;  565.650;  -54.000;  -49.000
452.305; 1171.725;  103.000;  170.000
452.427;  161.925; -549.000; -301.000
452.548;   -7.900;   23.000;   79.000
452.669;  -54.475; -257.000;  -89.000
452.790;  -40.475;    3.000;  -18.000
452.911;  -13.400;  195.000;  259.000
453.032;  -69.500; -289.000;  -60.000
453.153;  -48.275;  -29.000;   81.000
453.274;   45.925;  737.000;  868.000
453.395;  -61.700;  -51.000;  175.000
453.516;  126.075; 1317.000; 1388.000
453.637;  -75.775; -205.000; -150.000
453.758;  -48.100;   15.000;   69.000
453.879; -115.800; -462.000; -250.000
454.000;   87.475; 1086.000;  948.000
454.121; -112.725; -554.000; -326.000
454.242; -116.150; -599.000; -383.000
454.362;  -74.425;  -99.000;  114.000
454.483;  -42.550; -309.000; -229.000
454.604;   49.175;  512.000;  580.000
454.725; -128.250; -627.000; -555.000
454.846; -115.350; -474.000; -406.000
454.967;  -36.575;  230.000;  539.000
455.087;  -31.550;  179.000;  153.000
455.208;   25.900;  554.000;  856.000
455.329;  -67.175;  -22.000;   82.000
455.450;   36.100;  473.000;  633.000
455.570;  -80.875; -234.000; -211.000
455.691;  -33.575;  201.000;  407.000
455.812; -101.425; -270.000;  -92.000
455.932;  -53.275;  107.000;  -97.000
456.053;  -78.775;   36.000;   24.000
456.173; -116.300; -433.000; -355.000
456.294; -140.425; -476.000; -303.000
456.415;  -74.600;  -73.000;   70.000
456.535;  -38.850;  297.000;  273.000
456.656;  -44.450;  132.000;  240.000
456.776;  -71.100;    3.000;  298.000
456.897;    0.850;  308.000;  513.000
457.017;  -86.725; -153.000;   -3.000
457.138; -110.625; -402.000; -249.000
457.258;  -31.050;  263.000;  224.000
457.379;  -11.825;  509.000;  521.000
457.499;  -30.525;  443.000;  432.000
457.620; -118.700; -407.000; -231.000
457.740; -102.525; -132.000;  -11.000
457.860;  -64.200;   87.000;   44.000
457.981;  -46.775;  132.000;  124.000
458.101;  -73.800;  -89.000;   40.000
458.221;  -14.700;  336.000;  402.000
458.342;  -48.500;   -4.000;  -37.000
458.462;   31.400;  617.000;  352.000
458.582;  -31.800; -302.000; -294.000
458.703;   16.575;  303.000;  154.000
458.823;  -15.325;   22.000;  163.000
458.943;   20.275;  341.000;  467.000
459.063;  -17.325; 1124.000;  192.000
459.183;  -38.125;  328.000;  313.000
459.304;   10.275;  315.000;  517.000
459.424;  -53.425; -246.000;  -89.000
459.544;  320.850;  388.000;  764.000
459.664;  875.100;  499.000;  506.000
459.784;  341.825; 1004.000; 1175.000
459.904;   59.825;  867.000;  744.000
460.024;   70.100;  867.000;  684.000
460.144;    6.325;  449.000;  554.000
460.264;    9.400;  515.000;  327.000
460.385;  -90.625; -145.000; -119.000
460.505;   21.625;  905.000;  858.000
460.625;  -98.300;  -17.000;  -68.000
460.745;  -22.125;  396.000;  541.000
460.864;  -51.475;  153.000;  469.000
460.984;    6.575;  499.000;  573.000
461.104;  139.975; 1656.000; 1775.000
461.224;   12.400;  657.000;  650.000
461.344;  -11.400;  431.000;  360.000
461.464;  -21.825;  258.000;  513.000
461.584;  -22.950;  283.000;  466.000
461.704;  -48.100;   58.000;  108.000
461.824;  -49.925;  238.000;  259.000
461.943;  -43.450;  191.000;  130.000
462.063;  -85.475;    2.000;  324.000
462.183;   29.975;  639.000;  717.000
462.303;   98.900; 1678.000; 1230.000
462.422;   33.000;  781.000;  840.000
462.542;  -39.400;  271.000;  391.000
462.662;   38.200;  353.000;  380.000
462.782;  228.575;  833.000;  572.000
462.901;  497.825;  545.000;  717.000
463.021;  300.200; 1702.000; 1638.000
463.141;   -7.050;  337.000;  770.000
463.260;  -22.325;  614.000;  474.000
463.380;   20.400;  902.000;  884.000
463.499;  -53.625;  342.000;  332.000
463.619;  -19.575;  581.000;  559.000
463.738;  102.325; 1644.000;  903.000
463.858;   17.325;  657.000;  811.000
463.978;  -31.950;  542.000;  396.000
464.097;   49.700;  921.000; 1114.000
464.217;  120.125; 1196.000; 1143.000
464.336;  123.800; 1068.000; 1130.000
464.455;  -27.375;  328.000;  659.000
464.575;   43.100;  597.000;  602.000
464.694;  165.050; 1204.000; 1179.000
464.814;  127.450; 1190.000; 1138.000
464.933;   79.175; 1095.000; 1027.000
465.052;   95.825; 1412.000; 1054.000
465.172;   86.650;  922.000;  799.000
465.291;  128.300; 1376.000; 1320.000
465.410;   17.050;  462.000;  735.000
465.530;   73.475; 1355.000; 1310.000
465.649;   74.125; 1209.000; 1273.000
465.768;  148.275; 1673.000; 1508.000
465.888;   54.925;  941.000; 1174.000
466.007;   87.200; 1335.000; 1440.000
466.126;    4.750;  721.000;  641.000
466.245;   38.100; 1176.000; 1187.000
466.364;   15.950;  950.000; 1060.000
466.484;   46.750; 1024.000; 1213.000
466.603;   32.250; 1101.000; 1222.000
466.722;  117.675; 1490.000; 1769.000
466.841;   62.825; 1151.000; 1401.000
466.960;   51.900; 1069.000;  972.000
467.079;  118.600; 1971.000; 1786.000
467.198;   51.675; 1238.000; 1181.000
467.317;   93.225; 1768.000; 1162.000
467.436;   88.125; 1709.000; 1261.000
467.555;  116.750; 1796.000; 1746.000
467.674;   71.475; 1227.000; 1329.000
467.793;   57.175; 1376.000; 1374.000
467.912;   89.575; 1658.000; 1539.000
468.031;  138.600; 2038.000; 1930.000
468.150;  139.325; 1842.000; 1837.000
468.269;  185.450; 2313.000; 2090.000
468.388;  187.825; 2168.000; 2339.000
468.507;  246.825; 2884.000; 2903.000
468.626;  271.875; 2555.000; 2541.000
468.744;  149.750; 2018.000; 2174.000
468.863;  193.325; 2312.000; 2523.000
468.982;   86.125; 1503.000; 1555.000
469.101;  215.750; 2788.000; 2692.000
469.220;  149.625; 2333.000; 2176.000
469.338;  243.525; 2935.000; 3051.000
469.457;  195.150; 2719.000; 2545.000
469.576;  355.300; 3953.000; 3784.000
469.695;  242.350; 2877.000; 3066.000
469.813;  421.450; 4148.000; 4192.000
469.932;  393.950; 4255.000; 4485.000
470.051;  423.975; 4075.000; 4161.000
470.169;  863.750; 4470.000; 4338.000
470.288; 1499.400; 4700.000; 4809.000
470.406;  905.475; 5059.000; 5194.000
470.525;  643.925; 6101.000; 5787.000
470.644;  652.150; 6847.000; 6794.000
470.762;  798.300; 8397.000; 7873.000
470.881;  922.050; 8651.000; 8464.000
470.999; 1024.475; 9685.000; 9151.000
471.118; 1099.125;11174.000;10711.000

