
Integration time [ms]: 100.000
Averaging Nr. [scans]: 40
Smoothing Nr. [pixels]: 0
Data measured with spectrometer [name]: 2101012U2
Wave   ;Sample   ;Dark     ;Reference
[nm]   ;[counts] ;[counts] ;[counts] 

197.733;   49.475;  516.000;  404.000
197.879;  -84.850; -610.000; -634.000
198.025;  -43.475; -475.000; -420.000
198.171;  -71.000; -602.000; -612.000
198.317;  -25.575; -401.000; -316.000
198.463;  -67.000; -655.000; -404.000
198.609;   24.775;  181.000; -137.000
198.755;  -77.225; -644.000; -410.000
198.901;  -59.400; -505.000; -424.000
199.047;  -65.350; -615.000; -488.000
199.193;  -36.550; -230.000; -468.000
199.339;  -34.425; -222.000; -369.000
199.485;   26.100;  330.000;  271.000
199.631;   16.125;  227.000;  310.000
199.777;  -47.675; -466.000; -398.000
199.923;  -68.475; -610.000; -424.000
200.069;   -0.725; -141.000;  -58.000
200.215;   54.475;  128.000;  453.000
200.361;   51.275;  243.000;  477.000
200.507;  -64.275; -600.000; -373.000
200.653;  -24.200; -371.000; -194.000
200.798;  -26.725; -215.000; -125.000
200.944;   -2.450; -146.000;  -41.000
201.090;   31.425;   61.000;  222.000
201.236;    4.250; -116.000; -158.000
201.382;  129.275;  874.000;  903.000
201.528;   -9.400;  -58.000;  -48.000
201.674;  -50.375; -386.000; -293.000
201.819;  -72.700; -540.000; -439.000
201.965;  -79.600; -699.000; -447.000
202.111;  -31.825; -273.000; -226.000
202.257;  -30.875; -250.000; -238.000
202.402;   19.500;   13.000;  -36.000
202.548;  -47.375; -169.000; -116.000
202.694;   78.975;  410.000; -183.000
202.840;  -66.975; -603.000; -531.000
202.985;  -81.275; -681.000; -639.000
203.131; -105.575; -832.000; -666.000
203.277;  -22.725; -199.000; -262.000
203.423;  -60.350; -434.000; -520.000
203.568;  -28.925; -462.000; -237.000
203.714;  -59.150; -535.000; -542.000
203.860;  -77.300; -682.000; -641.000
204.005;   19.200;  112.000;  167.000
204.151;   74.950;  561.000;  556.000
204.296;  -58.225; -354.000; -221.000
204.442;  -67.250; -600.000; -547.000
204.588;  -73.525; -592.000; -579.000
204.733;   22.650;  178.000;  168.000
204.879; -143.275;-1018.000; -822.000
205.025;    8.550;  -99.000;  126.000
205.170;   -2.200;  -17.000;   94.000
205.316;   85.975;  438.000;  661.000
205.461;  -81.175; -698.000; -554.000
205.607;   86.075;  609.000;  665.000
205.752;  -70.700; -626.000; -551.000
205.898;  -49.025; -501.000; -391.000
206.043;  -70.125; -578.000; -506.000
206.189;  -45.325; -243.000; -285.000
206.334;   72.000;  554.000;  606.000
206.480;   84.375;  409.000;  239.000
206.625;  -81.475; -529.000; -552.000
206.771;  -58.825; -451.000; -373.000
206.916;  -46.975; -210.000; -537.000
207.062;  -80.675; -545.000; -591.000
207.207;  -61.975; -546.000; -443.000
207.353;   61.775;  185.000;  460.000
207.498;   17.475;  196.000;   85.000
207.643;  -56.325; -501.000; -370.000
207.789; -131.575;-1069.000; -910.000
207.934;  -85.900; -665.000; -713.000
208.080;  -32.475; -154.000;   66.000
208.225;   -4.900;  -22.000;  -57.000
208.370;  -89.300; -727.000; -619.000
208.516;  -76.475; -741.000; -487.000
208.661;  -29.975; -127.000;  -69.000
208.806;  -12.300; -165.000; -171.000
208.952; -117.825;-1044.000; -731.000
209.097;   71.775;  378.000;  349.000
209.242;  -41.900; -307.000; -382.000
209.387;   56.300;  392.000;  350.000
209.533;  -35.725; -321.000; -350.000
209.678;   69.825;  472.000;  543.000
209.823;  -63.900; -408.000; -310.000
209.969;  -97.700; -860.000; -757.000
210.114; -107.350; -907.000; -719.000
210.259; -117.325; -939.000; -889.000
210.404;   -6.000; -171.000;  103.000
210.549;   14.475;  108.000;    3.000
210.695;  -21.450;   -3.000;  -95.000
210.840;   23.875;   94.000;   67.000
210.985;  -59.800; -484.000; -303.000
211.130;   70.250;  268.000;  406.000
211.275;   14.450;  207.000;  199.000
211.420;  -44.550; -300.000; -289.000
211.566;  -74.850; -536.000; -489.000
211.711;   22.875;  218.000;  157.000
211.856;  -67.525; -545.000; -519.000
212.001;   -0.875;  151.000;   44.000
212.146;   10.950;  153.000;   49.000
212.291;  -19.525; -210.000; -186.000
212.436;  -31.050; -280.000;   -6.000
212.581;  -95.600; -685.000; -653.000
212.726;  -91.000; -487.000; -538.000
212.871;  -49.550; -552.000; -217.000
213.016; -154.600;-1172.000;-1029.000
213.161;   64.950;  406.000;  291.000
213.306;  -75.825; -435.000; -577.000
213.451;  -95.800; -778.000; -689.000
213.596;  -41.400; -455.000; -347.000
213.741;  -45.600; -448.000; -538.000
213.886;  -88.425; -498.000; -517.000
214.031;  -13.200; -294.000; -124.000
214.176;  -59.525; -408.000; -341.000
214.321;  -20.675; -296.000; -157.000
214.466;  -28.675; -163.000;  -43.000
214.611;    2.525;  -61.000;  -10.000
214.756; -118.250; -948.000; -858.000
214.901;  -33.200; -388.000; -226.000
215.046; -137.225; -797.000; -825.000
215.191;   11.700;  128.000;   35.000
215.336;  -19.875; -157.000;  -19.000
215.480;  -84.225; -684.000; -505.000
215.625;  -12.825; -175.000;  -19.000
215.770;  -86.125; -757.000; -662.000
215.915;   -6.375;   -5.000;  -97.000
216.060;    1.025; -113.000;  -21.000
216.205; -117.450; -731.000; -779.000
216.349;  -65.075; -470.000; -533.000
216.494; -141.075; -939.000; -867.000
216.639; -118.675; -823.000; -888.000
216.784;  -82.700; -577.000; -525.000
216.929;   37.350;  392.000;  281.000
217.073;  -19.975; -244.000;  -31.000
217.218;    1.625;   78.000;  -47.000
217.363;  -86.125; -656.000; -618.000
217.507;  -87.425; -623.000; -588.000
217.652; -130.775; -845.000; -874.000
217.797;  -92.075; -708.000; -659.000
217.942; -117.025; -856.000; -720.000
218.086;   76.650;  608.000;  539.000
218.231;  -45.950; -174.000;  -26.000
218.376;  -29.575; -337.000; -229.000
218.520;    4.975;  -41.000;   96.000
218.665;  -41.575; -338.000; -204.000
218.810;  -41.525; -275.000; -233.000
218.954;   13.575;  201.000;   35.000
219.099; -126.750; -713.000; -963.000
219.243;  -79.325; -589.000; -554.000
219.388;  -42.375; -264.000; -136.000
219.532;   -9.075; -116.000; -116.000
219.677;  -77.400; -564.000; -521.000
219.822;   12.400;   33.000;   89.000
219.966;   -1.375;   17.000;  -99.000
220.111;  -31.350; -328.000;  -40.000
220.255;  -96.250; -797.000; -750.000
220.400;  -18.950; -180.000; -146.000
220.544;  -68.625; -516.000; -450.000
220.689;  -54.825; -422.000; -451.000
220.833;  -12.550; -123.000;  -58.000
220.978;  -34.325; -393.000; -563.000
221.122;   36.000;  319.000;  307.000
221.267; -114.400; -906.000; -837.000
221.411;  -67.825; -478.000; -394.000
221.555;   -6.375; -104.000;  -23.000
221.700;  -50.025; -329.000; -222.000
221.844;   38.400;  255.000;  272.000
221.989;  -58.550; -328.000; -311.000
222.133;  -48.575; -289.000; -307.000
222.277;   -7.625;    5.000;   78.000
222.422;    9.925;  227.000;  113.000
222.566;  -47.850; -381.000; -214.000
222.711;  -71.200; -414.000; -479.000
222.855;  -88.275; -643.000; -586.000
222.999;  -86.150; -642.000; -717.000
223.144;  -29.000; -195.000; -194.000
223.288;   47.075;  423.000;  251.000
223.432;   29.300;  184.000;  230.000
223.576;   28.650;  152.000;  -21.000
223.721;   35.675;  364.000;  273.000
223.865;  -55.950; -472.000; -475.000
224.009;  279.250; 1673.000; 1631.000
224.153;  -85.175; -660.000; -671.000
224.298;  -78.975; -531.000; -489.000
224.442;  -20.625;  -74.000;  -33.000
224.586;  -10.800; -169.000; -106.000
224.730;  -99.150; -858.000; -670.000
224.875; -109.425; -739.000; -688.000
225.019;   19.200;  102.000;  188.000
225.163;   52.875;  208.000;  341.000
225.307;    2.925;   97.000;  -91.000
225.451;   52.125;  360.000;  481.000
225.595;   31.450;  264.000;  176.000
225.739;  -30.125; -170.000;  -94.000
225.884;   15.100;   86.000;    5.000
226.028; -108.200; -760.000; -626.000
226.172;  -42.775; -260.000; -273.000
226.316; -121.650; -941.000; -902.000
226.460;  -75.125; -645.000; -493.000
226.604;  -57.750; -406.000; -400.000
226.748; -105.275; -836.000; -733.000
226.892;  -30.800; -227.000; -181.000
227.036;  -48.475; -537.000; -447.000
227.180;  -61.100; -551.000; -375.000
227.324;  -54.875; -561.000; -580.000
227.468; -130.125; -819.000; -717.000
227.612;   13.000;  242.000;  -28.000
227.756;  -96.375; -845.000; -698.000
227.900;   40.700;  342.000;  441.000
228.044;  -73.000; -509.000; -290.000
228.188;   60.275;  448.000;  568.000
228.332;  -92.925; -546.000; -472.000
228.476;  -27.775; -223.000; -149.000
228.620;  -39.875; -210.000; -150.000
228.764;   62.700;  431.000;  349.000
228.908;  -23.650; -155.000;   30.000
229.052;  -60.750; -615.000; -528.000
229.195;  -20.250; -172.000;   13.000
229.339;  -24.875; -235.000; -305.000
229.483;  -24.500;    5.000; -162.000
229.627;    2.450; -156.000;  139.000
229.771;  -49.425; -218.000; -294.000
229.915;    2.950;  230.000;   79.000
230.059;  -91.275; -648.000; -663.000
230.202;  -32.150; -370.000; -317.000
230.346;  -27.425; -107.000;  107.000
230.490;  -58.100; -489.000; -521.000
230.634; -115.400; -736.000; -553.000
230.777;   83.225;  478.000;  509.000
230.921;  -52.650; -450.000; -359.000
231.065;  -53.350; -246.000; -286.000
231.209;   25.350;  261.000;  265.000
231.352;   17.125;   54.000;   40.000
231.496;   15.975;  568.000;  188.000
231.640;  -79.800; -693.000; -621.000
231.783;   63.150;  546.000;  525.000
231.927;  -26.700; -294.000; -365.000
232.071; -127.775; -962.000; -736.000
232.214; -115.250; -980.000; -764.000
232.358; -103.550; -683.000; -599.000
232.502;    3.450;  -19.000;    7.000
232.645; -139.100;-1090.000; -927.000
232.789;  -32.425; -257.000; -218.000
232.933;  -42.000; -407.000; -224.000
233.076; -117.925;-1038.000; -897.000
233.220; -108.125; -752.000; -777.000
233.363;  -70.500; -669.000; -477.000
233.507;   54.625;  371.000;  129.000
233.650; -100.600; -764.000; -834.000
233.794;   39.900;  438.000;  461.000
233.938;  -75.525; -530.000; -362.000
234.081;  -16.150;  -93.000;   31.000
234.225;  -78.425; -631.000; -539.000
234.368; -124.525; -773.000; -723.000
234.512;  -40.150; -385.000; -299.000
234.655;  -97.875; -582.000; -555.000
234.798;  -71.175; -493.000; -466.000
234.942; -143.875; -884.000;-1002.000
235.085;  -75.200; -651.000; -443.000
235.229;  -70.625; -405.000; -410.000
235.372;  -57.375; -247.000; -191.000
235.516;  -59.750; -397.000; -321.000
235.659;   29.200;   92.000;  121.000
235.802;  -16.700;  -38.000;  -22.000
235.946;   39.350;  335.000;  215.000
236.089;   19.450;  126.000;  250.000
236.233;   42.300;  275.000;  298.000
236.376;  -40.800; -235.000; -378.000
236.519;  -48.075; -297.000; -319.000
236.663;  -24.200; -215.000; -117.000
236.806; -142.450;-1029.000; -999.000
236.949;   56.100;  543.000;  431.000
237.092;   55.175;  412.000;  391.000
237.236;  -90.950; -589.000; -502.000
237.379;   64.200;  352.000;  428.000
237.522; -131.250; -879.000; -768.000
237.666;  -28.675; -271.000;   18.000
237.809; -127.050; -851.000; -823.000
237.952;   24.875;  469.000;  271.000
238.095;  -62.475; -447.000; -442.000
238.238;   88.350;  688.000;  700.000
238.382;   -8.300;  166.000;  103.000
238.525;  -76.175; -598.000; -511.000
238.668; -149.250;-1060.000; -985.000
238.811;  -80.400; -638.000; -643.000
238.954;  -59.475; -483.000; -334.000
239.097;   86.575;  617.000;  664.000
239.241;   24.400;  394.000;  326.000
239.384;  -24.925; -254.000; -214.000
239.527;  -55.200; -424.000; -224.000
239.670; -158.500; -994.000;-1091.000
239.813; -111.150; -696.000; -658.000
239.956;   71.525;  579.000;  473.000
240.099; -115.725; -778.000; -725.000
240.242;   57.700;  428.000;  432.000
240.385;   33.800;  466.000;  450.000
240.528;  -70.325; -706.000; -473.000
240.671;    0.825;  189.000;  134.000
240.814;  -37.050; -441.000; -158.000
240.957; -107.550; -767.000; -578.000
241.100;  -92.850; -779.000; -755.000
241.243; -148.500;-1234.000; -893.000
241.386;  -66.375; -508.000; -379.000
241.529;  -89.925; -735.000; -547.000
241.672;  -69.425; -566.000; -495.000
241.815; -112.600; -832.000; -808.000
241.958;  -31.225; -125.000; -182.000
242.101;  -77.100; -545.000; -390.000
242.244;  -40.300; -270.000; -325.000
242.387;  -46.600; -304.000; -246.000
242.530;   45.625;  470.000;  134.000
242.673;  -55.325; -381.000; -309.000
242.815; -130.975; -925.000; -899.000
242.958;  -71.575; -482.000; -381.000
243.101;   11.200;  132.000;  187.000
243.244;  -85.575; -564.000; -521.000
243.387;  -50.075; -313.000; -316.000
243.530;  -97.375; -657.000; -674.000
243.672;    8.125;   43.000;  -92.000
243.815;  -51.525; -355.000; -283.000
243.958;    5.925;   98.000;  -26.000
244.101;    1.275;   59.000;  -16.000
244.243;  -17.100;  -47.000;  101.000
244.386; -121.300; -761.000; -630.000
244.529;  -12.100; -132.000; -139.000
244.672; -167.725;-1154.000; -951.000
244.814;  -95.850; -621.000; -794.000
244.957;  -39.075; -380.000; -304.000
245.100;  -80.675; -489.000; -489.000
245.242;  -67.425; -387.000; -374.000
245.385;  -10.175;  -59.000;  -39.000
245.528; -121.525; -871.000; -705.000
245.670;   83.550;  612.000;  634.000
245.813;  -84.525; -599.000; -547.000
245.956;  -39.600; -324.000; -275.000
246.098;  -87.150; -508.000; -650.000
246.241;    4.400;  194.000;   48.000
246.383;  -21.050; -119.000;  -73.000
246.526;  -75.725; -454.000; -525.000
246.669; -122.975; -889.000; -780.000
246.811;   16.175;  172.000;   -1.000
246.954;  -59.650; -512.000; -426.000
247.096;  -12.075;  -84.000;   -6.000
247.239;  -70.150; -482.000; -445.000
247.381;  -71.850; -647.000; -488.000
247.524;   77.625;  645.000;  679.000
247.666;    0.400;   58.000;   11.000
247.809; -128.325; -887.000; -691.000
247.951;   -6.625;  -75.000;  138.000
248.094;   26.175;  432.000;  308.000
248.236; -169.575;-1262.000;-1238.000
248.378;   -7.475; -356.000;  -81.000
248.521;  -31.325; -334.000; -337.000
248.663;  -34.350; -236.000; -267.000
248.806;  -27.650; -300.000; -266.000
248.948; -103.750; -886.000; -763.000
249.090;  -40.150; -428.000; -398.000
249.233;  -58.300; -344.000; -381.000
249.375;  -64.850; -474.000; -451.000
249.518;  -28.600;  -83.000; -133.000
249.660;   -7.600; -103.000;    3.000
249.802; -186.575;-1303.000;-1189.000
249.945;  -75.600; -612.000; -540.000
250.087; -112.625; -834.000; -768.000
250.229;  -47.675; -362.000; -480.000
250.371;  -72.375; -494.000; -439.000
250.514;  -51.725; -310.000; -244.000
250.656;   -8.850;   69.000;  102.000
250.798; -115.175; -849.000; -800.000
250.940;  -61.725; -322.000; -322.000
251.083;  -25.825; -335.000; -111.000
251.225;   56.325;  338.000;  310.000
251.367;  -40.775; -274.000; -373.000
251.509;  -44.850; -265.000; -210.000
251.651; -100.825; -731.000; -671.000
251.794;   52.275;  538.000;  632.000
251.936; -100.150; -821.000; -747.000
252.078;  -92.775; -540.000; -461.000
252.220;  -83.125; -645.000; -477.000
252.362;   80.050;  344.000;  462.000
252.504;  -75.875; -677.000; -584.000
252.646; -124.450; -875.000; -722.000
252.788;   -5.075;   14.000; -128.000
252.931;  -33.475; -257.000; -253.000
253.073;  -51.225; -376.000; -317.000
253.215;  -13.525;  141.000;  122.000
253.357;  -22.325;   82.000; -153.000
253.499;  -52.025; -374.000; -234.000
253.641;  -94.025; -749.000; -594.000
253.783;  -92.225; -609.000; -527.000
253.925;  -92.675; -586.000; -591.000
254.067; -121.300; -744.000; -667.000
254.209;  -47.000; -391.000; -259.000
254.351; -127.400; -865.000; -883.000
254.493;  -63.725; -441.000; -417.000
254.635; -133.775; -936.000; -818.000
254.777;  -78.575; -752.000; -687.000
254.918;  -71.000; -512.000; -430.000
255.060;  -63.525; -551.000; -395.000
255.202;  -56.300; -473.000; -261.000
255.344;  -83.175; -658.000; -455.000
255.486;  -70.350; -471.000; -406.000
255.628; -104.275; -780.000; -781.000
255.770;  -93.425; -676.000; -536.000
255.912;  -67.600; -559.000; -468.000
256.053;  -88.550; -730.000; -508.000
256.195;  157.750; 1008.000;  903.000
256.337; -107.500; -861.000; -595.000
256.479;   60.025;  532.000;  416.000
256.621;  -41.550; -394.000; -212.000
256.762;  -94.575; -789.000; -742.000
256.904;   57.200;  485.000;  487.000
257.046;  -59.575; -381.000; -271.000
257.188;  -47.525; -351.000; -264.000
257.329;  -64.150; -525.000; -464.000
257.471; -130.475; -939.000; -807.000
257.613;  -77.150; -584.000; -498.000
257.755; -142.775;-1073.000; -982.000
257.896;   32.200;  286.000;  392.000
258.038;  -71.225; -403.000; -352.000
258.180;  -27.425; -354.000; -279.000
258.321;  -87.175; -581.000; -457.000
258.463;  -16.650;  -71.000;  133.000
258.605;  -97.725; -562.000; -570.000
258.746; -102.050; -886.000; -772.000
258.888; -157.600;-1026.000;-1020.000
259.029;   20.625;  121.000;   -8.000
259.171;  -95.825; -614.000; -550.000
259.313;   -5.900;  -49.000;  -47.000
259.454;  -89.250; -536.000; -414.000
259.596;  -68.450; -483.000; -390.000
259.737;  -91.400; -590.000; -474.000
259.879;   41.600;  217.000;  311.000
260.020;   89.875;  901.000;  636.000
260.162;  -30.600; -146.000; -253.000
260.303; -119.350; -768.000; -687.000
260.445;  -86.325; -609.000; -613.000
260.586;   25.200;  392.000;  157.000
260.728;  -44.750; -360.000; -248.000
260.869; -114.425; -350.000; -343.000
261.011;   74.000;  706.000;  537.000
261.152;  -70.275; -479.000; -319.000
261.293;  -81.775; -576.000; -595.000
261.435;  -35.875; -219.000; -184.000
261.576;  -55.200; -455.000; -325.000
261.718;   49.050;  420.000;  470.000
261.859; -122.650; -940.000; -949.000
262.000; -150.400; -951.000;-1016.000
262.142;  -27.675;  -52.000;  -60.000
262.283; -124.475; -808.000; -691.000
262.424; -100.125; -666.000; -625.000
262.566; -157.325;-1161.000; -983.000
262.707; -102.800; -840.000; -830.000
262.848; -126.300; -769.000; -726.000
262.990;  -51.675; -362.000; -345.000
263.131;   69.025;  650.000;  681.000
263.272;  -16.625;  -61.000;  -41.000
263.413;  -90.850; -589.000; -561.000
263.555;  -67.425; -669.000; -143.000
263.696;  -86.300; -550.000; -641.000
263.837;  -55.925; -449.000; -551.000
263.978;   -4.850;   -5.000;  -77.000
264.119;  -45.325; -283.000; -264.000
264.261; -122.325; -847.000; -630.000
264.402;  -10.025;   33.000;   40.000
264.543;  -83.875; -509.000; -524.000
264.684;  -20.600;   61.000;  -50.000
264.825;  -74.475; -816.000; -538.000
264.966;  -20.450;  -84.000;  -67.000
265.107; -118.300; -646.000; -670.000
265.248; -113.250; -825.000; -812.000
265.390;  -15.675;  152.000;   -9.000
265.531;  -23.650; -238.000; -107.000
265.672;  -89.800; -557.000; -630.000
265.813;   57.800;  563.000;  439.000
265.954; -154.775; -959.000; -940.000
266.095;  -24.275; -372.000; -322.000
266.236; -105.325; -686.000; -548.000
266.377;  -37.500; -243.000; -297.000
266.518;  -77.675; -619.000; -547.000
266.659;   13.025;  170.000;  268.000
266.800;   -6.925;   83.000;   85.000
266.941;  -69.400; -487.000; -478.000
267.082;   13.925;  354.000;   99.000
267.223;  -43.000; -344.000; -273.000
267.364; -128.150; -892.000; -686.000
267.504;  -24.250;    3.000;  135.000
267.645;    4.500;  160.000;   67.000
267.786;  -42.100; -147.000;  -86.000
267.927;  -70.350; -473.000; -379.000
268.068;  -19.050; -186.000;  -61.000
268.209;  -44.750; -175.000; -413.000
268.350;  -66.100; -388.000; -532.000
268.490;  -97.175; -648.000; -521.000
268.631;   25.275;  127.000;  225.000
268.772; -104.300; -874.000; -647.000
268.913;  -45.350; -328.000; -476.000
269.054;  -23.925; -117.000;   12.000
269.194;  -53.800; -418.000; -402.000
269.335; -153.875;-1137.000;-1074.000
269.476;  -19.450;   33.000;  -35.000
269.617;  -61.200; -347.000; -392.000
269.757; -103.925; -713.000; -646.000
269.898; -126.875; -856.000; -613.000
270.039;  -75.100; -415.000; -405.000
270.180; -144.150; -952.000; -816.000
270.320;  -33.200; -190.000; -250.000
270.461;  -40.700; -277.000; -249.000
270.602;  -28.050; -186.000; -156.000
270.742; -141.500; -868.000; -943.000
270.883;  -64.975; -442.000; -390.000
271.023;  -66.350; -358.000; -357.000
271.164;  -80.075; -607.000; -528.000
271.305;  -93.600; -666.000; -654.000
271.445;  -97.075; -722.000; -683.000
271.586;  -75.175; -462.000; -283.000
271.726;  -53.050; -397.000; -322.000
271.867;  -83.250; -594.000; -534.000
272.008;  160.150; -473.000; -285.000
272.148;  119.000;  462.000;  468.000
272.289;   15.225; -113.000; -181.000
272.429;    9.475;   19.000;  185.000
272.570; -100.500; -633.000; -737.000
272.710; -103.800; -825.000; -775.000
272.851;  -30.425;  113.000; -130.000
272.991; -168.025;-1173.000;-1077.000
273.131;  -74.525; -419.000; -459.000
273.272;  -97.025; -683.000; -723.000
273.412;  -11.350; -143.000;  -31.000
273.553;  -57.200; -488.000; -507.000
273.693;  128.475;  913.000;  858.000
273.834;  -98.450; -894.000; -692.000
273.974;  -78.500; -664.000; -615.000
274.114; -107.550; -772.000; -560.000
274.255;   69.500;  414.000;  373.000
274.395;   -6.125; -180.000; -125.000
274.535;   33.600;  199.000;  350.000
274.676;   10.400;  225.000;   94.000
274.816;   -0.975;  110.000;   34.000
274.956;  -95.075; -624.000; -690.000
275.097;  -78.350;-1014.000; -922.000
275.237; -124.650; -913.000; -803.000
275.377; -106.500; -778.000; -689.000
275.517; -152.275; -878.000; -937.000
275.658;  -72.825; -590.000; -555.000
275.798;  -80.625; -606.000; -413.000
275.938;   14.975;  215.000;  323.000
276.078; -112.875; -626.000; -395.000
276.218;   -2.300;   99.000;  104.000
276.359; -134.600;-1026.000;-1024.000
276.499;  -85.050; -605.000; -446.000
276.639;  -35.125; -305.000; -151.000
276.779;  -63.525; -475.000; -357.000
276.919; -104.800; -783.000; -624.000
277.059;  -25.775; -261.000; -212.000
277.199;  -57.675; -357.000; -259.000
277.340;   46.025;  287.000;  175.000
277.480; -116.575; -840.000; -693.000
277.620;   27.075;  192.000;   16.000
277.760; -196.000;-1533.000;-1294.000
277.900;    0.275;  113.000;   33.000
278.040;   12.575;  137.000;  159.000
278.180;   37.975;  270.000;  170.000
278.320;   -1.675;   21.000;   56.000
278.460;  -66.500; -443.000; -469.000
278.600;  -95.225; -708.000; -598.000
278.740;   45.650;  448.000;  224.000
278.880;  -79.025; -768.000; -791.000
279.020;  -13.775; -194.000; -144.000
279.160;  -84.550; -672.000; -595.000
279.300; -106.700; -926.000; -873.000
279.440;  -84.575; -709.000; -622.000
279.579;  -36.950;-1014.000; -929.000
279.719;  -54.875; -410.000; -394.000
279.859;   60.650;   -4.000;   41.000
279.999;   21.100; -208.000;  101.000
280.139;  -34.025; -435.000; -387.000
280.279;  -82.250; -708.000; -745.000
280.419;  -22.550; -229.000; -147.000
280.559;  -44.450; -259.000; -180.000
280.698;  -86.175; -790.000; -639.000
280.838; -107.925; -778.000; -800.000
280.978; -105.875; -846.000; -790.000
281.118; -119.750; -811.000; -704.000
281.257;   -0.450;   24.000;    6.000
281.397; -137.150;-1094.000; -960.000
281.537;  -97.800; -599.000; -712.000
281.677;  -25.250; -150.000; -101.000
281.816;  -81.900; -700.000; -630.000
281.956;  -29.675; -193.000; -257.000
282.096;  -75.575; -539.000; -396.000
282.235; -123.050; -672.000; -638.000
282.375;  -28.050; -243.000;  -98.000
282.515;  -96.800; -715.000; -707.000
282.654;   17.075;   29.000;  106.000
282.794;   23.175;  388.000;  244.000
282.934;  -66.450; -530.000; -491.000
283.073; -142.850;-1030.000; -857.000
283.213;  -54.075; -460.000; -467.000
283.353;  -46.850; -408.000; -349.000
283.492;  -25.925; -264.000; -296.000
283.632;  -53.575; -254.000; -168.000
283.771; -100.950; -859.000; -730.000
283.911;  -48.875; -369.000; -260.000
284.050; -120.700; -794.000; -748.000
284.190; -167.225;-1229.000;-1096.000
284.329; -145.000;-1055.000; -964.000
284.469;  -80.725; -516.000; -591.000
284.608;  -78.225; -559.000; -598.000
284.748;  -83.550; -614.000; -570.000
284.887;   -3.725;  -87.000;  -20.000
285.027; -127.075; -844.000; -892.000
285.166;  -35.750; -192.000; -249.000
285.306;  -11.450; -116.000;  -33.000
285.445;  -36.150; -229.000; -343.000
285.584; -104.225; -630.000; -494.000
285.724;  -52.950; -282.000; -322.000
285.863; -102.925; -857.000; -507.000
286.002;  -54.075; -366.000; -276.000
286.142; -107.875; -715.000; -622.000
286.281;  -64.725; -525.000; -493.000
286.420;  -88.650; -554.000; -417.000
286.560;   90.150;  653.000;  623.000
286.699; -154.250; -958.000; -912.000
286.838;  -84.075; -590.000; -591.000
286.978;  -89.750; -533.000; -537.000
287.117; -138.900;-1085.000; -950.000
287.256;  -30.075; -228.000; -211.000
287.395;  -67.150; -197.000; -378.000
287.535;  -56.875; -370.000; -298.000
287.674;  -96.825; -509.000; -484.000
287.813;   57.950;  661.000;  533.000
287.952; -138.075;-1010.000; -871.000
288.091; -161.800;-1049.000; -915.000
288.231;   -3.975;   13.000;   15.000
288.370; -178.425;-1217.000;-1200.000
288.509;  -98.750; -728.000; -645.000
288.648; -101.525; -770.000; -548.000
288.787;  -42.575; -243.000;  -87.000
288.926;  -58.825; -454.000; -475.000
289.065;   96.575;  859.000;  672.000
289.204;  -55.325; -377.000; -217.000
289.344; -102.975; -791.000; -690.000
289.483;   23.025;  416.000;  304.000
289.622;  -31.050; -291.000; -149.000
289.761;  -18.275; -309.000; -166.000
289.900; -130.100; -785.000; -626.000
290.039;  -16.950;  -12.000;  -95.000
290.178;  -54.275; -274.000; -180.000
290.317;  -82.550; -618.000; -479.000
290.456;  -66.675; -463.000; -451.000
290.595; -151.825; -961.000; -833.000
290.734; -143.225; -904.000; -891.000
290.873;  -75.350; -456.000; -420.000
291.011; -124.775; -833.000; -843.000
291.150; -114.375; -770.000; -682.000
291.289;  -29.250; -343.000; -110.000
291.428; -100.550; -599.000; -480.000
291.567;  -58.025; -370.000; -442.000
291.706;   -3.600;  109.000;  154.000
291.845;  -82.325; -597.000; -505.000
291.984; -170.125;-1234.000;-1061.000
292.122;   80.975;  602.000;  582.000
292.261;   37.400;  620.000;  463.000
292.400;   -5.025; -144.000;  211.000
292.539; -133.250; -959.000; -813.000
292.678;  -35.500; -325.000; -300.000
292.816; -159.600;-1136.000; -965.000
292.955; -101.600; -844.000; -684.000
293.094;  -43.950; -173.000; -337.000
293.233;  -53.825; -556.000; -400.000
293.371;  -34.800; -225.000;  -84.000
293.510; -110.650; -866.000; -780.000
293.649; -144.900; -959.000; -924.000
293.787;  -81.400;-1083.000;-1012.000
293.926;  -20.175; -113.000;  -32.000
294.065;  -41.375; -379.000; -290.000
294.203;   47.550;  298.000;  406.000
294.342;   16.275;   74.000;  156.000
294.481; 6939.425;51180.000; -836.000
294.619;  -34.825; -425.000; -582.000
294.758; -162.650;-1230.000;-1137.000
294.896;   64.500; -125.000;    5.000
295.035; -131.550;-1040.000;-1006.000
295.174; -137.450;-1082.000; -954.000
295.312;  -30.825; -323.000; -203.000
295.451;  -20.675; -307.000; -428.000
295.589;  -60.875; -389.000; -518.000
295.728;   -5.275; -292.000; -165.000
295.866;   -1.975;  -36.000;  -51.000
296.005;  -67.175; -584.000; -341.000
296.143;  -76.150; -558.000; -596.000
296.282; -114.250; -957.000; -881.000
296.420;  -95.750; -657.000; -557.000
296.559;  -90.525; -892.000; -633.000
296.697;   -9.725; -847.000; -665.000
296.835;   24.275;-1141.000;-1002.000
296.974;   38.225;  -23.000;   39.000
297.112;  -11.250; -443.000; -504.000
297.251;  -92.200; -815.000; -755.000
297.389;   56.675; -576.000; -438.000
297.527;   22.850; -145.000;  -83.000
297.666;  -50.850; -486.000; -438.000
297.804;  -69.625; -404.000; -264.000
297.942;  -13.550; -136.000; -161.000
298.081;   -2.575; -183.000;   63.000
298.219;   52.275;  -17.000;  -19.000
298.357;   32.875; -144.000;  -71.000
298.495;   -0.400; -810.000; -812.000
298.634;   50.875;  245.000;  219.000
298.772;   28.175; -220.000; -338.000
298.910;  -46.050; -309.000; -182.000
299.048;  -13.125; -130.000; -153.000
299.187;  -44.025; -350.000; -250.000
299.325;   17.100;   52.000;  122.000
299.463;   23.675; -389.000; -299.000
299.601;   69.450; -327.000; -271.000
299.739; -118.575; -908.000; -883.000
299.877;  -94.700; -791.000; -703.000
300.016;  -58.100;-1095.000; -935.000
300.154;  108.600;  -19.000; -161.000
300.292;   26.975; -428.000; -348.000
300.430;   11.725; -408.000; -291.000
300.568; -124.000; -940.000; -874.000
300.706;  -53.325; -366.000; -469.000
300.844;  -93.250;-1108.000; -979.000
300.982;  106.675;  246.000;  282.000
301.120; -118.475; -965.000; -866.000
301.258;  -75.425; -812.000; -705.000
301.396;   24.725;  104.000;  -41.000
301.534;   45.900; -218.000; -293.000
301.672;  -41.550; -664.000; -521.000
301.810;   -3.975; -613.000; -545.000
301.948;   67.500;   53.000;  149.000
302.086;  496.475; -250.000;  -32.000
302.224;  782.750; -610.000; -585.000
302.362;    7.975; -558.000; -622.000
302.500;  -62.050; -923.000; -893.000
302.638;   78.500;  128.000;  245.000
302.776;  -16.375; -352.000; -408.000
302.913;   28.650;  447.000;  236.000
303.051;  -12.450;  -86.000;  -23.000
303.189;   38.150;   90.000;  118.000
303.327;  -51.625; -341.000; -256.000
303.465;  -83.450; -832.000; -588.000
303.603;  -93.600; -805.000; -604.000
303.740;   83.175;  417.000;  241.000
303.878;  -17.875; -800.000; -759.000
304.016;  -97.500; -915.000; -790.000
304.154; -140.800;-1123.000;-1152.000
304.291;  -49.300; -505.000; -554.000
304.429;   -0.650;  102.000;   74.000
304.567; -140.750; -908.000; -893.000
304.705;  -56.525; -408.000; -515.000
304.842;   62.875; -616.000; -540.000
304.980;   50.650;  215.000;   35.000
305.118;   18.250; -367.000; -365.000
305.255; -100.725; -945.000; -927.000
305.393;   50.650;  178.000;  239.000
305.531; -124.875;-1173.000; -956.000
305.668;  -80.375; -663.000; -582.000
305.806;   75.600; -358.000; -439.000
305.943;   71.225; -629.000; -637.000
306.081;   51.100; -378.000; -267.000
306.219; -113.250; -863.000; -748.000
306.356;    0.675;  158.000;   27.000
306.494;  114.525;  981.000;  761.000
306.631;  -13.400;  -11.000;  -55.000
306.769;   -1.625; -613.000; -485.000
306.906;  -36.425; -284.000; -258.000
307.044;  -78.625; -473.000; -488.000
307.181;  -64.875; -410.000; -332.000
307.319;   10.350;  112.000;   87.000
307.456; -188.000;-1191.000;-1153.000
307.594; -105.875; -980.000; -727.000
307.731;  -23.725; -371.000; -164.000
307.868;   -9.600;  -15.000;   20.000
308.006; -136.950; -961.000; -847.000
308.143;  -75.000; -618.000; -330.000
308.281;   99.750;  -37.000; -254.000
308.418;  -28.475; -748.000; -640.000
308.555;  -69.475; -400.000; -250.000
308.693;  -88.775; -577.000; -573.000
308.830; -131.000; -712.000; -657.000
308.967;  -25.075; -215.000;  -95.000
309.105;  -62.575; -507.000; -396.000
309.242;    9.025; -468.000; -367.000
309.379;  188.400; -577.000; -655.000
309.517;  -97.550; -936.000; -948.000
309.654; -125.150; -910.000; -734.000
309.791;  -88.825; -662.000; -580.000
309.928; -118.300; -977.000; -914.000
310.065;  178.550;  819.000;  697.000
310.203;  -42.000; -825.000; -850.000
310.340;  -31.200; -465.000; -321.000
310.477;  -82.225; -412.000; -516.000
310.614;  -76.775; -383.000; -473.000
310.751;  -78.575; -427.000; -518.000
310.889;  -32.625;    1.000;   11.000
311.026; -159.125;-1161.000; -939.000
311.163;  -54.600; -386.000; -380.000
311.300;  -90.200; -512.000; -479.000
311.437;  -80.150; -658.000; -619.000
311.574; -164.325;-1226.000; -985.000
311.711;  -59.650; -595.000; -433.000
311.848;  -64.375; -380.000; -388.000
311.985;   -1.125;  270.000;   93.000
312.122; -128.200; -932.000; -762.000
312.259; -132.700; -941.000; -994.000
312.396;  -84.625; -508.000; -551.000
312.533;  -91.200; -812.000; -790.000
312.670; -135.025;-1070.000; -898.000
312.807;  -49.000; -352.000; -367.000
312.944;  -82.000; -513.000; -611.000
313.081;  -56.025; -150.000; -415.000
313.218; -111.675;-1111.000; -867.000
313.355;    3.925; -531.000; -449.000
313.492;   -4.625; -455.000; -292.000
313.629;  127.350;  815.000;  735.000
313.766; -154.875;-1176.000;-1008.000
313.902;  -18.475; -186.000;   21.000
314.039;  -54.100; -372.000; -289.000
314.176;   20.450;  286.000;  192.000
314.313;  -88.075; -569.000; -473.000
314.450;  -85.000; -788.000; -684.000
314.587;  -63.225; -468.000; -480.000
314.723;    1.275;  -78.000;  130.000
314.860;   16.775;  318.000;  332.000
314.997;   21.025;  223.000;  142.000
315.134;  -35.000; -385.000; -368.000
315.270;  -43.050; -480.000; -496.000
315.407; -141.700;-1094.000; -967.000
315.544;  -59.075; -657.000; -538.000
315.681;  -79.875; -681.000; -565.000
315.817;   12.100; -133.000; -176.000
315.954;  -14.300; -613.000; -392.000
316.091; -135.775;-1045.000;-1023.000
316.227;  -28.925;  -71.000; -179.000
316.364;   -0.050;   23.000;    6.000
316.500;  -37.700; -113.000; -300.000
316.637;  -53.950; -181.000; -302.000
316.774;  -82.100; -625.000; -358.000
316.910; -105.625; -598.000; -629.000
317.047;  -79.100; -487.000; -351.000
317.183;  -57.200; -435.000; -566.000
317.320;   -3.250; -367.000; -321.000
317.456;  -70.775; -733.000; -805.000
317.593;  -97.475; -598.000; -641.000
317.729;   -8.975;  168.000;  -67.000
317.866; -201.225;-1434.000;-1285.000
318.002;  -88.025; -708.000; -948.000
318.139; -119.975; -883.000; -867.000
318.275; -127.100;-1003.000; -738.000
318.412;  -68.325; -517.000; -336.000
318.548;  -39.950; -751.000; -720.000
318.685; -105.475; -985.000; -888.000
318.821; -110.725; -762.000; -735.000
318.957;  -33.975;   34.000;  -23.000
319.094;   30.675;  297.000;  154.000
319.230;  -76.925; -756.000; -742.000
319.367;   92.475; -471.000; -520.000
319.503;   33.575; -538.000; -436.000
319.639; -107.400; -877.000; -793.000
319.775;  -76.950; -750.000; -685.000
319.912;  -56.350; -424.000; -519.000
320.048; -102.550;-1184.000;-1184.000
320.184;   74.275;   59.000;   70.000
320.321;  -75.325; -497.000; -467.000
320.457;   70.650;  475.000;  662.000
320.593;  -70.775; -375.000; -382.000
320.729; -122.700; -732.000; -734.000
320.866;  -86.350; -577.000; -635.000
321.002;  -97.375; -759.000; -809.000
321.138;  -19.400; -135.000; -211.000
321.274;   69.750; -148.000; -115.000
321.410;  -28.600; -585.000; -353.000
321.546;  -54.600;-1011.000; -911.000
321.683;   39.125;  400.000;  185.000
321.819;   -4.275;  -48.000; -117.000
321.955; -120.075; -743.000; -722.000
322.091;  -60.225; -585.000; -540.000
322.227;  -18.950; -382.000; -202.000
322.363;  -28.775; -320.000; -215.000
322.499;  -50.250; -343.000; -331.000
322.635;  149.100;  636.000;  443.000
322.771;    8.875; -139.000;   12.000
322.907;   74.800;  129.000;  327.000
323.043;  -30.450; -115.000; -206.000
323.179;  -31.050; -394.000; -363.000
323.315;   -8.325; -401.000; -371.000
323.451;   53.325; -328.000; -236.000
323.587;   50.350;  -60.000;  -77.000
323.723;    0.300; -682.000; -601.000
323.859;  -17.550; -258.000;  -76.000
323.995;  -25.175; -467.000; -409.000
324.131; -129.600; -967.000; -892.000
324.267;  -47.575; -254.000; -276.000
324.402; -130.675; -960.000; -983.000
324.538;  -33.825; -279.000; -104.000
324.674;   19.625;  164.000;   77.000
324.810;   96.200;  226.000;  308.000
324.946;  -27.125; -810.000; -658.000
325.082;  -73.325; -568.000; -475.000
325.217;  -15.825;  -62.000;   16.000
325.353; -109.925; -764.000; -659.000
325.489;  -85.075; -540.000; -506.000
325.625;  -88.675; -579.000; -525.000
325.760;   51.900;  517.000;  376.000
325.896;  -36.275; -515.000; -702.000
326.032;  -59.500; -403.000; -352.000
326.168;  -73.100; -462.000; -369.000
326.303;  -63.675; -352.000; -461.000
326.439;  -23.900; -336.000; -276.000
326.575;   -2.200; -190.000;  -29.000
326.710;  -12.300; -156.000;  -30.000
326.846;  -19.425;  146.000;  103.000
326.982;  -89.650; -530.000; -548.000
327.117;  -93.550; -481.000; -442.000
327.253;  -82.100; -745.000; -742.000
327.388; -139.700;-1137.000;-1153.000
327.524;  -77.100; -811.000; -578.000
327.659;  -41.250;  -58.000;  -22.000
327.795;   -8.100;   69.000;   45.000
327.931;  -84.350; -723.000; -499.000
328.066;  -39.325; -417.000; -276.000
328.202;   -8.075;   12.000; -129.000
328.337;   97.675;  957.000;  713.000
328.473;   27.050;  -12.000;  -74.000
328.608;  -35.625; -256.000; -267.000
328.743;  -97.125; -799.000; -664.000
328.879;   22.425;  214.000;  114.000
329.014;  -41.925; -102.000; -122.000
329.150;  -70.875; -358.000; -483.000
329.285;  -84.800; -465.000; -466.000
329.421;  -64.575; -548.000; -246.000
329.556;  -25.450;  -36.000;   85.000
329.691;  -98.550; -633.000; -615.000
329.827;  -88.925; -626.000; -480.000
329.962;  -47.625;  131.000; -301.000
330.097;  -90.250; -673.000; -585.000
330.233;  -59.700; -410.000; -223.000
330.368; -143.150; -839.000; -628.000
330.503;  -23.425;    3.000;   98.000
330.638;   -1.300;  -93.000; -125.000
330.774;  -67.975; -609.000; -530.000
330.909;  -40.900; -434.000; -244.000
331.044; -104.250; -714.000; -708.000
331.179; -177.375;-1217.000;-1109.000
331.315;    1.500;   77.000;   20.000
331.450;    4.075;  157.000;  285.000
331.585; -108.125; -805.000; -706.000
331.720;  -85.800; -510.000; -460.000
331.855;   -8.150;  -35.000; -102.000
331.990;  248.300;   62.000;  138.000
332.126;  131.325; -110.000;   71.000
332.261;  -33.175; -379.000; -265.000
332.396;   -5.325; -135.000; -242.000
332.531; -100.325;-1074.000;-1031.000
332.666;   26.525; -519.000; -363.000
332.801; -110.300; -726.000; -807.000
332.936;  -31.100; -192.000; -122.000
333.071; -134.700; -870.000; -817.000
333.206;    2.900;  307.000;  379.000
333.341;   19.025;  344.000;  418.000
333.476;  -94.550; -627.000; -623.000
333.611;  -45.000; -251.000; -173.000
333.746;  -61.900; -381.000; -464.000
333.881; -129.475; -973.000; -935.000
334.016; -122.925; -936.000; -917.000
334.151; -133.250; -746.000; -702.000
334.286;    4.075;  152.000;  186.000
334.421;  -34.025; -125.000; -178.000
334.556;  -95.325; -611.000; -567.000
334.690;  -94.250; -631.000; -577.000
334.825;   51.450;  381.000;   83.000
334.960;  -69.075; -285.000; -413.000
335.095;    0.600;  135.000;  -91.000
335.230; -119.025; -722.000; -738.000
335.365; -140.800;-1084.000; -990.000
335.499; -148.600;-1108.000;-1037.000
335.634;   15.375;    9.000;  534.000
335.769; -102.775; -755.000; -720.000
335.904;  -72.800; -603.000; -561.000
336.038;  -61.325; -735.000; -657.000
336.173; -127.075;-1206.000;-1194.000
336.308;   -4.975; -116.000; -189.000
336.443;   23.325; -544.000; -634.000
336.577;  -94.850; -936.000; -787.000
336.712;   50.600;   -4.000;  -12.000
336.847;  -58.725; -724.000; -607.000
336.981;   37.250; -272.000; -208.000
337.116;  253.850;  615.000;  501.000
337.250;  132.675; -434.000; -421.000
337.385;  268.500; -297.000; -208.000
337.520;   80.650; -632.000; -603.000
337.654;  -50.825; -215.000; -126.000
337.789; -136.200; -989.000; -933.000
337.923;  -40.050; -104.000; -205.000
338.058;  -99.825; -673.000; -738.000
338.192;  -44.825; -611.000; -488.000
338.327;  -18.650;  -18.000; -155.000
338.461;  -71.650; -299.000; -469.000
338.596; -101.225; -780.000; -638.000
338.730; -114.625; -767.000; -803.000
338.865;   93.475;  -46.000; -140.000
338.999;  -50.600; -846.000; -702.000
339.134;  -34.225; -634.000; -536.000
339.268;   -4.225; -741.000; -603.000
339.403;  357.825; -740.000; -775.000
339.537;  127.475; -894.000; -820.000
339.671; -118.450; -829.000; -813.000
339.806;  -70.450; -556.000; -512.000
339.940;   14.925; -261.000; -235.000
340.074; -107.300; -685.000; -510.000
340.209;  -61.725; -351.000; -230.000
340.343;  -90.900; -517.000; -573.000
340.477;  141.375;  998.000; 1036.000
340.612;  -60.200;-1033.000; -900.000
340.746;  144.725; -199.000; -243.000
340.880;  -86.000; -924.000; -785.000
341.014;  -22.825;  -45.000; -154.000
341.149; -118.425; -756.000; -718.000
341.283; -120.125; -839.000; -754.000
341.417; -112.925;-1124.000; -938.000
341.551;   77.025; -768.000; -708.000
341.685;  -53.925; -633.000; -611.000
341.820;  -67.050; -562.000; -493.000
341.954;  -47.425; -218.000; -349.000
342.088; -148.275;-1102.000;-1019.000
342.222;   58.400;  565.000;  618.000
342.356;  -71.750; -395.000; -335.000
342.490; -107.850; -880.000; -841.000
342.624;  -47.250; -339.000; -242.000
342.758;  -20.775; -364.000; -312.000
342.892;  -78.725; -710.000; -585.000
343.026;  -45.450;  -58.000; -116.000
343.160;  -59.800; -426.000; -376.000
343.294;  -87.175; -474.000; -337.000
343.428;  -47.950; -488.000; -448.000
343.562;  -21.375; -172.000;  -23.000
343.696;  -19.350; -385.000; -314.000
343.830;  -40.125; -362.000; -356.000
343.964;   -5.850; -231.000; -168.000
344.098;  728.150;  199.000;   70.000
344.232;  605.250; -266.000; -127.000
344.366;   57.850; -567.000; -453.000
344.500;   10.625; -665.000; -744.000
344.634;    4.900; -324.000; -164.000
344.768;  -47.200; -531.000; -341.000
344.902;   12.750;  278.000;  256.000
345.035;  -89.425; -556.000; -496.000
345.169; -135.600; -933.000; -656.000
345.303;  -70.850; -308.000; -482.000
345.437;  -94.175; -826.000; -717.000
345.571;  -71.825; -675.000; -594.000
345.704;  -77.925; -309.000; -532.000
345.838;  -31.150; -331.000; -284.000
345.972;  -45.500; -543.000; -495.000
346.106;  157.950; -179.000; -190.000
346.239;  390.050; -312.000; -243.000
346.373;   -3.825; -343.000; -302.000
346.507; -146.125; -950.000; -962.000
346.640;  105.800;  -30.000;   13.000
346.774;  -60.675; -650.000; -797.000
346.908;  -22.050; -138.000;  -11.000
347.041;  -97.750; -646.000; -593.000
347.175;    4.100;  259.000;   27.000
347.309;  -79.700; -698.000; -628.000
347.442; -116.950; -883.000; -732.000
347.576;  235.450;  670.000;  668.000
347.709;  140.175; -123.000;  -52.000
347.843; -112.525; -933.000; -825.000
347.976;   29.350;  235.000;  294.000
348.110; -188.850;-1268.000;-1186.000
348.243; -113.175; -679.000; -772.000
348.377;    4.400;  -26.000;   60.000
348.510;   46.600;  403.000;  540.000
348.644;  -37.425;  -37.000; -159.000
348.777;    1.050;  180.000;  191.000
348.911;  -55.275; -142.000; -112.000
349.044;  149.450;  471.000;  448.000
349.178;   85.600;-1069.000;-1006.000
349.311;  102.750;  141.000;  255.000
349.444;  -14.825; -927.000; -813.000
349.578;  -40.375; -347.000; -200.000
349.711; -113.950; -959.000; -862.000
349.845;  -13.450; -661.000; -591.000
349.978; -162.200;-1224.000;-1137.000
350.111;  -97.050; -546.000; -612.000
350.244;  -80.800; -596.000; -700.000
350.378;  -21.225; -392.000; -393.000
350.511;  -85.700; -393.000; -426.000
350.644; -103.400; -808.000; -806.000
350.778;   -5.225;  168.000;  104.000
350.911;  -11.725;  134.000;  140.000
351.044; -109.525; -685.000; -615.000
351.177;  -37.725; -321.000; -281.000
351.310;  -31.950;    3.000; -131.000
351.444; -103.825; -888.000; -788.000
351.577;   83.150;  140.000;   90.000
351.710;   93.925;  593.000;  417.000
351.843;  -48.425; -165.000;  -77.000
351.976;   -8.000;  149.000;  -79.000
352.109; -106.500; -621.000; -612.000
352.242;  -45.550; -464.000; -419.000
352.376;  -69.725; -580.000; -636.000
352.509;  133.900; -437.000; -356.000
352.642;  -34.950; -654.000; -604.000
352.775;   33.800; -141.000;  -98.000
352.908; -130.075; -933.000; -904.000
353.041; -106.625; -814.000; -824.000
353.174;  -56.800; -551.000; -424.000
353.307;  -94.450; -753.000; -764.000
353.440;   66.150;  541.000;  453.000
353.573; -112.875; -957.000;-1008.000
353.706;  -80.800; -384.000; -558.000
353.839;  -35.200; -264.000; -220.000
353.971;  -96.975; -657.000; -512.000
354.104;  -97.675; -896.000; -835.000
354.237;  -60.925; -627.000; -662.000
354.370; -100.025; -846.000; -879.000
354.503; -185.775;-1231.000;-1308.000
354.636;  -42.300; -529.000; -348.000
354.769; -145.050; -937.000; -860.000
354.902;   -9.125; -230.000; -139.000
355.034;  -34.725; -164.000; -220.000
355.167;  -21.300; -262.000; -162.000
355.300;  -91.125;-1061.000; -880.000
355.433;  979.225;  -71.000;  -14.000
355.565; 1523.600; -402.000; -384.000
355.698;  382.450; -356.000; -296.000
355.831;  -16.875; -882.000; -801.000
355.964;   47.950; -285.000; -170.000
356.096;  -96.250; -856.000; -843.000
356.229;  -35.650; -523.000; -530.000
356.362;  313.775; -373.000; -266.000
356.494;  606.400; -229.000; -162.000
356.627;  411.900;  269.000;  377.000
356.760;  645.525;  120.000;   53.000
356.892;  979.900; -286.000; -601.000
357.025;  537.600;  403.000;  389.000
357.157;  479.375; -167.000; -179.000
357.290;  717.625; -856.000; -713.000
357.423;  194.900; -667.000; -556.000
357.555;   82.550; -217.000; -228.000
357.688;   92.475; -483.000; -364.000
357.820;  354.525; -870.000; -877.000
357.953; 3166.275; -563.000; -589.000
358.085;  647.725; -632.000; -612.000
358.218;  806.300;-1131.000; -932.000
358.350;  165.275;  -58.000;  312.000
358.483; -142.200;-1300.000;-1187.000
358.615;  -64.950;-1182.000;-1078.000
358.747;  -95.500;-1187.000;-1058.000
358.880;  -12.275; -810.000; -744.000
359.012;  -30.400; -376.000; -202.000
359.145;  -45.250; -480.000; -511.000
359.277;   19.775; -962.000; -913.000
359.409; 2555.225;  536.000;  231.000
359.542;  639.600; -738.000; -688.000
359.674;   47.375;   46.000;   13.000
359.806;  -70.900; -565.000; -438.000
359.939;  -61.625; -617.000; -516.000
360.071;  -15.600; -583.000; -579.000
360.203;  -32.800; -411.000; -364.000
360.335;   32.950;  164.000;  -16.000
360.468;  165.000; -249.000; -307.000
360.600; 2133.650; -547.000; -454.000
360.732; 2944.250; -546.000; -423.000
360.864;  380.425;-1216.000;-1044.000
360.996;  192.925; -516.000; -554.000
361.129;   12.475; -389.000; -598.000
361.261;   12.525;  110.000; -113.000
361.393;  -49.725; -252.000; -214.000
361.525;   11.525;   94.000;  244.000
361.657;  -60.275; -821.000; -703.000
361.789;   -3.700; -139.000; -155.000
361.921;  142.150; -642.000; -593.000
362.053;  209.575;  524.000;  541.000
362.185;   31.400;  288.000;   72.000
362.318;  -90.300; -709.000; -705.000
362.450;   80.300;  294.000;  444.000
362.582;   22.975; -913.000; -870.000
362.714;  -67.725; -353.000; -332.000
362.846;  -91.050; -606.000; -490.000
362.978; -151.675; -941.000; -811.000
363.109;   19.425; -161.000; -260.000
363.241;  303.075; -739.000; -749.000
363.373;  423.275; -649.000; -564.000
363.505;  685.250; -186.000;  -91.000
363.637;  141.925; -787.000; -601.000
363.769; -136.475;-1067.000;-1080.000
363.901;  -78.350; -596.000; -654.000
364.033; -142.375;-1103.000;-1062.000
364.165;  -16.925; -283.000; -283.000
364.296;   57.700; -316.000; -177.000
364.428;   78.525;-1344.000;-1220.000
364.560;  -83.950; -679.000; -661.000
364.692;  -68.700; -738.000; -835.000
364.824;  178.225; -588.000; -456.000
364.955;  409.525; -402.000; -564.000
365.087; 1007.850;-1097.000; -852.000
365.219;   23.375; -686.000; -816.000
365.351;  -73.825; -526.000; -572.000
365.482;   46.250;  300.000;  240.000
365.614;  -64.775; -402.000; -314.000
365.746; -106.075; -729.000; -752.000
365.877;  -92.200; -706.000; -672.000
366.009;  277.575;  -35.000;  -62.000
366.141;  -86.475;-1249.000;-1134.000
366.272; -113.075; -803.000; -719.000
366.404; -116.975;-1005.000; -874.000
366.535;  -22.775; -139.000;  -12.000
366.667; -114.550; -644.000; -649.000
366.799;   26.125;  353.000;  203.000
366.930; -147.250; -862.000; -996.000
367.062;  118.675; -639.000; -613.000
367.193;  154.700; -872.000; -842.000
367.325;  -65.125; -580.000; -684.000
367.456;   19.125; -246.000;   31.000
367.588;  152.675; -371.000; -318.000
367.719;   21.450;  -44.000;  -45.000
367.851;  -26.850; -222.000; -241.000
367.982;  -77.750; -875.000; -732.000
368.113;   54.675; -475.000; -358.000
368.245; -136.600; -960.000; -841.000
368.376;  -33.375; -254.000; -302.000
368.508;  -36.700; -188.000; -263.000
368.639; -145.175;-1166.000;-1034.000
368.770;  -43.050; -670.000; -589.000
368.902;  -91.375; -836.000; -926.000
369.033; -121.700; -906.000; -855.000
369.164;  -62.350; -720.000; -653.000
369.296; -109.750; -452.000; -601.000
369.427;  -15.475; -209.000; -144.000
369.558;  -65.125; -593.000; -377.000
369.689;  -95.725; -721.000; -569.000
369.821; -141.425; -951.000; -845.000
369.952;  -23.650;   42.000; -108.000
370.083;  -62.025; -229.000; -108.000
370.214;  -87.750; -735.000; -650.000
370.345;  -16.000;   65.000;   81.000
370.477; -100.000; -810.000; -790.000
370.608;  170.225; -328.000; -264.000
370.739;  -79.350;-1233.000;-1292.000
370.870;  -65.925;-1102.000; -923.000
371.001;   51.350; -378.000; -467.000
371.132;  -85.000; -754.000; -735.000
371.263;  -32.300;  -42.000; -148.000
371.394; -138.125; -841.000; -748.000
371.525;   24.300;  345.000;  225.000
371.657; -105.475; -808.000; -670.000
371.788;   61.550;  103.000;  199.000
371.919;  112.625; -384.000; -304.000
372.050; 2997.375;  -91.000; -156.000
372.181;  897.875; -188.000; -294.000
372.311;  287.550;   42.000; -127.000
372.442;    5.125; -457.000; -451.000
372.573;  -42.850; -444.000; -340.000
372.704; -137.350;-1008.000; -980.000
372.835;   29.300; -228.000; -289.000
372.966;  -88.000; -646.000; -554.000
373.097;  -85.200; -575.000; -711.000
373.228;  -57.800; -717.000; -542.000
373.359;   75.250; -824.000; -536.000
373.490;  711.375; -881.000; -727.000
373.620;  894.825;-1001.000; -803.000
373.751; 1443.875; -332.000; -396.000
373.882;  618.000; -663.000; -733.000
374.013;   26.000; -449.000; -262.000
374.143;  -62.700; -581.000; -659.000
374.274; -121.375; -987.000; -908.000
374.405;  122.025; -388.000; -276.000
374.536;  336.775; -526.000; -387.000
374.666;  862.400; -759.000; -807.000
374.797;  126.625; -817.000; -868.000
374.928;  637.875; -710.000; -560.000
375.058;  673.225; -535.000; -500.000
375.189;   47.000;  -59.000;  -93.000
375.320; -132.400; -928.000;-1034.000
375.450;  -59.200; -625.000; -616.000
375.581;  -65.400; -526.000; -436.000
375.712;  -51.200; -574.000; -250.000
375.842;  203.050; -438.000; -415.000
375.973;  155.375; -554.000; -513.000
376.103;  -72.400; -665.000; -648.000
376.234;  -81.375; -531.000; -552.000
376.364;  -72.475; -944.000; -867.000
376.495;  269.850;  925.000;  529.000
376.625;  -45.875; -472.000; -485.000
376.756;   19.050; -709.000; -678.000
376.886; -108.075;-1178.000;-1026.000
377.017;   43.200;-1048.000;-1061.000
377.147;  375.875; -786.000; -782.000
377.278;   68.750;  174.000;  228.000
377.408; -143.575; -801.000; -815.000
377.538; -117.700; -707.000; -693.000
377.669;  -93.700; -537.000; -613.000
377.799; -105.275; -645.000; -635.000
377.929;  -82.675; -610.000; -428.000
378.060; -131.900; -781.000; -847.000
378.190;  -68.725; -726.000; -531.000
378.320;  -44.950; -401.000; -406.000
378.451;  -12.200; -131.000;  -22.000
378.581;  -26.525;  -67.000; -110.000
378.711;  128.750; 1035.000;  866.000
378.841;  -44.750; -533.000; -675.000
378.972;  -97.800; -871.000; -751.000
379.102;  -38.050; -652.000; -579.000
379.232;  -28.050; -126.000;  -73.000
379.362; -116.975;-1001.000; -885.000
379.492;  -25.950; -373.000; -424.000
379.623;   82.200;    0.000;  111.000
379.753; -130.125;-1107.000; -974.000
379.883;  143.600;   59.000;  156.000
380.013;  -33.125;-1081.000;-1017.000
380.143; -127.900;-1097.000;-1056.000
380.273; -118.575; -985.000; -861.000
380.403;  -22.750; -344.000; -257.000
380.533;  -51.400; -651.000; -664.000
380.663;   42.925;  173.000;  128.000
380.793; -128.625;-1027.000;-1074.000
380.923;  -26.525; -103.000;  -34.000
381.053; -111.700; -613.000; -623.000
381.183;  -47.250; -106.000; -248.000
381.313;    0.350; -656.000; -470.000
381.443;   -3.225; -692.000; -473.000
381.573;  116.700; -402.000; -409.000
381.703;  156.425;-1249.000;-1095.000
381.833; -160.725;-1454.000;-1336.000
381.963;   92.525; -134.000;  -87.000
382.093; 1134.800; -925.000; -909.000
382.223;  328.200; -713.000; -602.000
382.353;  -50.400; -801.000; -608.000
382.482;  247.375;-1091.000; -964.000
382.612;  588.200; -872.000; -644.000
382.742;  337.575; -695.000; -622.000
382.872;  167.325; -565.000; -551.000
383.002;   44.600;  347.000; -132.000
383.131;  -44.025; -226.000; -160.000
383.261;  -61.700; -706.000; -768.000
383.391;  252.650; -552.000; -377.000
383.521; 3367.625;  451.000;  263.000
383.650;  788.675; -947.000; -904.000
383.780;  -27.800; -783.000; -656.000
383.910;   96.275;  880.000;  802.000
384.039;  -10.650; -794.000; -656.000
384.169;  112.475;-1205.000;-1017.000
384.299;  -53.250; -650.000; -662.000
384.428;  -89.350; -764.000; -680.000
384.558;  -66.400; -308.000; -275.000
384.687;  -58.750; -414.000; -334.000
384.817;  -12.350;   75.000;   -2.000
384.947;    8.225; -234.000; -141.000
385.076;  230.400;  982.000;  912.000
385.206;   83.575;  369.000;  480.000
385.335;  -47.950; -549.000; -417.000
385.465; -100.700; -655.000; -663.000
385.594;   77.550;  -53.000;  -44.000
385.724;  292.750; -868.000; -838.000
385.853;   70.975; -296.000; -270.000
385.982; 1092.400; -743.000; -787.000
386.112; 1724.600;-1052.000; -871.000
386.241;   89.700; -307.000; -312.000
386.371;   -4.725; -174.000;  -87.000
386.500;  -29.775; -825.000; -789.000
386.629;    5.975; -874.000; -817.000
386.759;   38.650;  -43.000;   68.000
386.888;  -19.150; -170.000; -250.000
387.017;  -97.325; -648.000; -620.000
387.147; -100.750; -771.000; -798.000
387.276;  -15.450; -410.000; -397.000
387.405;    8.800; -398.000; -342.000
387.535;  -59.650; -452.000; -361.000
387.664;  -75.525; -692.000; -620.000
387.793;   40.275; -198.000; -113.000
387.922;  419.125;  255.000;  200.000
388.052;  -13.075; -576.000; -423.000
388.181;  -19.800; -342.000; -472.000
388.310;  -50.100; -889.000; -710.000
388.439;  -73.650; -749.000; -742.000
388.568;  137.200;  365.000;  244.000
388.697;  811.100; -756.000; -653.000
388.826;  130.200; -768.000; -666.000
388.956;   18.775; -285.000; -307.000
389.085;  -60.175; -347.000; -287.000
389.214; -115.850; -842.000; -872.000
389.343;  -91.925; -645.000; -413.000
389.472;  394.000;  126.000;  149.000
389.601;  506.175;   91.000;    0.000
389.730;  -10.450; -568.000; -687.000
389.859;   52.400;  226.000;   46.000
389.988;  128.825; -423.000; -408.000
390.117;   97.800; -168.000; -146.000
390.246;  -37.950; -331.000; -320.000
390.375;   45.400; -673.000; -626.000
390.504;  -74.600; -703.000; -621.000
390.633; -112.975; -672.000; -726.000
390.761;  -76.950; -732.000; -645.000
390.890;   10.400;   -4.000; -130.000
391.019;  -48.000; -421.000; -441.000
391.148; -133.775; -826.000; -855.000
391.277;  -82.700; -576.000; -493.000
391.406;  -97.000; -821.000; -805.000
391.534;   -4.525;  574.000; -301.000
391.663;  -81.200; -583.000; -645.000
391.792;  -98.000; -673.000; -701.000
391.921;   59.025;   -3.000;   15.000
392.050;  119.525; -287.000; -228.000
392.178;  -86.050;-1206.000;-1061.000
392.307;   77.200; -758.000; -712.000
392.436;   28.875; -427.000; -641.000
392.564;    4.700;  166.000;   -6.000
392.693; -101.900; -860.000; -682.000
392.822;  127.125; -529.000; -534.000
392.950;   28.100; -880.000; -714.000
393.079;  242.525; -188.000; -328.000
393.208;   -8.475; -488.000; -511.000
393.336;  -28.525; -170.000; -145.000
393.465;  -59.575; -317.000; -199.000
393.593;   -2.325;   62.000;   79.000
393.722; -163.650;-1121.000; -916.000
393.850;  -40.800; -188.000;  -61.000
393.979; -155.925; -926.000; -805.000
394.107;  -59.875; -517.000; -537.000
394.236;  -48.550; -570.000; -507.000
394.364;  143.075;  383.000;  206.000
394.493;  200.000; -911.000; -767.000
394.621;  -42.225; -955.000; -916.000
394.750;  724.700; -873.000; -923.000
394.878; 3059.000; -247.000; -149.000
395.007; 4071.850; -721.000; -807.000
395.135;  298.550; -790.000; -721.000
395.263; -102.250;-1038.000;-1040.000
395.392;  -16.275;  -25.000; -107.000
395.520; -148.950; -818.000; -679.000
395.648; -111.125; -865.000; -915.000
395.777;  -38.150; -366.000; -405.000
395.905;  -85.600; -449.000; -564.000
396.033;   -2.350;  217.000;  172.000
396.162;  354.700; -399.000; -453.000
396.290;  330.050;  -17.000;   -2.000
396.418;   47.925; -555.000; -514.000
396.546;  -83.375; -571.000; -466.000
396.674; -106.000; -850.000; -878.000
396.803;  -19.100;  -72.000;  -23.000
396.931;   42.950; -179.000; -199.000
397.059;  -18.250;-1026.000; -989.000
397.187; -132.675;-1026.000; -975.000
397.315; -148.375; -884.000; -649.000
397.443; -102.800; -592.000; -443.000
397.572;  -95.375; -578.000; -424.000
397.700;  -39.025; -607.000; -614.000
397.828;   -2.475;  120.000;  -90.000
397.956;  -53.525; -508.000; -478.000
398.084;  -68.350; -767.000; -626.000
398.212;   21.600;  137.000;  124.000
398.340;   -9.400;  -56.000;  159.000
398.468;    8.150; -390.000; -169.000
398.596; -147.025; -993.000; -953.000
398.724; -122.725; -762.000; -767.000
398.852; -174.775;-1024.000; -976.000
398.980;  -68.925; -560.000; -560.000
399.108;  -80.700; -982.000; -735.000
399.236;    6.100;   13.000;    8.000
399.363;   -1.475;  222.000;  196.000
399.491;  -69.175; -404.000; -398.000
399.619; -137.575; -829.000; -800.000
399.747; -114.550; -859.000; -771.000
399.875;   62.500;  220.000;  234.000
400.003;  -69.500; -359.000; -284.000
400.130;  -96.825; -421.000; -341.000
400.258;  -39.225;  -83.000;   38.000
400.386;  -84.950; -352.000; -168.000
400.514;  -48.925; -526.000; -587.000
400.641; -113.275; -928.000; -802.000
400.769; -160.125; -979.000; -888.000
400.897; -130.125; -838.000; -793.000
401.025;  -28.950; -166.000; -152.000
401.152;  -10.375;  220.000;   38.000
401.280;  -90.175; -430.000; -429.000
401.408; -115.975; -712.000; -576.000
401.535; -103.800; -735.000; -758.000
401.663; -203.275;-1134.000;-1054.000
401.790;  -94.675; -514.000; -525.000
401.918;   27.075;  436.000;  405.000
402.046;  -16.100;  134.000;  122.000
402.173;  -39.700;  -18.000;    7.000
402.301;  -85.650; -519.000; -397.000
402.428;   33.725;  528.000;  383.000
402.556; -164.200;-1188.000; -913.000
402.683;  -36.175;  -20.000;   -1.000
402.811;  -32.800;  -37.000; -206.000
402.938;  -21.625;   20.000;   27.000
403.066;  119.900; -574.000; -558.000
403.193;  255.750;  299.000;  239.000
403.321;  199.675; -396.000; -574.000
403.448;  264.150;   83.000;   27.000
403.575;  105.850;  -90.000;  -46.000
403.703; -107.000; -732.000; -557.000
403.830;  -84.500; -531.000; -496.000
403.957; -151.750;-1117.000;-1023.000
404.085;    0.775;  -61.000; -172.000
404.212;   78.575;  -50.000;   63.000
404.339;  282.400; -566.000; -306.000
404.467; 6034.900; -612.000; -524.000
404.594; 3675.325; -287.000; -227.000
404.721;  777.375; -869.000; -764.000
404.848;   58.300; -113.000; -202.000
404.976; -115.475; -856.000; -783.000
405.103;   -7.650;  -14.000;  -82.000
405.230;   -9.425;  190.000;  226.000
405.357;   22.375;  117.000;   44.000
405.484;  272.675;  -49.000;    5.000
405.612;   34.000; -548.000; -563.000
405.739;  -77.775; -488.000; -243.000
405.866;   72.300;  669.000;  385.000
405.993;  -60.750; -398.000; -102.000
406.120; -150.525; -801.000; -887.000
406.247;  -80.950; -323.000; -342.000
406.374;  345.775;  540.000;  629.000
406.501;   43.575; -632.000; -702.000
406.628;  -87.525; -621.000; -589.000
406.755; -115.100; -803.000; -620.000
406.882;  -60.050; -228.000; -277.000
407.009; -120.925; -719.000; -628.000
407.136;   16.825; -480.000; -401.000
407.263;   40.625; -939.000; -829.000
407.390; -102.325; -692.000; -614.000
407.517; -180.025;-1139.000;-1187.000
407.644;  -68.875; -332.000; -256.000
407.771;  -87.850; -249.000; -287.000
407.898;    2.000;  168.000;  328.000
408.025;  -72.975; -421.000; -313.000
408.151;  -28.175;   82.000;  153.000
408.278;  -91.275; -267.000; -216.000
408.405; -132.300; -931.000; -899.000
408.532;  -92.900; -549.000; -542.000
408.659; -129.850; -677.000; -648.000
408.785; -205.250;-1298.000;-1170.000
408.912;  -78.275; -412.000; -296.000
409.039; -119.350; -610.000; -686.000
409.166; -118.500; -591.000; -555.000
409.292; -126.000; -571.000; -534.000
409.419; -138.100; -665.000; -649.000
409.546;  -95.125; -431.000; -192.000
409.672; -113.150; -713.000; -545.000
409.799;  -36.500;  -36.000;   34.000
409.926;  -42.650; -180.000; -179.000
410.052; -188.525;-1127.000;-1091.000
410.179;  -65.475; -368.000; -392.000
410.305;  -94.500; -375.000; -493.000
410.432;  -55.025; -220.000; -333.000
410.558; -108.025; -305.000; -380.000
410.685;  -98.600; -688.000; -431.000
410.812; -112.950; -409.000; -588.000
410.938; -146.000; -964.000; -808.000
411.065; -109.475; -671.000; -645.000
411.191;  -29.000; -189.000; -174.000
411.317; -129.575; -823.000; -742.000
411.444;  -66.050; -317.000; -246.000
411.570;  -76.100; -339.000; -294.000
411.697; -139.250; -758.000; -752.000
411.823; -184.550; -989.000; -999.000
411.949;  -46.125;  -56.000;   17.000
412.076; -126.475; -539.000; -519.000
412.202; -123.975; -758.000; -757.000
412.329; -133.325; -798.000; -752.000
412.455; -137.825; -821.000; -657.000
412.581;  -26.150;  -15.000;  172.000
412.707;  -84.350; -540.000; -457.000
412.834;   10.275;  156.000;  219.000
412.960; -115.550; -785.000; -784.000
413.086; -112.900; -743.000; -701.000
413.212;  110.625;  604.000;  578.000
413.339;  -79.400; -685.000; -701.000
413.465;  -27.125; -364.000; -310.000
413.591; -100.175; -757.000; -474.000
413.717;  -66.500; -358.000; -366.000
413.843; -152.625; -839.000; -861.000
413.969;  -58.275;  -47.000; -292.000
414.096; -110.575; -679.000; -679.000
414.222;  -14.650;  -33.000;   85.000
414.348;  -59.400; -652.000; -385.000
414.474;   56.000;   38.000;  -52.000
414.600;  -27.150; -126.000; -144.000
414.726;  -18.200;  -96.000;  -55.000
414.852;  -66.175; -365.000; -342.000
414.978;   19.400;  104.000;  -18.000
415.104;   40.150;   38.000;   80.000
415.230;    4.525; -329.000; -330.000
415.356;   24.825; -409.000; -514.000
415.482;  189.250;   13.000;  -35.000
415.608;  277.500; -247.000; -323.000
415.734;  987.275;   67.000;   38.000
415.860;20487.050; -875.000; -767.000
415.986;14575.275; -685.000; -607.000
416.111; 1237.950; -798.000; -652.000
416.237;  246.150; -424.000; -571.000
416.363; 1172.650; -765.000; -733.000
416.489; 4380.025; -324.000; -251.000
416.615;  451.500; -707.000; -742.000
416.741;  -29.925; -677.000; -784.000
416.866; -101.275; -673.000; -736.000
416.992; -125.800; -801.000; -818.000
417.118;  -33.075;  -41.000;  -80.000
417.244;  -84.700; -798.000; -531.000
417.369;  -90.850; -801.000; -612.000
417.495;  -24.975; -325.000; -254.000
417.621; -103.625;-1015.000; -803.000
417.746;   -6.475; -579.000; -572.000
417.872;   46.600; -254.000; -144.000
417.998;   45.225; -515.000; -530.000
418.123; 1114.425;-1073.000; -845.000
418.249; 5594.325; -512.000; -601.000
418.374;  761.475; -916.000; -824.000
418.500;  103.525; -383.000; -482.000
418.626;  116.050;   70.000;  -59.000
418.751;  103.400; -549.000; -448.000
418.877;  195.625; -637.000; -643.000
419.002; 1888.775; -688.000; -560.000
419.128;13092.875; -930.000; -721.000
419.253; 3153.900; -967.000; -837.000
419.379;  412.900; -391.000; -338.000
419.504;  390.900;  325.000;  415.000
419.629;  549.950; -393.000; -212.000
419.755; 3822.675; -317.000; -254.000
419.880;22326.150;  -98.000;   67.000
420.006;11933.650; -280.000; -221.000
420.131;30237.700; -662.000; -775.000
420.256; 4266.775; -315.000; -316.000
420.382;  559.025; -665.000; -687.000
420.507;   71.400; -649.000; -778.000
420.632;   83.625; -337.000; -339.000
420.758;  155.575; -251.000; -425.000
420.883; -106.550; -876.000; -672.000
421.008; -103.350; -775.000; -619.000
421.133; -101.500; -509.000; -467.000
421.259;  -67.575; -325.000; -259.000
421.384; -129.525; -834.000; -693.000
421.509;  -81.500;-1052.000; -862.000
421.634;  826.200; -936.000; -820.000
421.759;  349.100; -359.000; -327.000
421.885;  -79.975; -717.000; -656.000
422.010;  -87.750; -673.000; -542.000
422.135; -159.525; -695.000; -727.000
422.260;   28.100;  340.000;  280.000
422.385;  -60.600;   12.000;  -98.000
422.510;    3.350;  151.000;  -26.000
422.635;    8.100;  -87.000;  -43.000
422.760;   68.525; -766.000; -791.000
422.885;   41.825;  -57.000;  -80.000
423.010;  -37.850; -112.000; -169.000
423.135;  -95.725; -481.000; -561.000
423.260;  -24.725; -150.000; -245.000
423.385;   58.300;  476.000;  222.000
423.510;    2.675;   71.000;  -22.000
423.635;   50.900;  133.000;   45.000
423.760;   45.400;  383.000;  328.000
423.885;   53.475;  336.000;  391.000
424.010;    6.200;  -68.000;  -13.000
424.135;  -33.375;    5.000;  -33.000
424.259;  -85.275; -654.000; -457.000
424.384;  -71.425; -279.000; -272.000
424.509;  -42.650; -260.000; -186.000
424.634; -131.825; -761.000; -623.000
424.759;  -36.025; -688.000; -544.000
424.883;  -23.425; -506.000; -527.000
425.008;  152.950; -502.000; -410.000
425.133; 2055.000; -679.000; -653.000
425.258;  939.100; -517.000; -381.000
425.382;  874.450; -867.000; -774.000
425.507; 2213.350; -487.000; -543.000
425.632;  367.125; -802.000; -663.000
425.756;  456.475; -256.000; -146.000
425.881; 7137.950; -831.000; -857.000
426.006;19017.375; -604.000; -355.000
426.130; 2836.900; -696.000; -508.000
426.255;  371.375; -611.000; -491.000
426.379;  148.625; -189.000; -577.000
426.504;  373.125;  660.000;  544.000
426.629; 4145.850; -519.000; -466.000
426.753; 2770.775;   64.000;  -46.000
426.878;  299.975; -252.000; -288.000
427.002;  133.725; -651.000; -668.000
427.127; 1655.825;  -35.000; -158.000
427.251;11859.600;  372.000;  401.000
427.375; 3296.200; -191.000; -173.000
427.500; 1948.375; -616.000; -610.000
427.624;  623.525; -234.000; -400.000
427.749;   73.500; -216.000; -225.000
427.873;  -54.125; -499.000; -412.000
427.997;  -54.400; -222.000; -230.000
428.122;   68.200;  795.000;  703.000
428.246;   60.975;  433.000;  434.000
428.371; -124.525; -869.000; -773.000
428.495; -118.450; -624.000; -646.000
428.619;  -29.200; -186.000; -117.000
428.743;    0.475;   65.000;  132.000
428.868;  -13.975; -732.000; -643.000
428.992; 1138.750; -219.000; -326.000
429.116;  405.100; -329.000; -357.000
429.240;  201.500;  419.000;  426.000
429.365;  -51.375; -454.000; -574.000
429.489;  -68.225; -638.000; -647.000
429.613;   14.050; -236.000; -177.000
429.737;   33.800; -563.000; -432.000
429.861;  252.700; -247.000; -133.000
429.985; 5749.800; -425.000; -305.000
430.109; 6278.625; -770.000; -908.000
430.234;  705.525;   76.000;  -50.000
430.358;   50.575; -250.000; -160.000
430.482;  -82.825; -672.000; -564.000
430.606;  -85.800; -655.000; -375.000
430.730;  -12.350; -437.000; -388.000
430.854;   47.800; -909.000; -835.000
430.978;  -89.125; -795.000; -764.000
431.102;  -94.625; -499.000; -422.000
431.226; -129.775; -874.000; -815.000
431.350;    4.575;  345.000;  422.000
431.474;  -87.625; -661.000; -373.000
431.597; -160.475;-1060.000; -848.000
431.721;  -83.525; -276.000; -267.000
431.845; -138.375; -704.000; -472.000
431.969; -101.400; -304.000; -349.000
432.093;  -92.625; -395.000; -317.000
432.217;  -25.600;   32.000;   82.000
432.341; -111.350; -523.000; -518.000
432.464;  -12.950;   96.000;   40.000
432.588;  113.625; -401.000; -329.000
432.712;   51.675;  -52.000;  -52.000
432.836;   53.225;  213.000;  263.000
432.959;  -24.800; -372.000; -311.000
433.083;   83.025;   11.000;    2.000
433.207;  392.675;  285.000;  930.000
433.330; 5326.125; -391.000; -200.000
433.454; 6454.900; -654.000; -638.000
433.578; 3754.575;  583.000;  278.000
433.701;  656.600; -623.000; -675.000
433.825;   99.125; -292.000; -299.000
433.949;  109.800;   28.000;  -72.000
434.072;   20.100; -410.000; -323.000
434.196;  -34.475; -309.000; -117.000
434.319; 3708.600;25482.000;25124.000
434.443;  710.725; -656.000; -603.000
434.566; 2754.150;  281.000;   62.000
434.690;  457.100; -637.000; -383.000
434.813;   33.650; -251.000; -173.000
434.937; -100.900; -569.000; -696.000
435.060;  -68.450; -423.000; -332.000
435.184;  182.550; -492.000; -217.000
435.307;   86.475;  159.000;  102.000
435.431;  -25.900;  -40.000;   24.000
435.554;  -83.475; -399.000; -240.000
435.677;  -96.700; -350.000; -258.000
435.801;  -54.450;  -25.000;   49.000
435.924;  -26.825;    1.000;  -67.000
436.048; -140.325;-1019.000; -732.000
436.171;  -62.550; -240.000;  -66.000
436.294;  -35.250; -248.000; -229.000
436.417;   94.100; -963.000; -849.000
436.541;  -91.075; -814.000; -840.000
436.664;  -55.350; -242.000; -316.000
436.787;  -35.700;   13.000;  113.000
436.910; -118.825; -792.000; -422.000
437.034;  -17.850;  142.000;  143.000
437.157;   15.250;  -11.000;    0.000
437.280;  -76.875; -392.000; -292.000
437.403; -108.725; -982.000; -869.000
437.526;  395.125; -903.000; -865.000
437.649; 1624.825; -505.000; -332.000
437.772;  196.250; -692.000; -540.000
437.896;   93.625;  700.000;  544.000
438.019; -126.625; -758.000; -503.000
438.142;  -95.125; -596.000; -506.000
438.265;  -48.525; -639.000; -670.000
438.388;  388.950; -520.000; -410.000
438.511;   30.650; -597.000; -394.000
438.634;  -56.475; -247.000; -125.000
438.757; -137.325; -693.000; -619.000
438.880;  -35.425;  -34.000;  -57.000
439.003; -101.725; -417.000; -437.000
439.126;  -68.300; -287.000; -167.000
439.248;  -76.925;  -98.000; -139.000
439.371;  -47.275;    9.000;  -53.000
439.494;   11.750;  510.000;  439.000
439.617;  -43.525;   65.000;  -88.000
439.740; -181.850; -968.000; -816.000
439.863; -147.975; -755.000; -595.000
439.986; -120.600; -476.000; -431.000
440.108;  -65.100; -161.000; -112.000
440.231; -176.725; -950.000; -836.000
440.354;  -45.625;  -64.000; -150.000
440.477;  -27.825; -566.000; -542.000
440.599;  -48.875; -200.000; -225.000
440.722; -137.200; -709.000; -586.000
440.845;   59.050;  751.000;  928.000
440.968; -113.050; -415.000; -311.000
441.090;  -71.850; -199.000;  -33.000
441.213; -188.425;-1021.000; -825.000
441.336;  -59.175; -159.000;   -5.000
441.458;  -94.325; -549.000; -396.000
441.581;  -95.700; -628.000; -629.000
441.703;  -82.350; -152.000;   13.000
441.826; -125.400; -557.000; -400.000
441.948;  -71.250;   56.000;   51.000
442.071;   28.225;  555.000;  424.000
442.193; -134.450; -531.000; -485.000
442.316;   -1.725;  152.000;   97.000
442.438;   35.975; -233.000;  -10.000
442.561;   61.350;  272.000;  262.000
442.683;  358.625; -809.000; -522.000
442.806;  834.275;   -8.000;   74.000
442.928;  -31.850; -859.000; -604.000
443.051;  -85.350; -577.000; -373.000
443.173; -107.825; -341.000; -339.000
443.295;  -95.625; -263.000; -371.000
443.418;  -84.925; -321.000;  -29.000
443.540;  -33.050; -106.000;   -4.000
443.662; -140.725; -563.000; -465.000
443.785;  -25.025;  335.000;  199.000
443.907; -110.075; -362.000; -208.000
444.029; -142.200; -767.000; -494.000
444.152; -148.275; -644.000; -554.000
444.274;  -33.000;  -18.000;  -24.000
444.396; -122.175; -461.000; -221.000
444.518; -140.600; -691.000; -454.000
444.640; -108.900; -268.000; -111.000
444.763;  -27.500;  388.000;  249.000
444.885; -126.350; -432.000; -392.000
445.007;  -44.200;   35.000;   86.000
445.129; -128.050; -610.000; -515.000
445.251; -111.325; -372.000; -439.000
445.373; -141.700; -537.000; -386.000
445.495;  -15.725;  242.000;  350.000
445.617;   28.950;  853.000;  753.000
445.739;  -87.700; -215.000;  -97.000
445.861;  -55.550; -245.000; -112.000
445.984;  -50.150; -267.000; -101.000
446.105;  119.775; -418.000; -251.000
446.227;  438.050; -176.000;  -19.000
446.349;  -30.750; -358.000; -249.000
446.471; -109.875; -615.000; -448.000
446.593;  -73.775; -316.000;   19.000
446.715;  -28.300;  -67.000;   41.000
446.837;   38.900;  697.000;  832.000
446.959; -116.950; -457.000; -478.000
447.081; -138.525; -628.000; -518.000
447.203;   45.700;  862.000;  834.000
447.325;  -93.750; -270.000;   42.000
447.446;  -16.950;  286.000;  530.000
447.568; -163.900; -921.000; -803.000
447.690;  -93.775; -236.000; -245.000
447.812; -162.850; -798.000; -519.000
447.933;  -41.600;  155.000;  127.000
448.055;  -86.500; -306.000; -261.000
448.177;   94.900;   31.000;   79.000
448.299;    6.375; -935.000; -727.000
448.420;   -7.725;  -25.000;  159.000
448.542;  -61.475;   -3.000;   33.000
448.664;  -24.975;  109.000;  322.000
448.785;  -32.775;  265.000;   83.000
448.907;  -97.675; -614.000; -353.000
449.028;  -64.700; -771.000; -471.000
449.150;   32.625;  492.000;  589.000
449.272; -190.725;-1044.000; -913.000
449.393;   14.375;  612.000;  694.000
449.515; -158.275; -634.000; -581.000
449.636;  -76.350; -264.000; -155.000
449.758;   56.375;  763.000;  622.000
449.879;  -87.875; -498.000; -396.000
450.001;  -89.750; -149.000;  -49.000
450.122;  -38.700;  -95.000;  162.000
450.244;  -37.600;   37.000;  364.000
450.365; -100.000; -495.000; -301.000
450.486;  -35.950;   80.000;  268.000
450.608;   27.125;  393.000;  326.000
450.729;   73.875;  578.000;  645.000
450.850;    2.175; -574.000; -466.000
450.972;  802.075; -552.000; -389.000
451.093; 5247.650;  190.000;  588.000
451.214; 2213.575; -516.000; -337.000
451.336;  394.975;  773.000;  579.000
451.457;   45.400;  264.000;  393.000
451.578;  -38.375; -118.000;  -74.000
451.699; -140.575; -546.000; -540.000
451.821;  -73.325; -284.000;  -50.000
451.942;   -9.550;  278.000;  285.000
452.063;   33.250;  228.000;  419.000
452.184;  574.650;  -54.000;  -49.000
452.305; 1115.950;  103.000;  170.000
452.427;  125.650; -549.000; -301.000
452.548;  -27.925;   23.000;   79.000
452.669;  -61.050; -257.000;  -89.000
452.790;  -53.500;    3.000;  -18.000
452.911;  -19.675;  195.000;  259.000
453.032;  -87.225; -289.000;  -60.000
453.153;  -47.550;  -29.000;   81.000
453.274;   53.050;  737.000;  868.000
453.395;  -64.725;  -51.000;  175.000
453.516;  106.000; 1317.000; 1388.000
453.637;  -90.400; -205.000; -150.000
453.758;  -67.950;   15.000;   69.000
453.879; -122.400; -462.000; -250.000
454.000;   63.875; 1086.000;  948.000
454.121; -131.650; -554.000; -326.000
454.242; -131.925; -599.000; -383.000
454.362;  -78.650;  -99.000;  114.000
454.483;  -36.900; -309.000; -229.000
454.604;   41.825;  512.000;  580.000
454.725; -137.250; -627.000; -555.000
454.846; -131.675; -474.000; -406.000
454.967;  -34.575;  230.000;  539.000
455.087;  -51.800;  179.000;  153.000
455.208;    8.200;  554.000;  856.000
455.329;  -57.800;  -22.000;   82.000
455.450;   25.175;  473.000;  633.000
455.570;  -88.450; -234.000; -211.000
455.691;  -54.100;  201.000;  407.000
455.812; -122.350; -270.000;  -92.000
455.932;  -64.500;  107.000;  -97.000
456.053;  -96.900;   36.000;   24.000
456.173; -121.175; -433.000; -355.000
456.294; -144.800; -476.000; -303.000
456.415;  -77.400;  -73.000;   70.000
456.535;  -53.700;  297.000;  273.000
456.656;  -45.900;  132.000;  240.000
456.776;  -74.650;    3.000;  298.000
456.897;   -8.350;  308.000;  513.000
457.017;  -93.375; -153.000;   -3.000
457.138; -117.975; -402.000; -249.000
457.258;  -45.150;  263.000;  224.000
457.379;  -20.275;  509.000;  521.000
457.499;  -40.075;  443.000;  432.000
457.620; -129.225; -407.000; -231.000
457.740; -112.250; -132.000;  -11.000
457.860;  -64.650;   87.000;   44.000
457.981;  -66.925;  132.000;  124.000
458.101;  -79.150;  -89.000;   40.000
458.221;  -25.750;  336.000;  402.000
458.342;  -61.575;   -4.000;  -37.000
458.462;   27.475;  617.000;  352.000
458.582;  -38.175; -302.000; -294.000
458.703;    7.750;  303.000;  154.000
458.823;  -33.700;   22.000;  163.000
458.943;   25.250;  341.000;  467.000
459.063;  -15.075; 1124.000;  192.000
459.183;  -39.475;  328.000;  313.000
459.304;  -10.075;  315.000;  517.000
459.424;  -74.600; -246.000;  -89.000
459.544;  346.675;  388.000;  764.000
459.664;  862.425;  499.000;  506.000
459.784;  305.650; 1004.000; 1175.000
459.904;   52.850;  867.000;  744.000
460.024;   49.175;  867.000;  684.000
460.144;   -7.000;  449.000;  554.000
460.264;  -11.650;  515.000;  327.000
460.385;  -95.725; -145.000; -119.000
460.505;   23.600;  905.000;  858.000
460.625; -100.350;  -17.000;  -68.000
460.745;  -37.375;  396.000;  541.000
460.864;  -66.050;  153.000;  469.000
460.984;   16.975;  499.000;  573.000
461.104;  127.475; 1656.000; 1775.000
461.224;   10.200;  657.000;  650.000
461.344;  -33.475;  431.000;  360.000
461.464;  -54.650;  258.000;  513.000
461.584;  -40.125;  283.000;  466.000
461.704;  -60.450;   58.000;  108.000
461.824;  -60.125;  238.000;  259.000
461.943;  -52.850;  191.000;  130.000
462.063;  -89.775;    2.000;  324.000
462.183;   16.125;  639.000;  717.000
462.303;  106.650; 1678.000; 1230.000
462.422;   17.975;  781.000;  840.000
462.542;  -57.275;  271.000;  391.000
462.662;   30.725;  353.000;  380.000
462.782;  233.550;  833.000;  572.000
462.901;  480.925;  545.000;  717.000
463.021;  282.000; 1702.000; 1638.000
463.141;  -16.325;  337.000;  770.000
463.260;  -23.050;  614.000;  474.000
463.380;    6.675;  902.000;  884.000
463.499;  -48.200;  342.000;  332.000
463.619;  -47.650;  581.000;  559.000
463.738;  120.200; 1644.000;  903.000
463.858;    6.775;  657.000;  811.000
463.978;  -43.350;  542.000;  396.000
464.097;   48.950;  921.000; 1114.000
464.217;  104.825; 1196.000; 1143.000
464.336;  102.800; 1068.000; 1130.000
464.455;  -45.675;  328.000;  659.000
464.575;   32.050;  597.000;  602.000
464.694;  150.275; 1204.000; 1179.000
464.814;  108.725; 1190.000; 1138.000
464.933;   70.550; 1095.000; 1027.000
465.052;   77.675; 1412.000; 1054.000
465.172;   64.850;  922.000;  799.000
465.291;  124.550; 1376.000; 1320.000
465.410;   12.025;  462.000;  735.000
465.530;   78.825; 1355.000; 1310.000
465.649;   58.725; 1209.000; 1273.000
465.768;  129.200; 1673.000; 1508.000
465.888;   36.175;  941.000; 1174.000
466.007;   87.650; 1335.000; 1440.000
466.126;  -17.975;  721.000;  641.000
466.245;   28.525; 1176.000; 1187.000
466.364;    7.975;  950.000; 1060.000
466.484;   61.250; 1024.000; 1213.000
466.603;   29.900; 1101.000; 1222.000
466.722;  113.475; 1490.000; 1769.000
466.841;   74.250; 1151.000; 1401.000
466.960;   16.725; 1069.000;  972.000
467.079;  145.425; 1971.000; 1786.000
467.198;   39.900; 1238.000; 1181.000
467.317;   83.425; 1768.000; 1162.000
467.436;   52.625; 1709.000; 1261.000
467.555;  122.250; 1796.000; 1746.000
467.674;   58.875; 1227.000; 1329.000
467.793;   29.525; 1376.000; 1374.000
467.912;   89.925; 1658.000; 1539.000
468.031;  138.750; 2038.000; 1930.000
468.150;  137.500; 1842.000; 1837.000
468.269;  180.425; 2313.000; 2090.000
468.388;  169.750; 2168.000; 2339.000
468.507;  252.200; 2884.000; 2903.000
468.626;  233.450; 2555.000; 2541.000
468.744;  121.525; 2018.000; 2174.000
468.863;  179.375; 2312.000; 2523.000
468.982;   66.575; 1503.000; 1555.000
469.101;  225.400; 2788.000; 2692.000
469.220;  152.175; 2333.000; 2176.000
469.338;  243.725; 2935.000; 3051.000
469.457;  178.400; 2719.000; 2545.000
469.576;  363.400; 3953.000; 3784.000
469.695;  230.450; 2877.000; 3066.000
469.813;  419.575; 4148.000; 4192.000
469.932;  414.800; 4255.000; 4485.000
470.051;  391.525; 4075.000; 4161.000
470.169;  869.000; 4470.000; 4338.000
470.288; 1519.475; 4700.000; 4809.000
470.406;  870.850; 5059.000; 5194.000
470.525;  627.800; 6101.000; 5787.000
470.644;  644.425; 6847.000; 6794.000
470.762;  811.450; 8397.000; 7873.000
470.881;  897.150; 8651.000; 8464.000
470.999; 1020.925; 9685.000; 9151.000
471.118; 1108.450;11174.000;10711.000

