
Integration time [ms]: 100.000
Averaging Nr. [scans]: 40
Smoothing Nr. [pixels]: 0
Data measured with spectrometer [name]: 2101012U2
Wave   ;Sample   ;Dark     ;Reference
[nm]   ;[counts] ;[counts] ;[counts] 

197.733;   58.750;  516.000;  404.000
197.879;  -83.500; -610.000; -634.000
198.025;  -50.975; -475.000; -420.000
198.171;  -74.800; -602.000; -612.000
198.317;  -40.225; -401.000; -316.000
198.463;  -68.700; -655.000; -404.000
198.609;   23.500;  181.000; -137.000
198.755;  -79.900; -644.000; -410.000
198.901;  -60.300; -505.000; -424.000
199.047;  -73.500; -615.000; -488.000
199.193;  -39.925; -230.000; -468.000
199.339;  -50.350; -222.000; -369.000
199.485;   41.100;  330.000;  271.000
199.631;   14.800;  227.000;  310.000
199.777;  -56.375; -466.000; -398.000
199.923;  -62.275; -610.000; -424.000
200.069;   -1.625; -141.000;  -58.000
200.215;   55.425;  128.000;  453.000
200.361;   35.850;  243.000;  477.000
200.507;  -68.950; -600.000; -373.000
200.653;  -26.100; -371.000; -194.000
200.798;  -35.825; -215.000; -125.000
200.944;   -4.925; -146.000;  -41.000
201.090;   29.425;   61.000;  222.000
201.236;    1.150; -116.000; -158.000
201.382;  113.550;  874.000;  903.000
201.528;   -8.175;  -58.000;  -48.000
201.674;  -46.725; -386.000; -293.000
201.819;  -60.650; -540.000; -439.000
201.965;  -86.675; -699.000; -447.000
202.111;  -20.150; -273.000; -226.000
202.257;  -38.200; -250.000; -238.000
202.402;    7.975;   13.000;  -36.000
202.548;  -44.350; -169.000; -116.000
202.694;   85.400;  410.000; -183.000
202.840;  -74.025; -603.000; -531.000
202.985;  -66.675; -681.000; -639.000
203.131; -108.325; -832.000; -666.000
203.277;  -27.025; -199.000; -262.000
203.423;  -49.600; -434.000; -520.000
203.568;  -38.325; -462.000; -237.000
203.714;  -62.525; -535.000; -542.000
203.860;  -83.375; -682.000; -641.000
204.005;   23.575;  112.000;  167.000
204.151;   66.525;  561.000;  556.000
204.296;  -55.525; -354.000; -221.000
204.442;  -70.125; -600.000; -547.000
204.588;  -80.175; -592.000; -579.000
204.733;   21.100;  178.000;  168.000
204.879; -135.375;-1018.000; -822.000
205.025;   13.450;  -99.000;  126.000
205.170;   -0.650;  -17.000;   94.000
205.316;   78.875;  438.000;  661.000
205.461;  -83.100; -698.000; -554.000
205.607;   67.850;  609.000;  665.000
205.752;  -84.800; -626.000; -551.000
205.898;  -54.300; -501.000; -391.000
206.043;  -72.450; -578.000; -506.000
206.189;  -49.225; -243.000; -285.000
206.334;   71.025;  554.000;  606.000
206.480;   83.150;  409.000;  239.000
206.625;  -83.375; -529.000; -552.000
206.771;  -48.750; -451.000; -373.000
206.916;  -34.300; -210.000; -537.000
207.062;  -78.375; -545.000; -591.000
207.207;  -74.300; -546.000; -443.000
207.353;   45.650;  185.000;  460.000
207.498;   20.250;  196.000;   85.000
207.643;  -56.450; -501.000; -370.000
207.789; -120.250;-1069.000; -910.000
207.934;  -86.925; -665.000; -713.000
208.080;  -16.650; -154.000;   66.000
208.225;    4.025;  -22.000;  -57.000
208.370;  -87.800; -727.000; -619.000
208.516;  -67.950; -741.000; -487.000
208.661;  -35.800; -127.000;  -69.000
208.806;  -26.000; -165.000; -171.000
208.952; -127.925;-1044.000; -731.000
209.097;   74.450;  378.000;  349.000
209.242;  -39.800; -307.000; -382.000
209.387;   67.825;  392.000;  350.000
209.533;  -33.825; -321.000; -350.000
209.678;   97.650;  472.000;  543.000
209.823;  -46.500; -408.000; -310.000
209.969; -103.325; -860.000; -757.000
210.114; -110.300; -907.000; -719.000
210.259; -120.800; -939.000; -889.000
210.404;  -12.800; -171.000;  103.000
210.549;   20.350;  108.000;    3.000
210.695;  -17.875;   -3.000;  -95.000
210.840;   41.000;   94.000;   67.000
210.985;  -84.300; -484.000; -303.000
211.130;   74.425;  268.000;  406.000
211.275;    6.450;  207.000;  199.000
211.420;  -43.775; -300.000; -289.000
211.566;  -67.875; -536.000; -489.000
211.711;   34.600;  218.000;  157.000
211.856;  -58.375; -545.000; -519.000
212.001;    8.250;  151.000;   44.000
212.146;   31.575;  153.000;   49.000
212.291;  -32.600; -210.000; -186.000
212.436;  -21.100; -280.000;   -6.000
212.581;  -78.750; -685.000; -653.000
212.726;  -81.875; -487.000; -538.000
212.871;  -42.700; -552.000; -217.000
213.016; -151.025;-1172.000;-1029.000
213.161;   72.600;  406.000;  291.000
213.306;  -77.200; -435.000; -577.000
213.451;  -89.050; -778.000; -689.000
213.596;  -57.525; -455.000; -347.000
213.741;  -39.700; -448.000; -538.000
213.886;  -83.675; -498.000; -517.000
214.031;  -19.850; -294.000; -124.000
214.176;  -62.750; -408.000; -341.000
214.321;  -20.650; -296.000; -157.000
214.466;  -32.100; -163.000;  -43.000
214.611;    2.325;  -61.000;  -10.000
214.756; -121.900; -948.000; -858.000
214.901;  -29.650; -388.000; -226.000
215.046; -134.500; -797.000; -825.000
215.191;   40.575;  128.000;   35.000
215.336;  -23.775; -157.000;  -19.000
215.480;  -59.175; -684.000; -505.000
215.625;  -12.200; -175.000;  -19.000
215.770;  -95.275; -757.000; -662.000
215.915;   -5.575;   -5.000;  -97.000
216.060;  -10.050; -113.000;  -21.000
216.205; -115.975; -731.000; -779.000
216.349;  -72.425; -470.000; -533.000
216.494; -141.400; -939.000; -867.000
216.639; -122.025; -823.000; -888.000
216.784;  -90.025; -577.000; -525.000
216.929;   42.800;  392.000;  281.000
217.073;  -24.975; -244.000;  -31.000
217.218;   -6.075;   78.000;  -47.000
217.363;  -82.450; -656.000; -618.000
217.507;  -88.075; -623.000; -588.000
217.652; -130.400; -845.000; -874.000
217.797;  -76.825; -708.000; -659.000
217.942;  -98.400; -856.000; -720.000
218.086;   72.200;  608.000;  539.000
218.231;  -17.475; -174.000;  -26.000
218.376;  -24.825; -337.000; -229.000
218.520;   -1.675;  -41.000;   96.000
218.665;  -36.925; -338.000; -204.000
218.810;  -37.475; -275.000; -233.000
218.954;   13.300;  201.000;   35.000
219.099; -129.150; -713.000; -963.000
219.243;  -63.950; -589.000; -554.000
219.388;  -34.550; -264.000; -136.000
219.532;   -1.350; -116.000; -116.000
219.677;  -67.950; -564.000; -521.000
219.822;  -10.950;   33.000;   89.000
219.966;   10.500;   17.000;  -99.000
220.111;  -35.000; -328.000;  -40.000
220.255;  -97.750; -797.000; -750.000
220.400;  -18.200; -180.000; -146.000
220.544;  -63.200; -516.000; -450.000
220.689;  -50.050; -422.000; -451.000
220.833;  -17.075; -123.000;  -58.000
220.978;  -47.425; -393.000; -563.000
221.122;   15.875;  319.000;  307.000
221.267; -115.700; -906.000; -837.000
221.411;  -64.650; -478.000; -394.000
221.555;  -12.625; -104.000;  -23.000
221.700;  -41.675; -329.000; -222.000
221.844;   19.700;  255.000;  272.000
221.989;  -52.850; -328.000; -311.000
222.133;  -34.425; -289.000; -307.000
222.277;    1.525;    5.000;   78.000
222.422;   18.475;  227.000;  113.000
222.566;  -47.100; -381.000; -214.000
222.711;  -54.900; -414.000; -479.000
222.855;  -85.700; -643.000; -586.000
222.999;  -80.050; -642.000; -717.000
223.144;  -33.750; -195.000; -194.000
223.288;   47.000;  423.000;  251.000
223.432;   18.400;  184.000;  230.000
223.576;   10.550;  152.000;  -21.000
223.721;   43.200;  364.000;  273.000
223.865;  -55.150; -472.000; -475.000
224.009;  202.625; 1673.000; 1631.000
224.153;  -85.825; -660.000; -671.000
224.298;  -61.925; -531.000; -489.000
224.442;   -8.725;  -74.000;  -33.000
224.586;  -10.225; -169.000; -106.000
224.730;  -93.650; -858.000; -670.000
224.875; -116.125; -739.000; -688.000
225.019;    2.850;  102.000;  188.000
225.163;   49.525;  208.000;  341.000
225.307;   17.850;   97.000;  -91.000
225.451;   50.625;  360.000;  481.000
225.595;   34.625;  264.000;  176.000
225.739;  -16.825; -170.000;  -94.000
225.884;    2.075;   86.000;    5.000
226.028;  -92.625; -760.000; -626.000
226.172;  -43.350; -260.000; -273.000
226.316; -125.300; -941.000; -902.000
226.460;  -65.600; -645.000; -493.000
226.604;  -57.250; -406.000; -400.000
226.748;  -94.400; -836.000; -733.000
226.892;  -42.450; -227.000; -181.000
227.036;  -47.550; -537.000; -447.000
227.180;  -62.225; -551.000; -375.000
227.324;  -72.125; -561.000; -580.000
227.468; -121.175; -819.000; -717.000
227.612;    3.850;  242.000;  -28.000
227.756; -118.900; -845.000; -698.000
227.900;   61.475;  342.000;  441.000
228.044;  -56.550; -509.000; -290.000
228.188;   59.575;  448.000;  568.000
228.332; -100.225; -546.000; -472.000
228.476;  -27.175; -223.000; -149.000
228.620;  -39.525; -210.000; -150.000
228.764;   65.450;  431.000;  349.000
228.908;  -13.775; -155.000;   30.000
229.052;  -50.450; -615.000; -528.000
229.195;  -13.350; -172.000;   13.000
229.339;  -35.325; -235.000; -305.000
229.483;  -25.775;    5.000; -162.000
229.627;   -7.475; -156.000;  139.000
229.771;  -44.850; -218.000; -294.000
229.915;    6.050;  230.000;   79.000
230.059;  -94.700; -648.000; -663.000
230.202;  -43.850; -370.000; -317.000
230.346;  -12.275; -107.000;  107.000
230.490;  -62.125; -489.000; -521.000
230.634; -115.525; -736.000; -553.000
230.777;   79.275;  478.000;  509.000
230.921;  -72.475; -450.000; -359.000
231.065;  -28.600; -246.000; -286.000
231.209;   17.100;  261.000;  265.000
231.352;   11.975;   54.000;   40.000
231.496;   16.100;  568.000;  188.000
231.640;  -87.575; -693.000; -621.000
231.783;   52.350;  546.000;  525.000
231.927;  -52.925; -294.000; -365.000
232.071; -126.800; -962.000; -736.000
232.214; -112.625; -980.000; -764.000
232.358; -104.600; -683.000; -599.000
232.502;   16.800;  -19.000;    7.000
232.645; -130.775;-1090.000; -927.000
232.789;  -25.825; -257.000; -218.000
232.933;  -49.025; -407.000; -224.000
233.076; -127.525;-1038.000; -897.000
233.220; -105.325; -752.000; -777.000
233.363;  -75.900; -669.000; -477.000
233.507;   44.875;  371.000;  129.000
233.650; -106.775; -764.000; -834.000
233.794;   41.575;  438.000;  461.000
233.938;  -63.750; -530.000; -362.000
234.081;   -8.950;  -93.000;   31.000
234.225;  -70.325; -631.000; -539.000
234.368; -102.975; -773.000; -723.000
234.512;  -34.500; -385.000; -299.000
234.655;  -95.650; -582.000; -555.000
234.798;  -74.475; -493.000; -466.000
234.942; -131.225; -884.000;-1002.000
235.085;  -77.275; -651.000; -443.000
235.229;  -87.425; -405.000; -410.000
235.372;  -55.075; -247.000; -191.000
235.516;  -65.475; -397.000; -321.000
235.659;   13.500;   92.000;  121.000
235.802;  -20.600;  -38.000;  -22.000
235.946;   27.175;  335.000;  215.000
236.089;   12.025;  126.000;  250.000
236.233;   53.700;  275.000;  298.000
236.376;  -51.650; -235.000; -378.000
236.519;  -52.475; -297.000; -319.000
236.663;  -28.500; -215.000; -117.000
236.806; -143.950;-1029.000; -999.000
236.949;   67.575;  543.000;  431.000
237.092;   58.825;  412.000;  391.000
237.236;  -86.875; -589.000; -502.000
237.379;   69.850;  352.000;  428.000
237.522; -108.675; -879.000; -768.000
237.666;  -20.700; -271.000;   18.000
237.809; -123.725; -851.000; -823.000
237.952;   34.500;  469.000;  271.000
238.095;  -61.975; -447.000; -442.000
238.238;   78.025;  688.000;  700.000
238.382;   -3.650;  166.000;  103.000
238.525;  -74.400; -598.000; -511.000
238.668; -152.800;-1060.000; -985.000
238.811;  -68.375; -638.000; -643.000
238.954;  -69.775; -483.000; -334.000
239.097;   94.550;  617.000;  664.000
239.241;   12.775;  394.000;  326.000
239.384;  -34.500; -254.000; -214.000
239.527;  -57.875; -424.000; -224.000
239.670; -134.050; -994.000;-1091.000
239.813; -124.400; -696.000; -658.000
239.956;   79.900;  579.000;  473.000
240.099; -114.850; -778.000; -725.000
240.242;   56.975;  428.000;  432.000
240.385;   40.025;  466.000;  450.000
240.528;  -76.775; -706.000; -473.000
240.671;    2.550;  189.000;  134.000
240.814;  -45.825; -441.000; -158.000
240.957; -111.075; -767.000; -578.000
241.100;  -93.925; -779.000; -755.000
241.243; -139.125;-1234.000; -893.000
241.386;  -69.750; -508.000; -379.000
241.529;  -92.900; -735.000; -547.000
241.672;  -66.625; -566.000; -495.000
241.815; -110.525; -832.000; -808.000
241.958;  -21.825; -125.000; -182.000
242.101;  -65.925; -545.000; -390.000
242.244;  -45.000; -270.000; -325.000
242.387;  -45.300; -304.000; -246.000
242.530;   62.825;  470.000;  134.000
242.673;  -45.725; -381.000; -309.000
242.815; -123.525; -925.000; -899.000
242.958;  -74.200; -482.000; -381.000
243.101;   12.025;  132.000;  187.000
243.244;  -84.850; -564.000; -521.000
243.387;  -44.825; -313.000; -316.000
243.530; -100.675; -657.000; -674.000
243.672;  -18.975;   43.000;  -92.000
243.815;  -65.825; -355.000; -283.000
243.958;    1.050;   98.000;  -26.000
244.101;  -14.500;   59.000;  -16.000
244.243;  -22.325;  -47.000;  101.000
244.386; -114.400; -761.000; -630.000
244.529;  -21.775; -132.000; -139.000
244.672; -156.525;-1154.000; -951.000
244.814;  -87.350; -621.000; -794.000
244.957;  -49.625; -380.000; -304.000
245.100;  -80.675; -489.000; -489.000
245.242;  -57.050; -387.000; -374.000
245.385;    8.575;  -59.000;  -39.000
245.528; -123.225; -871.000; -705.000
245.670;   82.700;  612.000;  634.000
245.813; -103.425; -599.000; -547.000
245.956;  -27.225; -324.000; -275.000
246.098;  -80.925; -508.000; -650.000
246.241;    9.150;  194.000;   48.000
246.383;  -14.525; -119.000;  -73.000
246.526;  -61.075; -454.000; -525.000
246.669; -115.950; -889.000; -780.000
246.811;    5.675;  172.000;   -1.000
246.954;  -71.650; -512.000; -426.000
247.096;  -20.725;  -84.000;   -6.000
247.239;  -78.125; -482.000; -445.000
247.381;  -68.800; -647.000; -488.000
247.524;   85.950;  645.000;  679.000
247.666;   -8.175;   58.000;   11.000
247.809; -136.200; -887.000; -691.000
247.951;   -4.600;  -75.000;  138.000
248.094;   25.500;  432.000;  308.000
248.236; -156.900;-1262.000;-1238.000
248.378;   -1.600; -356.000;  -81.000
248.521;   -6.400; -334.000; -337.000
248.663;  -40.250; -236.000; -267.000
248.806;  -23.700; -300.000; -266.000
248.948; -102.850; -886.000; -763.000
249.090;  -40.650; -428.000; -398.000
249.233;  -57.075; -344.000; -381.000
249.375;  -61.875; -474.000; -451.000
249.518;  -24.750;  -83.000; -133.000
249.660;    4.100; -103.000;    3.000
249.802; -184.600;-1303.000;-1189.000
249.945;  -67.550; -612.000; -540.000
250.087; -115.375; -834.000; -768.000
250.229;  -48.875; -362.000; -480.000
250.371;  -82.350; -494.000; -439.000
250.514;  -59.550; -310.000; -244.000
250.656;  -25.525;   69.000;  102.000
250.798; -122.300; -849.000; -800.000
250.940;  -70.700; -322.000; -322.000
251.083;  -23.350; -335.000; -111.000
251.225;   49.025;  338.000;  310.000
251.367;  -40.250; -274.000; -373.000
251.509;  -35.600; -265.000; -210.000
251.651;  -99.750; -731.000; -671.000
251.794;   75.750;  538.000;  632.000
251.936; -108.700; -821.000; -747.000
252.078;  -81.500; -540.000; -461.000
252.220;  -70.000; -645.000; -477.000
252.362;   83.425;  344.000;  462.000
252.504;  -65.975; -677.000; -584.000
252.646; -126.200; -875.000; -722.000
252.788;    1.375;   14.000; -128.000
252.931;  -45.525; -257.000; -253.000
253.073;  -44.450; -376.000; -317.000
253.215;   -4.175;  141.000;  122.000
253.357;  -10.875;   82.000; -153.000
253.499;  -57.400; -374.000; -234.000
253.641;  -90.325; -749.000; -594.000
253.783;  -90.500; -609.000; -527.000
253.925;  -81.550; -586.000; -591.000
254.067; -113.450; -744.000; -667.000
254.209;  -22.525; -391.000; -259.000
254.351; -148.175; -865.000; -883.000
254.493;  -53.150; -441.000; -417.000
254.635; -122.100; -936.000; -818.000
254.777;  -97.125; -752.000; -687.000
254.918;  -67.100; -512.000; -430.000
255.060;  -64.150; -551.000; -395.000
255.202;  -67.200; -473.000; -261.000
255.344;  -80.350; -658.000; -455.000
255.486;  -85.925; -471.000; -406.000
255.628; -108.075; -780.000; -781.000
255.770;  -92.300; -676.000; -536.000
255.912;  -61.750; -559.000; -468.000
256.053;  -98.950; -730.000; -508.000
256.195;  159.600; 1008.000;  903.000
256.337;  -97.900; -861.000; -595.000
256.479;   63.200;  532.000;  416.000
256.621;  -70.850; -394.000; -212.000
256.762; -104.050; -789.000; -742.000
256.904;   51.125;  485.000;  487.000
257.046;  -53.900; -381.000; -271.000
257.188;  -43.525; -351.000; -264.000
257.329;  -84.625; -525.000; -464.000
257.471; -126.675; -939.000; -807.000
257.613;  -67.500; -584.000; -498.000
257.755; -165.125;-1073.000; -982.000
257.896;   25.650;  286.000;  392.000
258.038;  -79.050; -403.000; -352.000
258.180;  -51.950; -354.000; -279.000
258.321;  -94.175; -581.000; -457.000
258.463;   -2.050;  -71.000;  133.000
258.605;  -89.875; -562.000; -570.000
258.746; -107.875; -886.000; -772.000
258.888; -155.150;-1026.000;-1020.000
259.029;   16.425;  121.000;   -8.000
259.171;  -92.975; -614.000; -550.000
259.313;    1.150;  -49.000;  -47.000
259.454;  -83.600; -536.000; -414.000
259.596;  -69.950; -483.000; -390.000
259.737;  -73.000; -590.000; -474.000
259.879;   29.450;  217.000;  311.000
260.020;   84.175;  901.000;  636.000
260.162;  -19.550; -146.000; -253.000
260.303; -114.075; -768.000; -687.000
260.445;  -87.600; -609.000; -613.000
260.586;   39.675;  392.000;  157.000
260.728;  -36.925; -360.000; -248.000
260.869; -119.300; -350.000; -343.000
261.011;   83.875;  706.000;  537.000
261.152;  -51.900; -479.000; -319.000
261.293;  -77.825; -576.000; -595.000
261.435;  -34.025; -219.000; -184.000
261.576;  -57.300; -455.000; -325.000
261.718;   56.525;  420.000;  470.000
261.859; -118.800; -940.000; -949.000
262.000; -140.700; -951.000;-1016.000
262.142;  -22.450;  -52.000;  -60.000
262.283; -124.850; -808.000; -691.000
262.424;  -87.100; -666.000; -625.000
262.566; -160.875;-1161.000; -983.000
262.707; -102.025; -840.000; -830.000
262.848; -127.650; -769.000; -726.000
262.990;  -50.350; -362.000; -345.000
263.131;   76.525;  650.000;  681.000
263.272;  -16.150;  -61.000;  -41.000
263.413;  -99.725; -589.000; -561.000
263.555;  -72.075; -669.000; -143.000
263.696; -100.725; -550.000; -641.000
263.837;  -60.650; -449.000; -551.000
263.978;  -15.350;   -5.000;  -77.000
264.119;  -41.650; -283.000; -264.000
264.261; -107.675; -847.000; -630.000
264.402;    3.775;   33.000;   40.000
264.543;  -90.650; -509.000; -524.000
264.684;  -13.700;   61.000;  -50.000
264.825;  -76.850; -816.000; -538.000
264.966;  -12.325;  -84.000;  -67.000
265.107; -118.500; -646.000; -670.000
265.248; -119.175; -825.000; -812.000
265.390;   -5.500;  152.000;   -9.000
265.531;  -31.700; -238.000; -107.000
265.672;  -97.475; -557.000; -630.000
265.813;   58.775;  563.000;  439.000
265.954; -157.250; -959.000; -940.000
266.095;  -15.625; -372.000; -322.000
266.236; -106.350; -686.000; -548.000
266.377;  -43.100; -243.000; -297.000
266.518;  -82.275; -619.000; -547.000
266.659;   30.600;  170.000;  268.000
266.800;    4.325;   83.000;   85.000
266.941;  -86.375; -487.000; -478.000
267.082;   30.425;  354.000;   99.000
267.223;  -57.375; -344.000; -273.000
267.364; -122.625; -892.000; -686.000
267.504;   -8.525;    3.000;  135.000
267.645;   -8.950;  160.000;   67.000
267.786;  -21.725; -147.000;  -86.000
267.927;  -60.575; -473.000; -379.000
268.068;  -25.925; -186.000;  -61.000
268.209;  -54.250; -175.000; -413.000
268.350;  -63.525; -388.000; -532.000
268.490;  -89.875; -648.000; -521.000
268.631;   14.500;  127.000;  225.000
268.772; -115.750; -874.000; -647.000
268.913;  -48.125; -328.000; -476.000
269.054;  -16.500; -117.000;   12.000
269.194;  -57.250; -418.000; -402.000
269.335; -150.375;-1137.000;-1074.000
269.476;  -22.000;   33.000;  -35.000
269.617;  -67.750; -347.000; -392.000
269.757;  -89.700; -713.000; -646.000
269.898; -120.275; -856.000; -613.000
270.039;  -67.850; -415.000; -405.000
270.180; -138.975; -952.000; -816.000
270.320;  -33.250; -190.000; -250.000
270.461;  -39.600; -277.000; -249.000
270.602;  -24.350; -186.000; -156.000
270.742; -125.475; -868.000; -943.000
270.883;  -60.400; -442.000; -390.000
271.023;  -48.250; -358.000; -357.000
271.164;  -70.375; -607.000; -528.000
271.305; -107.875; -666.000; -654.000
271.445;  -88.450; -722.000; -683.000
271.586;  -72.650; -462.000; -283.000
271.726;  -55.550; -397.000; -322.000
271.867;  -55.125; -594.000; -534.000
272.008;  179.950; -473.000; -285.000
272.148;  137.300;  462.000;  468.000
272.289;   12.250; -113.000; -181.000
272.429;   17.650;   19.000;  185.000
272.570; -107.250; -633.000; -737.000
272.710; -108.900; -825.000; -775.000
272.851;  -31.075;  113.000; -130.000
272.991; -163.075;-1173.000;-1077.000
273.131;  -74.200; -419.000; -459.000
273.272; -107.975; -683.000; -723.000
273.412;   17.575; -143.000;  -31.000
273.553;  -55.150; -488.000; -507.000
273.693;  125.875;  913.000;  858.000
273.834;  -84.925; -894.000; -692.000
273.974;  -81.700; -664.000; -615.000
274.114;  -90.050; -772.000; -560.000
274.255;   88.350;  414.000;  373.000
274.395;  -10.425; -180.000; -125.000
274.535;   41.300;  199.000;  350.000
274.676;   26.225;  225.000;   94.000
274.816;   -6.825;  110.000;   34.000
274.956;  -93.125; -624.000; -690.000
275.097;  -50.550;-1014.000; -922.000
275.237; -119.450; -913.000; -803.000
275.377;  -96.825; -778.000; -689.000
275.517; -144.400; -878.000; -937.000
275.658;  -60.250; -590.000; -555.000
275.798;  -63.250; -606.000; -413.000
275.938;   18.325;  215.000;  323.000
276.078; -104.175; -626.000; -395.000
276.218;    7.050;   99.000;  104.000
276.359; -148.750;-1026.000;-1024.000
276.499;  -61.450; -605.000; -446.000
276.639;  -46.750; -305.000; -151.000
276.779;  -43.900; -475.000; -357.000
276.919; -109.150; -783.000; -624.000
277.059;  -24.650; -261.000; -212.000
277.199;  -55.375; -357.000; -259.000
277.340;   30.975;  287.000;  175.000
277.480; -118.925; -840.000; -693.000
277.620;   14.350;  192.000;   16.000
277.760; -216.125;-1533.000;-1294.000
277.900;   17.750;  113.000;   33.000
278.040;    9.975;  137.000;  159.000
278.180;   22.225;  270.000;  170.000
278.320;  -22.225;   21.000;   56.000
278.460;  -56.200; -443.000; -469.000
278.600;  -99.950; -708.000; -598.000
278.740;   35.800;  448.000;  224.000
278.880;  -43.975; -768.000; -791.000
279.020;   -9.075; -194.000; -144.000
279.160; -102.775; -672.000; -595.000
279.300; -128.250; -926.000; -873.000
279.440; -105.425; -709.000; -622.000
279.579;  -19.625;-1014.000; -929.000
279.719;  -56.750; -410.000; -394.000
279.859;   77.500;   -4.000;   41.000
279.999;   36.100; -208.000;  101.000
280.139;  -14.200; -435.000; -387.000
280.279;  -83.425; -708.000; -745.000
280.419;   -8.325; -229.000; -147.000
280.559;  -38.375; -259.000; -180.000
280.698;  -77.525; -790.000; -639.000
280.838;  -96.850; -778.000; -800.000
280.978;  -94.175; -846.000; -790.000
281.118; -113.175; -811.000; -704.000
281.257;   -0.350;   24.000;    6.000
281.397; -130.025;-1094.000; -960.000
281.537;  -83.575; -599.000; -712.000
281.677;  -25.175; -150.000; -101.000
281.816; -102.325; -700.000; -630.000
281.956;  -35.975; -193.000; -257.000
282.096;  -66.125; -539.000; -396.000
282.235; -124.125; -672.000; -638.000
282.375;  -25.975; -243.000;  -98.000
282.515; -101.150; -715.000; -707.000
282.654;   22.200;   29.000;  106.000
282.794;   20.650;  388.000;  244.000
282.934;  -54.525; -530.000; -491.000
283.073; -137.175;-1030.000; -857.000
283.213;  -53.600; -460.000; -467.000
283.353;  -44.725; -408.000; -349.000
283.492;  -35.275; -264.000; -296.000
283.632;  -51.175; -254.000; -168.000
283.771;  -96.250; -859.000; -730.000
283.911;  -45.325; -369.000; -260.000
284.050; -109.500; -794.000; -748.000
284.190; -163.700;-1229.000;-1096.000
284.329; -138.050;-1055.000; -964.000
284.469;  -60.700; -516.000; -591.000
284.608;  -67.900; -559.000; -598.000
284.748;  -93.775; -614.000; -570.000
284.887;  -20.550;  -87.000;  -20.000
285.027; -120.350; -844.000; -892.000
285.166;  -35.700; -192.000; -249.000
285.306;   13.550; -116.000;  -33.000
285.445;  -45.900; -229.000; -343.000
285.584; -100.025; -630.000; -494.000
285.724;  -49.475; -282.000; -322.000
285.863; -119.275; -857.000; -507.000
286.002;  -51.875; -366.000; -276.000
286.142; -122.775; -715.000; -622.000
286.281;  -73.350; -525.000; -493.000
286.420;  -94.800; -554.000; -417.000
286.560;   97.750;  653.000;  623.000
286.699; -149.575; -958.000; -912.000
286.838;  -76.975; -590.000; -591.000
286.978;  -79.850; -533.000; -537.000
287.117; -137.525;-1085.000; -950.000
287.256;  -38.950; -228.000; -211.000
287.395;  -48.675; -197.000; -378.000
287.535;  -50.850; -370.000; -298.000
287.674;  -77.350; -509.000; -484.000
287.813;   58.575;  661.000;  533.000
287.952; -130.750;-1010.000; -871.000
288.091; -153.400;-1049.000; -915.000
288.231;   15.475;   13.000;   15.000
288.370; -164.750;-1217.000;-1200.000
288.509; -103.400; -728.000; -645.000
288.648;  -95.025; -770.000; -548.000
288.787;  -24.325; -243.000;  -87.000
288.926;  -63.025; -454.000; -475.000
289.065;  111.650;  859.000;  672.000
289.204;  -50.750; -377.000; -217.000
289.344;  -84.425; -791.000; -690.000
289.483;   16.075;  416.000;  304.000
289.622;  -20.925; -291.000; -149.000
289.761;  -17.675; -309.000; -166.000
289.900;  -96.675; -785.000; -626.000
290.039;  -19.050;  -12.000;  -95.000
290.178;  -45.400; -274.000; -180.000
290.317;  -73.925; -618.000; -479.000
290.456;  -73.425; -463.000; -451.000
290.595; -145.125; -961.000; -833.000
290.734; -132.250; -904.000; -891.000
290.873;  -77.550; -456.000; -420.000
291.011; -111.250; -833.000; -843.000
291.150; -107.900; -770.000; -682.000
291.289;  -17.250; -343.000; -110.000
291.428; -105.000; -599.000; -480.000
291.567;  -61.200; -370.000; -442.000
291.706;  -15.750;  109.000;  154.000
291.845; -103.425; -597.000; -505.000
291.984; -172.925;-1234.000;-1061.000
292.122;   60.775;  602.000;  582.000
292.261;   39.725;  620.000;  463.000
292.400;    1.200; -144.000;  211.000
292.539; -115.225; -959.000; -813.000
292.678;  -35.075; -325.000; -300.000
292.816; -161.200;-1136.000; -965.000
292.955;  -96.200; -844.000; -684.000
293.094;  -22.225; -173.000; -337.000
293.233;  -65.075; -556.000; -400.000
293.371;  -37.200; -225.000;  -84.000
293.510; -108.375; -866.000; -780.000
293.649; -130.175; -959.000; -924.000
293.787;  -59.525;-1083.000;-1012.000
293.926;   -6.225; -113.000;  -32.000
294.065;  -48.125; -379.000; -290.000
294.203;   46.900;  298.000;  406.000
294.342;   12.350;   74.000;  156.000
294.481; 5647.400;51180.000; -836.000
294.619;  -38.300; -425.000; -582.000
294.758; -153.050;-1230.000;-1137.000
294.896;   79.375; -125.000;    5.000
295.035; -125.575;-1040.000;-1006.000
295.174; -117.075;-1082.000; -954.000
295.312;  -46.100; -323.000; -203.000
295.451;   -1.875; -307.000; -428.000
295.589;  -64.800; -389.000; -518.000
295.728;   22.550; -292.000; -165.000
295.866;   -4.600;  -36.000;  -51.000
296.005;  -62.475; -584.000; -341.000
296.143;  -74.000; -558.000; -596.000
296.282; -112.625; -957.000; -881.000
296.420;  -87.400; -657.000; -557.000
296.559;  -80.250; -892.000; -633.000
296.697;   28.150; -847.000; -665.000
296.835;   64.075;-1141.000;-1002.000
296.974;   52.050;  -23.000;   39.000
297.112;   15.700; -443.000; -504.000
297.251;  -72.775; -815.000; -755.000
297.389;  105.175; -576.000; -438.000
297.527;   41.675; -145.000;  -83.000
297.666;  -57.200; -486.000; -438.000
297.804;  -51.450; -404.000; -264.000
297.942;  -15.725; -136.000; -161.000
298.081;   -2.625; -183.000;   63.000
298.219;   69.425;  -17.000;  -19.000
298.357;   72.625; -144.000;  -71.000
298.495;   43.200; -810.000; -812.000
298.634;   86.575;  245.000;  219.000
298.772;   61.350; -220.000; -338.000
298.910;  -35.075; -309.000; -182.000
299.048;  -10.475; -130.000; -153.000
299.187;  -33.700; -350.000; -250.000
299.325;   17.275;   52.000;  122.000
299.463;   62.725; -389.000; -299.000
299.601;  129.800; -327.000; -271.000
299.739; -112.125; -908.000; -883.000
299.877;  -80.025; -791.000; -703.000
300.016;  -47.750;-1095.000; -935.000
300.154;  190.150;  -19.000; -161.000
300.292;   69.200; -428.000; -348.000
300.430;   34.625; -408.000; -291.000
300.568; -104.625; -940.000; -874.000
300.706;  -53.425; -366.000; -469.000
300.844;  -60.775;-1108.000; -979.000
300.982;  127.300;  246.000;  282.000
301.120; -115.675; -965.000; -866.000
301.258;  -59.225; -812.000; -705.000
301.396;   32.650;  104.000;  -41.000
301.534;  101.225; -218.000; -293.000
301.672;   -1.900; -664.000; -521.000
301.810;   38.475; -613.000; -545.000
301.948;  131.425;   53.000;  149.000
302.086;  673.900; -250.000;  -32.000
302.224; 1029.750; -610.000; -585.000
302.362;   50.350; -558.000; -622.000
302.500;  -10.150; -923.000; -893.000
302.638;  111.750;  128.000;  245.000
302.776;   -5.000; -352.000; -408.000
302.913;   48.450;  447.000;  236.000
303.051;    9.800;  -86.000;  -23.000
303.189;   49.175;   90.000;  118.000
303.327;  -35.025; -341.000; -256.000
303.465;  -84.025; -832.000; -588.000
303.603;  -95.575; -805.000; -604.000
303.740;  114.375;  417.000;  241.000
303.878;   27.700; -800.000; -759.000
304.016;  -91.725; -915.000; -790.000
304.154; -137.500;-1123.000;-1152.000
304.291;  -36.950; -505.000; -554.000
304.429;    6.950;  102.000;   74.000
304.567; -121.400; -908.000; -893.000
304.705;  -55.025; -408.000; -515.000
304.842;  113.475; -616.000; -540.000
304.980;   49.450;  215.000;   35.000
305.118;   38.400; -367.000; -365.000
305.255;  -65.825; -945.000; -927.000
305.393;   57.775;  178.000;  239.000
305.531; -100.500;-1173.000; -956.000
305.668;  -74.750; -663.000; -582.000
305.806;  103.500; -358.000; -439.000
305.943;  128.600; -629.000; -637.000
306.081;   52.450; -378.000; -267.000
306.219; -102.825; -863.000; -748.000
306.356;   -0.225;  158.000;   27.000
306.494;   98.575;  981.000;  761.000
306.631;  -12.750;  -11.000;  -55.000
306.769;   -3.000; -613.000; -485.000
306.906;   -5.825; -284.000; -258.000
307.044;  -63.100; -473.000; -488.000
307.181;  -76.575; -410.000; -332.000
307.319;   13.550;  112.000;   87.000
307.456; -191.625;-1191.000;-1153.000
307.594; -114.100; -980.000; -727.000
307.731;  -17.425; -371.000; -164.000
307.868;   -1.725;  -15.000;   20.000
308.006; -143.650; -961.000; -847.000
308.143;  -58.575; -618.000; -330.000
308.281;  146.350;  -37.000; -254.000
308.418;  -12.675; -748.000; -640.000
308.555;  -75.500; -400.000; -250.000
308.693;  -85.775; -577.000; -573.000
308.830; -103.975; -712.000; -657.000
308.967;   -1.900; -215.000;  -95.000
309.105;  -48.450; -507.000; -396.000
309.242;   35.725; -468.000; -367.000
309.379;  301.175; -577.000; -655.000
309.517;  -77.475; -936.000; -948.000
309.654; -108.575; -910.000; -734.000
309.791;  -82.975; -662.000; -580.000
309.928; -115.900; -977.000; -914.000
310.065;  191.200;  819.000;  697.000
310.203;  -11.875; -825.000; -850.000
310.340;   -4.975; -465.000; -321.000
310.477;  -85.475; -412.000; -516.000
310.614;  -77.575; -383.000; -473.000
310.751;  -89.025; -427.000; -518.000
310.889;  -24.500;    1.000;   11.000
311.026; -153.700;-1161.000; -939.000
311.163;  -59.350; -386.000; -380.000
311.300;  -81.175; -512.000; -479.000
311.437;  -77.325; -658.000; -619.000
311.574; -156.175;-1226.000; -985.000
311.711;  -58.925; -595.000; -433.000
311.848;  -53.800; -380.000; -388.000
311.985;   13.500;  270.000;   93.000
312.122; -125.225; -932.000; -762.000
312.259; -120.500; -941.000; -994.000
312.396;  -86.525; -508.000; -551.000
312.533;  -94.925; -812.000; -790.000
312.670; -131.500;-1070.000; -898.000
312.807;  -30.000; -352.000; -367.000
312.944;  -84.275; -513.000; -611.000
313.081;  -30.575; -150.000; -415.000
313.218; -111.300;-1111.000; -867.000
313.355;   14.775; -531.000; -449.000
313.492;    0.175; -455.000; -292.000
313.629;  117.600;  815.000;  735.000
313.766; -155.800;-1176.000;-1008.000
313.902;  -15.075; -186.000;   21.000
314.039;  -56.325; -372.000; -289.000
314.176;   35.375;  286.000;  192.000
314.313;  -73.475; -569.000; -473.000
314.450;  -85.675; -788.000; -684.000
314.587;  -54.375; -468.000; -480.000
314.723;   -4.050;  -78.000;  130.000
314.860;   26.625;  318.000;  332.000
314.997;   27.875;  223.000;  142.000
315.134;  -43.300; -385.000; -368.000
315.270;  -29.500; -480.000; -496.000
315.407; -124.375;-1094.000; -967.000
315.544;  -49.950; -657.000; -538.000
315.681;  -64.900; -681.000; -565.000
315.817;   17.875; -133.000; -176.000
315.954;   29.000; -613.000; -392.000
316.091; -131.825;-1045.000;-1023.000
316.227;  -36.650;  -71.000; -179.000
316.364;   -1.100;   23.000;    6.000
316.500;  -61.800; -113.000; -300.000
316.637;  -42.000; -181.000; -302.000
316.774;  -87.025; -625.000; -358.000
316.910;  -95.350; -598.000; -629.000
317.047;  -74.875; -487.000; -351.000
317.183;  -50.975; -435.000; -566.000
317.320;  -25.100; -367.000; -321.000
317.456;  -73.050; -733.000; -805.000
317.593;  -74.250; -598.000; -641.000
317.729;    6.025;  168.000;  -67.000
317.866; -208.150;-1434.000;-1285.000
318.002;  -91.600; -708.000; -948.000
318.139;  -97.100; -883.000; -867.000
318.275; -110.675;-1003.000; -738.000
318.412;  -71.000; -517.000; -336.000
318.548;  -21.700; -751.000; -720.000
318.685;  -98.150; -985.000; -888.000
318.821;  -98.350; -762.000; -735.000
318.957;  -35.950;   34.000;  -23.000
319.094;   54.725;  297.000;  154.000
319.230;  -70.625; -756.000; -742.000
319.367;  142.750; -471.000; -520.000
319.503;   74.375; -538.000; -436.000
319.639;  -87.600; -877.000; -793.000
319.775;  -61.975; -750.000; -685.000
319.912;  -44.400; -424.000; -519.000
320.048;  -91.975;-1184.000;-1184.000
320.184;   76.200;   59.000;   70.000
320.321;  -58.550; -497.000; -467.000
320.457;   67.625;  475.000;  662.000
320.593;  -78.875; -375.000; -382.000
320.729; -120.775; -732.000; -734.000
320.866;  -76.650; -577.000; -635.000
321.002;  -66.150; -759.000; -809.000
321.138;  -27.975; -135.000; -211.000
321.274;   89.175; -148.000; -115.000
321.410;  -20.950; -585.000; -353.000
321.546;  -25.650;-1011.000; -911.000
321.683;   47.875;  400.000;  185.000
321.819;    3.700;  -48.000; -117.000
321.955; -114.750; -743.000; -722.000
322.091;  -45.125; -585.000; -540.000
322.227;   -8.975; -382.000; -202.000
322.363;  -14.400; -320.000; -215.000
322.499;  -53.000; -343.000; -331.000
322.635;  164.425;  636.000;  443.000
322.771;   26.425; -139.000;   12.000
322.907;   86.725;  129.000;  327.000
323.043;  -32.325; -115.000; -206.000
323.179;  -20.775; -394.000; -363.000
323.315;   37.000; -401.000; -371.000
323.451;  102.850; -328.000; -236.000
323.587;   58.125;  -60.000;  -77.000
323.723;   20.275; -682.000; -601.000
323.859;  -17.575; -258.000;  -76.000
323.995;  -28.875; -467.000; -409.000
324.131; -119.450; -967.000; -892.000
324.267;  -50.875; -254.000; -276.000
324.402; -143.100; -960.000; -983.000
324.538;  -13.025; -279.000; -104.000
324.674;   19.500;  164.000;   77.000
324.810;  133.850;  226.000;  308.000
324.946;   -2.500; -810.000; -658.000
325.082;  -79.950; -568.000; -475.000
325.217;  -10.175;  -62.000;   16.000
325.353; -105.950; -764.000; -659.000
325.489;  -89.775; -540.000; -506.000
325.625;  -72.950; -579.000; -525.000
325.760;   63.925;  517.000;  376.000
325.896;  -37.575; -515.000; -702.000
326.032;  -54.000; -403.000; -352.000
326.168;  -76.900; -462.000; -369.000
326.303;  -55.575; -352.000; -461.000
326.439;  -13.175; -336.000; -276.000
326.575;    3.000; -190.000;  -29.000
326.710;  -19.225; -156.000;  -30.000
326.846;   -4.075;  146.000;  103.000
326.982; -102.150; -530.000; -548.000
327.117;  -82.625; -481.000; -442.000
327.253;  -88.950; -745.000; -742.000
327.388; -167.875;-1137.000;-1153.000
327.524;  -46.575; -811.000; -578.000
327.659;  -25.025;  -58.000;  -22.000
327.795;   -3.500;   69.000;   45.000
327.931; -101.425; -723.000; -499.000
328.066;  -18.350; -417.000; -276.000
328.202;  -16.875;   12.000; -129.000
328.337;  113.550;  957.000;  713.000
328.473;   28.075;  -12.000;  -74.000
328.608;  -29.675; -256.000; -267.000
328.743;  -92.225; -799.000; -664.000
328.879;    8.450;  214.000;  114.000
329.014;  -40.350; -102.000; -122.000
329.150;  -85.675; -358.000; -483.000
329.285;  -78.550; -465.000; -466.000
329.421;  -49.975; -548.000; -246.000
329.556;  -28.450;  -36.000;   85.000
329.691; -113.400; -633.000; -615.000
329.827;  -86.300; -626.000; -480.000
329.962;  -46.550;  131.000; -301.000
330.097;  -87.050; -673.000; -585.000
330.233;  -60.775; -410.000; -223.000
330.368; -132.925; -839.000; -628.000
330.503;   -3.900;    3.000;   98.000
330.638;    6.625;  -93.000; -125.000
330.774;  -59.675; -609.000; -530.000
330.909;  -44.300; -434.000; -244.000
331.044; -100.675; -714.000; -708.000
331.179; -170.875;-1217.000;-1109.000
331.315;    7.525;   77.000;   20.000
331.450;    3.325;  157.000;  285.000
331.585;  -96.150; -805.000; -706.000
331.720;  -90.375; -510.000; -460.000
331.855;  -17.075;  -35.000; -102.000
331.990;  228.975;   62.000;  138.000
332.126;  105.700; -110.000;   71.000
332.261;  -31.650; -379.000; -265.000
332.396;  -11.925; -135.000; -242.000
332.531; -102.225;-1074.000;-1031.000
332.666;   15.350; -519.000; -363.000
332.801; -100.825; -726.000; -807.000
332.936;  -29.900; -192.000; -122.000
333.071; -163.650; -870.000; -817.000
333.206;    7.325;  307.000;  379.000
333.341;   36.025;  344.000;  418.000
333.476;  -98.800; -627.000; -623.000
333.611;  -59.150; -251.000; -173.000
333.746;  -44.350; -381.000; -464.000
333.881; -119.950; -973.000; -935.000
334.016; -134.500; -936.000; -917.000
334.151; -124.050; -746.000; -702.000
334.286;   26.725;  152.000;  186.000
334.421;   -7.100; -125.000; -178.000
334.556;  -80.375; -611.000; -567.000
334.690;  -91.100; -631.000; -577.000
334.825;   46.850;  381.000;   83.000
334.960;  -69.175; -285.000; -413.000
335.095;    0.175;  135.000;  -91.000
335.230; -100.725; -722.000; -738.000
335.365; -132.250;-1084.000; -990.000
335.499; -140.825;-1108.000;-1037.000
335.634;   24.150;    9.000;  534.000
335.769; -108.950; -755.000; -720.000
335.904;  -57.025; -603.000; -561.000
336.038;  -62.050; -735.000; -657.000
336.173; -128.150;-1206.000;-1194.000
336.308;   20.375; -116.000; -189.000
336.443;    2.200; -544.000; -634.000
336.577;  -60.125; -936.000; -787.000
336.712;   78.625;   -4.000;  -12.000
336.847;  -25.400; -724.000; -607.000
336.981;   80.900; -272.000; -208.000
337.116;  297.150;  615.000;  501.000
337.250;  169.625; -434.000; -421.000
337.385;  211.650; -297.000; -208.000
337.520;   58.175; -632.000; -603.000
337.654;  -43.225; -215.000; -126.000
337.789; -141.500; -989.000; -933.000
337.923;  -33.050; -104.000; -205.000
338.058;  -82.025; -673.000; -738.000
338.192;  -46.275; -611.000; -488.000
338.327;   -2.975;  -18.000; -155.000
338.461;  -77.450; -299.000; -469.000
338.596;  -81.825; -780.000; -638.000
338.730; -102.700; -767.000; -803.000
338.865;   73.800;  -46.000; -140.000
338.999;  -63.650; -846.000; -702.000
339.134;  -27.750; -634.000; -536.000
339.268;    2.300; -741.000; -603.000
339.403;  349.300; -740.000; -775.000
339.537;   96.725; -894.000; -820.000
339.671; -125.600; -829.000; -813.000
339.806;  -80.100; -556.000; -512.000
339.940;   11.925; -261.000; -235.000
340.074; -100.425; -685.000; -510.000
340.209;  -60.925; -351.000; -230.000
340.343; -110.400; -517.000; -573.000
340.477;  153.625;  998.000; 1036.000
340.612;  -62.850;-1033.000; -900.000
340.746;  113.250; -199.000; -243.000
340.880;  -64.025; -924.000; -785.000
341.014;  -19.500;  -45.000; -154.000
341.149; -126.625; -756.000; -718.000
341.283;  -94.225; -839.000; -754.000
341.417;  -98.075;-1124.000; -938.000
341.551;  167.150; -768.000; -708.000
341.685;  -19.225; -633.000; -611.000
341.820;  -58.350; -562.000; -493.000
341.954;  -44.925; -218.000; -349.000
342.088; -136.550;-1102.000;-1019.000
342.222;   51.300;  565.000;  618.000
342.356;  -54.700; -395.000; -335.000
342.490;  -95.475; -880.000; -841.000
342.624;  -38.050; -339.000; -242.000
342.758;   -0.900; -364.000; -312.000
342.892;  -72.350; -710.000; -585.000
343.026;  -46.225;  -58.000; -116.000
343.160;  -67.925; -426.000; -376.000
343.294;  -88.425; -474.000; -337.000
343.428;  -22.250; -488.000; -448.000
343.562;  -24.575; -172.000;  -23.000
343.696;  -24.700; -385.000; -314.000
343.830;  -27.900; -362.000; -356.000
343.964;   15.300; -231.000; -168.000
344.098; 1007.225;  199.000;   70.000
344.232;  843.500; -266.000; -127.000
344.366;   99.475; -567.000; -453.000
344.500;   68.075; -665.000; -744.000
344.634;   36.900; -324.000; -164.000
344.768;   -8.175; -531.000; -341.000
344.902;   14.275;  278.000;  256.000
345.035;  -80.175; -556.000; -496.000
345.169; -134.050; -933.000; -656.000
345.303;  -36.575; -308.000; -482.000
345.437;  -77.525; -826.000; -717.000
345.571;  -84.350; -675.000; -594.000
345.704;  -71.050; -309.000; -532.000
345.838;  -18.075; -331.000; -284.000
345.972;  -36.925; -543.000; -495.000
346.106;  150.525; -179.000; -190.000
346.239;  423.775; -312.000; -243.000
346.373;    6.675; -343.000; -302.000
346.507; -132.550; -950.000; -962.000
346.640;  164.125;  -30.000;   13.000
346.774;  -28.700; -650.000; -797.000
346.908;  -18.375; -138.000;  -11.000
347.041; -109.825; -646.000; -593.000
347.175;   -6.350;  259.000;   27.000
347.309;  -66.675; -698.000; -628.000
347.442;  -85.200; -883.000; -732.000
347.576;  297.300;  670.000;  668.000
347.709;  213.450; -123.000;  -52.000
347.843;  -90.300; -933.000; -825.000
347.976;   33.275;  235.000;  294.000
348.110; -189.675;-1268.000;-1186.000
348.243;  -94.500; -679.000; -772.000
348.377;  -13.900;  -26.000;   60.000
348.510;   57.150;  403.000;  540.000
348.644;  -42.625;  -37.000; -159.000
348.777;   -4.600;  180.000;  191.000
348.911;  -62.625; -142.000; -112.000
349.044;  177.325;  471.000;  448.000
349.178;  179.000;-1069.000;-1006.000
349.311;  119.650;  141.000;  255.000
349.444;  -12.975; -927.000; -813.000
349.578;  -26.950; -347.000; -200.000
349.711;  -98.975; -959.000; -862.000
349.845;    6.525; -661.000; -591.000
349.978; -145.250;-1224.000;-1137.000
350.111;  -88.950; -546.000; -612.000
350.244;  -83.350; -596.000; -700.000
350.378;   18.475; -392.000; -393.000
350.511;  -75.250; -393.000; -426.000
350.644; -109.375; -808.000; -806.000
350.778;   -2.100;  168.000;  104.000
350.911;    2.825;  134.000;  140.000
351.044;  -81.525; -685.000; -615.000
351.177;  -34.600; -321.000; -281.000
351.310;  -16.275;    3.000; -131.000
351.444;  -75.325; -888.000; -788.000
351.577;  125.675;  140.000;   90.000
351.710;  109.000;  593.000;  417.000
351.843;  -32.775; -165.000;  -77.000
351.976;   -2.050;  149.000;  -79.000
352.109;  -94.850; -621.000; -612.000
352.242;  -12.225; -464.000; -419.000
352.376;  -56.150; -580.000; -636.000
352.509;  202.100; -437.000; -356.000
352.642;   27.525; -654.000; -604.000
352.775;   64.700; -141.000;  -98.000
352.908; -118.300; -933.000; -904.000
353.041; -109.775; -814.000; -824.000
353.174;  -62.075; -551.000; -424.000
353.307;  -85.825; -753.000; -764.000
353.440;   70.350;  541.000;  453.000
353.573; -121.525; -957.000;-1008.000
353.706;  -20.225; -384.000; -558.000
353.839;  -21.675; -264.000; -220.000
353.971;  -94.850; -657.000; -512.000
354.104;  -72.450; -896.000; -835.000
354.237;  -34.550; -627.000; -662.000
354.370;  -78.450; -846.000; -879.000
354.503; -179.675;-1231.000;-1308.000
354.636;  -45.525; -529.000; -348.000
354.769; -133.750; -937.000; -860.000
354.902;    3.075; -230.000; -139.000
355.034;  -18.500; -164.000; -220.000
355.167;  -31.450; -262.000; -162.000
355.300; -109.850;-1061.000; -880.000
355.433;  943.200;  -71.000;  -14.000
355.565; 1459.550; -402.000; -384.000
355.698;  358.500; -356.000; -296.000
355.831;   -2.650; -882.000; -801.000
355.964;   92.900; -285.000; -170.000
356.096;  -78.625; -856.000; -843.000
356.229;   14.775; -523.000; -530.000
356.362;  302.475; -373.000; -266.000
356.494;  577.600; -229.000; -162.000
356.627;  504.050;  269.000;  377.000
356.760;  645.425;  120.000;   53.000
356.892;  898.925; -286.000; -601.000
357.025;  705.575;  403.000;  389.000
357.157;  636.275; -167.000; -179.000
357.290;  626.950; -856.000; -713.000
357.423;  183.575; -667.000; -556.000
357.555;  134.425; -217.000; -228.000
357.688;  134.700; -483.000; -364.000
357.820;  512.950; -870.000; -877.000
357.953; 3969.175; -563.000; -589.000
358.085;  909.350; -632.000; -612.000
358.218; 1280.575;-1131.000; -932.000
358.350;  233.000;  -58.000;  312.000
358.483; -120.550;-1300.000;-1187.000
358.615;  -17.100;-1182.000;-1078.000
358.747;  -58.750;-1187.000;-1058.000
358.880;   33.100; -810.000; -744.000
359.012;  -13.075; -376.000; -202.000
359.145;  -45.225; -480.000; -511.000
359.277;   76.325; -962.000; -913.000
359.409; 3295.675;  536.000;  231.000
359.542;  843.675; -738.000; -688.000
359.674;   65.900;   46.000;   13.000
359.806;  -68.625; -565.000; -438.000
359.939;  -44.375; -617.000; -516.000
360.071;  -29.550; -583.000; -579.000
360.203;  -29.375; -411.000; -364.000
360.335;   44.350;  164.000;  -16.000
360.468;  214.800; -249.000; -307.000
360.600; 2619.750; -547.000; -454.000
360.732; 2708.775; -546.000; -423.000
360.864;  381.500;-1216.000;-1044.000
360.996;  320.600; -516.000; -554.000
361.129;   58.425; -389.000; -598.000
361.261;   25.675;  110.000; -113.000
361.393;  -27.350; -252.000; -214.000
361.525;   30.875;   94.000;  244.000
361.657;  -41.350; -821.000; -703.000
361.789;    0.400; -139.000; -155.000
361.921;  266.675; -642.000; -593.000
362.053;  275.675;  524.000;  541.000
362.185;   43.625;  288.000;   72.000
362.318;  -78.700; -709.000; -705.000
362.450;  122.950;  294.000;  444.000
362.582;  149.275; -913.000; -870.000
362.714;  -25.500; -353.000; -332.000
362.846;  -82.500; -606.000; -490.000
362.978; -139.400; -941.000; -811.000
363.109;   49.500; -161.000; -260.000
363.241;  463.525; -739.000; -749.000
363.373;  421.900; -649.000; -564.000
363.505;  595.175; -186.000;  -91.000
363.637;  148.775; -787.000; -601.000
363.769; -123.150;-1067.000;-1080.000
363.901;  -75.900; -596.000; -654.000
364.033; -119.050;-1103.000;-1062.000
364.165;    7.925; -283.000; -283.000
364.296;   68.500; -316.000; -177.000
364.428;   53.300;-1344.000;-1220.000
364.560;  -72.625; -679.000; -661.000
364.692;  -69.850; -738.000; -835.000
364.824;  298.450; -588.000; -456.000
364.955;  423.325; -402.000; -564.000
365.087;  846.325;-1097.000; -852.000
365.219;   24.575; -686.000; -816.000
365.351;  -76.575; -526.000; -572.000
365.482;   52.250;  300.000;  240.000
365.614;  -38.200; -402.000; -314.000
365.746;  -95.900; -729.000; -752.000
365.877; -112.125; -706.000; -672.000
366.009;  245.000;  -35.000;  -62.000
366.141;  -95.625;-1249.000;-1134.000
366.272; -114.150; -803.000; -719.000
366.404; -130.975;-1005.000; -874.000
366.535;   -0.700; -139.000;  -12.000
366.667; -112.900; -644.000; -649.000
366.799;   40.925;  353.000;  203.000
366.930; -127.175; -862.000; -996.000
367.062;  112.875; -639.000; -613.000
367.193;  126.750; -872.000; -842.000
367.325;  -57.100; -580.000; -684.000
367.456;   63.700; -246.000;   31.000
367.588;  162.400; -371.000; -318.000
367.719;   18.800;  -44.000;  -45.000
367.851;  -12.850; -222.000; -241.000
367.982;  -34.825; -875.000; -732.000
368.113;  132.925; -475.000; -358.000
368.245; -123.500; -960.000; -841.000
368.376;  -23.475; -254.000; -302.000
368.508;  -49.925; -188.000; -263.000
368.639; -143.625;-1166.000;-1034.000
368.770;   -6.025; -670.000; -589.000
368.902;  -48.300; -836.000; -926.000
369.033; -108.875; -906.000; -855.000
369.164;  -58.525; -720.000; -653.000
369.296; -102.175; -452.000; -601.000
369.427;    8.125; -209.000; -144.000
369.558;  -44.300; -593.000; -377.000
369.689;  -98.000; -721.000; -569.000
369.821; -130.525; -951.000; -845.000
369.952;  -15.875;   42.000; -108.000
370.083;  -49.175; -229.000; -108.000
370.214;  -71.425; -735.000; -650.000
370.345;   -2.975;   65.000;   81.000
370.477;  -81.750; -810.000; -790.000
370.608;  256.750; -328.000; -264.000
370.739;  -33.050;-1233.000;-1292.000
370.870;  -36.075;-1102.000; -923.000
371.001;  114.375; -378.000; -467.000
371.132;  -78.900; -754.000; -735.000
371.263;  -20.500;  -42.000; -148.000
371.394; -131.450; -841.000; -748.000
371.525;   31.325;  345.000;  225.000
371.657;  -92.750; -808.000; -670.000
371.788;   83.075;  103.000;  199.000
371.919;  183.200; -384.000; -304.000
372.050; 3971.750;  -91.000; -156.000
372.181; 1186.725; -188.000; -294.000
372.311;  418.000;   42.000; -127.000
372.442;   46.875; -457.000; -451.000
372.573;  -20.575; -444.000; -340.000
372.704; -124.100;-1008.000; -980.000
372.835;   85.175; -228.000; -289.000
372.966;  -56.325; -646.000; -554.000
373.097;  -71.850; -575.000; -711.000
373.228;  -28.250; -717.000; -542.000
373.359;  150.675; -824.000; -536.000
373.490; 1021.675; -881.000; -727.000
373.620; 1309.425;-1001.000; -803.000
373.751; 1980.975; -332.000; -396.000
373.882;  891.775; -663.000; -733.000
374.013;   80.750; -449.000; -262.000
374.143;  -35.075; -581.000; -659.000
374.274; -106.925; -987.000; -908.000
374.405;  202.675; -388.000; -276.000
374.536;  505.650; -526.000; -387.000
374.666; 1235.475; -759.000; -807.000
374.797;  276.225; -817.000; -868.000
374.928;  952.100; -710.000; -560.000
375.058;  993.200; -535.000; -500.000
375.189;   87.200;  -59.000;  -93.000
375.320; -105.325; -928.000;-1034.000
375.450;  -44.550; -625.000; -616.000
375.581;  -41.700; -526.000; -436.000
375.712;  -35.600; -574.000; -250.000
375.842;  345.300; -438.000; -415.000
375.973;  243.300; -554.000; -513.000
376.103;  -42.925; -665.000; -648.000
376.234;  -70.500; -531.000; -552.000
376.364;  -23.775; -944.000; -867.000
376.495;  343.975;  925.000;  529.000
376.625;    1.300; -472.000; -485.000
376.756;   69.400; -709.000; -678.000
376.886;  -65.775;-1178.000;-1026.000
377.017;   48.500;-1048.000;-1061.000
377.147;  324.400; -786.000; -782.000
377.278;   64.025;  174.000;  228.000
377.408; -127.525; -801.000; -815.000
377.538;  -94.500; -707.000; -693.000
377.669;  -73.350; -537.000; -613.000
377.799;  -86.000; -645.000; -635.000
377.929;  -60.525; -610.000; -428.000
378.060; -129.675; -781.000; -847.000
378.190;  -58.025; -726.000; -531.000
378.320;  -51.200; -401.000; -406.000
378.451;   -7.650; -131.000;  -22.000
378.581;  -15.175;  -67.000; -110.000
378.711;  142.450; 1035.000;  866.000
378.841;  -20.300; -533.000; -675.000
378.972;  -73.375; -871.000; -751.000
379.102;    0.350; -652.000; -579.000
379.232;  -26.975; -126.000;  -73.000
379.362; -109.900;-1001.000; -885.000
379.492;   10.450; -373.000; -424.000
379.623;  121.175;    0.000;  111.000
379.753;  -86.100;-1107.000; -974.000
379.883;  208.000;   59.000;  156.000
380.013;   25.300;-1081.000;-1017.000
380.143;  -98.000;-1097.000;-1056.000
380.273; -106.425; -985.000; -861.000
380.403;    0.500; -344.000; -257.000
380.533;  -26.375; -651.000; -664.000
380.663;   78.375;  173.000;  128.000
380.793;  -85.425;-1027.000;-1074.000
380.923;  -21.725; -103.000;  -34.000
381.053;  -97.175; -613.000; -623.000
381.183;  -31.725; -106.000; -248.000
381.313;   40.325; -656.000; -470.000
381.443;   65.550; -692.000; -473.000
381.573;  228.400; -402.000; -409.000
381.703;  335.050;-1249.000;-1095.000
381.833; -124.950;-1454.000;-1336.000
381.963;  118.000; -134.000;  -87.000
382.093; 1533.325; -925.000; -909.000
382.223;  490.725; -713.000; -602.000
382.353;  -14.800; -801.000; -608.000
382.482;  421.950;-1091.000; -964.000
382.612;  860.100; -872.000; -644.000
382.742;  482.100; -695.000; -622.000
382.872;  293.675; -565.000; -551.000
383.002;   69.650;  347.000; -132.000
383.131;  -16.925; -226.000; -160.000
383.261;  -50.400; -706.000; -768.000
383.391;  294.675; -552.000; -377.000
383.521; 3041.800;  451.000;  263.000
383.650;  714.925; -947.000; -904.000
383.780;  -17.900; -783.000; -656.000
383.910;   90.800;  880.000;  802.000
384.039;   38.500; -794.000; -656.000
384.169;  235.550;-1205.000;-1017.000
384.299;   -8.775; -650.000; -662.000
384.428;  -89.525; -764.000; -680.000
384.558;  -40.475; -308.000; -275.000
384.687;  -45.300; -414.000; -334.000
384.817;   13.000;   75.000;   -2.000
384.947;   17.125; -234.000; -141.000
385.076;  316.875;  982.000;  912.000
385.206;  106.450;  369.000;  480.000
385.335;  -34.075; -549.000; -417.000
385.465;  -78.275; -655.000; -663.000
385.594;  155.500;  -53.000;  -44.000
385.724;  488.725; -868.000; -838.000
385.853;  146.700; -296.000; -270.000
385.982; 1505.775; -743.000; -787.000
386.112; 2370.125;-1052.000; -871.000
386.241;  173.975; -307.000; -312.000
386.371;   24.975; -174.000;  -87.000
386.500;    4.675; -825.000; -789.000
386.629;   44.925; -874.000; -817.000
386.759;   69.800;  -43.000;   68.000
386.888;  -10.125; -170.000; -250.000
387.017;  -82.150; -648.000; -620.000
387.147;  -89.125; -771.000; -798.000
387.276;    7.775; -410.000; -397.000
387.405;   25.625; -398.000; -342.000
387.535;  -48.725; -452.000; -361.000
387.664;  -59.575; -692.000; -620.000
387.793;   62.250; -198.000; -113.000
387.922;  583.625;  255.000;  200.000
388.052;   24.150; -576.000; -423.000
388.181;   17.750; -342.000; -472.000
388.310;    5.500; -889.000; -710.000
388.439;  -36.500; -749.000; -742.000
388.568;  193.850;  365.000;  244.000
388.697; 1171.675; -756.000; -653.000
388.826;  236.325; -768.000; -666.000
388.956;   66.450; -285.000; -307.000
389.085;  -34.675; -347.000; -287.000
389.214; -115.000; -842.000; -872.000
389.343;  -64.100; -645.000; -413.000
389.472;  387.450;  126.000;  149.000
389.601;  518.375;   91.000;    0.000
389.730;   19.050; -568.000; -687.000
389.859;   73.425;  226.000;   46.000
389.988;  225.825; -423.000; -408.000
390.117;  158.250; -168.000; -146.000
390.246;  -14.075; -331.000; -320.000
390.375;  118.850; -673.000; -626.000
390.504;  -50.800; -703.000; -621.000
390.633; -100.075; -672.000; -726.000
390.761;  -63.750; -732.000; -645.000
390.890;   31.375;   -4.000; -130.000
391.019;  -17.950; -421.000; -441.000
391.148; -135.525; -826.000; -855.000
391.277;  -73.350; -576.000; -493.000
391.406;  -79.700; -821.000; -805.000
391.534;   16.425;  574.000; -301.000
391.663;  -66.525; -583.000; -645.000
391.792;  -73.900; -673.000; -701.000
391.921;  111.800;   -3.000;   15.000
392.050;  210.825; -287.000; -228.000
392.178;  -36.150;-1206.000;-1061.000
392.307;  169.275; -758.000; -712.000
392.436;   89.425; -427.000; -641.000
392.564;   32.900;  166.000;   -6.000
392.693;  -90.925; -860.000; -682.000
392.822;  237.950; -529.000; -534.000
392.950;  100.700; -880.000; -714.000
393.079;  378.850; -188.000; -328.000
393.208;   19.325; -488.000; -511.000
393.336;   -0.300; -170.000; -145.000
393.465;  -55.900; -317.000; -199.000
393.593;    0.800;   62.000;   79.000
393.722; -158.725;-1121.000; -916.000
393.850;  -24.625; -188.000;  -61.000
393.979; -161.075; -926.000; -805.000
394.107;  -48.525; -517.000; -537.000
394.236;  -20.100; -570.000; -507.000
394.364;  216.750;  383.000;  206.000
394.493;  335.075; -911.000; -767.000
394.621;   -4.950; -955.000; -916.000
394.750;  679.875; -873.000; -923.000
394.878; 2829.150; -247.000; -149.000
395.007; 3862.250; -721.000; -807.000
395.135;  295.275; -790.000; -721.000
395.263; -102.050;-1038.000;-1040.000
395.392;   -1.750;  -25.000; -107.000
395.520; -138.350; -818.000; -679.000
395.648;  -93.325; -865.000; -915.000
395.777;  -26.400; -366.000; -405.000
395.905;  -48.925; -449.000; -564.000
396.033;    9.125;  217.000;  172.000
396.162;  571.750; -399.000; -453.000
396.290;  478.250;  -17.000;   -2.000
396.418;  113.575; -555.000; -514.000
396.546;  -68.675; -571.000; -466.000
396.674; -101.575; -850.000; -878.000
396.803;    6.375;  -72.000;  -23.000
396.931;  100.950; -179.000; -199.000
397.059;   50.925;-1026.000; -989.000
397.187;  -99.775;-1026.000; -975.000
397.315; -126.050; -884.000; -649.000
397.443; -107.600; -592.000; -443.000
397.572;  -93.625; -578.000; -424.000
397.700;   12.475; -607.000; -614.000
397.828;   13.700;  120.000;  -90.000
397.956;  -53.000; -508.000; -478.000
398.084;  -76.650; -767.000; -626.000
398.212;   31.950;  137.000;  124.000
398.340;    8.375;  -56.000;  159.000
398.468;   40.025; -390.000; -169.000
398.596; -140.200; -993.000; -953.000
398.724; -111.425; -762.000; -767.000
398.852; -171.300;-1024.000; -976.000
398.980;  -68.500; -560.000; -560.000
399.108;  -63.625; -982.000; -735.000
399.236;   31.700;   13.000;    8.000
399.363;   16.425;  222.000;  196.000
399.491;  -68.325; -404.000; -398.000
399.619; -137.050; -829.000; -800.000
399.747;  -96.275; -859.000; -771.000
399.875;   65.700;  220.000;  234.000
400.003;  -59.750; -359.000; -284.000
400.130;  -96.000; -421.000; -341.000
400.258;  -24.825;  -83.000;   38.000
400.386;  -75.600; -352.000; -168.000
400.514;  -44.575; -526.000; -587.000
400.641;  -70.400; -928.000; -802.000
400.769; -144.875; -979.000; -888.000
400.897; -121.025; -838.000; -793.000
401.025;  -15.800; -166.000; -152.000
401.152;  -16.325;  220.000;   38.000
401.280;  -83.275; -430.000; -429.000
401.408; -120.900; -712.000; -576.000
401.535; -101.600; -735.000; -758.000
401.663; -201.225;-1134.000;-1054.000
401.790;  -81.350; -514.000; -525.000
401.918;   42.350;  436.000;  405.000
402.046;  -27.000;  134.000;  122.000
402.173;  -42.075;  -18.000;    7.000
402.301;  -77.100; -519.000; -397.000
402.428;   28.950;  528.000;  383.000
402.556; -141.900;-1188.000; -913.000
402.683;  -26.925;  -20.000;   -1.000
402.811;  -17.500;  -37.000; -206.000
402.938;  -12.325;   20.000;   27.000
403.066;  241.225; -574.000; -558.000
403.193;  374.050;  299.000;  239.000
403.321;  306.025; -396.000; -574.000
403.448;  357.975;   83.000;   27.000
403.575;  169.325;  -90.000;  -46.000
403.703;  -99.000; -732.000; -557.000
403.830;  -64.300; -531.000; -496.000
403.957; -143.950;-1117.000;-1023.000
404.085;    3.650;  -61.000; -172.000
404.212;  102.500;  -50.000;   63.000
404.339;  240.925; -566.000; -306.000
404.467; 5552.750; -612.000; -524.000
404.594; 3811.300; -287.000; -227.000
404.721;  947.200; -869.000; -764.000
404.848;   91.725; -113.000; -202.000
404.976; -113.275; -856.000; -783.000
405.103;  -25.750;  -14.000;  -82.000
405.230;  -11.950;  190.000;  226.000
405.357;   16.775;  117.000;   44.000
405.484;  242.075;  -49.000;    5.000
405.612;   63.550; -548.000; -563.000
405.739;  -71.075; -488.000; -243.000
405.866;   95.950;  669.000;  385.000
405.993;  -42.700; -398.000; -102.000
406.120; -133.250; -801.000; -887.000
406.247;  -54.000; -323.000; -342.000
406.374;  491.275;  540.000;  629.000
406.501;  120.425; -632.000; -702.000
406.628;  -65.625; -621.000; -589.000
406.755;  -88.125; -803.000; -620.000
406.882;  -36.050; -228.000; -277.000
407.009; -115.450; -719.000; -628.000
407.136;   64.425; -480.000; -401.000
407.263;  166.800; -939.000; -829.000
407.390;  -65.100; -692.000; -614.000
407.517; -169.725;-1139.000;-1187.000
407.644;  -49.275; -332.000; -256.000
407.771;  -66.475; -249.000; -287.000
407.898;   11.150;  168.000;  328.000
408.025;  -65.225; -421.000; -313.000
408.151;  -16.500;   82.000;  153.000
408.278;  -70.125; -267.000; -216.000
408.405; -120.750; -931.000; -899.000
408.532;  -70.950; -549.000; -542.000
408.659; -129.975; -677.000; -648.000
408.785; -213.750;-1298.000;-1170.000
408.912;  -70.875; -412.000; -296.000
409.039; -113.000; -610.000; -686.000
409.166; -110.675; -591.000; -555.000
409.292; -115.875; -571.000; -534.000
409.419; -109.375; -665.000; -649.000
409.546;  -81.700; -431.000; -192.000
409.672; -129.775; -713.000; -545.000
409.799;  -23.025;  -36.000;   34.000
409.926;  -47.700; -180.000; -179.000
410.052; -180.250;-1127.000;-1091.000
410.179;  -61.500; -368.000; -392.000
410.305;  -93.800; -375.000; -493.000
410.432;  -49.225; -220.000; -333.000
410.558;  -89.725; -305.000; -380.000
410.685; -103.325; -688.000; -431.000
410.812;  -95.700; -409.000; -588.000
410.938; -150.625; -964.000; -808.000
411.065; -101.125; -671.000; -645.000
411.191;  -34.175; -189.000; -174.000
411.317; -126.950; -823.000; -742.000
411.444;  -64.750; -317.000; -246.000
411.570;  -80.150; -339.000; -294.000
411.697; -136.725; -758.000; -752.000
411.823; -180.875; -989.000; -999.000
411.949;  -37.825;  -56.000;   17.000
412.076; -110.250; -539.000; -519.000
412.202; -130.575; -758.000; -757.000
412.329; -140.475; -798.000; -752.000
412.455; -128.600; -821.000; -657.000
412.581;  -24.250;  -15.000;  172.000
412.707;  -65.850; -540.000; -457.000
412.834;    7.875;  156.000;  219.000
412.960;  -82.825; -785.000; -784.000
413.086; -111.750; -743.000; -701.000
413.212;  165.675;  604.000;  578.000
413.339;  -68.275; -685.000; -701.000
413.465;   13.375; -364.000; -310.000
413.591; -100.175; -757.000; -474.000
413.717;  -71.200; -358.000; -366.000
413.843; -147.850; -839.000; -861.000
413.969;  -59.925;  -47.000; -292.000
414.096; -101.775; -679.000; -679.000
414.222;    3.475;  -33.000;   85.000
414.348;  -18.525; -652.000; -385.000
414.474;  101.775;   38.000;  -52.000
414.600;  -19.625; -126.000; -144.000
414.726;  -12.425;  -96.000;  -55.000
414.852;  -65.625; -365.000; -342.000
414.978;   25.400;  104.000;  -18.000
415.104;   36.600;   38.000;   80.000
415.230;   21.600; -329.000; -330.000
415.356;   40.275; -409.000; -514.000
415.482;  185.525;   13.000;  -35.000
415.608;  252.325; -247.000; -323.000
415.734;  947.025;   67.000;   38.000
415.860;19530.550; -875.000; -767.000
415.986;14253.250; -685.000; -607.000
416.111; 1229.000; -798.000; -652.000
416.237;  252.075; -424.000; -571.000
416.363; 1067.150; -765.000; -733.000
416.489; 4044.325; -324.000; -251.000
416.615;  447.525; -707.000; -742.000
416.741;  -16.750; -677.000; -784.000
416.866; -105.575; -673.000; -736.000
416.992; -128.725; -801.000; -818.000
417.118;  -24.300;  -41.000;  -80.000
417.244;  -74.800; -798.000; -531.000
417.369;  -88.150; -801.000; -612.000
417.495;   -6.350; -325.000; -254.000
417.621;  -87.300;-1015.000; -803.000
417.746;   11.575; -579.000; -572.000
417.872;   37.425; -254.000; -144.000
417.998;   42.075; -515.000; -530.000
418.123; 1006.375;-1073.000; -845.000
418.249; 5237.325; -512.000; -601.000
418.374;  707.175; -916.000; -824.000
418.500;  101.400; -383.000; -482.000
418.626;   99.525;   70.000;  -59.000
418.751;  126.125; -549.000; -448.000
418.877;  188.825; -637.000; -643.000
419.002; 1738.675; -688.000; -560.000
419.128;12159.600; -930.000; -721.000
419.253; 3019.275; -967.000; -837.000
419.379;  392.900; -391.000; -338.000
419.504;  382.550;  325.000;  415.000
419.629;  499.800; -393.000; -212.000
419.755; 3376.850; -317.000; -254.000
419.880;20198.850;  -98.000;   67.000
420.006;11090.725; -280.000; -221.000
420.131;28649.475; -662.000; -775.000
420.256; 4202.950; -315.000; -316.000
420.382;  536.150; -665.000; -687.000
420.507;   68.075; -649.000; -778.000
420.632;  158.675; -337.000; -339.000
420.758;  277.075; -251.000; -425.000
420.883;  -71.700; -876.000; -672.000
421.008;  -94.650; -775.000; -619.000
421.133;  -82.550; -509.000; -467.000
421.259;  -54.975; -325.000; -259.000
421.384; -111.750; -834.000; -693.000
421.509;  -31.200;-1052.000; -862.000
421.634; 1339.675; -936.000; -820.000
421.759;  569.500; -359.000; -327.000
421.885;  -43.175; -717.000; -656.000
422.010;  -89.600; -673.000; -542.000
422.135; -134.125; -695.000; -727.000
422.260;   53.300;  340.000;  280.000
422.385;  -34.475;   12.000;  -98.000
422.510;    8.150;  151.000;  -26.000
422.635;    3.400;  -87.000;  -43.000
422.760;  120.075; -766.000; -791.000
422.885;   49.625;  -57.000;  -80.000
423.010;  -34.800; -112.000; -169.000
423.135;  -96.725; -481.000; -561.000
423.260;   -8.850; -150.000; -245.000
423.385;   69.775;  476.000;  222.000
423.510;   29.975;   71.000;  -22.000
423.635;   89.575;  133.000;   45.000
423.760;   49.775;  383.000;  328.000
423.885;   58.475;  336.000;  391.000
424.010;    3.525;  -68.000;  -13.000
424.135;  -21.550;    5.000;  -33.000
424.259;  -88.200; -654.000; -457.000
424.384;  -59.750; -279.000; -272.000
424.509;  -17.500; -260.000; -186.000
424.634; -100.825; -761.000; -623.000
424.759;  -17.725; -688.000; -544.000
424.883;   -7.725; -506.000; -527.000
425.008;  167.225; -502.000; -410.000
425.133; 1926.475; -679.000; -653.000
425.258;  911.325; -517.000; -381.000
425.382; 1107.800; -867.000; -774.000
425.507; 2875.750; -487.000; -543.000
425.632;  434.975; -802.000; -663.000
425.756;  448.750; -256.000; -146.000
425.881; 6163.700; -831.000; -857.000
426.006;16912.875; -604.000; -355.000
426.130; 2673.925; -696.000; -508.000
426.255;  339.650; -611.000; -491.000
426.379;  148.575; -189.000; -577.000
426.504;  357.000;  660.000;  544.000
426.629; 3971.550; -519.000; -466.000
426.753; 2739.000;   64.000;  -46.000
426.878;  304.875; -252.000; -288.000
427.002;  129.875; -651.000; -668.000
427.127; 1535.875;  -35.000; -158.000
427.251;11065.050;  372.000;  401.000
427.375; 3186.525; -191.000; -173.000
427.500; 2477.825; -616.000; -610.000
427.624;  842.475; -234.000; -400.000
427.749;   95.650; -216.000; -225.000
427.873;  -49.250; -499.000; -412.000
427.997;  -47.200; -222.000; -230.000
428.122;   82.525;  795.000;  703.000
428.246;   80.725;  433.000;  434.000
428.371; -125.750; -869.000; -773.000
428.495; -107.200; -624.000; -646.000
428.619;  -39.000; -186.000; -117.000
428.743;   17.100;   65.000;  132.000
428.868;   24.825; -732.000; -643.000
428.992; 1528.000; -219.000; -326.000
429.116;  626.750; -329.000; -357.000
429.240;  305.325;  419.000;  426.000
429.365;  -25.400; -454.000; -574.000
429.489;  -45.075; -638.000; -647.000
429.613;   10.425; -236.000; -177.000
429.737;   30.275; -563.000; -432.000
429.861;  265.675; -247.000; -133.000
429.985; 5396.275; -425.000; -305.000
430.109; 5974.700; -770.000; -908.000
430.234;  700.000;   76.000;  -50.000
430.358;   51.125; -250.000; -160.000
430.482;  -75.875; -672.000; -564.000
430.606;  -60.375; -655.000; -375.000
430.730;   11.175; -437.000; -388.000
430.854;  146.575; -909.000; -835.000
430.978;  -66.325; -795.000; -764.000
431.102;  -84.500; -499.000; -422.000
431.226; -126.975; -874.000; -815.000
431.350;   14.925;  345.000;  422.000
431.474;  -72.600; -661.000; -373.000
431.597; -148.325;-1060.000; -848.000
431.721;  -82.050; -276.000; -267.000
431.845; -133.500; -704.000; -472.000
431.969;  -68.350; -304.000; -349.000
432.093;  -88.000; -395.000; -317.000
432.217;  -14.925;   32.000;   82.000
432.341;  -92.550; -523.000; -518.000
432.464;  -10.225;   96.000;   40.000
432.588;  215.000; -401.000; -329.000
432.712;  118.050;  -52.000;  -52.000
432.836;   43.275;  213.000;  263.000
432.959;  -23.525; -372.000; -311.000
433.083;   88.050;   11.000;    2.000
433.207;  364.525;  285.000;  930.000
433.330; 4851.375; -391.000; -200.000
433.454; 6049.800; -654.000; -638.000
433.578; 3486.700;  583.000;  278.000
433.701;  653.850; -623.000; -675.000
433.825;  156.875; -292.000; -299.000
433.949;  214.350;   28.000;  -72.000
434.072;   77.100; -410.000; -323.000
434.196;    4.300; -309.000; -117.000
434.319; 3709.750;25482.000;25124.000
434.443;  719.075; -656.000; -603.000
434.566; 2588.350;  281.000;   62.000
434.690;  424.825; -637.000; -383.000
434.813;   52.750; -251.000; -173.000
434.937;  -90.625; -569.000; -696.000
435.060;  -53.400; -423.000; -332.000
435.184;  368.975; -492.000; -217.000
435.307;  195.025;  159.000;  102.000
435.431;  -11.050;  -40.000;   24.000
435.554;  -83.200; -399.000; -240.000
435.677;  -84.325; -350.000; -258.000
435.801;  -59.150;  -25.000;   49.000
435.924;  -11.800;    1.000;  -67.000
436.048; -107.600;-1019.000; -732.000
436.171;  -68.800; -240.000;  -66.000
436.294;  -24.725; -248.000; -229.000
436.417;   79.925; -963.000; -849.000
436.541;  -83.325; -814.000; -840.000
436.664;  -36.550; -242.000; -316.000
436.787;  -46.150;   13.000;  113.000
436.910; -115.825; -792.000; -422.000
437.034;   -4.500;  142.000;  143.000
437.157;   44.475;  -11.000;    0.000
437.280;  -48.150; -392.000; -292.000
437.403;  -85.575; -982.000; -869.000
437.526;  715.775; -903.000; -865.000
437.649; 2609.625; -505.000; -332.000
437.772;  374.425; -692.000; -540.000
437.896;  125.325;  700.000;  544.000
438.019; -105.200; -758.000; -503.000
438.142;  -85.100; -596.000; -506.000
438.265;   -2.675; -639.000; -670.000
438.388;  627.350; -520.000; -410.000
438.511;  117.100; -597.000; -394.000
438.634;  -34.100; -247.000; -125.000
438.757; -139.325; -693.000; -619.000
438.880;  -21.350;  -34.000;  -57.000
439.003;  -83.325; -417.000; -437.000
439.126;  -71.875; -287.000; -167.000
439.248;  -72.825;  -98.000; -139.000
439.371;  -55.575;    9.000;  -53.000
439.494;   23.775;  510.000;  439.000
439.617;  -53.000;   65.000;  -88.000
439.740; -192.450; -968.000; -816.000
439.863; -130.225; -755.000; -595.000
439.986; -132.425; -476.000; -431.000
440.108;  -46.325; -161.000; -112.000
440.231; -150.900; -950.000; -836.000
440.354;  -41.375;  -64.000; -150.000
440.477;   25.550; -566.000; -542.000
440.599;   17.800; -200.000; -225.000
440.722; -134.875; -709.000; -586.000
440.845;   67.525;  751.000;  928.000
440.968; -125.050; -415.000; -311.000
441.090;  -76.700; -199.000;  -33.000
441.213; -170.400;-1021.000; -825.000
441.336;  -52.525; -159.000;   -5.000
441.458;  -78.725; -549.000; -396.000
441.581;  -71.550; -628.000; -629.000
441.703;  -73.875; -152.000;   13.000
441.826; -105.300; -557.000; -400.000
441.948;  -58.875;   56.000;   51.000
442.071;   23.850;  555.000;  424.000
442.193; -115.850; -531.000; -485.000
442.316;   11.825;  152.000;   97.000
442.438;   34.475; -233.000;  -10.000
442.561;   64.250;  272.000;  262.000
442.683;  618.325; -809.000; -522.000
442.806; 1300.925;   -8.000;   74.000
442.928;   59.625; -859.000; -604.000
443.051;  -50.750; -577.000; -373.000
443.173;  -96.625; -341.000; -339.000
443.295; -103.950; -263.000; -371.000
443.418;  -78.900; -321.000;  -29.000
443.540;   -2.975; -106.000;   -4.000
443.662; -116.800; -563.000; -465.000
443.785;  -10.225;  335.000;  199.000
443.907; -107.475; -362.000; -208.000
444.029; -132.375; -767.000; -494.000
444.152; -141.875; -644.000; -554.000
444.274;  -34.950;  -18.000;  -24.000
444.396; -117.550; -461.000; -221.000
444.518; -131.775; -691.000; -454.000
444.640; -112.225; -268.000; -111.000
444.763;  -12.625;  388.000;  249.000
444.885; -124.900; -432.000; -392.000
445.007;  -27.350;   35.000;   86.000
445.129; -123.125; -610.000; -515.000
445.251; -106.500; -372.000; -439.000
445.373; -136.600; -537.000; -386.000
445.495;    1.300;  242.000;  350.000
445.617;   57.125;  853.000;  753.000
445.739;  -67.675; -215.000;  -97.000
445.861;  -31.250; -245.000; -112.000
445.984;  -33.175; -267.000; -101.000
446.105;  221.500; -418.000; -251.000
446.227;  696.300; -176.000;  -19.000
446.349;   17.650; -358.000; -249.000
446.471; -110.075; -615.000; -448.000
446.593;  -63.550; -316.000;   19.000
446.715;   -6.375;  -67.000;   41.000
446.837;   53.700;  697.000;  832.000
446.959;  -96.475; -457.000; -478.000
447.081; -139.375; -628.000; -518.000
447.203;   47.300;  862.000;  834.000
447.325;  -90.575; -270.000;   42.000
447.446;  -12.925;  286.000;  530.000
447.568; -175.075; -921.000; -803.000
447.690;  -82.275; -236.000; -245.000
447.812; -148.550; -798.000; -519.000
447.933;  -38.950;  155.000;  127.000
448.055;  -68.550; -306.000; -261.000
448.177;  153.875;   31.000;   79.000
448.299;  115.225; -935.000; -727.000
448.420;   24.325;  -25.000;  159.000
448.542;  -49.500;   -3.000;   33.000
448.664;  -22.350;  109.000;  322.000
448.785;  -39.125;  265.000;   83.000
448.907;  -72.050; -614.000; -353.000
449.028;  -43.475; -771.000; -471.000
449.150;   54.725;  492.000;  589.000
449.272; -174.650;-1044.000; -913.000
449.393;   24.325;  612.000;  694.000
449.515; -141.225; -634.000; -581.000
449.636;  -47.025; -264.000; -155.000
449.758;   62.650;  763.000;  622.000
449.879;  -95.650; -498.000; -396.000
450.001;  -75.500; -149.000;  -49.000
450.122;  -52.550;  -95.000;  162.000
450.244;  -38.625;   37.000;  364.000
450.365;  -97.850; -495.000; -301.000
450.486;  -41.425;   80.000;  268.000
450.608;   18.675;  393.000;  326.000
450.729;   41.975;  578.000;  645.000
450.850;   -2.225; -574.000; -466.000
450.972;  680.625; -552.000; -389.000
451.093; 4690.725;  190.000;  588.000
451.214; 2043.375; -516.000; -337.000
451.336;  368.925;  773.000;  579.000
451.457;   48.600;  264.000;  393.000
451.578;  -46.000; -118.000;  -74.000
451.699; -123.925; -546.000; -540.000
451.821;  -73.850; -284.000;  -50.000
451.942;  -14.050;  278.000;  285.000
452.063;   29.350;  228.000;  419.000
452.184;  508.350;  -54.000;  -49.000
452.305; 1060.475;  103.000;  170.000
452.427;  142.475; -549.000; -301.000
452.548;  -24.075;   23.000;   79.000
452.669;  -56.275; -257.000;  -89.000
452.790;  -52.750;    3.000;  -18.000
452.911;  -14.375;  195.000;  259.000
453.032;  -66.150; -289.000;  -60.000
453.153;  -55.525;  -29.000;   81.000
453.274;   57.450;  737.000;  868.000
453.395;  -48.175;  -51.000;  175.000
453.516;  130.700; 1317.000; 1388.000
453.637;  -63.450; -205.000; -150.000
453.758;  -56.850;   15.000;   69.000
453.879; -121.400; -462.000; -250.000
454.000;   76.850; 1086.000;  948.000
454.121; -110.175; -554.000; -326.000
454.242; -119.275; -599.000; -383.000
454.362;  -63.800;  -99.000;  114.000
454.483;  -44.450; -309.000; -229.000
454.604;   41.650;  512.000;  580.000
454.725; -126.825; -627.000; -555.000
454.846; -140.800; -474.000; -406.000
454.967;  -19.725;  230.000;  539.000
455.087;  -50.075;  179.000;  153.000
455.208;   12.625;  554.000;  856.000
455.329;  -73.700;  -22.000;   82.000
455.450;   32.375;  473.000;  633.000
455.570;  -84.650; -234.000; -211.000
455.691;  -40.875;  201.000;  407.000
455.812; -100.425; -270.000;  -92.000
455.932;  -63.375;  107.000;  -97.000
456.053;  -89.225;   36.000;   24.000
456.173; -113.275; -433.000; -355.000
456.294; -147.600; -476.000; -303.000
456.415;  -75.625;  -73.000;   70.000
456.535;  -42.500;  297.000;  273.000
456.656;  -44.800;  132.000;  240.000
456.776;  -77.275;    3.000;  298.000
456.897;   -4.975;  308.000;  513.000
457.017;  -93.400; -153.000;   -3.000
457.138; -103.075; -402.000; -249.000
457.258;  -40.275;  263.000;  224.000
457.379;   -9.025;  509.000;  521.000
457.499;  -25.750;  443.000;  432.000
457.620; -127.175; -407.000; -231.000
457.740; -100.100; -132.000;  -11.000
457.860;  -64.675;   87.000;   44.000
457.981;  -50.825;  132.000;  124.000
458.101;  -86.350;  -89.000;   40.000
458.221;  -37.175;  336.000;  402.000
458.342;  -74.225;   -4.000;  -37.000
458.462;   14.600;  617.000;  352.000
458.582;  -54.225; -302.000; -294.000
458.703;   10.900;  303.000;  154.000
458.823;  -39.300;   22.000;  163.000
458.943;    7.925;  341.000;  467.000
459.063;  -22.050; 1124.000;  192.000
459.183;  -40.075;  328.000;  313.000
459.304;   25.400;  315.000;  517.000
459.424;  -67.150; -246.000;  -89.000
459.544;  309.825;  388.000;  764.000
459.664;  801.150;  499.000;  506.000
459.784;  296.400; 1004.000; 1175.000
459.904;   49.000;  867.000;  744.000
460.024;   74.675;  867.000;  684.000
460.144;    0.125;  449.000;  554.000
460.264;  -20.200;  515.000;  327.000
460.385; -102.125; -145.000; -119.000
460.505;   32.825;  905.000;  858.000
460.625; -113.650;  -17.000;  -68.000
460.745;  -33.900;  396.000;  541.000
460.864;  -59.050;  153.000;  469.000
460.984;   19.450;  499.000;  573.000
461.104;  130.000; 1656.000; 1775.000
461.224;   19.300;  657.000;  650.000
461.344;  -32.125;  431.000;  360.000
461.464;  -35.800;  258.000;  513.000
461.584;  -16.500;  283.000;  466.000
461.704;  -45.400;   58.000;  108.000
461.824;  -62.175;  238.000;  259.000
461.943;  -47.825;  191.000;  130.000
462.063;  -81.850;    2.000;  324.000
462.183;   25.100;  639.000;  717.000
462.303;   91.350; 1678.000; 1230.000
462.422;   46.150;  781.000;  840.000
462.542;  -40.125;  271.000;  391.000
462.662;   33.325;  353.000;  380.000
462.782;  236.325;  833.000;  572.000
462.901;  473.850;  545.000;  717.000
463.021;  284.400; 1702.000; 1638.000
463.141;  -12.750;  337.000;  770.000
463.260;  -34.100;  614.000;  474.000
463.380;   14.325;  902.000;  884.000
463.499;  -39.475;  342.000;  332.000
463.619;  -44.150;  581.000;  559.000
463.738;  103.900; 1644.000;  903.000
463.858;    6.050;  657.000;  811.000
463.978;  -40.425;  542.000;  396.000
464.097;   41.900;  921.000; 1114.000
464.217;   98.400; 1196.000; 1143.000
464.336;  109.275; 1068.000; 1130.000
464.455;  -38.875;  328.000;  659.000
464.575;   41.875;  597.000;  602.000
464.694;  178.150; 1204.000; 1179.000
464.814;  126.425; 1190.000; 1138.000
464.933;   73.625; 1095.000; 1027.000
465.052;  108.450; 1412.000; 1054.000
465.172;   70.675;  922.000;  799.000
465.291;  147.725; 1376.000; 1320.000
465.410;    8.675;  462.000;  735.000
465.530;   86.775; 1355.000; 1310.000
465.649;   49.925; 1209.000; 1273.000
465.768;  131.825; 1673.000; 1508.000
465.888;   37.300;  941.000; 1174.000
466.007;   91.675; 1335.000; 1440.000
466.126;  -18.175;  721.000;  641.000
466.245;   51.650; 1176.000; 1187.000
466.364;   15.425;  950.000; 1060.000
466.484;   46.825; 1024.000; 1213.000
466.603;   34.325; 1101.000; 1222.000
466.722;  115.900; 1490.000; 1769.000
466.841;   82.600; 1151.000; 1401.000
466.960;   42.500; 1069.000;  972.000
467.079;  117.975; 1971.000; 1786.000
467.198;   50.575; 1238.000; 1181.000
467.317;   90.775; 1768.000; 1162.000
467.436;   66.350; 1709.000; 1261.000
467.555;  117.900; 1796.000; 1746.000
467.674;   73.150; 1227.000; 1329.000
467.793;   21.950; 1376.000; 1374.000
467.912;   80.950; 1658.000; 1539.000
468.031;  135.275; 2038.000; 1930.000
468.150;  126.600; 1842.000; 1837.000
468.269;  196.350; 2313.000; 2090.000
468.388;  177.100; 2168.000; 2339.000
468.507;  243.875; 2884.000; 2903.000
468.626;  220.000; 2555.000; 2541.000
468.744;  133.950; 2018.000; 2174.000
468.863;  193.950; 2312.000; 2523.000
468.982;   83.700; 1503.000; 1555.000
469.101;  210.900; 2788.000; 2692.000
469.220;  138.575; 2333.000; 2176.000
469.338;  272.425; 2935.000; 3051.000
469.457;  194.875; 2719.000; 2545.000
469.576;  338.375; 3953.000; 3784.000
469.695;  233.475; 2877.000; 3066.000
469.813;  418.725; 4148.000; 4192.000
469.932;  398.625; 4255.000; 4485.000
470.051;  425.925; 4075.000; 4161.000
470.169;  836.225; 4470.000; 4338.000
470.288; 1442.675; 4700.000; 4809.000
470.406;  859.050; 5059.000; 5194.000
470.525;  633.300; 6101.000; 5787.000
470.644;  655.575; 6847.000; 6794.000
470.762;  820.250; 8397.000; 7873.000
470.881;  909.750; 8651.000; 8464.000
470.999; 1026.675; 9685.000; 9151.000
471.118; 1100.825;11174.000;10711.000

