
Integration time [ms]: 100.000
Averaging Nr. [scans]: 40
Smoothing Nr. [pixels]: 0
Data measured with spectrometer [name]: 2101012U2
Wave   ;Sample   ;Dark     ;Reference
[nm]   ;[counts] ;[counts] ;[counts] 

197.733;   52.350;  516.000;  404.000
197.879;  -64.775; -610.000; -634.000
198.025;  -54.750; -475.000; -420.000
198.171;  -75.250; -602.000; -612.000
198.317;  -26.750; -401.000; -316.000
198.463;  -69.150; -655.000; -404.000
198.609;   27.975;  181.000; -137.000
198.755;  -76.550; -644.000; -410.000
198.901;  -67.300; -505.000; -424.000
199.047;  -57.425; -615.000; -488.000
199.193;  -45.300; -230.000; -468.000
199.339;  -40.250; -222.000; -369.000
199.485;   40.725;  330.000;  271.000
199.631;   19.825;  227.000;  310.000
199.777;  -52.300; -466.000; -398.000
199.923;  -61.775; -610.000; -424.000
200.069;   -1.200; -141.000;  -58.000
200.215;   55.625;  128.000;  453.000
200.361;   47.100;  243.000;  477.000
200.507;  -71.450; -600.000; -373.000
200.653;  -19.675; -371.000; -194.000
200.798;  -31.650; -215.000; -125.000
200.944;    4.200; -146.000;  -41.000
201.090;   46.500;   61.000;  222.000
201.236;    5.175; -116.000; -158.000
201.382;  135.300;  874.000;  903.000
201.528;    3.050;  -58.000;  -48.000
201.674;  -50.350; -386.000; -293.000
201.819;  -68.950; -540.000; -439.000
201.965;  -75.150; -699.000; -447.000
202.111;  -33.375; -273.000; -226.000
202.257;  -32.700; -250.000; -238.000
202.402;    6.325;   13.000;  -36.000
202.548;  -24.000; -169.000; -116.000
202.694;   67.175;  410.000; -183.000
202.840;  -69.475; -603.000; -531.000
202.985;  -68.425; -681.000; -639.000
203.131; -113.250; -832.000; -666.000
203.277;  -25.000; -199.000; -262.000
203.423;  -52.025; -434.000; -520.000
203.568;  -38.800; -462.000; -237.000
203.714;  -54.950; -535.000; -542.000
203.860;  -91.475; -682.000; -641.000
204.005;   31.800;  112.000;  167.000
204.151;   76.475;  561.000;  556.000
204.296;  -41.175; -354.000; -221.000
204.442;  -81.800; -600.000; -547.000
204.588;  -69.850; -592.000; -579.000
204.733;   14.125;  178.000;  168.000
204.879; -128.325;-1018.000; -822.000
205.025;   10.525;  -99.000;  126.000
205.170;   13.750;  -17.000;   94.000
205.316;   91.400;  438.000;  661.000
205.461;  -76.450; -698.000; -554.000
205.607;   91.500;  609.000;  665.000
205.752;  -76.825; -626.000; -551.000
205.898;  -53.650; -501.000; -391.000
206.043;  -55.550; -578.000; -506.000
206.189;  -44.850; -243.000; -285.000
206.334;   78.275;  554.000;  606.000
206.480;   85.100;  409.000;  239.000
206.625;  -83.800; -529.000; -552.000
206.771;  -54.675; -451.000; -373.000
206.916;  -36.200; -210.000; -537.000
207.062;  -77.575; -545.000; -591.000
207.207;  -60.400; -546.000; -443.000
207.353;   61.900;  185.000;  460.000
207.498;   13.750;  196.000;   85.000
207.643;  -42.825; -501.000; -370.000
207.789; -124.875;-1069.000; -910.000
207.934; -108.975; -665.000; -713.000
208.080;  -12.025; -154.000;   66.000
208.225;  -10.150;  -22.000;  -57.000
208.370;  -91.375; -727.000; -619.000
208.516;  -77.600; -741.000; -487.000
208.661;  -24.525; -127.000;  -69.000
208.806;  -36.275; -165.000; -171.000
208.952; -126.225;-1044.000; -731.000
209.097;   77.025;  378.000;  349.000
209.242;  -44.950; -307.000; -382.000
209.387;   77.350;  392.000;  350.000
209.533;  -51.825; -321.000; -350.000
209.678;   80.925;  472.000;  543.000
209.823;  -50.550; -408.000; -310.000
209.969; -109.825; -860.000; -757.000
210.114;  -96.350; -907.000; -719.000
210.259; -124.100; -939.000; -889.000
210.404;   -6.625; -171.000;  103.000
210.549;    7.425;  108.000;    3.000
210.695;   -8.775;   -3.000;  -95.000
210.840;   32.850;   94.000;   67.000
210.985;  -67.925; -484.000; -303.000
211.130;   71.150;  268.000;  406.000
211.275;   18.500;  207.000;  199.000
211.420;  -50.850; -300.000; -289.000
211.566;  -70.150; -536.000; -489.000
211.711;   25.650;  218.000;  157.000
211.856;  -74.625; -545.000; -519.000
212.001;   10.475;  151.000;   44.000
212.146;   31.975;  153.000;   49.000
212.291;  -22.525; -210.000; -186.000
212.436;  -13.925; -280.000;   -6.000
212.581;  -93.850; -685.000; -653.000
212.726;  -71.850; -487.000; -538.000
212.871;  -51.650; -552.000; -217.000
213.016; -146.500;-1172.000;-1029.000
213.161;   63.425;  406.000;  291.000
213.306;  -66.825; -435.000; -577.000
213.451;  -95.775; -778.000; -689.000
213.596;  -47.000; -455.000; -347.000
213.741;  -74.400; -448.000; -538.000
213.886;  -77.375; -498.000; -517.000
214.031;  -27.650; -294.000; -124.000
214.176;  -51.550; -408.000; -341.000
214.321;  -17.400; -296.000; -157.000
214.466;  -14.150; -163.000;  -43.000
214.611;  -13.500;  -61.000;  -10.000
214.756; -106.150; -948.000; -858.000
214.901;  -24.725; -388.000; -226.000
215.046; -122.225; -797.000; -825.000
215.191;   16.650;  128.000;   35.000
215.336;  -14.125; -157.000;  -19.000
215.480;  -72.775; -684.000; -505.000
215.625;   -5.100; -175.000;  -19.000
215.770;  -93.300; -757.000; -662.000
215.915;    9.375;   -5.000;  -97.000
216.060;  -14.200; -113.000;  -21.000
216.205; -114.600; -731.000; -779.000
216.349;  -78.950; -470.000; -533.000
216.494; -129.875; -939.000; -867.000
216.639; -116.450; -823.000; -888.000
216.784;  -79.775; -577.000; -525.000
216.929;   41.100;  392.000;  281.000
217.073;  -26.150; -244.000;  -31.000
217.218;    3.725;   78.000;  -47.000
217.363;  -89.500; -656.000; -618.000
217.507;  -85.800; -623.000; -588.000
217.652; -118.300; -845.000; -874.000
217.797;  -90.525; -708.000; -659.000
217.942; -101.350; -856.000; -720.000
218.086;   79.700;  608.000;  539.000
218.231;  -33.475; -174.000;  -26.000
218.376;  -33.325; -337.000; -229.000
218.520;   -6.150;  -41.000;   96.000
218.665;  -30.975; -338.000; -204.000
218.810;  -51.450; -275.000; -233.000
218.954;   16.250;  201.000;   35.000
219.099; -109.450; -713.000; -963.000
219.243;  -64.475; -589.000; -554.000
219.388;  -29.800; -264.000; -136.000
219.532;  -13.850; -116.000; -116.000
219.677;  -82.675; -564.000; -521.000
219.822;   -2.425;   33.000;   89.000
219.966;   19.125;   17.000;  -99.000
220.111;  -28.650; -328.000;  -40.000
220.255;  -95.100; -797.000; -750.000
220.400;  -29.275; -180.000; -146.000
220.544;  -75.250; -516.000; -450.000
220.689;  -65.525; -422.000; -451.000
220.833;  -13.025; -123.000;  -58.000
220.978;  -47.150; -393.000; -563.000
221.122;   20.750;  319.000;  307.000
221.267; -116.625; -906.000; -837.000
221.411;  -60.800; -478.000; -394.000
221.555;  -27.500; -104.000;  -23.000
221.700;  -35.950; -329.000; -222.000
221.844;   34.925;  255.000;  272.000
221.989;  -57.375; -328.000; -311.000
222.133;  -29.375; -289.000; -307.000
222.277;   -1.425;    5.000;   78.000
222.422;   22.300;  227.000;  113.000
222.566;  -41.600; -381.000; -214.000
222.711;  -60.975; -414.000; -479.000
222.855;  -80.300; -643.000; -586.000
222.999;  -88.100; -642.000; -717.000
223.144;  -20.525; -195.000; -194.000
223.288;   40.100;  423.000;  251.000
223.432;   42.725;  184.000;  230.000
223.576;   15.275;  152.000;  -21.000
223.721;   42.450;  364.000;  273.000
223.865;  -61.950; -472.000; -475.000
224.009;  282.350; 1673.000; 1631.000
224.153;  -87.625; -660.000; -671.000
224.298;  -56.275; -531.000; -489.000
224.442;  -19.225;  -74.000;  -33.000
224.586;  -20.550; -169.000; -106.000
224.730;  -91.875; -858.000; -670.000
224.875; -111.825; -739.000; -688.000
225.019;    5.950;  102.000;  188.000
225.163;   53.225;  208.000;  341.000
225.307;    7.050;   97.000;  -91.000
225.451;   54.900;  360.000;  481.000
225.595;   21.950;  264.000;  176.000
225.739;  -20.325; -170.000;  -94.000
225.884;    8.025;   86.000;    5.000
226.028;  -81.200; -760.000; -626.000
226.172;  -42.375; -260.000; -273.000
226.316; -119.650; -941.000; -902.000
226.460;  -75.825; -645.000; -493.000
226.604;  -52.325; -406.000; -400.000
226.748; -103.425; -836.000; -733.000
226.892;  -38.600; -227.000; -181.000
227.036;  -52.650; -537.000; -447.000
227.180;  -54.475; -551.000; -375.000
227.324;  -65.900; -561.000; -580.000
227.468; -100.825; -819.000; -717.000
227.612;   12.750;  242.000;  -28.000
227.756;  -98.575; -845.000; -698.000
227.900;   53.925;  342.000;  441.000
228.044;  -57.400; -509.000; -290.000
228.188;   58.875;  448.000;  568.000
228.332;  -74.400; -546.000; -472.000
228.476;  -40.850; -223.000; -149.000
228.620;  -41.700; -210.000; -150.000
228.764;   58.850;  431.000;  349.000
228.908;  -18.875; -155.000;   30.000
229.052;  -75.750; -615.000; -528.000
229.195;   -6.300; -172.000;   13.000
229.339;  -28.075; -235.000; -305.000
229.483;  -19.625;    5.000; -162.000
229.627;    0.550; -156.000;  139.000
229.771;  -37.800; -218.000; -294.000
229.915;   12.850;  230.000;   79.000
230.059;  -79.175; -648.000; -663.000
230.202;  -41.550; -370.000; -317.000
230.346;  -14.750; -107.000;  107.000
230.490;  -62.225; -489.000; -521.000
230.634; -107.675; -736.000; -553.000
230.777;   82.500;  478.000;  509.000
230.921;  -51.825; -450.000; -359.000
231.065;  -38.725; -246.000; -286.000
231.209;   22.550;  261.000;  265.000
231.352;   13.575;   54.000;   40.000
231.496;   10.975;  568.000;  188.000
231.640;  -76.525; -693.000; -621.000
231.783;   69.575;  546.000;  525.000
231.927;  -46.675; -294.000; -365.000
232.071; -119.525; -962.000; -736.000
232.214; -119.325; -980.000; -764.000
232.358;  -89.600; -683.000; -599.000
232.502;   -0.825;  -19.000;    7.000
232.645; -137.125;-1090.000; -927.000
232.789;  -31.975; -257.000; -218.000
232.933;  -45.625; -407.000; -224.000
233.076; -129.300;-1038.000; -897.000
233.220; -119.725; -752.000; -777.000
233.363;  -90.325; -669.000; -477.000
233.507;   76.650;  371.000;  129.000
233.650;  -97.325; -764.000; -834.000
233.794;   63.675;  438.000;  461.000
233.938;  -61.925; -530.000; -362.000
234.081;   -7.850;  -93.000;   31.000
234.225;  -79.175; -631.000; -539.000
234.368; -110.600; -773.000; -723.000
234.512;  -41.275; -385.000; -299.000
234.655;  -84.850; -582.000; -555.000
234.798;  -74.000; -493.000; -466.000
234.942; -119.750; -884.000;-1002.000
235.085;  -87.575; -651.000; -443.000
235.229;  -72.550; -405.000; -410.000
235.372;  -59.875; -247.000; -191.000
235.516;  -54.375; -397.000; -321.000
235.659;    7.875;   92.000;  121.000
235.802;  -17.100;  -38.000;  -22.000
235.946;   22.550;  335.000;  215.000
236.089;   34.550;  126.000;  250.000
236.233;   43.350;  275.000;  298.000
236.376;  -58.900; -235.000; -378.000
236.519;  -63.325; -297.000; -319.000
236.663;  -23.050; -215.000; -117.000
236.806; -146.325;-1029.000; -999.000
236.949;   54.100;  543.000;  431.000
237.092;   58.100;  412.000;  391.000
237.236;  -79.825; -589.000; -502.000
237.379;   56.775;  352.000;  428.000
237.522; -107.325; -879.000; -768.000
237.666;  -12.850; -271.000;   18.000
237.809; -123.075; -851.000; -823.000
237.952;   42.625;  469.000;  271.000
238.095;  -58.875; -447.000; -442.000
238.238;   98.200;  688.000;  700.000
238.382;   -2.700;  166.000;  103.000
238.525;  -80.200; -598.000; -511.000
238.668; -139.650;-1060.000; -985.000
238.811;  -87.900; -638.000; -643.000
238.954;  -63.875; -483.000; -334.000
239.097;  102.900;  617.000;  664.000
239.241;   44.225;  394.000;  326.000
239.384;  -29.575; -254.000; -214.000
239.527;  -54.350; -424.000; -224.000
239.670; -144.550; -994.000;-1091.000
239.813; -103.000; -696.000; -658.000
239.956;   77.850;  579.000;  473.000
240.099; -113.975; -778.000; -725.000
240.242;   75.875;  428.000;  432.000
240.385;   41.900;  466.000;  450.000
240.528;  -76.400; -706.000; -473.000
240.671;   16.875;  189.000;  134.000
240.814;  -58.100; -441.000; -158.000
240.957; -101.950; -767.000; -578.000
241.100;  -93.175; -779.000; -755.000
241.243; -136.225;-1234.000; -893.000
241.386;  -67.800; -508.000; -379.000
241.529;  -81.675; -735.000; -547.000
241.672;  -75.750; -566.000; -495.000
241.815; -120.950; -832.000; -808.000
241.958;  -17.625; -125.000; -182.000
242.101;  -76.725; -545.000; -390.000
242.244;  -43.125; -270.000; -325.000
242.387;  -28.175; -304.000; -246.000
242.530;   54.625;  470.000;  134.000
242.673;  -36.650; -381.000; -309.000
242.815; -111.950; -925.000; -899.000
242.958;  -57.625; -482.000; -381.000
243.101;   23.225;  132.000;  187.000
243.244;  -85.075; -564.000; -521.000
243.387;  -58.000; -313.000; -316.000
243.530;  -90.650; -657.000; -674.000
243.672;   11.550;   43.000;  -92.000
243.815;  -47.250; -355.000; -283.000
243.958;   -5.925;   98.000;  -26.000
244.101;   -4.650;   59.000;  -16.000
244.243;  -21.775;  -47.000;  101.000
244.386; -111.775; -761.000; -630.000
244.529;  -35.525; -132.000; -139.000
244.672; -148.150;-1154.000; -951.000
244.814; -106.400; -621.000; -794.000
244.957;  -25.400; -380.000; -304.000
245.100;  -74.275; -489.000; -489.000
245.242;  -64.125; -387.000; -374.000
245.385;    1.850;  -59.000;  -39.000
245.528; -113.750; -871.000; -705.000
245.670;   81.025;  612.000;  634.000
245.813;  -90.075; -599.000; -547.000
245.956;  -43.850; -324.000; -275.000
246.098;  -65.900; -508.000; -650.000
246.241;   11.550;  194.000;   48.000
246.383;  -12.325; -119.000;  -73.000
246.526;  -76.650; -454.000; -525.000
246.669; -110.075; -889.000; -780.000
246.811;   18.650;  172.000;   -1.000
246.954;  -63.500; -512.000; -426.000
247.096;  -27.050;  -84.000;   -6.000
247.239;  -73.450; -482.000; -445.000
247.381;  -70.150; -647.000; -488.000
247.524;   93.100;  645.000;  679.000
247.666;   -2.500;   58.000;   11.000
247.809; -142.975; -887.000; -691.000
247.951;   -9.750;  -75.000;  138.000
248.094;   33.075;  432.000;  308.000
248.236; -175.650;-1262.000;-1238.000
248.378;   15.575; -356.000;  -81.000
248.521;  -25.025; -334.000; -337.000
248.663;  -46.575; -236.000; -267.000
248.806;  -41.075; -300.000; -266.000
248.948;  -89.725; -886.000; -763.000
249.090;  -64.975; -428.000; -398.000
249.233;  -38.975; -344.000; -381.000
249.375;  -77.900; -474.000; -451.000
249.518;  -15.825;  -83.000; -133.000
249.660;  -10.125; -103.000;    3.000
249.802; -164.825;-1303.000;-1189.000
249.945;  -76.100; -612.000; -540.000
250.087; -110.650; -834.000; -768.000
250.229;  -56.750; -362.000; -480.000
250.371;  -77.100; -494.000; -439.000
250.514;  -53.825; -310.000; -244.000
250.656;   -5.100;   69.000;  102.000
250.798; -118.025; -849.000; -800.000
250.940;  -58.475; -322.000; -322.000
251.083;  -30.475; -335.000; -111.000
251.225;   59.475;  338.000;  310.000
251.367;  -43.850; -274.000; -373.000
251.509;  -35.725; -265.000; -210.000
251.651; -103.525; -731.000; -671.000
251.794;   46.975;  538.000;  632.000
251.936; -118.425; -821.000; -747.000
252.078;  -84.100; -540.000; -461.000
252.220;  -71.225; -645.000; -477.000
252.362;   89.800;  344.000;  462.000
252.504;  -73.100; -677.000; -584.000
252.646; -116.650; -875.000; -722.000
252.788;  -14.125;   14.000; -128.000
252.931;  -41.475; -257.000; -253.000
253.073;  -41.950; -376.000; -317.000
253.215;  -16.625;  141.000;  122.000
253.357;  -30.750;   82.000; -153.000
253.499;  -54.950; -374.000; -234.000
253.641;  -87.300; -749.000; -594.000
253.783;  -85.450; -609.000; -527.000
253.925;  -90.700; -586.000; -591.000
254.067;  -96.500; -744.000; -667.000
254.209;  -37.600; -391.000; -259.000
254.351; -147.800; -865.000; -883.000
254.493;  -74.750; -441.000; -417.000
254.635; -141.250; -936.000; -818.000
254.777; -101.425; -752.000; -687.000
254.918;  -69.925; -512.000; -430.000
255.060;  -59.325; -551.000; -395.000
255.202;  -62.725; -473.000; -261.000
255.344;  -91.725; -658.000; -455.000
255.486;  -79.125; -471.000; -406.000
255.628; -125.825; -780.000; -781.000
255.770;  -92.975; -676.000; -536.000
255.912;  -61.750; -559.000; -468.000
256.053;  -84.325; -730.000; -508.000
256.195;  143.875; 1008.000;  903.000
256.337; -101.600; -861.000; -595.000
256.479;   57.700;  532.000;  416.000
256.621;  -37.400; -394.000; -212.000
256.762;  -87.600; -789.000; -742.000
256.904;   58.550;  485.000;  487.000
257.046;  -47.975; -381.000; -271.000
257.188;  -46.900; -351.000; -264.000
257.329;  -79.825; -525.000; -464.000
257.471; -123.850; -939.000; -807.000
257.613;  -76.475; -584.000; -498.000
257.755; -152.000;-1073.000; -982.000
257.896;   37.750;  286.000;  392.000
258.038;  -65.275; -403.000; -352.000
258.180;  -38.250; -354.000; -279.000
258.321;  -86.150; -581.000; -457.000
258.463;  -11.725;  -71.000;  133.000
258.605;  -73.750; -562.000; -570.000
258.746; -110.925; -886.000; -772.000
258.888; -146.700;-1026.000;-1020.000
259.029;   11.100;  121.000;   -8.000
259.171;  -78.900; -614.000; -550.000
259.313;  -10.075;  -49.000;  -47.000
259.454;  -73.850; -536.000; -414.000
259.596;  -53.200; -483.000; -390.000
259.737;  -77.425; -590.000; -474.000
259.879;   38.125;  217.000;  311.000
260.020;  108.250;  901.000;  636.000
260.162;  -33.100; -146.000; -253.000
260.303; -123.100; -768.000; -687.000
260.445;  -86.200; -609.000; -613.000
260.586;   26.925;  392.000;  157.000
260.728;  -52.050; -360.000; -248.000
260.869; -110.575; -350.000; -343.000
261.011;   78.425;  706.000;  537.000
261.152;  -63.050; -479.000; -319.000
261.293;  -81.325; -576.000; -595.000
261.435;  -31.900; -219.000; -184.000
261.576;  -52.175; -455.000; -325.000
261.718;   57.450;  420.000;  470.000
261.859; -131.550; -940.000; -949.000
262.000; -145.275; -951.000;-1016.000
262.142;  -20.325;  -52.000;  -60.000
262.283; -110.925; -808.000; -691.000
262.424;  -89.350; -666.000; -625.000
262.566; -149.150;-1161.000; -983.000
262.707; -123.975; -840.000; -830.000
262.848; -125.950; -769.000; -726.000
262.990;  -50.250; -362.000; -345.000
263.131;   95.700;  650.000;  681.000
263.272;  -17.550;  -61.000;  -41.000
263.413;  -87.175; -589.000; -561.000
263.555;  -69.875; -669.000; -143.000
263.696;  -92.775; -550.000; -641.000
263.837;  -64.175; -449.000; -551.000
263.978;   -3.025;   -5.000;  -77.000
264.119;  -36.275; -283.000; -264.000
264.261; -114.350; -847.000; -630.000
264.402;    1.925;   33.000;   40.000
264.543;  -76.325; -509.000; -524.000
264.684;  -10.950;   61.000;  -50.000
264.825;  -66.275; -816.000; -538.000
264.966;  -10.625;  -84.000;  -67.000
265.107; -112.800; -646.000; -670.000
265.248; -121.450; -825.000; -812.000
265.390;   -5.925;  152.000;   -9.000
265.531;  -24.050; -238.000; -107.000
265.672;  -94.075; -557.000; -630.000
265.813;   54.925;  563.000;  439.000
265.954; -134.900; -959.000; -940.000
266.095;  -13.225; -372.000; -322.000
266.236;  -88.975; -686.000; -548.000
266.377;  -48.875; -243.000; -297.000
266.518;  -64.425; -619.000; -547.000
266.659;   29.400;  170.000;  268.000
266.800;   16.625;   83.000;   85.000
266.941;  -83.675; -487.000; -478.000
267.082;   24.300;  354.000;   99.000
267.223;  -54.925; -344.000; -273.000
267.364; -108.125; -892.000; -686.000
267.504;  -18.425;    3.000;  135.000
267.645;   -9.000;  160.000;   67.000
267.786;  -42.625; -147.000;  -86.000
267.927;  -75.450; -473.000; -379.000
268.068;  -13.575; -186.000;  -61.000
268.209;  -34.850; -175.000; -413.000
268.350;  -48.900; -388.000; -532.000
268.490;  -95.600; -648.000; -521.000
268.631;   27.225;  127.000;  225.000
268.772; -110.275; -874.000; -647.000
268.913;  -52.075; -328.000; -476.000
269.054;   -9.900; -117.000;   12.000
269.194;  -52.875; -418.000; -402.000
269.335; -148.500;-1137.000;-1074.000
269.476;  -13.200;   33.000;  -35.000
269.617;  -36.000; -347.000; -392.000
269.757; -100.650; -713.000; -646.000
269.898; -104.950; -856.000; -613.000
270.039;  -61.625; -415.000; -405.000
270.180; -143.850; -952.000; -816.000
270.320;  -21.225; -190.000; -250.000
270.461;  -41.600; -277.000; -249.000
270.602;  -22.550; -186.000; -156.000
270.742; -119.175; -868.000; -943.000
270.883;  -64.125; -442.000; -390.000
271.023;  -58.075; -358.000; -357.000
271.164;  -75.550; -607.000; -528.000
271.305; -102.075; -666.000; -654.000
271.445;  -85.775; -722.000; -683.000
271.586;  -64.275; -462.000; -283.000
271.726;  -46.300; -397.000; -322.000
271.867;  -49.175; -594.000; -534.000
272.008;  184.250; -473.000; -285.000
272.148;  130.425;  462.000;  468.000
272.289;    4.625; -113.000; -181.000
272.429;   28.025;   19.000;  185.000
272.570;  -90.325; -633.000; -737.000
272.710; -106.425; -825.000; -775.000
272.851;  -32.225;  113.000; -130.000
272.991; -174.550;-1173.000;-1077.000
273.131;  -72.250; -419.000; -459.000
273.272;  -97.800; -683.000; -723.000
273.412;   11.100; -143.000;  -31.000
273.553;  -41.275; -488.000; -507.000
273.693;  154.525;  913.000;  858.000
273.834;  -84.950; -894.000; -692.000
273.974;  -75.350; -664.000; -615.000
274.114;  -98.025; -772.000; -560.000
274.255;   73.900;  414.000;  373.000
274.395;   -1.300; -180.000; -125.000
274.535;   26.775;  199.000;  350.000
274.676;   16.625;  225.000;   94.000
274.816;   11.800;  110.000;   34.000
274.956;  -82.150; -624.000; -690.000
275.097;  -79.650;-1014.000; -922.000
275.237; -105.925; -913.000; -803.000
275.377; -106.525; -778.000; -689.000
275.517; -156.475; -878.000; -937.000
275.658;  -57.775; -590.000; -555.000
275.798;  -65.350; -606.000; -413.000
275.938;   23.025;  215.000;  323.000
276.078; -109.075; -626.000; -395.000
276.218;    4.600;   99.000;  104.000
276.359; -126.875;-1026.000;-1024.000
276.499;  -71.375; -605.000; -446.000
276.639;  -37.825; -305.000; -151.000
276.779;  -58.050; -475.000; -357.000
276.919;  -97.600; -783.000; -624.000
277.059;  -26.550; -261.000; -212.000
277.199;  -53.900; -357.000; -259.000
277.340;   43.925;  287.000;  175.000
277.480; -104.350; -840.000; -693.000
277.620;   10.975;  192.000;   16.000
277.760; -206.525;-1533.000;-1294.000
277.900;   28.975;  113.000;   33.000
278.040;   24.225;  137.000;  159.000
278.180;   46.150;  270.000;  170.000
278.320;   12.625;   21.000;   56.000
278.460;  -80.600; -443.000; -469.000
278.600;  -95.075; -708.000; -598.000
278.740;   37.725;  448.000;  224.000
278.880;  -52.025; -768.000; -791.000
279.020;  -21.925; -194.000; -144.000
279.160;  -89.850; -672.000; -595.000
279.300; -140.075; -926.000; -873.000
279.440;  -89.950; -709.000; -622.000
279.579;  -20.975;-1014.000; -929.000
279.719;  -56.025; -410.000; -394.000
279.859;   68.800;   -4.000;   41.000
279.999;   42.275; -208.000;  101.000
280.139;  -29.800; -435.000; -387.000
280.279;  -86.250; -708.000; -745.000
280.419;   -9.800; -229.000; -147.000
280.559;  -27.750; -259.000; -180.000
280.698; -100.100; -790.000; -639.000
280.838;  -93.100; -778.000; -800.000
280.978; -104.600; -846.000; -790.000
281.118; -112.050; -811.000; -704.000
281.257;    2.750;   24.000;    6.000
281.397; -109.750;-1094.000; -960.000
281.537;  -88.950; -599.000; -712.000
281.677;  -25.725; -150.000; -101.000
281.816;  -89.175; -700.000; -630.000
281.956;  -29.875; -193.000; -257.000
282.096;  -72.875; -539.000; -396.000
282.235; -110.325; -672.000; -638.000
282.375;  -32.275; -243.000;  -98.000
282.515;  -96.425; -715.000; -707.000
282.654;   17.350;   29.000;  106.000
282.794;   24.450;  388.000;  244.000
282.934;  -57.475; -530.000; -491.000
283.073; -138.800;-1030.000; -857.000
283.213;  -67.850; -460.000; -467.000
283.353;  -41.050; -408.000; -349.000
283.492;  -42.500; -264.000; -296.000
283.632;  -33.650; -254.000; -168.000
283.771; -101.275; -859.000; -730.000
283.911;  -51.600; -369.000; -260.000
284.050; -115.675; -794.000; -748.000
284.190; -161.400;-1229.000;-1096.000
284.329; -158.325;-1055.000; -964.000
284.469;  -63.000; -516.000; -591.000
284.608;  -68.875; -559.000; -598.000
284.748;  -77.975; -614.000; -570.000
284.887;  -23.900;  -87.000;  -20.000
285.027; -109.775; -844.000; -892.000
285.166;  -45.075; -192.000; -249.000
285.306;   10.850; -116.000;  -33.000
285.445;  -44.325; -229.000; -343.000
285.584;  -93.850; -630.000; -494.000
285.724;  -46.250; -282.000; -322.000
285.863; -121.025; -857.000; -507.000
286.002;  -46.025; -366.000; -276.000
286.142; -114.100; -715.000; -622.000
286.281;  -72.075; -525.000; -493.000
286.420;  -83.175; -554.000; -417.000
286.560;  100.825;  653.000;  623.000
286.699; -149.450; -958.000; -912.000
286.838;  -84.400; -590.000; -591.000
286.978;  -92.450; -533.000; -537.000
287.117; -147.200;-1085.000; -950.000
287.256;  -30.825; -228.000; -211.000
287.395;  -42.050; -197.000; -378.000
287.535;  -50.375; -370.000; -298.000
287.674;  -73.850; -509.000; -484.000
287.813;   66.850;  661.000;  533.000
287.952; -126.825;-1010.000; -871.000
288.091; -156.300;-1049.000; -915.000
288.231;   14.475;   13.000;   15.000
288.370; -173.100;-1217.000;-1200.000
288.509; -103.175; -728.000; -645.000
288.648;  -81.625; -770.000; -548.000
288.787;  -36.925; -243.000;  -87.000
288.926;  -70.550; -454.000; -475.000
289.065;  124.700;  859.000;  672.000
289.204;  -58.300; -377.000; -217.000
289.344; -106.475; -791.000; -690.000
289.483;   16.350;  416.000;  304.000
289.622;  -45.400; -291.000; -149.000
289.761;  -14.775; -309.000; -166.000
289.900; -114.850; -785.000; -626.000
290.039;  -16.925;  -12.000;  -95.000
290.178;  -39.025; -274.000; -180.000
290.317;  -72.075; -618.000; -479.000
290.456;  -72.525; -463.000; -451.000
290.595; -126.675; -961.000; -833.000
290.734; -148.850; -904.000; -891.000
290.873;  -57.850; -456.000; -420.000
291.011; -123.375; -833.000; -843.000
291.150; -100.350; -770.000; -682.000
291.289;  -26.050; -343.000; -110.000
291.428;  -89.725; -599.000; -480.000
291.567;  -54.450; -370.000; -442.000
291.706;   -4.200;  109.000;  154.000
291.845;  -85.350; -597.000; -505.000
291.984; -168.425;-1234.000;-1061.000
292.122;   65.900;  602.000;  582.000
292.261;   56.175;  620.000;  463.000
292.400;    1.300; -144.000;  211.000
292.539; -120.900; -959.000; -813.000
292.678;  -46.825; -325.000; -300.000
292.816; -160.500;-1136.000; -965.000
292.955;  -95.675; -844.000; -684.000
293.094;  -19.625; -173.000; -337.000
293.233;  -64.125; -556.000; -400.000
293.371;  -18.375; -225.000;  -84.000
293.510; -109.925; -866.000; -780.000
293.649; -128.600; -959.000; -924.000
293.787;  -53.450;-1083.000;-1012.000
293.926;  -10.375; -113.000;  -32.000
294.065;  -56.325; -379.000; -290.000
294.203;   54.300;  298.000;  406.000
294.342;   15.275;   74.000;  156.000
294.481; 5866.850;51180.000; -836.000
294.619;  -31.725; -425.000; -582.000
294.758; -138.750;-1230.000;-1137.000
294.896;   78.000; -125.000;    5.000
295.035; -115.075;-1040.000;-1006.000
295.174; -121.925;-1082.000; -954.000
295.312;  -30.975; -323.000; -203.000
295.451;  -10.450; -307.000; -428.000
295.589;  -41.900; -389.000; -518.000
295.728;   20.225; -292.000; -165.000
295.866;    8.800;  -36.000;  -51.000
296.005;  -65.050; -584.000; -341.000
296.143;  -55.250; -558.000; -596.000
296.282; -109.300; -957.000; -881.000
296.420;  -97.850; -657.000; -557.000
296.559;  -96.575; -892.000; -633.000
296.697;   26.875; -847.000; -665.000
296.835;   73.400;-1141.000;-1002.000
296.974;   52.200;  -23.000;   39.000
297.112;   10.150; -443.000; -504.000
297.251;  -73.050; -815.000; -755.000
297.389;   81.825; -576.000; -438.000
297.527;   46.125; -145.000;  -83.000
297.666;  -48.650; -486.000; -438.000
297.804;  -52.175; -404.000; -264.000
297.942;   -7.575; -136.000; -161.000
298.081;   -2.300; -183.000;   63.000
298.219;   61.650;  -17.000;  -19.000
298.357;   55.225; -144.000;  -71.000
298.495;   39.450; -810.000; -812.000
298.634;   83.975;  245.000;  219.000
298.772;   68.125; -220.000; -338.000
298.910;  -30.000; -309.000; -182.000
299.048;  -10.175; -130.000; -153.000
299.187;  -19.025; -350.000; -250.000
299.325;   18.025;   52.000;  122.000
299.463;   56.900; -389.000; -299.000
299.601;  124.100; -327.000; -271.000
299.739;  -99.675; -908.000; -883.000
299.877;  -80.025; -791.000; -703.000
300.016;  -44.875;-1095.000; -935.000
300.154;  159.300;  -19.000; -161.000
300.292;   58.750; -428.000; -348.000
300.430;   42.900; -408.000; -291.000
300.568; -102.625; -940.000; -874.000
300.706;  -56.825; -366.000; -469.000
300.844;  -72.900;-1108.000; -979.000
300.982;  111.875;  246.000;  282.000
301.120; -105.300; -965.000; -866.000
301.258;  -63.350; -812.000; -705.000
301.396;   45.350;  104.000;  -41.000
301.534;   91.325; -218.000; -293.000
301.672;   -3.125; -664.000; -521.000
301.810;   33.175; -613.000; -545.000
301.948;  140.200;   53.000;  149.000
302.086;  641.775; -250.000;  -32.000
302.224;  983.450; -610.000; -585.000
302.362;   41.150; -558.000; -622.000
302.500;  -17.325; -923.000; -893.000
302.638;  110.200;  128.000;  245.000
302.776;    0.750; -352.000; -408.000
302.913;   36.400;  447.000;  236.000
303.051;   -1.125;  -86.000;  -23.000
303.189;   66.450;   90.000;  118.000
303.327;  -37.175; -341.000; -256.000
303.465;  -82.000; -832.000; -588.000
303.603;  -82.925; -805.000; -604.000
303.740;   98.200;  417.000;  241.000
303.878;   23.250; -800.000; -759.000
304.016;  -93.625; -915.000; -790.000
304.154; -129.975;-1123.000;-1152.000
304.291;  -46.075; -505.000; -554.000
304.429;   13.025;  102.000;   74.000
304.567; -136.750; -908.000; -893.000
304.705;  -54.425; -408.000; -515.000
304.842;   99.650; -616.000; -540.000
304.980;   50.075;  215.000;   35.000
305.118;   54.475; -367.000; -365.000
305.255;  -74.625; -945.000; -927.000
305.393;   61.025;  178.000;  239.000
305.531;  -94.750;-1173.000; -956.000
305.668;  -80.175; -663.000; -582.000
305.806;  106.750; -358.000; -439.000
305.943;  117.200; -629.000; -637.000
306.081;   64.425; -378.000; -267.000
306.219; -107.275; -863.000; -748.000
306.356;   -3.825;  158.000;   27.000
306.494;   91.900;  981.000;  761.000
306.631;    5.125;  -11.000;  -55.000
306.769;   -8.900; -613.000; -485.000
306.906;  -17.000; -284.000; -258.000
307.044;  -78.325; -473.000; -488.000
307.181;  -63.575; -410.000; -332.000
307.319;   20.950;  112.000;   87.000
307.456; -167.400;-1191.000;-1153.000
307.594; -115.250; -980.000; -727.000
307.731;   -5.100; -371.000; -164.000
307.868;   -1.450;  -15.000;   20.000
308.006; -140.325; -961.000; -847.000
308.143;  -79.975; -618.000; -330.000
308.281;  128.925;  -37.000; -254.000
308.418;  -22.275; -748.000; -640.000
308.555;  -69.375; -400.000; -250.000
308.693;  -81.525; -577.000; -573.000
308.830; -104.675; -712.000; -657.000
308.967;  -19.925; -215.000;  -95.000
309.105;  -43.200; -507.000; -396.000
309.242;    6.400; -468.000; -367.000
309.379;  234.325; -577.000; -655.000
309.517;  -83.000; -936.000; -948.000
309.654; -100.950; -910.000; -734.000
309.791;  -81.900; -662.000; -580.000
309.928; -122.800; -977.000; -914.000
310.065;  180.425;  819.000;  697.000
310.203;   -3.725; -825.000; -850.000
310.340;  -15.975; -465.000; -321.000
310.477;  -74.125; -412.000; -516.000
310.614;  -65.900; -383.000; -473.000
310.751;  -77.700; -427.000; -518.000
310.889;  -26.225;    1.000;   11.000
311.026; -156.525;-1161.000; -939.000
311.163;  -55.000; -386.000; -380.000
311.300;  -75.875; -512.000; -479.000
311.437;  -80.275; -658.000; -619.000
311.574; -155.150;-1226.000; -985.000
311.711;  -72.525; -595.000; -433.000
311.848;  -45.600; -380.000; -388.000
311.985;    4.825;  270.000;   93.000
312.122; -112.675; -932.000; -762.000
312.259; -120.850; -941.000; -994.000
312.396;  -83.650; -508.000; -551.000
312.533;  -95.225; -812.000; -790.000
312.670; -139.400;-1070.000; -898.000
312.807;  -48.200; -352.000; -367.000
312.944;  -71.500; -513.000; -611.000
313.081;  -47.150; -150.000; -415.000
313.218; -108.575;-1111.000; -867.000
313.355;    1.550; -531.000; -449.000
313.492;    5.450; -455.000; -292.000
313.629;  120.300;  815.000;  735.000
313.766; -163.175;-1176.000;-1008.000
313.902;  -21.025; -186.000;   21.000
314.039;  -41.625; -372.000; -289.000
314.176;   29.725;  286.000;  192.000
314.313;  -75.000; -569.000; -473.000
314.450;  -82.225; -788.000; -684.000
314.587;  -56.550; -468.000; -480.000
314.723;   -3.975;  -78.000;  130.000
314.860;   30.275;  318.000;  332.000
314.997;   15.000;  223.000;  142.000
315.134;  -53.350; -385.000; -368.000
315.270;  -29.225; -480.000; -496.000
315.407; -128.325;-1094.000; -967.000
315.544;  -65.725; -657.000; -538.000
315.681;  -59.250; -681.000; -565.000
315.817;   20.275; -133.000; -176.000
315.954;   31.225; -613.000; -392.000
316.091; -134.625;-1045.000;-1023.000
316.227;  -27.875;  -71.000; -179.000
316.364;  -11.275;   23.000;    6.000
316.500;  -43.650; -113.000; -300.000
316.637;  -56.150; -181.000; -302.000
316.774;  -78.675; -625.000; -358.000
316.910;  -92.050; -598.000; -629.000
317.047;  -62.175; -487.000; -351.000
317.183;  -59.325; -435.000; -566.000
317.320;   -4.525; -367.000; -321.000
317.456;  -69.125; -733.000; -805.000
317.593;  -85.225; -598.000; -641.000
317.729;    0.300;  168.000;  -67.000
317.866; -214.850;-1434.000;-1285.000
318.002;  -87.425; -708.000; -948.000
318.139; -102.875; -883.000; -867.000
318.275; -110.675;-1003.000; -738.000
318.412;  -65.075; -517.000; -336.000
318.548;  -33.750; -751.000; -720.000
318.685;  -96.525; -985.000; -888.000
318.821; -104.875; -762.000; -735.000
318.957;  -27.150;   34.000;  -23.000
319.094;   28.550;  297.000;  154.000
319.230;  -66.800; -756.000; -742.000
319.367;  128.825; -471.000; -520.000
319.503;   64.675; -538.000; -436.000
319.639; -101.600; -877.000; -793.000
319.775;  -55.950; -750.000; -685.000
319.912;  -65.625; -424.000; -519.000
320.048;  -86.375;-1184.000;-1184.000
320.184;   79.425;   59.000;   70.000
320.321;  -60.625; -497.000; -467.000
320.457;   55.525;  475.000;  662.000
320.593;  -44.850; -375.000; -382.000
320.729; -114.300; -732.000; -734.000
320.866;  -69.075; -577.000; -635.000
321.002;  -76.375; -759.000; -809.000
321.138;  -12.925; -135.000; -211.000
321.274;   71.050; -148.000; -115.000
321.410;  -14.800; -585.000; -353.000
321.546;  -26.300;-1011.000; -911.000
321.683;   61.900;  400.000;  185.000
321.819;   -2.925;  -48.000; -117.000
321.955; -109.400; -743.000; -722.000
322.091;  -45.000; -585.000; -540.000
322.227;   -9.375; -382.000; -202.000
322.363;   -9.300; -320.000; -215.000
322.499;  -44.975; -343.000; -331.000
322.635;  180.975;  636.000;  443.000
322.771;   38.925; -139.000;   12.000
322.907;   98.725;  129.000;  327.000
323.043;  -20.775; -115.000; -206.000
323.179;  -41.100; -394.000; -363.000
323.315;   18.500; -401.000; -371.000
323.451;   89.575; -328.000; -236.000
323.587;   50.375;  -60.000;  -77.000
323.723;   25.400; -682.000; -601.000
323.859;  -20.700; -258.000;  -76.000
323.995;  -31.750; -467.000; -409.000
324.131; -119.775; -967.000; -892.000
324.267;  -50.300; -254.000; -276.000
324.402; -132.225; -960.000; -983.000
324.538;  -19.650; -279.000; -104.000
324.674;   26.050;  164.000;   77.000
324.810;  119.100;  226.000;  308.000
324.946;   -3.850; -810.000; -658.000
325.082;  -76.325; -568.000; -475.000
325.217;  -11.800;  -62.000;   16.000
325.353;  -98.725; -764.000; -659.000
325.489;  -73.825; -540.000; -506.000
325.625;  -75.725; -579.000; -525.000
325.760;   64.275;  517.000;  376.000
325.896;  -44.825; -515.000; -702.000
326.032;  -57.500; -403.000; -352.000
326.168;  -58.600; -462.000; -369.000
326.303;  -49.775; -352.000; -461.000
326.439;  -19.675; -336.000; -276.000
326.575;    1.075; -190.000;  -29.000
326.710;  -25.925; -156.000;  -30.000
326.846;   -6.375;  146.000;  103.000
326.982;  -96.850; -530.000; -548.000
327.117;  -69.325; -481.000; -442.000
327.253;  -94.725; -745.000; -742.000
327.388; -120.675;-1137.000;-1153.000
327.524;  -50.150; -811.000; -578.000
327.659;  -24.350;  -58.000;  -22.000
327.795;  -24.200;   69.000;   45.000
327.931; -101.400; -723.000; -499.000
328.066;  -19.000; -417.000; -276.000
328.202;  -27.100;   12.000; -129.000
328.337;  101.450;  957.000;  713.000
328.473;   33.550;  -12.000;  -74.000
328.608;  -21.550; -256.000; -267.000
328.743;  -77.950; -799.000; -664.000
328.879;   16.775;  214.000;  114.000
329.014;  -30.025; -102.000; -122.000
329.150;  -81.900; -358.000; -483.000
329.285;  -64.350; -465.000; -466.000
329.421;  -64.050; -548.000; -246.000
329.556;  -26.425;  -36.000;   85.000
329.691;  -87.925; -633.000; -615.000
329.827;  -77.800; -626.000; -480.000
329.962;  -38.400;  131.000; -301.000
330.097;  -82.650; -673.000; -585.000
330.233;  -45.725; -410.000; -223.000
330.368; -125.775; -839.000; -628.000
330.503;  -19.050;    3.000;   98.000
330.638;    4.575;  -93.000; -125.000
330.774;  -53.350; -609.000; -530.000
330.909;  -49.050; -434.000; -244.000
331.044; -107.075; -714.000; -708.000
331.179; -175.450;-1217.000;-1109.000
331.315;    0.675;   77.000;   20.000
331.450;   16.650;  157.000;  285.000
331.585; -102.175; -805.000; -706.000
331.720;  -66.600; -510.000; -460.000
331.855;  -12.150;  -35.000; -102.000
331.990;  257.125;   62.000;  138.000
332.126;  138.275; -110.000;   71.000
332.261;  -19.475; -379.000; -265.000
332.396;    2.600; -135.000; -242.000
332.531;  -90.925;-1074.000;-1031.000
332.666;   20.900; -519.000; -363.000
332.801; -102.850; -726.000; -807.000
332.936;  -20.300; -192.000; -122.000
333.071; -148.375; -870.000; -817.000
333.206;   17.000;  307.000;  379.000
333.341;   41.925;  344.000;  418.000
333.476;  -93.275; -627.000; -623.000
333.611;  -30.700; -251.000; -173.000
333.746;  -44.700; -381.000; -464.000
333.881; -116.350; -973.000; -935.000
334.016; -132.025; -936.000; -917.000
334.151; -126.300; -746.000; -702.000
334.286;   26.700;  152.000;  186.000
334.421;  -26.775; -125.000; -178.000
334.556; -103.600; -611.000; -567.000
334.690;  -89.025; -631.000; -577.000
334.825;   46.775;  381.000;   83.000
334.960;  -65.550; -285.000; -413.000
335.095;   23.550;  135.000;  -91.000
335.230;  -98.075; -722.000; -738.000
335.365; -134.700;-1084.000; -990.000
335.499; -141.500;-1108.000;-1037.000
335.634;   22.800;    9.000;  534.000
335.769;  -81.700; -755.000; -720.000
335.904;  -70.400; -603.000; -561.000
336.038;  -54.575; -735.000; -657.000
336.173; -116.425;-1206.000;-1194.000
336.308;    9.625; -116.000; -189.000
336.443;   19.075; -544.000; -634.000
336.577;  -82.150; -936.000; -787.000
336.712;   58.650;   -4.000;  -12.000
336.847;  -24.625; -724.000; -607.000
336.981;   58.350; -272.000; -208.000
337.116;  298.200;  615.000;  501.000
337.250;  157.525; -434.000; -421.000
337.385;  261.000; -297.000; -208.000
337.520;   86.225; -632.000; -603.000
337.654;  -56.375; -215.000; -126.000
337.789; -137.425; -989.000; -933.000
337.923;  -27.700; -104.000; -205.000
338.058;  -85.500; -673.000; -738.000
338.192;  -49.600; -611.000; -488.000
338.327;   -9.475;  -18.000; -155.000
338.461;  -75.300; -299.000; -469.000
338.596; -108.950; -780.000; -638.000
338.730;  -93.950; -767.000; -803.000
338.865;   86.875;  -46.000; -140.000
338.999;  -59.225; -846.000; -702.000
339.134;  -19.500; -634.000; -536.000
339.268;   20.875; -741.000; -603.000
339.403;  350.625; -740.000; -775.000
339.537;  109.425; -894.000; -820.000
339.671; -117.250; -829.000; -813.000
339.806;  -64.300; -556.000; -512.000
339.940;    6.275; -261.000; -235.000
340.074;  -90.350; -685.000; -510.000
340.209;  -50.075; -351.000; -230.000
340.343;  -94.950; -517.000; -573.000
340.477;  160.000;  998.000; 1036.000
340.612;  -52.850;-1033.000; -900.000
340.746;  135.100; -199.000; -243.000
340.880;  -60.025; -924.000; -785.000
341.014;  -23.150;  -45.000; -154.000
341.149; -108.275; -756.000; -718.000
341.283; -124.050; -839.000; -754.000
341.417;  -88.200;-1124.000; -938.000
341.551;  138.925; -768.000; -708.000
341.685;  -33.875; -633.000; -611.000
341.820;  -53.350; -562.000; -493.000
341.954;  -56.625; -218.000; -349.000
342.088; -158.975;-1102.000;-1019.000
342.222;   64.500;  565.000;  618.000
342.356;  -63.425; -395.000; -335.000
342.490;  -83.725; -880.000; -841.000
342.624;  -42.400; -339.000; -242.000
342.758;  -11.175; -364.000; -312.000
342.892;  -61.375; -710.000; -585.000
343.026;  -43.650;  -58.000; -116.000
343.160;  -70.950; -426.000; -376.000
343.294;  -73.925; -474.000; -337.000
343.428;  -31.625; -488.000; -448.000
343.562;    2.225; -172.000;  -23.000
343.696;  -23.775; -385.000; -314.000
343.830;   -7.225; -362.000; -356.000
343.964;   13.325; -231.000; -168.000
344.098;  962.375;  199.000;   70.000
344.232;  810.900; -266.000; -127.000
344.366;   80.900; -567.000; -453.000
344.500;   61.925; -665.000; -744.000
344.634;   30.575; -324.000; -164.000
344.768;  -12.875; -531.000; -341.000
344.902;   24.000;  278.000;  256.000
345.035;  -86.025; -556.000; -496.000
345.169; -127.450; -933.000; -656.000
345.303;  -47.375; -308.000; -482.000
345.437;  -73.100; -826.000; -717.000
345.571;  -75.475; -675.000; -594.000
345.704;  -67.650; -309.000; -532.000
345.838;  -21.525; -331.000; -284.000
345.972;  -33.000; -543.000; -495.000
346.106;  155.050; -179.000; -190.000
346.239;  430.400; -312.000; -243.000
346.373;   -5.300; -343.000; -302.000
346.507; -145.475; -950.000; -962.000
346.640;  144.125;  -30.000;   13.000
346.774;  -32.650; -650.000; -797.000
346.908;  -20.125; -138.000;  -11.000
347.041;  -95.600; -646.000; -593.000
347.175;   -3.100;  259.000;   27.000
347.309;  -70.325; -698.000; -628.000
347.442;  -87.825; -883.000; -732.000
347.576;  292.525;  670.000;  668.000
347.709;  209.650; -123.000;  -52.000
347.843;  -82.125; -933.000; -825.000
347.976;   40.075;  235.000;  294.000
348.110; -173.475;-1268.000;-1186.000
348.243; -107.550; -679.000; -772.000
348.377;   15.825;  -26.000;   60.000
348.510;   48.450;  403.000;  540.000
348.644;  -34.025;  -37.000; -159.000
348.777;   -3.450;  180.000;  191.000
348.911;  -44.675; -142.000; -112.000
349.044;  176.175;  471.000;  448.000
349.178;  201.025;-1069.000;-1006.000
349.311;  116.675;  141.000;  255.000
349.444;   10.225; -927.000; -813.000
349.578;  -35.650; -347.000; -200.000
349.711;  -94.200; -959.000; -862.000
349.845;    6.825; -661.000; -591.000
349.978; -142.975;-1224.000;-1137.000
350.111;  -82.175; -546.000; -612.000
350.244;  -78.250; -596.000; -700.000
350.378;    8.600; -392.000; -393.000
350.511;  -70.425; -393.000; -426.000
350.644; -118.400; -808.000; -806.000
350.778;    7.400;  168.000;  104.000
350.911;   -1.525;  134.000;  140.000
351.044;  -85.325; -685.000; -615.000
351.177;  -33.600; -321.000; -281.000
351.310;  -13.350;    3.000; -131.000
351.444;  -83.850; -888.000; -788.000
351.577;  133.625;  140.000;   90.000
351.710;   90.050;  593.000;  417.000
351.843;  -33.475; -165.000;  -77.000
351.976;   -2.225;  149.000;  -79.000
352.109;  -72.625; -621.000; -612.000
352.242;  -27.725; -464.000; -419.000
352.376;  -49.300; -580.000; -636.000
352.509;  183.050; -437.000; -356.000
352.642;   21.975; -654.000; -604.000
352.775;   67.125; -141.000;  -98.000
352.908; -107.375; -933.000; -904.000
353.041; -106.000; -814.000; -824.000
353.174;  -59.525; -551.000; -424.000
353.307;  -93.450; -753.000; -764.000
353.440;   74.350;  541.000;  453.000
353.573; -108.225; -957.000;-1008.000
353.706;  -58.300; -384.000; -558.000
353.839;  -20.575; -264.000; -220.000
353.971; -103.075; -657.000; -512.000
354.104;  -73.925; -896.000; -835.000
354.237;  -37.375; -627.000; -662.000
354.370;  -98.650; -846.000; -879.000
354.503; -184.375;-1231.000;-1308.000
354.636;  -29.975; -529.000; -348.000
354.769; -114.075; -937.000; -860.000
354.902;  -10.925; -230.000; -139.000
355.034;  -21.175; -164.000; -220.000
355.167;  -22.025; -262.000; -162.000
355.300;  -84.875;-1061.000; -880.000
355.433;  959.000;  -71.000;  -14.000
355.565; 1497.400; -402.000; -384.000
355.698;  366.400; -356.000; -296.000
355.831;    7.825; -882.000; -801.000
355.964;   56.100; -285.000; -170.000
356.096;  -89.600; -856.000; -843.000
356.229;   -0.450; -523.000; -530.000
356.362;  334.000; -373.000; -266.000
356.494;  590.875; -229.000; -162.000
356.627;  513.400;  269.000;  377.000
356.760;  656.550;  120.000;   53.000
356.892;  946.750; -286.000; -601.000
357.025;  682.700;  403.000;  389.000
357.157;  638.650; -167.000; -179.000
357.290;  663.100; -856.000; -713.000
357.423;  181.800; -667.000; -556.000
357.555;  124.375; -217.000; -228.000
357.688;  145.925; -483.000; -364.000
357.820;  485.425; -870.000; -877.000
357.953; 3934.050; -563.000; -589.000
358.085;  842.675; -632.000; -612.000
358.218; 1218.600;-1131.000; -932.000
358.350;  215.850;  -58.000;  312.000
358.483; -124.925;-1300.000;-1187.000
358.615;  -10.500;-1182.000;-1078.000
358.747;  -56.325;-1187.000;-1058.000
358.880;   18.625; -810.000; -744.000
359.012;    1.150; -376.000; -202.000
359.145;  -46.400; -480.000; -511.000
359.277;   65.100; -962.000; -913.000
359.409; 3293.450;  536.000;  231.000
359.542;  851.100; -738.000; -688.000
359.674;   75.725;   46.000;   13.000
359.806;  -58.825; -565.000; -438.000
359.939;  -40.925; -617.000; -516.000
360.071;  -19.000; -583.000; -579.000
360.203;  -22.875; -411.000; -364.000
360.335;   57.150;  164.000;  -16.000
360.468;  195.650; -249.000; -307.000
360.600; 2611.625; -547.000; -454.000
360.732; 2826.600; -546.000; -423.000
360.864;  384.775;-1216.000;-1044.000
360.996;  296.775; -516.000; -554.000
361.129;   57.575; -389.000; -598.000
361.261;   22.525;  110.000; -113.000
361.393;  -18.350; -252.000; -214.000
361.525;   27.425;   94.000;  244.000
361.657;  -37.125; -821.000; -703.000
361.789;   19.225; -139.000; -155.000
361.921;  255.800; -642.000; -593.000
362.053;  271.550;  524.000;  541.000
362.185;   62.425;  288.000;   72.000
362.318;  -89.175; -709.000; -705.000
362.450;  129.800;  294.000;  444.000
362.582;  107.100; -913.000; -870.000
362.714;  -41.125; -353.000; -332.000
362.846;  -95.350; -606.000; -490.000
362.978; -140.625; -941.000; -811.000
363.109;   49.675; -161.000; -260.000
363.241;  465.825; -739.000; -749.000
363.373;  420.075; -649.000; -564.000
363.505;  639.800; -186.000;  -91.000
363.637;  146.525; -787.000; -601.000
363.769; -128.625;-1067.000;-1080.000
363.901;  -81.525; -596.000; -654.000
364.033; -117.875;-1103.000;-1062.000
364.165;   -4.175; -283.000; -283.000
364.296;   75.675; -316.000; -177.000
364.428;   49.075;-1344.000;-1220.000
364.560;  -72.400; -679.000; -661.000
364.692;  -66.650; -738.000; -835.000
364.824;  287.125; -588.000; -456.000
364.955;  443.300; -402.000; -564.000
365.087;  918.750;-1097.000; -852.000
365.219;   22.150; -686.000; -816.000
365.351;  -58.650; -526.000; -572.000
365.482;   59.000;  300.000;  240.000
365.614;  -43.950; -402.000; -314.000
365.746;  -97.925; -729.000; -752.000
365.877; -103.075; -706.000; -672.000
366.009;  263.325;  -35.000;  -62.000
366.141;  -82.125;-1249.000;-1134.000
366.272; -110.525; -803.000; -719.000
366.404;  -95.825;-1005.000; -874.000
366.535;  -17.025; -139.000;  -12.000
366.667;  -98.550; -644.000; -649.000
366.799;   34.200;  353.000;  203.000
366.930; -114.350; -862.000; -996.000
367.062;  118.075; -639.000; -613.000
367.193;  157.450; -872.000; -842.000
367.325;  -75.275; -580.000; -684.000
367.456;   59.925; -246.000;   31.000
367.588;  145.750; -371.000; -318.000
367.719;   29.050;  -44.000;  -45.000
367.851;  -26.375; -222.000; -241.000
367.982;  -41.100; -875.000; -732.000
368.113;  117.750; -475.000; -358.000
368.245; -123.850; -960.000; -841.000
368.376;  -22.475; -254.000; -302.000
368.508;  -28.200; -188.000; -263.000
368.639; -137.950;-1166.000;-1034.000
368.770;   -2.525; -670.000; -589.000
368.902;  -58.250; -836.000; -926.000
369.033; -110.850; -906.000; -855.000
369.164;  -53.125; -720.000; -653.000
369.296;  -98.650; -452.000; -601.000
369.427;   -5.175; -209.000; -144.000
369.558;  -43.025; -593.000; -377.000
369.689;  -96.000; -721.000; -569.000
369.821; -119.075; -951.000; -845.000
369.952;  -20.450;   42.000; -108.000
370.083;  -54.300; -229.000; -108.000
370.214;  -89.550; -735.000; -650.000
370.345;    1.150;   65.000;   81.000
370.477;  -90.075; -810.000; -790.000
370.608;  242.575; -328.000; -264.000
370.739;  -50.725;-1233.000;-1292.000
370.870;  -33.100;-1102.000; -923.000
371.001;   88.275; -378.000; -467.000
371.132;  -70.925; -754.000; -735.000
371.263;  -24.500;  -42.000; -148.000
371.394; -125.450; -841.000; -748.000
371.525;   19.025;  345.000;  225.000
371.657;  -82.250; -808.000; -670.000
371.788;   67.225;  103.000;  199.000
371.919;  199.150; -384.000; -304.000
372.050; 3855.525;  -91.000; -156.000
372.181; 1133.350; -188.000; -294.000
372.311;  393.850;   42.000; -127.000
372.442;   41.550; -457.000; -451.000
372.573;  -33.625; -444.000; -340.000
372.704; -114.950;-1008.000; -980.000
372.835;   89.650; -228.000; -289.000
372.966;  -52.950; -646.000; -554.000
373.097;  -66.750; -575.000; -711.000
373.228;  -48.050; -717.000; -542.000
373.359;  150.700; -824.000; -536.000
373.490; 1019.775; -881.000; -727.000
373.620; 1234.550;-1001.000; -803.000
373.751; 1899.375; -332.000; -396.000
373.882;  846.125; -663.000; -733.000
374.013;   70.150; -449.000; -262.000
374.143;  -47.125; -581.000; -659.000
374.274;  -98.575; -987.000; -908.000
374.405;  194.375; -388.000; -276.000
374.536;  471.950; -526.000; -387.000
374.666; 1202.450; -759.000; -807.000
374.797;  241.025; -817.000; -868.000
374.928;  926.400; -710.000; -560.000
375.058;  944.275; -535.000; -500.000
375.189;   83.675;  -59.000;  -93.000
375.320; -102.975; -928.000;-1034.000
375.450;  -45.550; -625.000; -616.000
375.581;  -45.050; -526.000; -436.000
375.712;  -24.675; -574.000; -250.000
375.842;  319.325; -438.000; -415.000
375.973;  216.475; -554.000; -513.000
376.103;  -32.200; -665.000; -648.000
376.234;  -81.425; -531.000; -552.000
376.364;  -23.775; -944.000; -867.000
376.495;  345.975;  925.000;  529.000
376.625;    9.925; -472.000; -485.000
376.756;   52.775; -709.000; -678.000
376.886;  -73.150;-1178.000;-1026.000
377.017;   41.525;-1048.000;-1061.000
377.147;  341.500; -786.000; -782.000
377.278;   68.400;  174.000;  228.000
377.408; -130.275; -801.000; -815.000
377.538; -119.550; -707.000; -693.000
377.669;  -75.250; -537.000; -613.000
377.799;  -76.775; -645.000; -635.000
377.929;  -52.375; -610.000; -428.000
378.060; -140.225; -781.000; -847.000
378.190;  -52.425; -726.000; -531.000
378.320;  -51.800; -401.000; -406.000
378.451;   -6.025; -131.000;  -22.000
378.581;   -1.925;  -67.000; -110.000
378.711;  153.475; 1035.000;  866.000
378.841;  -16.800; -533.000; -675.000
378.972;  -65.475; -871.000; -751.000
379.102;    9.825; -652.000; -579.000
379.232;  -13.800; -126.000;  -73.000
379.362; -100.850;-1001.000; -885.000
379.492;   30.150; -373.000; -424.000
379.623;  105.975;    0.000;  111.000
379.753;  -85.975;-1107.000; -974.000
379.883;  203.075;   59.000;  156.000
380.013;   16.425;-1081.000;-1017.000
380.143; -105.175;-1097.000;-1056.000
380.273;  -89.150; -985.000; -861.000
380.403;  -10.525; -344.000; -257.000
380.533;  -32.150; -651.000; -664.000
380.663;   66.525;  173.000;  128.000
380.793;  -86.825;-1027.000;-1074.000
380.923;  -22.250; -103.000;  -34.000
381.053;  -82.950; -613.000; -623.000
381.183;  -23.750; -106.000; -248.000
381.313;   38.500; -656.000; -470.000
381.443;   34.675; -692.000; -473.000
381.573;  220.275; -402.000; -409.000
381.703;  292.850;-1249.000;-1095.000
381.833; -123.200;-1454.000;-1336.000
381.963;  109.975; -134.000;  -87.000
382.093; 1492.200; -925.000; -909.000
382.223;  461.400; -713.000; -602.000
382.353;   -7.325; -801.000; -608.000
382.482;  400.050;-1091.000; -964.000
382.612;  827.275; -872.000; -644.000
382.742;  433.200; -695.000; -622.000
382.872;  293.250; -565.000; -551.000
383.002;   61.375;  347.000; -132.000
383.131;  -13.725; -226.000; -160.000
383.261;  -45.475; -706.000; -768.000
383.391;  305.225; -552.000; -377.000
383.521; 3205.800;  451.000;  263.000
383.650;  723.900; -947.000; -904.000
383.780;  -22.675; -783.000; -656.000
383.910;  104.075;  880.000;  802.000
384.039;   19.000; -794.000; -656.000
384.169;  237.700;-1205.000;-1017.000
384.299;  -20.650; -650.000; -662.000
384.428;  -88.075; -764.000; -680.000
384.558;  -54.875; -308.000; -275.000
384.687;  -35.675; -414.000; -334.000
384.817;    9.425;   75.000;   -2.000
384.947;   13.400; -234.000; -141.000
385.076;  293.125;  982.000;  912.000
385.206;  100.900;  369.000;  480.000
385.335;  -36.475; -549.000; -417.000
385.465;  -68.425; -655.000; -663.000
385.594;  153.900;  -53.000;  -44.000
385.724;  450.600; -868.000; -838.000
385.853;  121.975; -296.000; -270.000
385.982; 1482.275; -743.000; -787.000
386.112; 2274.850;-1052.000; -871.000
386.241;  156.400; -307.000; -312.000
386.371;   24.500; -174.000;  -87.000
386.500;    8.475; -825.000; -789.000
386.629;   16.925; -874.000; -817.000
386.759;   62.625;  -43.000;   68.000
386.888;  -13.175; -170.000; -250.000
387.017;  -80.875; -648.000; -620.000
387.147; -102.200; -771.000; -798.000
387.276;    1.175; -410.000; -397.000
387.405;   12.550; -398.000; -342.000
387.535;  -43.925; -452.000; -361.000
387.664;  -69.925; -692.000; -620.000
387.793;   77.425; -198.000; -113.000
387.922;  535.325;  255.000;  200.000
388.052;   16.275; -576.000; -423.000
388.181;    6.750; -342.000; -472.000
388.310;   -5.150; -889.000; -710.000
388.439;  -41.875; -749.000; -742.000
388.568;  195.025;  365.000;  244.000
388.697; 1116.425; -756.000; -653.000
388.826;  225.625; -768.000; -666.000
388.956;   51.475; -285.000; -307.000
389.085;  -25.225; -347.000; -287.000
389.214; -112.300; -842.000; -872.000
389.343;  -65.225; -645.000; -413.000
389.472;  397.050;  126.000;  149.000
389.601;  522.575;   91.000;    0.000
389.730;   14.125; -568.000; -687.000
389.859;   77.500;  226.000;   46.000
389.988;  202.050; -423.000; -408.000
390.117;  160.000; -168.000; -146.000
390.246;  -11.200; -331.000; -320.000
390.375;  112.375; -673.000; -626.000
390.504;  -58.175; -703.000; -621.000
390.633;  -96.675; -672.000; -726.000
390.761;  -51.875; -732.000; -645.000
390.890;   39.600;   -4.000; -130.000
391.019;  -31.650; -421.000; -441.000
391.148; -137.375; -826.000; -855.000
391.277;  -72.075; -576.000; -493.000
391.406;  -88.025; -821.000; -805.000
391.534;    0.000;  574.000; -301.000
391.663;  -57.450; -583.000; -645.000
391.792;  -88.025; -673.000; -701.000
391.921;  114.200;   -3.000;   15.000
392.050;  212.550; -287.000; -228.000
392.178;  -37.400;-1206.000;-1061.000
392.307;  157.200; -758.000; -712.000
392.436;   85.825; -427.000; -641.000
392.564;   20.075;  166.000;   -6.000
392.693;  -85.300; -860.000; -682.000
392.822;  196.500; -529.000; -534.000
392.950;   93.975; -880.000; -714.000
393.079;  337.525; -188.000; -328.000
393.208;   19.225; -488.000; -511.000
393.336;  -29.400; -170.000; -145.000
393.465;  -45.525; -317.000; -199.000
393.593;   -4.025;   62.000;   79.000
393.722; -165.275;-1121.000; -916.000
393.850;  -41.800; -188.000;  -61.000
393.979; -158.750; -926.000; -805.000
394.107;  -71.050; -517.000; -537.000
394.236;  -26.675; -570.000; -507.000
394.364;  189.900;  383.000;  206.000
394.493;  264.875; -911.000; -767.000
394.621;  -35.075; -955.000; -916.000
394.750;  708.200; -873.000; -923.000
394.878; 2943.875; -247.000; -149.000
395.007; 3930.175; -721.000; -807.000
395.135;  266.725; -790.000; -721.000
395.263;  -79.375;-1038.000;-1040.000
395.392;   -3.300;  -25.000; -107.000
395.520; -143.450; -818.000; -679.000
395.648;  -88.250; -865.000; -915.000
395.777;  -10.750; -366.000; -405.000
395.905;  -46.900; -449.000; -564.000
396.033;    5.375;  217.000;  172.000
396.162;  445.600; -399.000; -453.000
396.290;  394.600;  -17.000;   -2.000
396.418;   98.075; -555.000; -514.000
396.546;  -72.675; -571.000; -466.000
396.674;  -94.200; -850.000; -878.000
396.803;   16.925;  -72.000;  -23.000
396.931;   92.350; -179.000; -199.000
397.059;   55.375;-1026.000; -989.000
397.187; -121.225;-1026.000; -975.000
397.315; -124.275; -884.000; -649.000
397.443;  -85.375; -592.000; -443.000
397.572; -104.400; -578.000; -424.000
397.700;   -1.725; -607.000; -614.000
397.828;   33.400;  120.000;  -90.000
397.956;  -48.100; -508.000; -478.000
398.084;  -53.600; -767.000; -626.000
398.212;   50.350;  137.000;  124.000
398.340;   14.375;  -56.000;  159.000
398.468;   29.650; -390.000; -169.000
398.596; -140.100; -993.000; -953.000
398.724; -122.325; -762.000; -767.000
398.852; -164.425;-1024.000; -976.000
398.980;  -62.525; -560.000; -560.000
399.108;  -53.300; -982.000; -735.000
399.236;   39.925;   13.000;    8.000
399.363;    2.425;  222.000;  196.000
399.491;  -68.325; -404.000; -398.000
399.619; -121.450; -829.000; -800.000
399.747; -110.600; -859.000; -771.000
399.875;   84.275;  220.000;  234.000
400.003;  -59.075; -359.000; -284.000
400.130;  -95.875; -421.000; -341.000
400.258;  -25.825;  -83.000;   38.000
400.386;  -62.325; -352.000; -168.000
400.514;  -37.675; -526.000; -587.000
400.641;  -81.325; -928.000; -802.000
400.769; -148.225; -979.000; -888.000
400.897; -114.525; -838.000; -793.000
401.025;  -23.475; -166.000; -152.000
401.152;  -13.675;  220.000;   38.000
401.280;  -90.225; -430.000; -429.000
401.408; -116.750; -712.000; -576.000
401.535; -115.975; -735.000; -758.000
401.663; -192.175;-1134.000;-1054.000
401.790;  -84.100; -514.000; -525.000
401.918;   52.825;  436.000;  405.000
402.046;  -19.375;  134.000;  122.000
402.173;  -37.600;  -18.000;    7.000
402.301;  -66.450; -519.000; -397.000
402.428;   46.325;  528.000;  383.000
402.556; -151.500;-1188.000; -913.000
402.683;  -28.850;  -20.000;   -1.000
402.811;  -16.350;  -37.000; -206.000
402.938;   -3.675;   20.000;   27.000
403.066;  206.375; -574.000; -558.000
403.193;  347.400;  299.000;  239.000
403.321;  258.575; -396.000; -574.000
403.448;  340.750;   83.000;   27.000
403.575;  147.725;  -90.000;  -46.000
403.703;  -99.650; -732.000; -557.000
403.830;  -67.225; -531.000; -496.000
403.957; -136.750;-1117.000;-1023.000
404.085;   -1.575;  -61.000; -172.000
404.212;   91.225;  -50.000;   63.000
404.339;  270.375; -566.000; -306.000
404.467; 5823.950; -612.000; -524.000
404.594; 3776.425; -287.000; -227.000
404.721;  913.050; -869.000; -764.000
404.848;   75.075; -113.000; -202.000
404.976; -103.850; -856.000; -783.000
405.103;  -30.400;  -14.000;  -82.000
405.230;   -5.950;  190.000;  226.000
405.357;   24.925;  117.000;   44.000
405.484;  270.850;  -49.000;    5.000
405.612;   46.550; -548.000; -563.000
405.739;  -60.025; -488.000; -243.000
405.866;   73.600;  669.000;  385.000
405.993;  -41.400; -398.000; -102.000
406.120; -135.425; -801.000; -887.000
406.247;  -71.025; -323.000; -342.000
406.374;  460.300;  540.000;  629.000
406.501;  123.125; -632.000; -702.000
406.628;  -90.250; -621.000; -589.000
406.755;  -97.175; -803.000; -620.000
406.882;  -50.050; -228.000; -277.000
407.009; -100.600; -719.000; -628.000
407.136;   56.850; -480.000; -401.000
407.263;  148.025; -939.000; -829.000
407.390;  -79.975; -692.000; -614.000
407.517; -165.525;-1139.000;-1187.000
407.644;  -46.950; -332.000; -256.000
407.771; -138.675; -249.000; -287.000
407.898;   17.125;  168.000;  328.000
408.025;  -69.675; -421.000; -313.000
408.151;   -9.450;   82.000;  153.000
408.278;  -70.800; -267.000; -216.000
408.405; -130.925; -931.000; -899.000
408.532;  -62.000; -549.000; -542.000
408.659; -127.225; -677.000; -648.000
408.785; -194.900;-1298.000;-1170.000
408.912;  -57.575; -412.000; -296.000
409.039; -113.375; -610.000; -686.000
409.166; -113.975; -591.000; -555.000
409.292; -119.500; -571.000; -534.000
409.419; -136.150; -665.000; -649.000
409.546;  -99.025; -431.000; -192.000
409.672; -113.050; -713.000; -545.000
409.799;  -18.850;  -36.000;   34.000
409.926;  -46.100; -180.000; -179.000
410.052; -170.275;-1127.000;-1091.000
410.179;  -57.000; -368.000; -392.000
410.305;  -86.525; -375.000; -493.000
410.432;  -54.600; -220.000; -333.000
410.558;  -87.550; -305.000; -380.000
410.685; -119.525; -688.000; -431.000
410.812; -102.475; -409.000; -588.000
410.938; -145.250; -964.000; -808.000
411.065; -111.725; -671.000; -645.000
411.191;  -25.225; -189.000; -174.000
411.317; -116.800; -823.000; -742.000
411.444;  -62.550; -317.000; -246.000
411.570;  -71.925; -339.000; -294.000
411.697; -135.700; -758.000; -752.000
411.823; -176.650; -989.000; -999.000
411.949;  -32.500;  -56.000;   17.000
412.076; -110.175; -539.000; -519.000
412.202; -119.150; -758.000; -757.000
412.329; -131.950; -798.000; -752.000
412.455; -126.925; -821.000; -657.000
412.581;  -34.100;  -15.000;  172.000
412.707;  -80.400; -540.000; -457.000
412.834;   21.175;  156.000;  219.000
412.960;  -78.875; -785.000; -784.000
413.086; -103.475; -743.000; -701.000
413.212;  150.100;  604.000;  578.000
413.339;  -54.650; -685.000; -701.000
413.465;    2.825; -364.000; -310.000
413.591;  -93.725; -757.000; -474.000
413.717;  -55.675; -358.000; -366.000
413.843; -142.950; -839.000; -861.000
413.969;  -62.625;  -47.000; -292.000
414.096; -104.300; -679.000; -679.000
414.222;  -17.050;  -33.000;   85.000
414.348;  -19.300; -652.000; -385.000
414.474;  103.075;   38.000;  -52.000
414.600;  -14.100; -126.000; -144.000
414.726;  -21.000;  -96.000;  -55.000
414.852;  -52.825; -365.000; -342.000
414.978;   31.275;  104.000;  -18.000
415.104;   37.300;   38.000;   80.000
415.230;   24.525; -329.000; -330.000
415.356;   42.600; -409.000; -514.000
415.482;  206.025;   13.000;  -35.000
415.608;  287.550; -247.000; -323.000
415.734;  986.250;   67.000;   38.000
415.860;20340.625; -875.000; -767.000
415.986;14194.800; -685.000; -607.000
416.111; 1202.875; -798.000; -652.000
416.237;  238.175; -424.000; -571.000
416.363; 1128.425; -765.000; -733.000
416.489; 4148.250; -324.000; -251.000
416.615;  448.625; -707.000; -742.000
416.741;  -39.425; -677.000; -784.000
416.866; -101.375; -673.000; -736.000
416.992; -123.725; -801.000; -818.000
417.118;  -34.725;  -41.000;  -80.000
417.244;  -72.300; -798.000; -531.000
417.369;  -86.550; -801.000; -612.000
417.495;  -16.375; -325.000; -254.000
417.621;  -85.100;-1015.000; -803.000
417.746;    7.600; -579.000; -572.000
417.872;   40.400; -254.000; -144.000
417.998;   38.825; -515.000; -530.000
418.123; 1091.275;-1073.000; -845.000
418.249; 5380.500; -512.000; -601.000
418.374;  713.125; -916.000; -824.000
418.500;  111.125; -383.000; -482.000
418.626;  118.700;   70.000;  -59.000
418.751;  115.025; -549.000; -448.000
418.877;  210.225; -637.000; -643.000
419.002; 1822.575; -688.000; -560.000
419.128;12639.375; -930.000; -721.000
419.253; 2962.350; -967.000; -837.000
419.379;  417.450; -391.000; -338.000
419.504;  391.125;  325.000;  415.000
419.629;  529.025; -393.000; -212.000
419.755; 3668.575; -317.000; -254.000
419.880;21075.950;  -98.000;   67.000
420.006;11502.550; -280.000; -221.000
420.131;29243.275; -662.000; -775.000
420.256; 4054.175; -315.000; -316.000
420.382;  550.350; -665.000; -687.000
420.507;   51.975; -649.000; -778.000
420.632;  142.375; -337.000; -339.000
420.758;  272.500; -251.000; -425.000
420.883;  -84.225; -876.000; -672.000
421.008;  -98.425; -775.000; -619.000
421.133;  -69.950; -509.000; -467.000
421.259;  -41.925; -325.000; -259.000
421.384; -100.500; -834.000; -693.000
421.509;  -38.475;-1052.000; -862.000
421.634; 1248.100; -936.000; -820.000
421.759;  504.900; -359.000; -327.000
421.885;  -58.600; -717.000; -656.000
422.010;  -80.550; -673.000; -542.000
422.135; -150.175; -695.000; -727.000
422.260;   15.425;  340.000;  280.000
422.385;  -25.525;   12.000;  -98.000
422.510;   -4.000;  151.000;  -26.000
422.635;   21.975;  -87.000;  -43.000
422.760;  100.200; -766.000; -791.000
422.885;   49.050;  -57.000;  -80.000
423.010;  -45.450; -112.000; -169.000
423.135;  -93.200; -481.000; -561.000
423.260;  -15.725; -150.000; -245.000
423.385;   66.850;  476.000;  222.000
423.510;   25.975;   71.000;  -22.000
423.635;   95.300;  133.000;   45.000
423.760;   54.825;  383.000;  328.000
423.885;   57.950;  336.000;  391.000
424.010;   -0.475;  -68.000;  -13.000
424.135;  -28.075;    5.000;  -33.000
424.259;  -82.900; -654.000; -457.000
424.384;  -60.775; -279.000; -272.000
424.509;  -35.925; -260.000; -186.000
424.634;  -95.225; -761.000; -623.000
424.759;  -35.925; -688.000; -544.000
424.883;   -2.125; -506.000; -527.000
425.008;  163.400; -502.000; -410.000
425.133; 2012.675; -679.000; -653.000
425.258;  930.550; -517.000; -381.000
425.382; 1113.550; -867.000; -774.000
425.507; 2779.950; -487.000; -543.000
425.632;  454.850; -802.000; -663.000
425.756;  452.600; -256.000; -146.000
425.881; 6704.550; -831.000; -857.000
426.006;17544.900; -604.000; -355.000
426.130; 2642.050; -696.000; -508.000
426.255;  336.600; -611.000; -491.000
426.379;  162.425; -189.000; -577.000
426.504;  366.000;  660.000;  544.000
426.629; 4120.175; -519.000; -466.000
426.753; 2686.900;   64.000;  -46.000
426.878;  315.550; -252.000; -288.000
427.002;  184.225; -651.000; -668.000
427.127; 1660.650;  -35.000; -158.000
427.251;11479.925;  372.000;  401.000
427.375; 3156.975; -191.000; -173.000
427.500; 2412.575; -616.000; -610.000
427.624;  784.350; -234.000; -400.000
427.749;   95.300; -216.000; -225.000
427.873;  -36.650; -499.000; -412.000
427.997;  -48.200; -222.000; -230.000
428.122;   74.900;  795.000;  703.000
428.246;   65.150;  433.000;  434.000
428.371; -136.100; -869.000; -773.000
428.495; -110.925; -624.000; -646.000
428.619;  -36.350; -186.000; -117.000
428.743;    7.675;   65.000;  132.000
428.868;   15.750; -732.000; -643.000
428.992; 1507.625; -219.000; -326.000
429.116;  584.125; -329.000; -357.000
429.240;  268.825;  419.000;  426.000
429.365;   -5.975; -454.000; -574.000
429.489;  -58.400; -638.000; -647.000
429.613;   17.100; -236.000; -177.000
429.737;   34.775; -563.000; -432.000
429.861;  270.200; -247.000; -133.000
429.985; 5693.100; -425.000; -305.000
430.109; 6012.800; -770.000; -908.000
430.234;  689.650;   76.000;  -50.000
430.358;   55.925; -250.000; -160.000
430.482;  -85.750; -672.000; -564.000
430.606;  -78.075; -655.000; -375.000
430.730;   22.875; -437.000; -388.000
430.854;  127.600; -909.000; -835.000
430.978;  -74.425; -795.000; -764.000
431.102;  -85.000; -499.000; -422.000
431.226; -123.350; -874.000; -815.000
431.350;    7.550;  345.000;  422.000
431.474;  -76.000; -661.000; -373.000
431.597; -150.225;-1060.000; -848.000
431.721;  -73.100; -276.000; -267.000
431.845; -130.500; -704.000; -472.000
431.969;  -87.500; -304.000; -349.000
432.093;  -85.950; -395.000; -317.000
432.217;  -21.450;   32.000;   82.000
432.341; -102.875; -523.000; -518.000
432.464;   -0.625;   96.000;   40.000
432.588;  224.600; -401.000; -329.000
432.712;  104.075;  -52.000;  -52.000
432.836;   49.925;  213.000;  263.000
432.959;  -18.725; -372.000; -311.000
433.083;   87.725;   11.000;    2.000
433.207;  383.775;  285.000;  930.000
433.330; 5185.375; -391.000; -200.000
433.454; 6131.325; -654.000; -638.000
433.578; 3546.800;  583.000;  278.000
433.701;  616.925; -623.000; -675.000
433.825;  147.825; -292.000; -299.000
433.949;  195.875;   28.000;  -72.000
434.072;   54.975; -410.000; -323.000
434.196;  -14.725; -309.000; -117.000
434.319; 3815.825;25482.000;25124.000
434.443;  754.675; -656.000; -603.000
434.566; 2710.350;  281.000;   62.000
434.690;  433.150; -637.000; -383.000
434.813;   61.400; -251.000; -173.000
434.937;  -78.775; -569.000; -696.000
435.060;  -52.175; -423.000; -332.000
435.184;  324.150; -492.000; -217.000
435.307;  165.600;  159.000;  102.000
435.431;    1.525;  -40.000;   24.000
435.554;  -64.800; -399.000; -240.000
435.677;  -91.500; -350.000; -258.000
435.801;  -31.250;  -25.000;   49.000
435.924;  -19.325;    1.000;  -67.000
436.048; -114.700;-1019.000; -732.000
436.171;  -71.675; -240.000;  -66.000
436.294;  -33.475; -248.000; -229.000
436.417;   76.875; -963.000; -849.000
436.541;  -84.300; -814.000; -840.000
436.664;  -45.700; -242.000; -316.000
436.787;  -26.550;   13.000;  113.000
436.910; -121.625; -792.000; -422.000
437.034;    8.050;  142.000;  143.000
437.157;   45.275;  -11.000;    0.000
437.280;  -48.525; -392.000; -292.000
437.403; -103.100; -982.000; -869.000
437.526;  687.275; -903.000; -865.000
437.649; 2382.100; -505.000; -332.000
437.772;  327.875; -692.000; -540.000
437.896;  100.375;  700.000;  544.000
438.019; -102.725; -758.000; -503.000
438.142;  -95.525; -596.000; -506.000
438.265;   -2.700; -639.000; -670.000
438.388;  592.425; -520.000; -410.000
438.511;   93.475; -597.000; -394.000
438.634;  -43.400; -247.000; -125.000
438.757; -140.350; -693.000; -619.000
438.880;  -31.050;  -34.000;  -57.000
439.003;  -74.050; -417.000; -437.000
439.126;  -71.300; -287.000; -167.000
439.248;  -69.925;  -98.000; -139.000
439.371;  -62.650;    9.000;  -53.000
439.494;    5.825;  510.000;  439.000
439.617;  -55.650;   65.000;  -88.000
439.740; -185.650; -968.000; -816.000
439.863; -152.350; -755.000; -595.000
439.986; -124.800; -476.000; -431.000
440.108;  -44.975; -161.000; -112.000
440.231; -171.800; -950.000; -836.000
440.354;  -55.500;  -64.000; -150.000
440.477;   41.325; -566.000; -542.000
440.599;   -3.325; -200.000; -225.000
440.722; -116.725; -709.000; -586.000
440.845;   73.225;  751.000;  928.000
440.968; -109.425; -415.000; -311.000
441.090;  -77.125; -199.000;  -33.000
441.213; -164.100;-1021.000; -825.000
441.336;  -55.825; -159.000;   -5.000
441.458;  -77.275; -549.000; -396.000
441.581;  -94.550; -628.000; -629.000
441.703;  -65.050; -152.000;   13.000
441.826; -111.225; -557.000; -400.000
441.948;  -46.125;   56.000;   51.000
442.071;   22.125;  555.000;  424.000
442.193; -107.775; -531.000; -485.000
442.316;   16.450;  152.000;   97.000
442.438;   57.950; -233.000;  -10.000
442.561;   74.450;  272.000;  262.000
442.683;  582.700; -809.000; -522.000
442.806; 1207.350;   -8.000;   74.000
442.928;   22.850; -859.000; -604.000
443.051;  -66.675; -577.000; -373.000
443.173;  -96.400; -341.000; -339.000
443.295;  -90.150; -263.000; -371.000
443.418;  -67.925; -321.000;  -29.000
443.540;  -27.775; -106.000;   -4.000
443.662; -116.850; -563.000; -465.000
443.785;  -36.875;  335.000;  199.000
443.907; -106.425; -362.000; -208.000
444.029; -142.375; -767.000; -494.000
444.152; -137.900; -644.000; -554.000
444.274;  -39.175;  -18.000;  -24.000
444.396; -105.475; -461.000; -221.000
444.518; -138.875; -691.000; -454.000
444.640; -100.775; -268.000; -111.000
444.763;  -24.900;  388.000;  249.000
444.885; -121.650; -432.000; -392.000
445.007;  -46.250;   35.000;   86.000
445.129; -124.225; -610.000; -515.000
445.251; -118.100; -372.000; -439.000
445.373; -138.600; -537.000; -386.000
445.495;   -0.975;  242.000;  350.000
445.617;   57.050;  853.000;  753.000
445.739;  -74.100; -215.000;  -97.000
445.861;  -43.000; -245.000; -112.000
445.984;  -34.625; -267.000; -101.000
446.105;  219.900; -418.000; -251.000
446.227;  659.700; -176.000;  -19.000
446.349;    1.700; -358.000; -249.000
446.471; -110.625; -615.000; -448.000
446.593;  -70.550; -316.000;   19.000
446.715;   -4.100;  -67.000;   41.000
446.837;   69.725;  697.000;  832.000
446.959; -104.175; -457.000; -478.000
447.081; -146.700; -628.000; -518.000
447.203;   51.500;  862.000;  834.000
447.325;  -89.500; -270.000;   42.000
447.446;  -10.450;  286.000;  530.000
447.568; -144.725; -921.000; -803.000
447.690;  -86.100; -236.000; -245.000
447.812; -161.025; -798.000; -519.000
447.933;  -39.475;  155.000;  127.000
448.055;  -65.850; -306.000; -261.000
448.177;  168.075;   31.000;   79.000
448.299;   99.500; -935.000; -727.000
448.420;   16.775;  -25.000;  159.000
448.542;  -47.525;   -3.000;   33.000
448.664;  -33.750;  109.000;  322.000
448.785;  -34.100;  265.000;   83.000
448.907;  -85.925; -614.000; -353.000
449.028;  -31.675; -771.000; -471.000
449.150;   66.750;  492.000;  589.000
449.272; -181.100;-1044.000; -913.000
449.393;   22.025;  612.000;  694.000
449.515; -143.350; -634.000; -581.000
449.636;  -60.600; -264.000; -155.000
449.758;   65.450;  763.000;  622.000
449.879;  -88.050; -498.000; -396.000
450.001;  -75.425; -149.000;  -49.000
450.122;  -38.375;  -95.000;  162.000
450.244;  -23.725;   37.000;  364.000
450.365;  -99.575; -495.000; -301.000
450.486;  -47.775;   80.000;  268.000
450.608;   26.825;  393.000;  326.000
450.729;   80.100;  578.000;  645.000
450.850;  -16.525; -574.000; -466.000
450.972;  782.825; -552.000; -389.000
451.093; 4963.600;  190.000;  588.000
451.214; 2067.550; -516.000; -337.000
451.336;  353.475;  773.000;  579.000
451.457;   61.225;  264.000;  393.000
451.578;  -30.275; -118.000;  -74.000
451.699; -109.325; -546.000; -540.000
451.821;  -64.275; -284.000;  -50.000
451.942;    4.275;  278.000;  285.000
452.063;   31.325;  228.000;  419.000
452.184;  573.000;  -54.000;  -49.000
452.305; 1064.775;  103.000;  170.000
452.427;  108.875; -549.000; -301.000
452.548;  -24.725;   23.000;   79.000
452.669;  -44.375; -257.000;  -89.000
452.790;  -58.650;    3.000;  -18.000
452.911;    2.425;  195.000;  259.000
453.032;  -69.975; -289.000;  -60.000
453.153;  -42.050;  -29.000;   81.000
453.274;   63.625;  737.000;  868.000
453.395;  -46.575;  -51.000;  175.000
453.516;  138.525; 1317.000; 1388.000
453.637;  -53.450; -205.000; -150.000
453.758;  -57.675;   15.000;   69.000
453.879; -124.475; -462.000; -250.000
454.000;   88.825; 1086.000;  948.000
454.121; -122.325; -554.000; -326.000
454.242; -115.700; -599.000; -383.000
454.362;  -70.400;  -99.000;  114.000
454.483;  -51.325; -309.000; -229.000
454.604;   55.350;  512.000;  580.000
454.725; -143.075; -627.000; -555.000
454.846; -115.975; -474.000; -406.000
454.967;  -25.575;  230.000;  539.000
455.087;  -41.650;  179.000;  153.000
455.208;   15.800;  554.000;  856.000
455.329;  -54.150;  -22.000;   82.000
455.450;   24.450;  473.000;  633.000
455.570;  -86.350; -234.000; -211.000
455.691;  -46.725;  201.000;  407.000
455.812; -111.900; -270.000;  -92.000
455.932;  -81.575;  107.000;  -97.000
456.053;  -85.800;   36.000;   24.000
456.173; -109.150; -433.000; -355.000
456.294; -125.125; -476.000; -303.000
456.415;  -76.225;  -73.000;   70.000
456.535;  -30.900;  297.000;  273.000
456.656;  -48.950;  132.000;  240.000
456.776;  -72.900;    3.000;  298.000
456.897;  -20.650;  308.000;  513.000
457.017;  -75.975; -153.000;   -3.000
457.138; -113.675; -402.000; -249.000
457.258;  -19.250;  263.000;  224.000
457.379;   -9.400;  509.000;  521.000
457.499;  -20.450;  443.000;  432.000
457.620; -128.400; -407.000; -231.000
457.740;  -88.725; -132.000;  -11.000
457.860;  -67.000;   87.000;   44.000
457.981;  -45.425;  132.000;  124.000
458.101;  -85.425;  -89.000;   40.000
458.221;  -23.000;  336.000;  402.000
458.342;  -51.650;   -4.000;  -37.000
458.462;   21.900;  617.000;  352.000
458.582;  -49.550; -302.000; -294.000
458.703;    1.825;  303.000;  154.000
458.823;  -28.475;   22.000;  163.000
458.943;   30.900;  341.000;  467.000
459.063;  -28.550; 1124.000;  192.000
459.183;  -28.350;  328.000;  313.000
459.304;   -5.100;  315.000;  517.000
459.424;  -58.675; -246.000;  -89.000
459.544;  336.475;  388.000;  764.000
459.664;  827.025;  499.000;  506.000
459.784;  292.550; 1004.000; 1175.000
459.904;   42.450;  867.000;  744.000
460.024;   56.300;  867.000;  684.000
460.144;    6.875;  449.000;  554.000
460.264;  -18.475;  515.000;  327.000
460.385; -100.975; -145.000; -119.000
460.505;   43.925;  905.000;  858.000
460.625; -100.675;  -17.000;  -68.000
460.745;  -30.125;  396.000;  541.000
460.864;  -51.350;  153.000;  469.000
460.984;    7.300;  499.000;  573.000
461.104;  125.125; 1656.000; 1775.000
461.224;   15.725;  657.000;  650.000
461.344;  -17.625;  431.000;  360.000
461.464;  -35.300;  258.000;  513.000
461.584;  -13.900;  283.000;  466.000
461.704;  -58.250;   58.000;  108.000
461.824;  -67.725;  238.000;  259.000
461.943;  -55.325;  191.000;  130.000
462.063;  -69.575;    2.000;  324.000
462.183;   18.150;  639.000;  717.000
462.303;  105.975; 1678.000; 1230.000
462.422;   16.050;  781.000;  840.000
462.542;  -38.275;  271.000;  391.000
462.662;   38.700;  353.000;  380.000
462.782;  264.175;  833.000;  572.000
462.901;  470.800;  545.000;  717.000
463.021;  286.375; 1702.000; 1638.000
463.141;   -7.075;  337.000;  770.000
463.260;   -9.000;  614.000;  474.000
463.380;   22.075;  902.000;  884.000
463.499;  -41.725;  342.000;  332.000
463.619;  -32.400;  581.000;  559.000
463.738;  122.700; 1644.000;  903.000
463.858;   18.250;  657.000;  811.000
463.978;  -34.825;  542.000;  396.000
464.097;   25.900;  921.000; 1114.000
464.217;  126.475; 1196.000; 1143.000
464.336;  117.700; 1068.000; 1130.000
464.455;  -33.175;  328.000;  659.000
464.575;   38.000;  597.000;  602.000
464.694;  174.175; 1204.000; 1179.000
464.814;  137.300; 1190.000; 1138.000
464.933;   86.050; 1095.000; 1027.000
465.052;  102.250; 1412.000; 1054.000
465.172;  103.475;  922.000;  799.000
465.291;  124.500; 1376.000; 1320.000
465.410;   16.325;  462.000;  735.000
465.530;   86.650; 1355.000; 1310.000
465.649;   69.725; 1209.000; 1273.000
465.768;  125.925; 1673.000; 1508.000
465.888;   59.200;  941.000; 1174.000
466.007;   96.375; 1335.000; 1440.000
466.126;   -7.100;  721.000;  641.000
466.245;   49.525; 1176.000; 1187.000
466.364;   20.625;  950.000; 1060.000
466.484;   58.000; 1024.000; 1213.000
466.603;   32.975; 1101.000; 1222.000
466.722;  123.525; 1490.000; 1769.000
466.841;   79.425; 1151.000; 1401.000
466.960;   34.850; 1069.000;  972.000
467.079;  147.325; 1971.000; 1786.000
467.198;   41.550; 1238.000; 1181.000
467.317;  103.675; 1768.000; 1162.000
467.436;   66.250; 1709.000; 1261.000
467.555;  125.150; 1796.000; 1746.000
467.674;   62.100; 1227.000; 1329.000
467.793;   55.525; 1376.000; 1374.000
467.912;   88.525; 1658.000; 1539.000
468.031;  135.625; 2038.000; 1930.000
468.150;  138.900; 1842.000; 1837.000
468.269;  196.025; 2313.000; 2090.000
468.388;  184.775; 2168.000; 2339.000
468.507;  248.100; 2884.000; 2903.000
468.626;  232.225; 2555.000; 2541.000
468.744;  145.675; 2018.000; 2174.000
468.863;  196.250; 2312.000; 2523.000
468.982;  106.150; 1503.000; 1555.000
469.101;  217.925; 2788.000; 2692.000
469.220;  147.100; 2333.000; 2176.000
469.338;  251.225; 2935.000; 3051.000
469.457;  210.425; 2719.000; 2545.000
469.576;  336.000; 3953.000; 3784.000
469.695;  243.200; 2877.000; 3066.000
469.813;  425.550; 4148.000; 4192.000
469.932;  396.275; 4255.000; 4485.000
470.051;  448.850; 4075.000; 4161.000
470.169;  867.950; 4470.000; 4338.000
470.288; 1457.950; 4700.000; 4809.000
470.406;  853.275; 5059.000; 5194.000
470.525;  643.200; 6101.000; 5787.000
470.644;  652.025; 6847.000; 6794.000
470.762;  841.300; 8397.000; 7873.000
470.881;  921.900; 8651.000; 8464.000
470.999; 1038.525; 9685.000; 9151.000
471.118; 1109.050;11174.000;10711.000

