
Integration time [ms]: 100.000
Averaging Nr. [scans]: 40
Smoothing Nr. [pixels]: 0
Data measured with spectrometer [name]: 2101012U2
Wave   ;Sample   ;Dark     ;Reference
[nm]   ;[counts] ;[counts] ;[counts] 

197.733;   59.725;  516.000;  404.000
197.879;  -88.050; -610.000; -634.000
198.025;  -51.025; -475.000; -420.000
198.171;  -69.725; -602.000; -612.000
198.317;  -24.725; -401.000; -316.000
198.463;  -52.775; -655.000; -404.000
198.609;   27.000;  181.000; -137.000
198.755;  -88.975; -644.000; -410.000
198.901;  -71.450; -505.000; -424.000
199.047;  -74.450; -615.000; -488.000
199.193;  -44.800; -230.000; -468.000
199.339;  -43.150; -222.000; -369.000
199.485;   33.575;  330.000;  271.000
199.631;   20.400;  227.000;  310.000
199.777;  -44.025; -466.000; -398.000
199.923;  -68.450; -610.000; -424.000
200.069;    4.500; -141.000;  -58.000
200.215;   55.150;  128.000;  453.000
200.361;   44.750;  243.000;  477.000
200.507;  -76.250; -600.000; -373.000
200.653;  -30.750; -371.000; -194.000
200.798;  -32.350; -215.000; -125.000
200.944;   -4.000; -146.000;  -41.000
201.090;   20.200;   61.000;  222.000
201.236;    2.500; -116.000; -158.000
201.382;  137.425;  874.000;  903.000
201.528;   -3.700;  -58.000;  -48.000
201.674;  -43.275; -386.000; -293.000
201.819;  -70.050; -540.000; -439.000
201.965;  -81.925; -699.000; -447.000
202.111;  -35.400; -273.000; -226.000
202.257;  -24.425; -250.000; -238.000
202.402;    4.650;   13.000;  -36.000
202.548;  -31.075; -169.000; -116.000
202.694;   83.850;  410.000; -183.000
202.840;  -61.875; -603.000; -531.000
202.985;  -60.500; -681.000; -639.000
203.131; -109.700; -832.000; -666.000
203.277;  -20.175; -199.000; -262.000
203.423;  -49.900; -434.000; -520.000
203.568;  -34.975; -462.000; -237.000
203.714;  -61.425; -535.000; -542.000
203.860;  -76.275; -682.000; -641.000
204.005;    5.275;  112.000;  167.000
204.151;   80.375;  561.000;  556.000
204.296;  -32.375; -354.000; -221.000
204.442;  -69.925; -600.000; -547.000
204.588;  -83.900; -592.000; -579.000
204.733;   11.125;  178.000;  168.000
204.879; -133.300;-1018.000; -822.000
205.025;   14.150;  -99.000;  126.000
205.170;   -3.900;  -17.000;   94.000
205.316;   80.050;  438.000;  661.000
205.461;  -75.900; -698.000; -554.000
205.607;   78.300;  609.000;  665.000
205.752;  -85.900; -626.000; -551.000
205.898;  -53.700; -501.000; -391.000
206.043;  -61.950; -578.000; -506.000
206.189;  -38.850; -243.000; -285.000
206.334;   79.475;  554.000;  606.000
206.480;   90.875;  409.000;  239.000
206.625;  -88.325; -529.000; -552.000
206.771;  -54.700; -451.000; -373.000
206.916;  -36.175; -210.000; -537.000
207.062;  -66.200; -545.000; -591.000
207.207;  -61.225; -546.000; -443.000
207.353;   50.125;  185.000;  460.000
207.498;   14.625;  196.000;   85.000
207.643;  -51.475; -501.000; -370.000
207.789; -144.900;-1069.000; -910.000
207.934;  -88.025; -665.000; -713.000
208.080;  -19.500; -154.000;   66.000
208.225;    1.925;  -22.000;  -57.000
208.370;  -82.900; -727.000; -619.000
208.516;  -86.825; -741.000; -487.000
208.661;  -30.325; -127.000;  -69.000
208.806;  -28.125; -165.000; -171.000
208.952; -118.125;-1044.000; -731.000
209.097;   65.175;  378.000;  349.000
209.242;  -47.225; -307.000; -382.000
209.387;   67.625;  392.000;  350.000
209.533;  -46.450; -321.000; -350.000
209.678;   76.950;  472.000;  543.000
209.823;  -63.300; -408.000; -310.000
209.969;  -94.700; -860.000; -757.000
210.114;  -99.775; -907.000; -719.000
210.259;  -98.750; -939.000; -889.000
210.404;  -10.900; -171.000;  103.000
210.549;   15.075;  108.000;    3.000
210.695;  -19.950;   -3.000;  -95.000
210.840;   41.175;   94.000;   67.000
210.985;  -62.700; -484.000; -303.000
211.130;   61.075;  268.000;  406.000
211.275;   -2.550;  207.000;  199.000
211.420;  -50.350; -300.000; -289.000
211.566;  -69.650; -536.000; -489.000
211.711;   13.150;  218.000;  157.000
211.856;  -65.825; -545.000; -519.000
212.001;    3.000;  151.000;   44.000
212.146;   22.175;  153.000;   49.000
212.291;  -23.175; -210.000; -186.000
212.436;  -18.425; -280.000;   -6.000
212.581;  -78.975; -685.000; -653.000
212.726;  -83.150; -487.000; -538.000
212.871;  -45.550; -552.000; -217.000
213.016; -154.900;-1172.000;-1029.000
213.161;   55.525;  406.000;  291.000
213.306;  -64.550; -435.000; -577.000
213.451;  -92.975; -778.000; -689.000
213.596;  -47.475; -455.000; -347.000
213.741;  -49.275; -448.000; -538.000
213.886;  -76.625; -498.000; -517.000
214.031;  -16.400; -294.000; -124.000
214.176;  -47.150; -408.000; -341.000
214.321;  -27.300; -296.000; -157.000
214.466;  -33.800; -163.000;  -43.000
214.611;   -2.925;  -61.000;  -10.000
214.756; -115.050; -948.000; -858.000
214.901;  -27.075; -388.000; -226.000
215.046; -122.050; -797.000; -825.000
215.191;   11.875;  128.000;   35.000
215.336;  -12.400; -157.000;  -19.000
215.480;  -64.075; -684.000; -505.000
215.625;  -15.700; -175.000;  -19.000
215.770;  -83.325; -757.000; -662.000
215.915;   -1.500;   -5.000;  -97.000
216.060;   -8.150; -113.000;  -21.000
216.205; -106.200; -731.000; -779.000
216.349;  -62.050; -470.000; -533.000
216.494; -135.125; -939.000; -867.000
216.639; -125.600; -823.000; -888.000
216.784;  -89.625; -577.000; -525.000
216.929;   51.750;  392.000;  281.000
217.073;  -14.225; -244.000;  -31.000
217.218;   10.600;   78.000;  -47.000
217.363;  -94.350; -656.000; -618.000
217.507;  -75.650; -623.000; -588.000
217.652; -119.175; -845.000; -874.000
217.797;  -95.900; -708.000; -659.000
217.942; -116.675; -856.000; -720.000
218.086;   67.300;  608.000;  539.000
218.231;  -21.300; -174.000;  -26.000
218.376;  -32.800; -337.000; -229.000
218.520;   -5.950;  -41.000;   96.000
218.665;  -24.800; -338.000; -204.000
218.810;  -50.450; -275.000; -233.000
218.954;    4.200;  201.000;   35.000
219.099; -111.550; -713.000; -963.000
219.243;  -62.675; -589.000; -554.000
219.388;  -29.700; -264.000; -136.000
219.532;   -2.425; -116.000; -116.000
219.677;  -82.400; -564.000; -521.000
219.822;    0.225;   33.000;   89.000
219.966;   -2.450;   17.000;  -99.000
220.111;  -42.850; -328.000;  -40.000
220.255; -103.050; -797.000; -750.000
220.400;  -22.800; -180.000; -146.000
220.544;  -70.475; -516.000; -450.000
220.689;  -55.950; -422.000; -451.000
220.833;  -25.600; -123.000;  -58.000
220.978;  -41.825; -393.000; -563.000
221.122;   17.550;  319.000;  307.000
221.267; -103.950; -906.000; -837.000
221.411;  -74.425; -478.000; -394.000
221.555;  -12.100; -104.000;  -23.000
221.700;  -40.425; -329.000; -222.000
221.844;   43.925;  255.000;  272.000
221.989;  -58.325; -328.000; -311.000
222.133;  -41.325; -289.000; -307.000
222.277;   -6.875;    5.000;   78.000
222.422;   18.150;  227.000;  113.000
222.566;  -41.025; -381.000; -214.000
222.711;  -49.450; -414.000; -479.000
222.855;  -76.250; -643.000; -586.000
222.999;  -92.900; -642.000; -717.000
223.144;  -19.500; -195.000; -194.000
223.288;   51.775;  423.000;  251.000
223.432;   23.450;  184.000;  230.000
223.576;   17.025;  152.000;  -21.000
223.721;   35.900;  364.000;  273.000
223.865;  -56.625; -472.000; -475.000
224.009;  203.775; 1673.000; 1631.000
224.153;  -82.075; -660.000; -671.000
224.298;  -74.975; -531.000; -489.000
224.442;  -11.625;  -74.000;  -33.000
224.586;   -5.475; -169.000; -106.000
224.730; -106.775; -858.000; -670.000
224.875; -111.350; -739.000; -688.000
225.019;   15.175;  102.000;  188.000
225.163;   55.900;  208.000;  341.000
225.307;   18.725;   97.000;  -91.000
225.451;   51.425;  360.000;  481.000
225.595;   32.950;  264.000;  176.000
225.739;   -9.625; -170.000;  -94.000
225.884;   -4.250;   86.000;    5.000
226.028; -106.825; -760.000; -626.000
226.172;  -34.300; -260.000; -273.000
226.316; -121.775; -941.000; -902.000
226.460;  -70.300; -645.000; -493.000
226.604;  -59.025; -406.000; -400.000
226.748; -114.200; -836.000; -733.000
226.892;  -35.050; -227.000; -181.000
227.036;  -57.350; -537.000; -447.000
227.180;  -62.125; -551.000; -375.000
227.324;  -71.600; -561.000; -580.000
227.468; -111.475; -819.000; -717.000
227.612;   20.825;  242.000;  -28.000
227.756; -103.825; -845.000; -698.000
227.900;   40.775;  342.000;  441.000
228.044;  -48.950; -509.000; -290.000
228.188;   52.575;  448.000;  568.000
228.332;  -87.050; -546.000; -472.000
228.476;  -25.550; -223.000; -149.000
228.620;  -24.875; -210.000; -150.000
228.764;   73.875;  431.000;  349.000
228.908;  -13.575; -155.000;   30.000
229.052;  -59.200; -615.000; -528.000
229.195;  -25.050; -172.000;   13.000
229.339;  -34.100; -235.000; -305.000
229.483;  -35.100;    5.000; -162.000
229.627;   10.200; -156.000;  139.000
229.771;  -46.500; -218.000; -294.000
229.915;    6.500;  230.000;   79.000
230.059; -106.625; -648.000; -663.000
230.202;  -36.000; -370.000; -317.000
230.346;  -28.300; -107.000;  107.000
230.490;  -65.775; -489.000; -521.000
230.634; -101.000; -736.000; -553.000
230.777;   66.475;  478.000;  509.000
230.921;  -56.300; -450.000; -359.000
231.065;  -37.025; -246.000; -286.000
231.209;   30.350;  261.000;  265.000
231.352;   12.975;   54.000;   40.000
231.496;    8.650;  568.000;  188.000
231.640;  -93.925; -693.000; -621.000
231.783;   45.375;  546.000;  525.000
231.927;  -45.350; -294.000; -365.000
232.071; -125.750; -962.000; -736.000
232.214; -125.100; -980.000; -764.000
232.358; -102.700; -683.000; -599.000
232.502;    1.800;  -19.000;    7.000
232.645; -142.175;-1090.000; -927.000
232.789;  -19.225; -257.000; -218.000
232.933;  -43.025; -407.000; -224.000
233.076; -136.525;-1038.000; -897.000
233.220; -106.600; -752.000; -777.000
233.363;  -72.425; -669.000; -477.000
233.507;   64.275;  371.000;  129.000
233.650;  -95.825; -764.000; -834.000
233.794;   39.225;  438.000;  461.000
233.938;  -59.300; -530.000; -362.000
234.081;  -34.600;  -93.000;   31.000
234.225;  -72.250; -631.000; -539.000
234.368; -117.000; -773.000; -723.000
234.512;  -46.600; -385.000; -299.000
234.655;  -83.250; -582.000; -555.000
234.798;  -71.300; -493.000; -466.000
234.942; -138.925; -884.000;-1002.000
235.085;  -79.675; -651.000; -443.000
235.229;  -66.050; -405.000; -410.000
235.372;  -48.300; -247.000; -191.000
235.516;  -61.625; -397.000; -321.000
235.659;   31.675;   92.000;  121.000
235.802;  -20.250;  -38.000;  -22.000
235.946;   19.500;  335.000;  215.000
236.089;   19.450;  126.000;  250.000
236.233;   44.925;  275.000;  298.000
236.376;  -50.650; -235.000; -378.000
236.519;  -56.475; -297.000; -319.000
236.663;  -17.175; -215.000; -117.000
236.806; -144.100;-1029.000; -999.000
236.949;   61.775;  543.000;  431.000
237.092;   61.750;  412.000;  391.000
237.236;  -92.700; -589.000; -502.000
237.379;   69.250;  352.000;  428.000
237.522; -117.675; -879.000; -768.000
237.666;  -20.625; -271.000;   18.000
237.809; -120.425; -851.000; -823.000
237.952;   29.425;  469.000;  271.000
238.095;  -62.450; -447.000; -442.000
238.238;   76.550;  688.000;  700.000
238.382;   -7.275;  166.000;  103.000
238.525;  -70.600; -598.000; -511.000
238.668; -138.475;-1060.000; -985.000
238.811;  -92.300; -638.000; -643.000
238.954;  -63.175; -483.000; -334.000
239.097;   93.450;  617.000;  664.000
239.241;   21.800;  394.000;  326.000
239.384;  -44.200; -254.000; -214.000
239.527;  -67.775; -424.000; -224.000
239.670; -141.850; -994.000;-1091.000
239.813; -115.625; -696.000; -658.000
239.956;   78.525;  579.000;  473.000
240.099; -116.425; -778.000; -725.000
240.242;   59.200;  428.000;  432.000
240.385;   51.875;  466.000;  450.000
240.528;  -72.950; -706.000; -473.000
240.671;   -1.100;  189.000;  134.000
240.814;  -43.450; -441.000; -158.000
240.957; -106.800; -767.000; -578.000
241.100;  -87.525; -779.000; -755.000
241.243; -149.900;-1234.000; -893.000
241.386;  -63.500; -508.000; -379.000
241.529;  -93.575; -735.000; -547.000
241.672;  -59.375; -566.000; -495.000
241.815; -120.600; -832.000; -808.000
241.958;  -23.350; -125.000; -182.000
242.101;  -92.400; -545.000; -390.000
242.244;  -33.550; -270.000; -325.000
242.387;  -37.475; -304.000; -246.000
242.530;   48.000;  470.000;  134.000
242.673;  -49.550; -381.000; -309.000
242.815; -111.975; -925.000; -899.000
242.958;  -71.150; -482.000; -381.000
243.101;   11.825;  132.000;  187.000
243.244;  -98.500; -564.000; -521.000
243.387;  -59.850; -313.000; -316.000
243.530;  -94.225; -657.000; -674.000
243.672;   -5.100;   43.000;  -92.000
243.815;  -61.225; -355.000; -283.000
243.958;   13.850;   98.000;  -26.000
244.101;  -12.525;   59.000;  -16.000
244.243;  -18.800;  -47.000;  101.000
244.386; -114.525; -761.000; -630.000
244.529;  -25.075; -132.000; -139.000
244.672; -157.625;-1154.000; -951.000
244.814; -103.200; -621.000; -794.000
244.957;  -56.775; -380.000; -304.000
245.100;  -58.350; -489.000; -489.000
245.242;  -57.350; -387.000; -374.000
245.385;  -10.375;  -59.000;  -39.000
245.528; -114.300; -871.000; -705.000
245.670;   76.475;  612.000;  634.000
245.813; -107.675; -599.000; -547.000
245.956;  -31.775; -324.000; -275.000
246.098;  -79.875; -508.000; -650.000
246.241;    4.950;  194.000;   48.000
246.383;  -12.700; -119.000;  -73.000
246.526;  -92.725; -454.000; -525.000
246.669; -120.275; -889.000; -780.000
246.811;   20.775;  172.000;   -1.000
246.954;  -61.550; -512.000; -426.000
247.096;  -34.850;  -84.000;   -6.000
247.239;  -73.600; -482.000; -445.000
247.381;  -72.950; -647.000; -488.000
247.524;   68.600;  645.000;  679.000
247.666;  -12.725;   58.000;   11.000
247.809; -112.650; -887.000; -691.000
247.951;  -15.750;  -75.000;  138.000
248.094;   26.725;  432.000;  308.000
248.236; -159.600;-1262.000;-1238.000
248.378;   10.175; -356.000;  -81.000
248.521;  -26.925; -334.000; -337.000
248.663;  -40.625; -236.000; -267.000
248.806;  -20.550; -300.000; -266.000
248.948;  -92.175; -886.000; -763.000
249.090;  -49.100; -428.000; -398.000
249.233;  -50.525; -344.000; -381.000
249.375;  -63.150; -474.000; -451.000
249.518;  -10.950;  -83.000; -133.000
249.660;  -14.175; -103.000;    3.000
249.802; -162.450;-1303.000;-1189.000
249.945;  -89.100; -612.000; -540.000
250.087; -118.500; -834.000; -768.000
250.229;  -51.200; -362.000; -480.000
250.371;  -79.200; -494.000; -439.000
250.514;  -47.875; -310.000; -244.000
250.656;   -1.775;   69.000;  102.000
250.798; -119.000; -849.000; -800.000
250.940;  -72.175; -322.000; -322.000
251.083;  -27.375; -335.000; -111.000
251.225;   61.375;  338.000;  310.000
251.367;  -39.325; -274.000; -373.000
251.509;  -38.450; -265.000; -210.000
251.651;  -96.325; -731.000; -671.000
251.794;   44.650;  538.000;  632.000
251.936; -116.950; -821.000; -747.000
252.078;  -85.675; -540.000; -461.000
252.220;  -68.300; -645.000; -477.000
252.362;   98.650;  344.000;  462.000
252.504;  -61.150; -677.000; -584.000
252.646; -113.275; -875.000; -722.000
252.788;    0.825;   14.000; -128.000
252.931;  -36.875; -257.000; -253.000
253.073;  -46.425; -376.000; -317.000
253.215;  -11.200;  141.000;  122.000
253.357;  -13.425;   82.000; -153.000
253.499;  -64.175; -374.000; -234.000
253.641;  -90.800; -749.000; -594.000
253.783; -102.250; -609.000; -527.000
253.925;  -79.425; -586.000; -591.000
254.067; -104.125; -744.000; -667.000
254.209;  -31.925; -391.000; -259.000
254.351; -144.550; -865.000; -883.000
254.493;  -74.775; -441.000; -417.000
254.635; -129.950; -936.000; -818.000
254.777;  -98.625; -752.000; -687.000
254.918;  -73.350; -512.000; -430.000
255.060;  -70.725; -551.000; -395.000
255.202;  -45.425; -473.000; -261.000
255.344;  -79.075; -658.000; -455.000
255.486;  -71.025; -471.000; -406.000
255.628; -107.600; -780.000; -781.000
255.770;  -93.650; -676.000; -536.000
255.912;  -63.800; -559.000; -468.000
256.053;  -96.600; -730.000; -508.000
256.195;  157.425; 1008.000;  903.000
256.337; -104.050; -861.000; -595.000
256.479;   65.275;  532.000;  416.000
256.621;  -49.525; -394.000; -212.000
256.762;  -99.775; -789.000; -742.000
256.904;   52.550;  485.000;  487.000
257.046;  -48.375; -381.000; -271.000
257.188;  -42.950; -351.000; -264.000
257.329;  -65.150; -525.000; -464.000
257.471; -116.300; -939.000; -807.000
257.613;  -56.475; -584.000; -498.000
257.755; -144.500;-1073.000; -982.000
257.896;   26.900;  286.000;  392.000
258.038;  -69.350; -403.000; -352.000
258.180;  -49.800; -354.000; -279.000
258.321;  -84.725; -581.000; -457.000
258.463;   -4.850;  -71.000;  133.000
258.605;  -97.025; -562.000; -570.000
258.746; -103.600; -886.000; -772.000
258.888; -149.050;-1026.000;-1020.000
259.029;   24.550;  121.000;   -8.000
259.171;  -84.625; -614.000; -550.000
259.313;  -11.700;  -49.000;  -47.000
259.454;  -75.575; -536.000; -414.000
259.596;  -71.200; -483.000; -390.000
259.737;  -69.075; -590.000; -474.000
259.879;   38.200;  217.000;  311.000
260.020;   82.800;  901.000;  636.000
260.162;  -39.875; -146.000; -253.000
260.303; -116.850; -768.000; -687.000
260.445;  -82.525; -609.000; -613.000
260.586;   25.100;  392.000;  157.000
260.728;  -41.500; -360.000; -248.000
260.869; -123.925; -350.000; -343.000
261.011;   68.775;  706.000;  537.000
261.152;  -68.750; -479.000; -319.000
261.293;  -60.825; -576.000; -595.000
261.435;  -34.650; -219.000; -184.000
261.576;  -55.875; -455.000; -325.000
261.718;   52.500;  420.000;  470.000
261.859; -128.650; -940.000; -949.000
262.000; -131.525; -951.000;-1016.000
262.142;  -37.300;  -52.000;  -60.000
262.283; -127.900; -808.000; -691.000
262.424;  -83.725; -666.000; -625.000
262.566; -166.500;-1161.000; -983.000
262.707; -125.200; -840.000; -830.000
262.848; -115.150; -769.000; -726.000
262.990;  -36.450; -362.000; -345.000
263.131;   72.975;  650.000;  681.000
263.272;   -5.725;  -61.000;  -41.000
263.413;  -98.025; -589.000; -561.000
263.555;  -79.750; -669.000; -143.000
263.696;  -84.950; -550.000; -641.000
263.837;  -59.325; -449.000; -551.000
263.978;   -4.625;   -5.000;  -77.000
264.119;  -48.100; -283.000; -264.000
264.261; -117.025; -847.000; -630.000
264.402;  -11.975;   33.000;   40.000
264.543;  -68.400; -509.000; -524.000
264.684;   -4.400;   61.000;  -50.000
264.825;  -81.150; -816.000; -538.000
264.966;  -14.825;  -84.000;  -67.000
265.107; -126.175; -646.000; -670.000
265.248; -111.575; -825.000; -812.000
265.390;  -22.325;  152.000;   -9.000
265.531;  -23.225; -238.000; -107.000
265.672;  -97.675; -557.000; -630.000
265.813;   65.325;  563.000;  439.000
265.954; -145.100; -959.000; -940.000
266.095;  -17.325; -372.000; -322.000
266.236; -109.800; -686.000; -548.000
266.377;  -58.250; -243.000; -297.000
266.518;  -69.800; -619.000; -547.000
266.659;   21.750;  170.000;  268.000
266.800;   -8.550;   83.000;   85.000
266.941;  -80.125; -487.000; -478.000
267.082;   17.750;  354.000;   99.000
267.223;  -65.525; -344.000; -273.000
267.364; -124.725; -892.000; -686.000
267.504;  -16.025;    3.000;  135.000
267.645;   -0.075;  160.000;   67.000
267.786;  -24.000; -147.000;  -86.000
267.927;  -76.400; -473.000; -379.000
268.068;  -18.550; -186.000;  -61.000
268.209;  -36.850; -175.000; -413.000
268.350;  -66.850; -388.000; -532.000
268.490;  -82.075; -648.000; -521.000
268.631;   22.125;  127.000;  225.000
268.772; -125.075; -874.000; -647.000
268.913;  -57.725; -328.000; -476.000
269.054;  -25.650; -117.000;   12.000
269.194;  -45.025; -418.000; -402.000
269.335; -165.750;-1137.000;-1074.000
269.476;  -18.125;   33.000;  -35.000
269.617;  -55.400; -347.000; -392.000
269.757;  -90.875; -713.000; -646.000
269.898; -106.975; -856.000; -613.000
270.039;  -71.700; -415.000; -405.000
270.180; -134.425; -952.000; -816.000
270.320;  -32.200; -190.000; -250.000
270.461;  -44.275; -277.000; -249.000
270.602;  -19.900; -186.000; -156.000
270.742; -116.025; -868.000; -943.000
270.883;  -60.550; -442.000; -390.000
271.023;  -58.850; -358.000; -357.000
271.164;  -75.000; -607.000; -528.000
271.305;  -94.525; -666.000; -654.000
271.445;  -97.925; -722.000; -683.000
271.586;  -69.200; -462.000; -283.000
271.726;  -44.650; -397.000; -322.000
271.867;  -54.450; -594.000; -534.000
272.008;  174.925; -473.000; -285.000
272.148;  131.300;  462.000;  468.000
272.289;    6.975; -113.000; -181.000
272.429;   26.800;   19.000;  185.000
272.570; -106.800; -633.000; -737.000
272.710; -105.700; -825.000; -775.000
272.851;  -31.350;  113.000; -130.000
272.991; -166.475;-1173.000;-1077.000
273.131;  -75.025; -419.000; -459.000
273.272;  -86.725; -683.000; -723.000
273.412;    1.500; -143.000;  -31.000
273.553;  -55.300; -488.000; -507.000
273.693;  128.100;  913.000;  858.000
273.834;  -98.150; -894.000; -692.000
273.974;  -75.050; -664.000; -615.000
274.114;  -99.825; -772.000; -560.000
274.255;   76.050;  414.000;  373.000
274.395;   -0.150; -180.000; -125.000
274.535;   32.650;  199.000;  350.000
274.676;   21.675;  225.000;   94.000
274.816;   -5.800;  110.000;   34.000
274.956;  -91.700; -624.000; -690.000
275.097;  -61.550;-1014.000; -922.000
275.237; -117.275; -913.000; -803.000
275.377; -109.900; -778.000; -689.000
275.517; -149.400; -878.000; -937.000
275.658;  -71.375; -590.000; -555.000
275.798;  -65.100; -606.000; -413.000
275.938;   11.425;  215.000;  323.000
276.078; -109.600; -626.000; -395.000
276.218;   -2.700;   99.000;  104.000
276.359; -134.650;-1026.000;-1024.000
276.499;  -66.150; -605.000; -446.000
276.639;  -43.600; -305.000; -151.000
276.779;  -49.400; -475.000; -357.000
276.919; -117.075; -783.000; -624.000
277.059;  -29.525; -261.000; -212.000
277.199;  -65.450; -357.000; -259.000
277.340;   55.675;  287.000;  175.000
277.480; -119.075; -840.000; -693.000
277.620;   27.350;  192.000;   16.000
277.760; -205.150;-1533.000;-1294.000
277.900;   18.475;  113.000;   33.000
278.040;   12.275;  137.000;  159.000
278.180;   35.650;  270.000;  170.000
278.320;   -4.550;   21.000;   56.000
278.460;  -69.675; -443.000; -469.000
278.600;  -90.775; -708.000; -598.000
278.740;   54.825;  448.000;  224.000
278.880;  -63.725; -768.000; -791.000
279.020;  -17.900; -194.000; -144.000
279.160;  -94.450; -672.000; -595.000
279.300; -118.825; -926.000; -873.000
279.440;  -83.600; -709.000; -622.000
279.579;  -14.725;-1014.000; -929.000
279.719;  -54.625; -410.000; -394.000
279.859;   67.125;   -4.000;   41.000
279.999;   26.450; -208.000;  101.000
280.139;  -23.250; -435.000; -387.000
280.279;  -78.775; -708.000; -745.000
280.419;  -30.975; -229.000; -147.000
280.559;  -37.525; -259.000; -180.000
280.698;  -90.525; -790.000; -639.000
280.838;  -83.800; -778.000; -800.000
280.978; -113.375; -846.000; -790.000
281.118; -124.600; -811.000; -704.000
281.257;    0.425;   24.000;    6.000
281.397; -115.750;-1094.000; -960.000
281.537;  -80.675; -599.000; -712.000
281.677;  -20.750; -150.000; -101.000
281.816;  -86.500; -700.000; -630.000
281.956;  -20.525; -193.000; -257.000
282.096;  -78.500; -539.000; -396.000
282.235; -107.950; -672.000; -638.000
282.375;  -25.675; -243.000;  -98.000
282.515;  -98.275; -715.000; -707.000
282.654;   33.500;   29.000;  106.000
282.794;   21.475;  388.000;  244.000
282.934;  -74.250; -530.000; -491.000
283.073; -145.250;-1030.000; -857.000
283.213;  -65.200; -460.000; -467.000
283.353;  -34.175; -408.000; -349.000
283.492;  -41.250; -264.000; -296.000
283.632;  -67.100; -254.000; -168.000
283.771; -102.525; -859.000; -730.000
283.911;  -44.800; -369.000; -260.000
284.050; -105.175; -794.000; -748.000
284.190; -162.200;-1229.000;-1096.000
284.329; -151.200;-1055.000; -964.000
284.469;  -69.550; -516.000; -591.000
284.608;  -60.150; -559.000; -598.000
284.748;  -83.700; -614.000; -570.000
284.887;   -9.775;  -87.000;  -20.000
285.027; -127.125; -844.000; -892.000
285.166;  -49.975; -192.000; -249.000
285.306;   15.325; -116.000;  -33.000
285.445;  -48.475; -229.000; -343.000
285.584;  -99.600; -630.000; -494.000
285.724;  -42.225; -282.000; -322.000
285.863; -124.075; -857.000; -507.000
286.002;  -45.150; -366.000; -276.000
286.142; -110.475; -715.000; -622.000
286.281;  -73.150; -525.000; -493.000
286.420;  -80.850; -554.000; -417.000
286.560;   77.325;  653.000;  623.000
286.699; -140.275; -958.000; -912.000
286.838;  -94.125; -590.000; -591.000
286.978;  -89.975; -533.000; -537.000
287.117; -130.750;-1085.000; -950.000
287.256;  -38.700; -228.000; -211.000
287.395;  -59.175; -197.000; -378.000
287.535;  -58.850; -370.000; -298.000
287.674;  -88.475; -509.000; -484.000
287.813;   45.225;  661.000;  533.000
287.952; -129.200;-1010.000; -871.000
288.091; -143.900;-1049.000; -915.000
288.231;   10.150;   13.000;   15.000
288.370; -178.025;-1217.000;-1200.000
288.509;  -89.025; -728.000; -645.000
288.648;  -98.100; -770.000; -548.000
288.787;  -23.925; -243.000;  -87.000
288.926;  -57.475; -454.000; -475.000
289.065;  116.225;  859.000;  672.000
289.204;  -51.275; -377.000; -217.000
289.344;  -91.150; -791.000; -690.000
289.483;   22.225;  416.000;  304.000
289.622;  -29.125; -291.000; -149.000
289.761;  -22.500; -309.000; -166.000
289.900; -111.500; -785.000; -626.000
290.039;  -17.925;  -12.000;  -95.000
290.178;  -33.750; -274.000; -180.000
290.317;  -83.100; -618.000; -479.000
290.456;  -70.125; -463.000; -451.000
290.595; -143.125; -961.000; -833.000
290.734; -143.550; -904.000; -891.000
290.873;  -69.925; -456.000; -420.000
291.011; -123.325; -833.000; -843.000
291.150; -108.650; -770.000; -682.000
291.289;  -34.500; -343.000; -110.000
291.428; -100.300; -599.000; -480.000
291.567;  -62.750; -370.000; -442.000
291.706;  -17.675;  109.000;  154.000
291.845;  -96.725; -597.000; -505.000
291.984; -167.225;-1234.000;-1061.000
292.122;   59.800;  602.000;  582.000
292.261;   39.275;  620.000;  463.000
292.400;   -6.000; -144.000;  211.000
292.539; -120.725; -959.000; -813.000
292.678;  -30.425; -325.000; -300.000
292.816; -146.875;-1136.000; -965.000
292.955;  -93.500; -844.000; -684.000
293.094;  -39.025; -173.000; -337.000
293.233;  -56.625; -556.000; -400.000
293.371;  -44.625; -225.000;  -84.000
293.510; -117.475; -866.000; -780.000
293.649; -129.850; -959.000; -924.000
293.787;  -64.675;-1083.000;-1012.000
293.926;  -12.575; -113.000;  -32.000
294.065;  -58.125; -379.000; -290.000
294.203;   44.625;  298.000;  406.000
294.342;   13.950;   74.000;  156.000
294.481; 6349.900;51180.000; -836.000
294.619;  -33.675; -425.000; -582.000
294.758; -155.950;-1230.000;-1137.000
294.896;   57.350; -125.000;    5.000
295.035; -129.850;-1040.000;-1006.000
295.174; -124.900;-1082.000; -954.000
295.312;  -41.975; -323.000; -203.000
295.451;  -25.750; -307.000; -428.000
295.589;  -49.800; -389.000; -518.000
295.728;   15.075; -292.000; -165.000
295.866;   -0.150;  -36.000;  -51.000
296.005;  -82.700; -584.000; -341.000
296.143;  -85.975; -558.000; -596.000
296.282; -110.275; -957.000; -881.000
296.420;  -81.950; -657.000; -557.000
296.559;  -97.425; -892.000; -633.000
296.697;   17.100; -847.000; -665.000
296.835;   44.175;-1141.000;-1002.000
296.974;   27.425;  -23.000;   39.000
297.112;   -0.250; -443.000; -504.000
297.251;  -95.275; -815.000; -755.000
297.389;   75.250; -576.000; -438.000
297.527;   28.650; -145.000;  -83.000
297.666;  -62.375; -486.000; -438.000
297.804;  -47.375; -404.000; -264.000
297.942;  -18.225; -136.000; -161.000
298.081;   -0.700; -183.000;   63.000
298.219;   60.525;  -17.000;  -19.000
298.357;   36.350; -144.000;  -71.000
298.495;   23.425; -810.000; -812.000
298.634;   71.175;  245.000;  219.000
298.772;   48.725; -220.000; -338.000
298.910;  -38.675; -309.000; -182.000
299.048;  -26.625; -130.000; -153.000
299.187;  -33.675; -350.000; -250.000
299.325;   13.750;   52.000;  122.000
299.463;   41.925; -389.000; -299.000
299.601;   82.725; -327.000; -271.000
299.739; -109.850; -908.000; -883.000
299.877;  -94.750; -791.000; -703.000
300.016;  -60.475;-1095.000; -935.000
300.154;  146.475;  -19.000; -161.000
300.292;   50.275; -428.000; -348.000
300.430;   22.150; -408.000; -291.000
300.568; -112.025; -940.000; -874.000
300.706;  -56.375; -366.000; -469.000
300.844;  -76.450;-1108.000; -979.000
300.982;  117.250;  246.000;  282.000
301.120; -114.850; -965.000; -866.000
301.258;  -80.825; -812.000; -705.000
301.396;   23.150;  104.000;  -41.000
301.534;   61.900; -218.000; -293.000
301.672;  -24.725; -664.000; -521.000
301.810;   18.800; -613.000; -545.000
301.948;   99.475;   53.000;  149.000
302.086;  604.125; -250.000;  -32.000
302.224;  896.125; -610.000; -585.000
302.362;   19.550; -558.000; -622.000
302.500;  -32.825; -923.000; -893.000
302.638;  101.575;  128.000;  245.000
302.776;  -11.425; -352.000; -408.000
302.913;   52.950;  447.000;  236.000
303.051;  -12.875;  -86.000;  -23.000
303.189;   44.050;   90.000;  118.000
303.327;  -41.050; -341.000; -256.000
303.465;  -99.000; -832.000; -588.000
303.603;  -80.075; -805.000; -604.000
303.740;   91.025;  417.000;  241.000
303.878;   14.925; -800.000; -759.000
304.016;  -94.550; -915.000; -790.000
304.154; -127.850;-1123.000;-1152.000
304.291;  -45.750; -505.000; -554.000
304.429;   12.975;  102.000;   74.000
304.567; -130.675; -908.000; -893.000
304.705;  -66.175; -408.000; -515.000
304.842;   76.275; -616.000; -540.000
304.980;   44.900;  215.000;   35.000
305.118;   28.225; -367.000; -365.000
305.255;  -80.450; -945.000; -927.000
305.393;   52.600;  178.000;  239.000
305.531; -117.125;-1173.000; -956.000
305.668;  -73.925; -663.000; -582.000
305.806;  116.300; -358.000; -439.000
305.943;   86.750; -629.000; -637.000
306.081;   45.125; -378.000; -267.000
306.219; -107.900; -863.000; -748.000
306.356;   -8.975;  158.000;   27.000
306.494;   94.000;  981.000;  761.000
306.631;   -9.050;  -11.000;  -55.000
306.769;  -13.450; -613.000; -485.000
306.906;  -24.200; -284.000; -258.000
307.044;  -74.300; -473.000; -488.000
307.181;  -71.800; -410.000; -332.000
307.319;   -7.550;  112.000;   87.000
307.456; -178.450;-1191.000;-1153.000
307.594; -109.050; -980.000; -727.000
307.731;  -14.050; -371.000; -164.000
307.868;   -8.125;  -15.000;   20.000
308.006; -126.350; -961.000; -847.000
308.143;  -77.625; -618.000; -330.000
308.281;  148.200;  -37.000; -254.000
308.418;  -27.125; -748.000; -640.000
308.555;  -76.875; -400.000; -250.000
308.693;  -95.800; -577.000; -573.000
308.830; -120.775; -712.000; -657.000
308.967;  -31.300; -215.000;  -95.000
309.105;  -62.725; -507.000; -396.000
309.242;   22.425; -468.000; -367.000
309.379;  271.900; -577.000; -655.000
309.517;  -68.000; -936.000; -948.000
309.654; -115.375; -910.000; -734.000
309.791;  -74.250; -662.000; -580.000
309.928; -136.775; -977.000; -914.000
310.065;  179.925;  819.000;  697.000
310.203;  -11.625; -825.000; -850.000
310.340;  -18.675; -465.000; -321.000
310.477;  -91.075; -412.000; -516.000
310.614;  -64.675; -383.000; -473.000
310.751;  -96.925; -427.000; -518.000
310.889;  -20.200;    1.000;   11.000
311.026; -152.825;-1161.000; -939.000
311.163;  -44.350; -386.000; -380.000
311.300;  -82.900; -512.000; -479.000
311.437;  -80.350; -658.000; -619.000
311.574; -160.575;-1226.000; -985.000
311.711;  -56.625; -595.000; -433.000
311.848;  -52.375; -380.000; -388.000
311.985;    2.850;  270.000;   93.000
312.122; -118.050; -932.000; -762.000
312.259; -134.425; -941.000; -994.000
312.396;  -98.375; -508.000; -551.000
312.533;  -95.800; -812.000; -790.000
312.670; -127.125;-1070.000; -898.000
312.807;  -39.675; -352.000; -367.000
312.944;  -88.050; -513.000; -611.000
313.081;  -42.525; -150.000; -415.000
313.218; -115.250;-1111.000; -867.000
313.355;    1.975; -531.000; -449.000
313.492;   -4.025; -455.000; -292.000
313.629;  122.325;  815.000;  735.000
313.766; -162.825;-1176.000;-1008.000
313.902;  -21.850; -186.000;   21.000
314.039;  -61.675; -372.000; -289.000
314.176;   26.750;  286.000;  192.000
314.313;  -71.575; -569.000; -473.000
314.450;  -86.400; -788.000; -684.000
314.587;  -66.100; -468.000; -480.000
314.723;  -12.300;  -78.000;  130.000
314.860;   35.300;  318.000;  332.000
314.997;   24.600;  223.000;  142.000
315.134;  -47.900; -385.000; -368.000
315.270;  -38.025; -480.000; -496.000
315.407; -140.650;-1094.000; -967.000
315.544;  -52.225; -657.000; -538.000
315.681;  -60.225; -681.000; -565.000
315.817;    8.175; -133.000; -176.000
315.954;   12.125; -613.000; -392.000
316.091; -130.625;-1045.000;-1023.000
316.227;  -34.750;  -71.000; -179.000
316.364;   -7.200;   23.000;    6.000
316.500;  -63.525; -113.000; -300.000
316.637;  -53.200; -181.000; -302.000
316.774;  -87.125; -625.000; -358.000
316.910; -101.750; -598.000; -629.000
317.047;  -75.275; -487.000; -351.000
317.183;  -49.200; -435.000; -566.000
317.320;  -15.100; -367.000; -321.000
317.456;  -71.250; -733.000; -805.000
317.593;  -99.125; -598.000; -641.000
317.729;  -11.300;  168.000;  -67.000
317.866; -201.975;-1434.000;-1285.000
318.002;  -96.725; -708.000; -948.000
318.139; -111.275; -883.000; -867.000
318.275; -108.200;-1003.000; -738.000
318.412;  -77.975; -517.000; -336.000
318.548;  -39.900; -751.000; -720.000
318.685; -106.175; -985.000; -888.000
318.821;  -89.050; -762.000; -735.000
318.957;  -23.525;   34.000;  -23.000
319.094;   32.975;  297.000;  154.000
319.230;  -77.050; -756.000; -742.000
319.367;  125.250; -471.000; -520.000
319.503;   50.375; -538.000; -436.000
319.639; -105.075; -877.000; -793.000
319.775;  -75.900; -750.000; -685.000
319.912;  -56.800; -424.000; -519.000
320.048;  -91.500;-1184.000;-1184.000
320.184;   73.050;   59.000;   70.000
320.321;  -52.925; -497.000; -467.000
320.457;   64.200;  475.000;  662.000
320.593;  -58.350; -375.000; -382.000
320.729; -105.175; -732.000; -734.000
320.866;  -80.550; -577.000; -635.000
321.002;  -78.975; -759.000; -809.000
321.138;  -33.850; -135.000; -211.000
321.274;   60.300; -148.000; -115.000
321.410;  -30.425; -585.000; -353.000
321.546;  -33.350;-1011.000; -911.000
321.683;   43.050;  400.000;  185.000
321.819;   -1.600;  -48.000; -117.000
321.955; -116.900; -743.000; -722.000
322.091;  -53.375; -585.000; -540.000
322.227;  -18.025; -382.000; -202.000
322.363;  -21.900; -320.000; -215.000
322.499;  -38.925; -343.000; -331.000
322.635;  149.350;  636.000;  443.000
322.771;   19.425; -139.000;   12.000
322.907;   82.150;  129.000;  327.000
323.043;  -28.550; -115.000; -206.000
323.179;  -47.025; -394.000; -363.000
323.315;    0.850; -401.000; -371.000
323.451;   77.175; -328.000; -236.000
323.587;   57.325;  -60.000;  -77.000
323.723;   14.925; -682.000; -601.000
323.859;   -7.325; -258.000;  -76.000
323.995;  -34.400; -467.000; -409.000
324.131; -126.950; -967.000; -892.000
324.267;  -37.075; -254.000; -276.000
324.402; -143.225; -960.000; -983.000
324.538;   -9.675; -279.000; -104.000
324.674;   11.275;  164.000;   77.000
324.810;  114.050;  226.000;  308.000
324.946;   -1.025; -810.000; -658.000
325.082;  -70.150; -568.000; -475.000
325.217;   -9.400;  -62.000;   16.000
325.353;  -96.775; -764.000; -659.000
325.489;  -92.075; -540.000; -506.000
325.625;  -80.850; -579.000; -525.000
325.760;   58.350;  517.000;  376.000
325.896;  -43.900; -515.000; -702.000
326.032;  -53.275; -403.000; -352.000
326.168;  -64.125; -462.000; -369.000
326.303;  -66.225; -352.000; -461.000
326.439;  -24.200; -336.000; -276.000
326.575;   -2.525; -190.000;  -29.000
326.710;  -16.200; -156.000;  -30.000
326.846;  -23.375;  146.000;  103.000
326.982; -101.800; -530.000; -548.000
327.117;  -77.900; -481.000; -442.000
327.253;  -94.775; -745.000; -742.000
327.388; -168.050;-1137.000;-1153.000
327.524;  -64.350; -811.000; -578.000
327.659;  -39.425;  -58.000;  -22.000
327.795;  -18.450;   69.000;   45.000
327.931;  -77.575; -723.000; -499.000
328.066;  -38.700; -417.000; -276.000
328.202;  -23.375;   12.000; -129.000
328.337;   84.425;  957.000;  713.000
328.473;   32.900;  -12.000;  -74.000
328.608;  -27.225; -256.000; -267.000
328.743;  -80.000; -799.000; -664.000
328.879;   22.300;  214.000;  114.000
329.014;  -31.150; -102.000; -122.000
329.150;  -81.300; -358.000; -483.000
329.285;  -92.250; -465.000; -466.000
329.421;  -59.100; -548.000; -246.000
329.556;  -25.275;  -36.000;   85.000
329.691; -106.500; -633.000; -615.000
329.827;  -79.050; -626.000; -480.000
329.962;  -53.500;  131.000; -301.000
330.097; -104.375; -673.000; -585.000
330.233;  -57.225; -410.000; -223.000
330.368; -130.275; -839.000; -628.000
330.503;  -26.125;    3.000;   98.000
330.638;   -4.025;  -93.000; -125.000
330.774;  -53.375; -609.000; -530.000
330.909;  -48.450; -434.000; -244.000
331.044;  -92.450; -714.000; -708.000
331.179; -169.600;-1217.000;-1109.000
331.315;    4.975;   77.000;   20.000
331.450;    5.775;  157.000;  285.000
331.585;  -89.225; -805.000; -706.000
331.720;  -97.000; -510.000; -460.000
331.855;   -7.675;  -35.000; -102.000
331.990;  240.150;   62.000;  138.000
332.126;  124.325; -110.000;   71.000
332.261;  -11.325; -379.000; -265.000
332.396;   -9.575; -135.000; -242.000
332.531;  -92.100;-1074.000;-1031.000
332.666;   35.575; -519.000; -363.000
332.801; -110.025; -726.000; -807.000
332.936;  -30.150; -192.000; -122.000
333.071; -153.100; -870.000; -817.000
333.206;    1.550;  307.000;  379.000
333.341;   30.350;  344.000;  418.000
333.476;  -91.975; -627.000; -623.000
333.611;  -35.925; -251.000; -173.000
333.746;  -46.075; -381.000; -464.000
333.881; -117.450; -973.000; -935.000
334.016; -133.000; -936.000; -917.000
334.151; -130.550; -746.000; -702.000
334.286;   19.200;  152.000;  186.000
334.421;  -30.200; -125.000; -178.000
334.556;  -80.900; -611.000; -567.000
334.690;  -99.900; -631.000; -577.000
334.825;   51.975;  381.000;   83.000
334.960;  -72.750; -285.000; -413.000
335.095;   13.050;  135.000;  -91.000
335.230; -111.225; -722.000; -738.000
335.365; -139.450;-1084.000; -990.000
335.499; -135.950;-1108.000;-1037.000
335.634;    5.975;    9.000;  534.000
335.769; -105.275; -755.000; -720.000
335.904;  -61.725; -603.000; -561.000
336.038;  -60.350; -735.000; -657.000
336.173; -122.900;-1206.000;-1194.000
336.308;   13.525; -116.000; -189.000
336.443;   12.700; -544.000; -634.000
336.577;  -85.150; -936.000; -787.000
336.712;   55.150;   -4.000;  -12.000
336.847;  -46.050; -724.000; -607.000
336.981;   58.050; -272.000; -208.000
337.116;  273.800;  615.000;  501.000
337.250;  135.025; -434.000; -421.000
337.385;  266.025; -297.000; -208.000
337.520;   92.925; -632.000; -603.000
337.654;  -53.875; -215.000; -126.000
337.789; -140.100; -989.000; -933.000
337.923;  -34.925; -104.000; -205.000
338.058;  -91.125; -673.000; -738.000
338.192;  -54.225; -611.000; -488.000
338.327;  -14.125;  -18.000; -155.000
338.461;  -74.475; -299.000; -469.000
338.596;  -96.675; -780.000; -638.000
338.730;  -97.800; -767.000; -803.000
338.865;   83.200;  -46.000; -140.000
338.999;  -56.000; -846.000; -702.000
339.134;  -34.900; -634.000; -536.000
339.268;    9.725; -741.000; -603.000
339.403;  372.325; -740.000; -775.000
339.537;  124.675; -894.000; -820.000
339.671; -126.450; -829.000; -813.000
339.806;  -77.475; -556.000; -512.000
339.940;    6.825; -261.000; -235.000
340.074; -105.125; -685.000; -510.000
340.209;  -55.150; -351.000; -230.000
340.343;  -93.550; -517.000; -573.000
340.477;  145.650;  998.000; 1036.000
340.612;  -47.575;-1033.000; -900.000
340.746;  129.700; -199.000; -243.000
340.880;  -78.825; -924.000; -785.000
341.014;  -29.575;  -45.000; -154.000
341.149; -124.100; -756.000; -718.000
341.283; -111.275; -839.000; -754.000
341.417; -114.875;-1124.000; -938.000
341.551;  115.075; -768.000; -708.000
341.685;  -49.250; -633.000; -611.000
341.820;  -59.250; -562.000; -493.000
341.954;  -46.200; -218.000; -349.000
342.088; -157.575;-1102.000;-1019.000
342.222;   53.050;  565.000;  618.000
342.356;  -76.700; -395.000; -335.000
342.490;  -95.450; -880.000; -841.000
342.624;  -44.250; -339.000; -242.000
342.758;  -11.325; -364.000; -312.000
342.892;  -64.475; -710.000; -585.000
343.026;  -40.650;  -58.000; -116.000
343.160;  -67.000; -426.000; -376.000
343.294;  -95.850; -474.000; -337.000
343.428;  -39.300; -488.000; -448.000
343.562;  -17.700; -172.000;  -23.000
343.696;  -22.125; -385.000; -314.000
343.830;  -44.550; -362.000; -356.000
343.964;   11.975; -231.000; -168.000
344.098;  869.025;  199.000;   70.000
344.232;  727.925; -266.000; -127.000
344.366;   75.925; -567.000; -453.000
344.500;   37.000; -665.000; -744.000
344.634;   17.100; -324.000; -164.000
344.768;  -20.600; -531.000; -341.000
344.902;   11.200;  278.000;  256.000
345.035;  -72.750; -556.000; -496.000
345.169; -130.025; -933.000; -656.000
345.303;  -41.675; -308.000; -482.000
345.437;  -90.550; -826.000; -717.000
345.571;  -90.825; -675.000; -594.000
345.704;  -73.800; -309.000; -532.000
345.838;  -15.850; -331.000; -284.000
345.972;  -33.925; -543.000; -495.000
346.106;  149.600; -179.000; -190.000
346.239;  387.850; -312.000; -243.000
346.373;   -7.875; -343.000; -302.000
346.507; -145.225; -950.000; -962.000
346.640;  126.850;  -30.000;   13.000
346.774;  -60.975; -650.000; -797.000
346.908;  -28.450; -138.000;  -11.000
347.041; -104.225; -646.000; -593.000
347.175;   -7.750;  259.000;   27.000
347.309;  -81.925; -698.000; -628.000
347.442; -109.000; -883.000; -732.000
347.576;  262.950;  670.000;  668.000
347.709;  170.600; -123.000;  -52.000
347.843; -101.525; -933.000; -825.000
347.976;   35.375;  235.000;  294.000
348.110; -192.000;-1268.000;-1186.000
348.243; -103.600; -679.000; -772.000
348.377;  -19.175;  -26.000;   60.000
348.510;   29.425;  403.000;  540.000
348.644;  -40.550;  -37.000; -159.000
348.777;    4.225;  180.000;  191.000
348.911;  -52.975; -142.000; -112.000
349.044;  162.825;  471.000;  448.000
349.178;  137.025;-1069.000;-1006.000
349.311;  112.425;  141.000;  255.000
349.444;   -3.200; -927.000; -813.000
349.578;  -24.225; -347.000; -200.000
349.711; -113.375; -959.000; -862.000
349.845;   -8.850; -661.000; -591.000
349.978; -150.150;-1224.000;-1137.000
350.111;  -89.600; -546.000; -612.000
350.244;  -81.550; -596.000; -700.000
350.378;    3.750; -392.000; -393.000
350.511;  -77.925; -393.000; -426.000
350.644; -115.450; -808.000; -806.000
350.778;   11.700;  168.000;  104.000
350.911;  -10.600;  134.000;  140.000
351.044; -102.075; -685.000; -615.000
351.177;  -44.050; -321.000; -281.000
351.310;  -28.025;    3.000; -131.000
351.444;  -81.900; -888.000; -788.000
351.577;   96.725;  140.000;   90.000
351.710;   77.275;  593.000;  417.000
351.843;  -46.825; -165.000;  -77.000
351.976;  -12.300;  149.000;  -79.000
352.109;  -93.825; -621.000; -612.000
352.242;  -22.175; -464.000; -419.000
352.376;  -57.400; -580.000; -636.000
352.509;  143.025; -437.000; -356.000
352.642;    1.625; -654.000; -604.000
352.775;   52.975; -141.000;  -98.000
352.908; -116.450; -933.000; -904.000
353.041; -106.650; -814.000; -824.000
353.174;  -58.425; -551.000; -424.000
353.307;  -88.575; -753.000; -764.000
353.440;   75.700;  541.000;  453.000
353.573; -106.875; -957.000;-1008.000
353.706;  -66.775; -384.000; -558.000
353.839;  -24.400; -264.000; -220.000
353.971;  -98.650; -657.000; -512.000
354.104;  -92.275; -896.000; -835.000
354.237;  -45.350; -627.000; -662.000
354.370;  -97.150; -846.000; -879.000
354.503; -195.450;-1231.000;-1308.000
354.636;  -47.225; -529.000; -348.000
354.769; -140.050; -937.000; -860.000
354.902;  -30.550; -230.000; -139.000
355.034;  -20.475; -164.000; -220.000
355.167;  -15.725; -262.000; -162.000
355.300;  -86.375;-1061.000; -880.000
355.433;  972.725;  -71.000;  -14.000
355.565; 1526.525; -402.000; -384.000
355.698;  369.650; -356.000; -296.000
355.831;  -10.600; -882.000; -801.000
355.964;   80.800; -285.000; -170.000
356.096;  -89.275; -856.000; -843.000
356.229;  -14.750; -523.000; -530.000
356.362;  319.525; -373.000; -266.000
356.494;  604.725; -229.000; -162.000
356.627;  469.225;  269.000;  377.000
356.760;  653.075;  120.000;   53.000
356.892;  969.300; -286.000; -601.000
357.025;  616.575;  403.000;  389.000
357.157;  560.175; -167.000; -179.000
357.290;  692.075; -856.000; -713.000
357.423;  205.600; -667.000; -556.000
357.555;  101.450; -217.000; -228.000
357.688;  123.525; -483.000; -364.000
357.820;  444.475; -870.000; -877.000
357.953; 3705.325; -563.000; -589.000
358.085;  801.800; -632.000; -612.000
358.218; 1030.400;-1131.000; -932.000
358.350;  180.775;  -58.000;  312.000
358.483; -138.125;-1300.000;-1187.000
358.615;  -23.350;-1182.000;-1078.000
358.747;  -72.750;-1187.000;-1058.000
358.880;    6.750; -810.000; -744.000
359.012;  -10.450; -376.000; -202.000
359.145;  -44.875; -480.000; -511.000
359.277;   54.950; -962.000; -913.000
359.409; 3043.025;  536.000;  231.000
359.542;  802.200; -738.000; -688.000
359.674;   62.725;   46.000;   13.000
359.806;  -61.200; -565.000; -438.000
359.939;  -37.575; -617.000; -516.000
360.071;  -30.425; -583.000; -579.000
360.203;  -25.050; -411.000; -364.000
360.335;   46.550;  164.000;  -16.000
360.468;  180.200; -249.000; -307.000
360.600; 2449.625; -547.000; -454.000
360.732; 2911.200; -546.000; -423.000
360.864;  403.400;-1216.000;-1044.000
360.996;  252.650; -516.000; -554.000
361.129;   33.450; -389.000; -598.000
361.261;   16.475;  110.000; -113.000
361.393;  -47.950; -252.000; -214.000
361.525;   16.125;   94.000;  244.000
361.657;  -59.200; -821.000; -703.000
361.789;   -0.650; -139.000; -155.000
361.921;  207.825; -642.000; -593.000
362.053;  244.650;  524.000;  541.000
362.185;   36.875;  288.000;   72.000
362.318;  -89.100; -709.000; -705.000
362.450;  106.600;  294.000;  444.000
362.582;   71.300; -913.000; -870.000
362.714;  -44.650; -353.000; -332.000
362.846;  -87.550; -606.000; -490.000
362.978; -133.375; -941.000; -811.000
363.109;   32.925; -161.000; -260.000
363.241;  404.700; -739.000; -749.000
363.373;  430.850; -649.000; -564.000
363.505;  668.050; -186.000;  -91.000
363.637;  171.575; -787.000; -601.000
363.769; -126.275;-1067.000;-1080.000
363.901;  -74.200; -596.000; -654.000
364.033; -128.375;-1103.000;-1062.000
364.165;   -4.400; -283.000; -283.000
364.296;   66.075; -316.000; -177.000
364.428;   68.050;-1344.000;-1220.000
364.560;  -68.050; -679.000; -661.000
364.692;  -64.075; -738.000; -835.000
364.824;  216.525; -588.000; -456.000
364.955;  429.725; -402.000; -564.000
365.087;  976.950;-1097.000; -852.000
365.219;   28.650; -686.000; -816.000
365.351;  -89.175; -526.000; -572.000
365.482;   34.750;  300.000;  240.000
365.614;  -44.125; -402.000; -314.000
365.746;  -91.875; -729.000; -752.000
365.877; -116.200; -706.000; -672.000
366.009;  268.650;  -35.000;  -62.000
366.141;  -98.675;-1249.000;-1134.000
366.272; -117.150; -803.000; -719.000
366.404; -124.350;-1005.000; -874.000
366.535;  -15.550; -139.000;  -12.000
366.667; -115.650; -644.000; -649.000
366.799;   35.075;  353.000;  203.000
366.930; -137.575; -862.000; -996.000
367.062;  134.150; -639.000; -613.000
367.193;  147.300; -872.000; -842.000
367.325;  -60.000; -580.000; -684.000
367.456;   26.825; -246.000;   31.000
367.588;  175.675; -371.000; -318.000
367.719;    6.250;  -44.000;  -45.000
367.851;  -24.700; -222.000; -241.000
367.982;  -76.550; -875.000; -732.000
368.113;   74.800; -475.000; -358.000
368.245; -122.975; -960.000; -841.000
368.376;  -29.025; -254.000; -302.000
368.508;  -55.400; -188.000; -263.000
368.639; -145.625;-1166.000;-1034.000
368.770;  -26.775; -670.000; -589.000
368.902;  -79.400; -836.000; -926.000
369.033; -114.425; -906.000; -855.000
369.164;  -56.225; -720.000; -653.000
369.296; -111.725; -452.000; -601.000
369.427;   -5.850; -209.000; -144.000
369.558;  -57.225; -593.000; -377.000
369.689;  -98.600; -721.000; -569.000
369.821; -135.400; -951.000; -845.000
369.952;  -31.475;   42.000; -108.000
370.083;  -50.900; -229.000; -108.000
370.214;  -88.900; -735.000; -650.000
370.345;  -28.550;   65.000;   81.000
370.477;  -76.300; -810.000; -790.000
370.608;  202.225; -328.000; -264.000
370.739;  -51.900;-1233.000;-1292.000
370.870;  -65.000;-1102.000; -923.000
371.001;   70.525; -378.000; -467.000
371.132;  -83.900; -754.000; -735.000
371.263;  -23.700;  -42.000; -148.000
371.394; -133.375; -841.000; -748.000
371.525;   23.675;  345.000;  225.000
371.657;  -91.625; -808.000; -670.000
371.788;   65.775;  103.000;  199.000
371.919;  131.275; -384.000; -304.000
372.050; 3524.425;  -91.000; -156.000
372.181; 1063.000; -188.000; -294.000
372.311;  349.050;   42.000; -127.000
372.442;   31.975; -457.000; -451.000
372.573;  -26.500; -444.000; -340.000
372.704; -127.675;-1008.000; -980.000
372.835;   77.375; -228.000; -289.000
372.966;  -65.775; -646.000; -554.000
373.097;  -72.825; -575.000; -711.000
373.228;  -31.950; -717.000; -542.000
373.359;  119.175; -824.000; -536.000
373.490;  871.900; -881.000; -727.000
373.620; 1110.875;-1001.000; -803.000
373.751; 1674.925; -332.000; -396.000
373.882;  763.275; -663.000; -733.000
374.013;   60.275; -449.000; -262.000
374.143;  -53.725; -581.000; -659.000
374.274;  -99.875; -987.000; -908.000
374.405;  149.800; -388.000; -276.000
374.536;  428.400; -526.000; -387.000
374.666; 1049.825; -759.000; -807.000
374.797;  201.825; -817.000; -868.000
374.928;  817.625; -710.000; -560.000
375.058;  851.150; -535.000; -500.000
375.189;   69.300;  -59.000;  -93.000
375.320; -117.925; -928.000;-1034.000
375.450;  -44.075; -625.000; -616.000
375.581;  -40.450; -526.000; -436.000
375.712;  -46.575; -574.000; -250.000
375.842;  263.500; -438.000; -415.000
375.973;  200.125; -554.000; -513.000
376.103;  -69.000; -665.000; -648.000
376.234;  -91.475; -531.000; -552.000
376.364;  -48.750; -944.000; -867.000
376.495;  302.750;  925.000;  529.000
376.625;  -18.225; -472.000; -485.000
376.756;   47.300; -709.000; -678.000
376.886;  -85.025;-1178.000;-1026.000
377.017;   36.025;-1048.000;-1061.000
377.147;  349.575; -786.000; -782.000
377.278;   59.150;  174.000;  228.000
377.408; -134.950; -801.000; -815.000
377.538; -113.375; -707.000; -693.000
377.669;  -88.700; -537.000; -613.000
377.799;  -95.550; -645.000; -635.000
377.929;  -74.850; -610.000; -428.000
378.060; -132.450; -781.000; -847.000
378.190;  -63.375; -726.000; -531.000
378.320;  -61.500; -401.000; -406.000
378.451;  -20.175; -131.000;  -22.000
378.581;  -25.175;  -67.000; -110.000
378.711;  140.550; 1035.000;  866.000
378.841;  -21.200; -533.000; -675.000
378.972;  -84.800; -871.000; -751.000
379.102;  -17.050; -652.000; -579.000
379.232;  -14.650; -126.000;  -73.000
379.362; -121.125;-1001.000; -885.000
379.492;    5.075; -373.000; -424.000
379.623;   87.525;    0.000;  111.000
379.753; -111.700;-1107.000; -974.000
379.883;  189.375;   59.000;  156.000
380.013;   -7.600;-1081.000;-1017.000
380.143;  -96.550;-1097.000;-1056.000
380.273; -110.850; -985.000; -861.000
380.403;  -16.675; -344.000; -257.000
380.533;  -36.575; -651.000; -664.000
380.663;   55.125;  173.000;  128.000
380.793; -115.400;-1027.000;-1074.000
380.923;  -43.875; -103.000;  -34.000
381.053; -112.400; -613.000; -623.000
381.183;  -33.425; -106.000; -248.000
381.313;   20.450; -656.000; -470.000
381.443;   23.325; -692.000; -473.000
381.573;  176.425; -402.000; -409.000
381.703;  235.050;-1249.000;-1095.000
381.833; -157.500;-1454.000;-1336.000
381.963;  102.175; -134.000;  -87.000
382.093; 1365.225; -925.000; -909.000
382.223;  410.150; -713.000; -602.000
382.353;  -31.200; -801.000; -608.000
382.482;  324.250;-1091.000; -964.000
382.612;  732.050; -872.000; -644.000
382.742;  407.325; -695.000; -622.000
382.872;  238.950; -565.000; -551.000
383.002;   51.625;  347.000; -132.000
383.131;  -39.700; -226.000; -160.000
383.261;  -40.650; -706.000; -768.000
383.391;  295.200; -552.000; -377.000
383.521; 3282.000;  451.000;  263.000
383.650;  801.650; -947.000; -904.000
383.780;  -23.075; -783.000; -656.000
383.910;   95.550;  880.000;  802.000
384.039;    0.250; -794.000; -656.000
384.169;  176.350;-1205.000;-1017.000
384.299;  -22.850; -650.000; -662.000
384.428;  -96.425; -764.000; -680.000
384.558;  -58.825; -308.000; -275.000
384.687;  -51.300; -414.000; -334.000
384.817;    2.175;   75.000;   -2.000
384.947;    3.850; -234.000; -141.000
385.076;  266.375;  982.000;  912.000
385.206;   84.300;  369.000;  480.000
385.335;  -38.600; -549.000; -417.000
385.465;  -98.875; -655.000; -663.000
385.594;  105.500;  -53.000;  -44.000
385.724;  382.075; -868.000; -838.000
385.853;   93.600; -296.000; -270.000
385.982; 1289.600; -743.000; -787.000
386.112; 2059.025;-1052.000; -871.000
386.241;  123.400; -307.000; -312.000
386.371;   13.675; -174.000;  -87.000
386.500;  -18.275; -825.000; -789.000
386.629;   12.100; -874.000; -817.000
386.759;   52.875;  -43.000;   68.000
386.888;  -11.325; -170.000; -250.000
387.017;  -76.050; -648.000; -620.000
387.147;  -95.125; -771.000; -798.000
387.276;  -20.950; -410.000; -397.000
387.405;  -12.450; -398.000; -342.000
387.535;  -49.975; -452.000; -361.000
387.664;  -69.125; -692.000; -620.000
387.793;   53.950; -198.000; -113.000
387.922;  466.800;  255.000;  200.000
388.052;    4.150; -576.000; -423.000
388.181;  -17.875; -342.000; -472.000
388.310;  -34.725; -889.000; -710.000
388.439;  -66.675; -749.000; -742.000
388.568;  161.350;  365.000;  244.000
388.697;  997.800; -756.000; -653.000
388.826;  208.325; -768.000; -666.000
388.956;   48.225; -285.000; -307.000
389.085;  -42.075; -347.000; -287.000
389.214; -117.750; -842.000; -872.000
389.343;  -75.225; -645.000; -413.000
389.472;  409.775;  126.000;  149.000
389.601;  509.075;   91.000;    0.000
389.730;    2.375; -568.000; -687.000
389.859;   43.575;  226.000;   46.000
389.988;  173.375; -423.000; -408.000
390.117;  123.800; -168.000; -146.000
390.246;  -21.225; -331.000; -320.000
390.375;   76.075; -673.000; -626.000
390.504;  -69.250; -703.000; -621.000
390.633; -102.475; -672.000; -726.000
390.761;  -74.400; -732.000; -645.000
390.890;   13.300;   -4.000; -130.000
391.019;  -51.750; -421.000; -441.000
391.148; -126.650; -826.000; -855.000
391.277;  -79.550; -576.000; -493.000
391.406; -104.000; -821.000; -805.000
391.534;    6.650;  574.000; -301.000
391.663;  -72.475; -583.000; -645.000
391.792; -103.000; -673.000; -701.000
391.921;   70.400;   -3.000;   15.000
392.050;  160.900; -287.000; -228.000
392.178;  -63.275;-1206.000;-1061.000
392.307;  118.175; -758.000; -712.000
392.436;   43.350; -427.000; -641.000
392.564;    6.725;  166.000;   -6.000
392.693;  -99.775; -860.000; -682.000
392.822;  189.125; -529.000; -534.000
392.950;   72.750; -880.000; -714.000
393.079;  306.575; -188.000; -328.000
393.208;   20.575; -488.000; -511.000
393.336;  -11.025; -170.000; -145.000
393.465;  -53.675; -317.000; -199.000
393.593;  -11.000;   62.000;   79.000
393.722; -152.325;-1121.000; -916.000
393.850;  -30.250; -188.000;  -61.000
393.979; -151.725; -926.000; -805.000
394.107;  -62.925; -517.000; -537.000
394.236;  -30.625; -570.000; -507.000
394.364;  200.875;  383.000;  206.000
394.493;  313.000; -911.000; -767.000
394.621;  -23.025; -955.000; -916.000
394.750;  711.225; -873.000; -923.000
394.878; 2959.150; -247.000; -149.000
395.007; 4064.100; -721.000; -807.000
395.135;  305.700; -790.000; -721.000
395.263;  -86.825;-1038.000;-1040.000
395.392;   -1.075;  -25.000; -107.000
395.520; -148.875; -818.000; -679.000
395.648; -108.150; -865.000; -915.000
395.777;  -38.150; -366.000; -405.000
395.905;  -72.175; -449.000; -564.000
396.033;    9.375;  217.000;  172.000
396.162;  526.350; -399.000; -453.000
396.290;  470.075;  -17.000;   -2.000
396.418;   92.950; -555.000; -514.000
396.546;  -92.675; -571.000; -466.000
396.674; -101.400; -850.000; -878.000
396.803;   -4.250;  -72.000;  -23.000
396.931;   61.575; -179.000; -199.000
397.059;   22.050;-1026.000; -989.000
397.187; -123.925;-1026.000; -975.000
397.315; -140.150; -884.000; -649.000
397.443; -101.075; -592.000; -443.000
397.572; -102.275; -578.000; -424.000
397.700;  -26.675; -607.000; -614.000
397.828;  -20.950;  120.000;  -90.000
397.956;  -57.850; -508.000; -478.000
398.084;  -73.650; -767.000; -626.000
398.212;   31.450;  137.000;  124.000
398.340;    2.450;  -56.000;  159.000
398.468;   26.750; -390.000; -169.000
398.596; -136.850; -993.000; -953.000
398.724; -131.025; -762.000; -767.000
398.852; -171.000;-1024.000; -976.000
398.980;  -61.875; -560.000; -560.000
399.108;  -67.925; -982.000; -735.000
399.236;   18.200;   13.000;    8.000
399.363;   -2.650;  222.000;  196.000
399.491;  -75.600; -404.000; -398.000
399.619; -130.525; -829.000; -800.000
399.747; -104.525; -859.000; -771.000
399.875;   58.375;  220.000;  234.000
400.003;  -62.950; -359.000; -284.000
400.130;  -91.650; -421.000; -341.000
400.258;  -44.800;  -83.000;   38.000
400.386;  -81.025; -352.000; -168.000
400.514;  -56.250; -526.000; -587.000
400.641;  -94.050; -928.000; -802.000
400.769; -137.550; -979.000; -888.000
400.897; -130.250; -838.000; -793.000
401.025;  -29.875; -166.000; -152.000
401.152;  -14.975;  220.000;   38.000
401.280;  -85.925; -430.000; -429.000
401.408; -133.725; -712.000; -576.000
401.535;  -97.800; -735.000; -758.000
401.663; -194.975;-1134.000;-1054.000
401.790;  -87.600; -514.000; -525.000
401.918;   35.175;  436.000;  405.000
402.046;  -24.525;  134.000;  122.000
402.173;  -41.750;  -18.000;    7.000
402.301;  -76.650; -519.000; -397.000
402.428;   14.050;  528.000;  383.000
402.556; -147.400;-1188.000; -913.000
402.683;  -41.100;  -20.000;   -1.000
402.811;  -41.350;  -37.000; -206.000
402.938;  -18.900;   20.000;   27.000
403.066;  175.300; -574.000; -558.000
403.193;  291.000;  299.000;  239.000
403.321;  245.975; -396.000; -574.000
403.448;  305.325;   83.000;   27.000
403.575;  131.900;  -90.000;  -46.000
403.703; -106.725; -732.000; -557.000
403.830;  -76.150; -531.000; -496.000
403.957; -140.450;-1117.000;-1023.000
404.085;   -2.050;  -61.000; -172.000
404.212;  105.675;  -50.000;   63.000
404.339;  256.450; -566.000; -306.000
404.467; 5866.225; -612.000; -524.000
404.594; 3852.650; -287.000; -227.000
404.721;  892.200; -869.000; -764.000
404.848;   64.325; -113.000; -202.000
404.976; -116.775; -856.000; -783.000
405.103;  -12.850;  -14.000;  -82.000
405.230;  -16.950;  190.000;  226.000
405.357;   20.775;  117.000;   44.000
405.484;  253.025;  -49.000;    5.000
405.612;   48.775; -548.000; -563.000
405.739;  -71.675; -488.000; -243.000
405.866;   66.675;  669.000;  385.000
405.993;  -44.375; -398.000; -102.000
406.120; -133.000; -801.000; -887.000
406.247;  -69.700; -323.000; -342.000
406.374;  408.375;  540.000;  629.000
406.501;   71.625; -632.000; -702.000
406.628;  -90.350; -621.000; -589.000
406.755; -112.175; -803.000; -620.000
406.882;  -49.250; -228.000; -277.000
407.009; -112.550; -719.000; -628.000
407.136;   27.475; -480.000; -401.000
407.263;  105.050; -939.000; -829.000
407.390;  -86.600; -692.000; -614.000
407.517; -190.825;-1139.000;-1187.000
407.644;  -57.725; -332.000; -256.000
407.771;  -64.250; -249.000; -287.000
407.898;   -1.925;  168.000;  328.000
408.025;  -66.600; -421.000; -313.000
408.151;  -42.425;   82.000;  153.000
408.278;  -80.000; -267.000; -216.000
408.405; -111.350; -931.000; -899.000
408.532;  -72.425; -549.000; -542.000
408.659; -118.375; -677.000; -648.000
408.785; -217.075;-1298.000;-1170.000
408.912;  -70.200; -412.000; -296.000
409.039; -119.350; -610.000; -686.000
409.166; -121.525; -591.000; -555.000
409.292; -114.350; -571.000; -534.000
409.419; -126.175; -665.000; -649.000
409.546;  -98.025; -431.000; -192.000
409.672; -120.450; -713.000; -545.000
409.799;  -21.625;  -36.000;   34.000
409.926;  -48.225; -180.000; -179.000
410.052; -185.425;-1127.000;-1091.000
410.179;  -69.925; -368.000; -392.000
410.305;  -89.375; -375.000; -493.000
410.432;  -47.100; -220.000; -333.000
410.558;  -97.025; -305.000; -380.000
410.685; -114.225; -688.000; -431.000
410.812; -105.200; -409.000; -588.000
410.938; -141.100; -964.000; -808.000
411.065; -105.500; -671.000; -645.000
411.191;  -28.575; -189.000; -174.000
411.317; -124.675; -823.000; -742.000
411.444;  -94.450; -317.000; -246.000
411.570;  -78.200; -339.000; -294.000
411.697; -131.600; -758.000; -752.000
411.823; -177.500; -989.000; -999.000
411.949;  -38.825;  -56.000;   17.000
412.076; -121.925; -539.000; -519.000
412.202; -123.800; -758.000; -757.000
412.329; -133.325; -798.000; -752.000
412.455; -127.775; -821.000; -657.000
412.581;  -32.575;  -15.000;  172.000
412.707;  -75.825; -540.000; -457.000
412.834;   -1.500;  156.000;  219.000
412.960;  -81.975; -785.000; -784.000
413.086; -119.475; -743.000; -701.000
413.212;  136.700;  604.000;  578.000
413.339;  -69.675; -685.000; -701.000
413.465;  -11.525; -364.000; -310.000
413.591;  -99.125; -757.000; -474.000
413.717;  -78.800; -358.000; -366.000
413.843; -146.300; -839.000; -861.000
413.969;  -79.000;  -47.000; -292.000
414.096; -114.500; -679.000; -679.000
414.222;   -6.125;  -33.000;   85.000
414.348;  -38.250; -652.000; -385.000
414.474;   91.800;   38.000;  -52.000
414.600;  -27.675; -126.000; -144.000
414.726;   -8.550;  -96.000;  -55.000
414.852;  -68.400; -365.000; -342.000
414.978;   42.125;  104.000;  -18.000
415.104;   45.575;   38.000;   80.000
415.230;   24.225; -329.000; -330.000
415.356;   23.750; -409.000; -514.000
415.482;  197.275;   13.000;  -35.000
415.608;  244.000; -247.000; -323.000
415.734;  958.225;   67.000;   38.000
415.860;20039.525; -875.000; -767.000
415.986;14890.275; -685.000; -607.000
416.111; 1268.025; -798.000; -652.000
416.237;  252.025; -424.000; -571.000
416.363; 1132.400; -765.000; -733.000
416.489; 4312.050; -324.000; -251.000
416.615;  489.200; -707.000; -742.000
416.741;  -26.700; -677.000; -784.000
416.866;  -97.125; -673.000; -736.000
416.992; -122.300; -801.000; -818.000
417.118;  -31.325;  -41.000;  -80.000
417.244;  -83.325; -798.000; -531.000
417.369;  -89.975; -801.000; -612.000
417.495;   -7.175; -325.000; -254.000
417.621;  -83.475;-1015.000; -803.000
417.746;    5.125; -579.000; -572.000
417.872;   43.800; -254.000; -144.000
417.998;   45.150; -515.000; -530.000
418.123; 1025.700;-1073.000; -845.000
418.249; 5528.075; -512.000; -601.000
418.374;  791.450; -916.000; -824.000
418.500;  118.850; -383.000; -482.000
418.626;  110.275;   70.000;  -59.000
418.751;  123.700; -549.000; -448.000
418.877;  201.375; -637.000; -643.000
419.002; 1808.125; -688.000; -560.000
419.128;12844.400; -930.000; -721.000
419.253; 3220.450; -967.000; -837.000
419.379;  424.650; -391.000; -338.000
419.504;  386.025;  325.000;  415.000
419.629;  514.650; -393.000; -212.000
419.755; 3588.375; -317.000; -254.000
419.880;21812.700;  -98.000;   67.000
420.006;11679.575; -280.000; -221.000
420.131;30053.350; -662.000; -775.000
420.256; 4411.725; -315.000; -316.000
420.382;  577.875; -665.000; -687.000
420.507;   76.125; -649.000; -778.000
420.632;  104.150; -337.000; -339.000
420.758;  221.750; -251.000; -425.000
420.883;  -75.750; -876.000; -672.000
421.008;  -90.850; -775.000; -619.000
421.133;  -75.475; -509.000; -467.000
421.259;  -41.225; -325.000; -259.000
421.384; -132.625; -834.000; -693.000
421.509;  -75.775;-1052.000; -862.000
421.634; 1061.000; -936.000; -820.000
421.759;  454.425; -359.000; -327.000
421.885;  -62.075; -717.000; -656.000
422.010;  -88.450; -673.000; -542.000
422.135; -149.000; -695.000; -727.000
422.260;   12.850;  340.000;  280.000
422.385;  -50.825;   12.000;  -98.000
422.510;   -7.050;  151.000;  -26.000
422.635;    7.400;  -87.000;  -43.000
422.760;   88.450; -766.000; -791.000
422.885;   50.050;  -57.000;  -80.000
423.010;  -43.800; -112.000; -169.000
423.135;  -98.675; -481.000; -561.000
423.260;  -34.750; -150.000; -245.000
423.385;   52.600;  476.000;  222.000
423.510;   26.150;   71.000;  -22.000
423.635;   49.700;  133.000;   45.000
423.760;   38.725;  383.000;  328.000
423.885;   49.700;  336.000;  391.000
424.010;    0.350;  -68.000;  -13.000
424.135;  -31.500;    5.000;  -33.000
424.259;  -98.725; -654.000; -457.000
424.384;  -80.850; -279.000; -272.000
424.509;  -36.775; -260.000; -186.000
424.634; -108.125; -761.000; -623.000
424.759;  -40.625; -688.000; -544.000
424.883;  -10.700; -506.000; -527.000
425.008;  152.450; -502.000; -410.000
425.133; 2024.450; -679.000; -653.000
425.258;  956.125; -517.000; -381.000
425.382;  998.075; -867.000; -774.000
425.507; 2593.300; -487.000; -543.000
425.632;  439.325; -802.000; -663.000
425.756;  450.525; -256.000; -146.000
425.881; 6671.300; -831.000; -857.000
426.006;18529.375; -604.000; -355.000
426.130; 2963.725; -696.000; -508.000
426.255;  368.600; -611.000; -491.000
426.379;  163.725; -189.000; -577.000
426.504;  367.300;  660.000;  544.000
426.629; 4069.675; -519.000; -466.000
426.753; 2862.125;   64.000;  -46.000
426.878;  319.900; -252.000; -288.000
427.002;  125.950; -651.000; -668.000
427.127; 1563.475;  -35.000; -158.000
427.251;11601.750;  372.000;  401.000
427.375; 3405.025; -191.000; -173.000
427.500; 2263.950; -616.000; -610.000
427.624;  772.700; -234.000; -400.000
427.749;   86.600; -216.000; -225.000
427.873;  -40.800; -499.000; -412.000
427.997;  -54.650; -222.000; -230.000
428.122;   59.850;  795.000;  703.000
428.246;   64.275;  433.000;  434.000
428.371; -129.975; -869.000; -773.000
428.495; -102.525; -624.000; -646.000
428.619;  -46.225; -186.000; -117.000
428.743;   23.025;   65.000;  132.000
428.868;   -3.825; -732.000; -643.000
428.992; 1358.775; -219.000; -326.000
429.116;  540.425; -329.000; -357.000
429.240;  248.450;  419.000;  426.000
429.365;  -26.050; -454.000; -574.000
429.489;  -60.725; -638.000; -647.000
429.613;   10.175; -236.000; -177.000
429.737;   24.600; -563.000; -432.000
429.861;  272.225; -247.000; -133.000
429.985; 5591.325; -425.000; -305.000
430.109; 6319.100; -770.000; -908.000
430.234;  738.950;   76.000;  -50.000
430.358;   65.475; -250.000; -160.000
430.482;  -71.600; -672.000; -564.000
430.606;  -70.575; -655.000; -375.000
430.730;   -4.525; -437.000; -388.000
430.854;   86.375; -909.000; -835.000
430.978;  -94.600; -795.000; -764.000
431.102;  -94.800; -499.000; -422.000
431.226; -132.000; -874.000; -815.000
431.350;    5.125;  345.000;  422.000
431.474;  -93.375; -661.000; -373.000
431.597; -152.375;-1060.000; -848.000
431.721;  -93.675; -276.000; -267.000
431.845; -132.025; -704.000; -472.000
431.969;  -82.400; -304.000; -349.000
432.093; -107.950; -395.000; -317.000
432.217;  -26.175;   32.000;   82.000
432.341; -110.650; -523.000; -518.000
432.464;    9.475;   96.000;   40.000
432.588;  161.175; -401.000; -329.000
432.712;  101.725;  -52.000;  -52.000
432.836;   38.025;  213.000;  263.000
432.959;  -22.050; -372.000; -311.000
433.083;   73.775;   11.000;    2.000
433.207;  375.975;  285.000;  930.000
433.330; 5094.450; -391.000; -200.000
433.454; 6461.175; -654.000; -638.000
433.578; 3672.100;  583.000;  278.000
433.701;  692.650; -623.000; -675.000
433.825;  122.050; -292.000; -299.000
433.949;  150.250;   28.000;  -72.000
434.072;   30.350; -410.000; -323.000
434.196;  -23.450; -309.000; -117.000
434.319; 3593.500;25482.000;25124.000
434.443;  687.225; -656.000; -603.000
434.566; 2726.275;  281.000;   62.000
434.690;  463.450; -637.000; -383.000
434.813;   32.450; -251.000; -173.000
434.937;  -94.475; -569.000; -696.000
435.060;  -62.125; -423.000; -332.000
435.184;  242.600; -492.000; -217.000
435.307;  137.475;  159.000;  102.000
435.431;  -13.200;  -40.000;   24.000
435.554;  -80.625; -399.000; -240.000
435.677;  -92.600; -350.000; -258.000
435.801;  -54.725;  -25.000;   49.000
435.924;  -30.425;    1.000;  -67.000
436.048; -124.575;-1019.000; -732.000
436.171;  -73.375; -240.000;  -66.000
436.294;  -32.350; -248.000; -229.000
436.417;   85.125; -963.000; -849.000
436.541;  -82.100; -814.000; -840.000
436.664;  -60.775; -242.000; -316.000
436.787;  -33.225;   13.000;  113.000
436.910; -117.425; -792.000; -422.000
437.034;   -3.025;  142.000;  143.000
437.157;   25.600;  -11.000;    0.000
437.280;  -60.650; -392.000; -292.000
437.403;  -94.375; -982.000; -869.000
437.526;  525.900; -903.000; -865.000
437.649; 2048.975; -505.000; -332.000
437.772;  291.200; -692.000; -540.000
437.896;  121.925;  700.000;  544.000
438.019; -114.975; -758.000; -503.000
438.142;  -84.550; -596.000; -506.000
438.265;  -33.150; -639.000; -670.000
438.388;  496.150; -520.000; -410.000
438.511;   90.500; -597.000; -394.000
438.634;  -62.975; -247.000; -125.000
438.757; -145.700; -693.000; -619.000
438.880;  -33.225;  -34.000;  -57.000
439.003;  -90.900; -417.000; -437.000
439.126;  -75.575; -287.000; -167.000
439.248;  -70.650;  -98.000; -139.000
439.371;  -47.800;    9.000;  -53.000
439.494;   11.275;  510.000;  439.000
439.617;  -58.700;   65.000;  -88.000
439.740; -186.825; -968.000; -816.000
439.863; -142.550; -755.000; -595.000
439.986; -131.000; -476.000; -431.000
440.108;  -60.075; -161.000; -112.000
440.231; -170.225; -950.000; -836.000
440.354;  -58.000;  -64.000; -150.000
440.477;    8.850; -566.000; -542.000
440.599;  -27.550; -200.000; -225.000
440.722; -134.575; -709.000; -586.000
440.845;   60.125;  751.000;  928.000
440.968; -113.050; -415.000; -311.000
441.090;  -81.200; -199.000;  -33.000
441.213; -171.325;-1021.000; -825.000
441.336;  -55.450; -159.000;   -5.000
441.458; -100.475; -549.000; -396.000
441.581;  -99.250; -628.000; -629.000
441.703;  -82.450; -152.000;   13.000
441.826; -107.350; -557.000; -400.000
441.948;  -49.650;   56.000;   51.000
442.071;   33.725;  555.000;  424.000
442.193; -128.275; -531.000; -485.000
442.316;   29.225;  152.000;   97.000
442.438;   28.650; -233.000;  -10.000
442.561;   64.050;  272.000;  262.000
442.683;  460.025; -809.000; -522.000
442.806; 1049.475;   -8.000;   74.000
442.928;    4.450; -859.000; -604.000
443.051;  -81.375; -577.000; -373.000
443.173; -103.900; -341.000; -339.000
443.295;  -98.000; -263.000; -371.000
443.418;  -82.600; -321.000;  -29.000
443.540;   -8.750; -106.000;   -4.000
443.662; -126.875; -563.000; -465.000
443.785;  -20.300;  335.000;  199.000
443.907; -120.075; -362.000; -208.000
444.029; -138.675; -767.000; -494.000
444.152; -144.200; -644.000; -554.000
444.274;  -29.350;  -18.000;  -24.000
444.396; -127.825; -461.000; -221.000
444.518; -144.150; -691.000; -454.000
444.640; -101.475; -268.000; -111.000
444.763;  -26.450;  388.000;  249.000
444.885; -135.200; -432.000; -392.000
445.007;  -39.100;   35.000;   86.000
445.129; -119.150; -610.000; -515.000
445.251; -115.200; -372.000; -439.000
445.373; -155.825; -537.000; -386.000
445.495;  -16.250;  242.000;  350.000
445.617;   40.725;  853.000;  753.000
445.739;  -76.025; -215.000;  -97.000
445.861;  -46.000; -245.000; -112.000
445.984;  -42.775; -267.000; -101.000
446.105;  160.900; -418.000; -251.000
446.227;  552.325; -176.000;  -19.000
446.349;  -11.350; -358.000; -249.000
446.471;  -98.725; -615.000; -448.000
446.593;  -84.650; -316.000;   19.000
446.715;   -7.925;  -67.000;   41.000
446.837;   44.875;  697.000;  832.000
446.959; -109.900; -457.000; -478.000
447.081; -133.025; -628.000; -518.000
447.203;   56.275;  862.000;  834.000
447.325;  -89.000; -270.000;   42.000
447.446;  -18.100;  286.000;  530.000
447.568; -163.875; -921.000; -803.000
447.690;  -84.400; -236.000; -245.000
447.812; -155.975; -798.000; -519.000
447.933;  -36.675;  155.000;  127.000
448.055;  -76.550; -306.000; -261.000
448.177;  126.375;   31.000;   79.000
448.299;   58.700; -935.000; -727.000
448.420;   15.725;  -25.000;  159.000
448.542;  -53.825;   -3.000;   33.000
448.664;  -40.125;  109.000;  322.000
448.785;  -46.200;  265.000;   83.000
448.907;  -86.700; -614.000; -353.000
449.028;  -60.950; -771.000; -471.000
449.150;   49.350;  492.000;  589.000
449.272; -196.150;-1044.000; -913.000
449.393;   16.900;  612.000;  694.000
449.515; -143.825; -634.000; -581.000
449.636;  -88.675; -264.000; -155.000
449.758;   72.525;  763.000;  622.000
449.879;  -90.675; -498.000; -396.000
450.001;  -83.775; -149.000;  -49.000
450.122;  -41.200;  -95.000;  162.000
450.244;  -32.425;   37.000;  364.000
450.365;  -98.625; -495.000; -301.000
450.486;  -36.550;   80.000;  268.000
450.608;   21.775;  393.000;  326.000
450.729;   59.375;  578.000;  645.000
450.850;  -16.975; -574.000; -466.000
450.972;  760.750; -552.000; -389.000
451.093; 5076.100;  190.000;  588.000
451.214; 2246.225; -516.000; -337.000
451.336;  402.350;  773.000;  579.000
451.457;   70.200;  264.000;  393.000
451.578;  -52.050; -118.000;  -74.000
451.699; -117.000; -546.000; -540.000
451.821;  -68.525; -284.000;  -50.000
451.942;    5.075;  278.000;  285.000
452.063;   34.425;  228.000;  419.000
452.184;  551.050;  -54.000;  -49.000
452.305; 1129.600;  103.000;  170.000
452.427;  133.700; -549.000; -301.000
452.548;  -13.975;   23.000;   79.000
452.669;  -71.675; -257.000;  -89.000
452.790;  -41.000;    3.000;  -18.000
452.911;  -16.525;  195.000;  259.000
453.032;  -74.075; -289.000;  -60.000
453.153;  -47.675;  -29.000;   81.000
453.274;   61.825;  737.000;  868.000
453.395;  -76.775;  -51.000;  175.000
453.516;  115.100; 1317.000; 1388.000
453.637;  -76.850; -205.000; -150.000
453.758;  -60.650;   15.000;   69.000
453.879; -127.875; -462.000; -250.000
454.000;   58.825; 1086.000;  948.000
454.121; -117.475; -554.000; -326.000
454.242; -126.900; -599.000; -383.000
454.362;  -66.975;  -99.000;  114.000
454.483;  -49.550; -309.000; -229.000
454.604;   46.500;  512.000;  580.000
454.725; -130.900; -627.000; -555.000
454.846; -129.300; -474.000; -406.000
454.967;  -34.700;  230.000;  539.000
455.087;  -55.900;  179.000;  153.000
455.208;   -3.300;  554.000;  856.000
455.329;  -66.550;  -22.000;   82.000
455.450;   25.175;  473.000;  633.000
455.570; -100.875; -234.000; -211.000
455.691;  -52.275;  201.000;  407.000
455.812; -110.700; -270.000;  -92.000
455.932;  -77.975;  107.000;  -97.000
456.053;  -94.475;   36.000;   24.000
456.173; -117.900; -433.000; -355.000
456.294; -137.800; -476.000; -303.000
456.415;  -75.700;  -73.000;   70.000
456.535;  -42.900;  297.000;  273.000
456.656;  -53.250;  132.000;  240.000
456.776;  -80.700;    3.000;  298.000
456.897;  -10.200;  308.000;  513.000
457.017;  -84.475; -153.000;   -3.000
457.138; -117.750; -402.000; -249.000
457.258;  -33.125;  263.000;  224.000
457.379;  -17.550;  509.000;  521.000
457.499;  -23.775;  443.000;  432.000
457.620; -117.025; -407.000; -231.000
457.740; -110.275; -132.000;  -11.000
457.860;  -72.525;   87.000;   44.000
457.981;  -65.375;  132.000;  124.000
458.101;  -78.800;  -89.000;   40.000
458.221;  -15.500;  336.000;  402.000
458.342;  -72.300;   -4.000;  -37.000
458.462;   19.450;  617.000;  352.000
458.582;  -28.375; -302.000; -294.000
458.703;   15.175;  303.000;  154.000
458.823;  -17.625;   22.000;  163.000
458.943;   18.150;  341.000;  467.000
459.063;  -24.800; 1124.000;  192.000
459.183;  -24.175;  328.000;  313.000
459.304;   -2.875;  315.000;  517.000
459.424;  -69.725; -246.000;  -89.000
459.544;  336.275;  388.000;  764.000
459.664;  842.700;  499.000;  506.000
459.784;  318.475; 1004.000; 1175.000
459.904;   54.750;  867.000;  744.000
460.024;   54.250;  867.000;  684.000
460.144;    0.700;  449.000;  554.000
460.264;    1.875;  515.000;  327.000
460.385; -100.250; -145.000; -119.000
460.505;   28.575;  905.000;  858.000
460.625;  -95.675;  -17.000;  -68.000
460.745;  -30.050;  396.000;  541.000
460.864;  -62.800;  153.000;  469.000
460.984;    1.650;  499.000;  573.000
461.104;  119.725; 1656.000; 1775.000
461.224;   15.600;  657.000;  650.000
461.344;  -32.750;  431.000;  360.000
461.464;  -38.150;  258.000;  513.000
461.584;  -27.550;  283.000;  466.000
461.704;  -55.400;   58.000;  108.000
461.824;  -64.625;  238.000;  259.000
461.943;  -60.300;  191.000;  130.000
462.063;  -70.400;    2.000;  324.000
462.183;   15.025;  639.000;  717.000
462.303;   74.200; 1678.000; 1230.000
462.422;   26.025;  781.000;  840.000
462.542;  -34.700;  271.000;  391.000
462.662;   28.275;  353.000;  380.000
462.782;  237.150;  833.000;  572.000
462.901;  487.750;  545.000;  717.000
463.021;  290.725; 1702.000; 1638.000
463.141;   -9.900;  337.000;  770.000
463.260;  -17.425;  614.000;  474.000
463.380;   18.775;  902.000;  884.000
463.499;  -39.450;  342.000;  332.000
463.619;  -41.750;  581.000;  559.000
463.738;  125.850; 1644.000;  903.000
463.858;    0.875;  657.000;  811.000
463.978;  -30.025;  542.000;  396.000
464.097;   43.450;  921.000; 1114.000
464.217;  124.975; 1196.000; 1143.000
464.336;  109.375; 1068.000; 1130.000
464.455;  -39.550;  328.000;  659.000
464.575;   41.275;  597.000;  602.000
464.694;  169.675; 1204.000; 1179.000
464.814;  131.225; 1190.000; 1138.000
464.933;   62.825; 1095.000; 1027.000
465.052;   87.700; 1412.000; 1054.000
465.172;   76.000;  922.000;  799.000
465.291;  130.650; 1376.000; 1320.000
465.410;   15.450;  462.000;  735.000
465.530;   82.575; 1355.000; 1310.000
465.649;   60.025; 1209.000; 1273.000
465.768;  134.075; 1673.000; 1508.000
465.888;   41.900;  941.000; 1174.000
466.007;  100.275; 1335.000; 1440.000
466.126;   -8.675;  721.000;  641.000
466.245;   28.150; 1176.000; 1187.000
466.364;    9.350;  950.000; 1060.000
466.484;   52.650; 1024.000; 1213.000
466.603;   22.400; 1101.000; 1222.000
466.722;  106.225; 1490.000; 1769.000
466.841;   69.725; 1151.000; 1401.000
466.960;   35.975; 1069.000;  972.000
467.079;  139.975; 1971.000; 1786.000
467.198;   57.575; 1238.000; 1181.000
467.317;   81.475; 1768.000; 1162.000
467.436;   76.250; 1709.000; 1261.000
467.555;  119.725; 1796.000; 1746.000
467.674;   57.850; 1227.000; 1329.000
467.793;   39.350; 1376.000; 1374.000
467.912;   79.450; 1658.000; 1539.000
468.031;  122.525; 2038.000; 1930.000
468.150;  147.200; 1842.000; 1837.000
468.269;  179.000; 2313.000; 2090.000
468.388;  166.700; 2168.000; 2339.000
468.507;  251.700; 2884.000; 2903.000
468.626;  260.875; 2555.000; 2541.000
468.744;  134.475; 2018.000; 2174.000
468.863;  197.575; 2312.000; 2523.000
468.982;   89.700; 1503.000; 1555.000
469.101;  210.150; 2788.000; 2692.000
469.220;  146.075; 2333.000; 2176.000
469.338;  244.500; 2935.000; 3051.000
469.457;  195.600; 2719.000; 2545.000
469.576;  345.500; 3953.000; 3784.000
469.695;  235.625; 2877.000; 3066.000
469.813;  422.975; 4148.000; 4192.000
469.932;  398.625; 4255.000; 4485.000
470.051;  422.050; 4075.000; 4161.000
470.169;  886.825; 4470.000; 4338.000
470.288; 1509.850; 4700.000; 4809.000
470.406;  873.875; 5059.000; 5194.000
470.525;  617.750; 6101.000; 5787.000
470.644;  649.550; 6847.000; 6794.000
470.762;  811.775; 8397.000; 7873.000
470.881;  881.975; 8651.000; 8464.000
470.999; 1030.150; 9685.000; 9151.000
471.118; 1094.975;11174.000;10711.000

