
Integration time [ms]: 200.000
Averaging Nr. [scans]: 10
Smoothing Nr. [pixels]: 0
Data measured with spectrometer [name]: 2101012U2
Wave   ;Sample   ;Dark     ;Reference
[nm]   ;[counts] ;[counts] ;[counts] 

197.733;  135.000;  516.000;  404.000
197.879; -151.900; -610.000; -634.000
198.025;  -95.700; -475.000; -420.000
198.171; -155.600; -602.000; -612.000
198.317;  -38.400; -401.000; -316.000
198.463; -131.400; -655.000; -404.000
198.609;   62.500;  181.000; -137.000
198.755; -180.100; -644.000; -410.000
198.901; -143.600; -505.000; -424.000
199.047; -143.000; -615.000; -488.000
199.193;  -66.400; -230.000; -468.000
199.339; -100.100; -222.000; -369.000
199.485;   56.000;  330.000;  271.000
199.631;   29.800;  227.000;  310.000
199.777;  -89.300; -466.000; -398.000
199.923; -145.400; -610.000; -424.000
200.069;  -20.000; -141.000;  -58.000
200.215;  116.200;  128.000;  453.000
200.361;   85.700;  243.000;  477.000
200.507; -132.900; -600.000; -373.000
200.653;  -61.900; -371.000; -194.000
200.798; -115.600; -215.000; -125.000
200.944;    5.700; -146.000;  -41.000
201.090;   41.700;   61.000;  222.000
201.236;    8.200; -116.000; -158.000
201.382;  250.300;  874.000;  903.000
201.528;   -7.700;  -58.000;  -48.000
201.674; -113.600; -386.000; -293.000
201.819; -137.100; -540.000; -439.000
201.965; -171.200; -699.000; -447.000
202.111;  -70.200; -273.000; -226.000
202.257; -101.400; -250.000; -238.000
202.402;  -16.300;   13.000;  -36.000
202.548;  -63.000; -169.000; -116.000
202.694;  160.200;  410.000; -183.000
202.840; -178.300; -603.000; -531.000
202.985; -138.800; -681.000; -639.000
203.131; -247.300; -832.000; -666.000
203.277;  -51.400; -199.000; -262.000
203.423; -106.800; -434.000; -520.000
203.568;  -87.700; -462.000; -237.000
203.714; -130.400; -535.000; -542.000
203.860; -143.500; -682.000; -641.000
204.005;   11.600;  112.000;  167.000
204.151;  171.200;  561.000;  556.000
204.296;  -87.100; -354.000; -221.000
204.442; -161.200; -600.000; -547.000
204.588; -181.900; -592.000; -579.000
204.733;   29.400;  178.000;  168.000
204.879; -300.700;-1018.000; -822.000
205.025;   19.400;  -99.000;  126.000
205.170;   12.200;  -17.000;   94.000
205.316;  171.000;  438.000;  661.000
205.461; -205.400; -698.000; -554.000
205.607;  187.100;  609.000;  665.000
205.752; -164.700; -626.000; -551.000
205.898; -111.200; -501.000; -391.000
206.043; -137.100; -578.000; -506.000
206.189;  -98.400; -243.000; -285.000
206.334;  185.800;  554.000;  606.000
206.480;  196.500;  409.000;  239.000
206.625; -172.100; -529.000; -552.000
206.771; -105.000; -451.000; -373.000
206.916;  -65.900; -210.000; -537.000
207.062; -141.700; -545.000; -591.000
207.207; -115.400; -546.000; -443.000
207.353;  116.400;  185.000;  460.000
207.498;   34.700;  196.000;   85.000
207.643; -116.800; -501.000; -370.000
207.789; -289.800;-1069.000; -910.000
207.934; -212.500; -665.000; -713.000
208.080;  -50.400; -154.000;   66.000
208.225;    7.300;  -22.000;  -57.000
208.370; -184.300; -727.000; -619.000
208.516; -197.500; -741.000; -487.000
208.661;  -33.500; -127.000;  -69.000
208.806;  -36.500; -165.000; -171.000
208.952; -250.000;-1044.000; -731.000
209.097;  167.600;  378.000;  349.000
209.242;  -99.500; -307.000; -382.000
209.387;  135.500;  392.000;  350.000
209.533;  -83.900; -321.000; -350.000
209.678;  172.200;  472.000;  543.000
209.823; -122.600; -408.000; -310.000
209.969; -226.200; -860.000; -757.000
210.114; -216.100; -907.000; -719.000
210.259; -213.800; -939.000; -889.000
210.404;  -30.700; -171.000;  103.000
210.549;    6.300;  108.000;    3.000
210.695;  -14.100;   -3.000;  -95.000
210.840;   42.400;   94.000;   67.000
210.985; -124.100; -484.000; -303.000
211.130;  148.800;  268.000;  406.000
211.275;   40.700;  207.000;  199.000
211.420; -105.900; -300.000; -289.000
211.566; -157.100; -536.000; -489.000
211.711;   58.900;  218.000;  157.000
211.856; -151.700; -545.000; -519.000
212.001;   19.200;  151.000;   44.000
212.146;   -0.800;  153.000;   49.000
212.291;  -52.300; -210.000; -186.000
212.436;  -61.100; -280.000;   -6.000
212.581; -162.500; -685.000; -653.000
212.726; -147.000; -487.000; -538.000
212.871;  -73.700; -552.000; -217.000
213.016; -308.000;-1172.000;-1029.000
213.161;  119.700;  406.000;  291.000
213.306; -178.200; -435.000; -577.000
213.451; -186.800; -778.000; -689.000
213.596; -106.400; -455.000; -347.000
213.741; -119.000; -448.000; -538.000
213.886; -150.200; -498.000; -517.000
214.031;  -23.100; -294.000; -124.000
214.176; -119.300; -408.000; -341.000
214.321;  -56.500; -296.000; -157.000
214.466;  -55.600; -163.000;  -43.000
214.611;   -4.000;  -61.000;  -10.000
214.756; -255.400; -948.000; -858.000
214.901;  -31.800; -388.000; -226.000
215.046; -262.500; -797.000; -825.000
215.191;   51.700;  128.000;   35.000
215.336;  -36.400; -157.000;  -19.000
215.480; -133.200; -684.000; -505.000
215.625;   25.600; -175.000;  -19.000
215.770; -169.700; -757.000; -662.000
215.915;  -31.000;   -5.000;  -97.000
216.060;    0.400; -113.000;  -21.000
216.205; -253.200; -731.000; -779.000
216.349; -167.500; -470.000; -533.000
216.494; -268.400; -939.000; -867.000
216.639; -234.000; -823.000; -888.000
216.784; -185.000; -577.000; -525.000
216.929;  123.000;  392.000;  281.000
217.073;  -38.500; -244.000;  -31.000
217.218;   24.300;   78.000;  -47.000
217.363; -195.200; -656.000; -618.000
217.507; -145.100; -623.000; -588.000
217.652; -252.200; -845.000; -874.000
217.797; -186.900; -708.000; -659.000
217.942; -234.600; -856.000; -720.000
218.086;  154.600;  608.000;  539.000
218.231;  -59.200; -174.000;  -26.000
218.376;  -86.100; -337.000; -229.000
218.520;    8.700;  -41.000;   96.000
218.665;  -51.500; -338.000; -204.000
218.810;  -83.400; -275.000; -233.000
218.954;   47.100;  201.000;   35.000
219.099; -224.100; -713.000; -963.000
219.243; -146.000; -589.000; -554.000
219.388;  -81.400; -264.000; -136.000
219.532;  -31.500; -116.000; -116.000
219.677; -171.100; -564.000; -521.000
219.822;    6.600;   33.000;   89.000
219.966;   31.200;   17.000;  -99.000
220.111;  -76.800; -328.000;  -40.000
220.255; -219.800; -797.000; -750.000
220.400;  -29.300; -180.000; -146.000
220.544; -138.300; -516.000; -450.000
220.689; -106.200; -422.000; -451.000
220.833;  -41.200; -123.000;  -58.000
220.978;  -91.700; -393.000; -563.000
221.122;   20.600;  319.000;  307.000
221.267; -246.200; -906.000; -837.000
221.411; -143.000; -478.000; -394.000
221.555;   -2.300; -104.000;  -23.000
221.700; -110.600; -329.000; -222.000
221.844;   65.700;  255.000;  272.000
221.989;  -85.000; -328.000; -311.000
222.133;  -63.800; -289.000; -307.000
222.277;  -24.300;    5.000;   78.000
222.422;   35.200;  227.000;  113.000
222.566;  -92.600; -381.000; -214.000
222.711; -130.600; -414.000; -479.000
222.855; -195.600; -643.000; -586.000
222.999; -175.200; -642.000; -717.000
223.144;  -55.600; -195.000; -194.000
223.288;  130.900;  423.000;  251.000
223.432;    3.300;  184.000;  230.000
223.576;   22.100;  152.000;  -21.000
223.721;  105.000;  364.000;  273.000
223.865; -103.200; -472.000; -475.000
224.009;  478.800; 1673.000; 1631.000
224.153; -167.000; -660.000; -671.000
224.298; -146.700; -531.000; -489.000
224.442;  -20.200;  -74.000;  -33.000
224.586;  -12.200; -169.000; -106.000
224.730; -227.500; -858.000; -670.000
224.875; -246.900; -739.000; -688.000
225.019;   22.900;  102.000;  188.000
225.163;  121.400;  208.000;  341.000
225.307;   46.800;   97.000;  -91.000
225.451;   99.100;  360.000;  481.000
225.595;   35.800;  264.000;  176.000
225.739;  -54.300; -170.000;  -94.000
225.884;   33.900;   86.000;    5.000
226.028; -192.700; -760.000; -626.000
226.172;  -84.400; -260.000; -273.000
226.316; -244.100; -941.000; -902.000
226.460; -152.100; -645.000; -493.000
226.604; -119.200; -406.000; -400.000
226.748; -200.300; -836.000; -733.000
226.892;  -57.000; -227.000; -181.000
227.036; -110.900; -537.000; -447.000
227.180; -110.000; -551.000; -375.000
227.324; -149.800; -561.000; -580.000
227.468; -248.000; -819.000; -717.000
227.612;   17.000;  242.000;  -28.000
227.756; -201.900; -845.000; -698.000
227.900;  113.200;  342.000;  441.000
228.044; -100.400; -509.000; -290.000
228.188;  117.300;  448.000;  568.000
228.332; -174.400; -546.000; -472.000
228.476;  -63.500; -223.000; -149.000
228.620;  -72.500; -210.000; -150.000
228.764;  147.000;  431.000;  349.000
228.908;  -18.800; -155.000;   30.000
229.052; -131.800; -615.000; -528.000
229.195;  -33.000; -172.000;   13.000
229.339;  -35.700; -235.000; -305.000
229.483;  -41.700;    5.000; -162.000
229.627;   -1.400; -156.000;  139.000
229.771;  -91.300; -218.000; -294.000
229.915;   27.000;  230.000;   79.000
230.059; -202.600; -648.000; -663.000
230.202;  -78.900; -370.000; -317.000
230.346;  -16.800; -107.000;  107.000
230.490; -118.200; -489.000; -521.000
230.634; -230.600; -736.000; -553.000
230.777;  161.600;  478.000;  509.000
230.921; -101.800; -450.000; -359.000
231.065;  -99.600; -246.000; -286.000
231.209;   59.700;  261.000;  265.000
231.352;   28.600;   54.000;   40.000
231.496;   41.500;  568.000;  188.000
231.640; -168.300; -693.000; -621.000
231.783;  123.300;  546.000;  525.000
231.927;  -63.400; -294.000; -365.000
232.071; -240.600; -962.000; -736.000
232.214; -218.500; -980.000; -764.000
232.358; -233.500; -683.000; -599.000
232.502;   44.100;  -19.000;    7.000
232.645; -289.600;-1090.000; -927.000
232.789;  -25.200; -257.000; -218.000
232.933;  -88.300; -407.000; -224.000
233.076; -260.300;-1038.000; -897.000
233.220; -227.100; -752.000; -777.000
233.363; -130.000; -669.000; -477.000
233.507;   99.500;  371.000;  129.000
233.650; -210.400; -764.000; -834.000
233.794;   82.200;  438.000;  461.000
233.938; -140.800; -530.000; -362.000
234.081;  -13.300;  -93.000;   31.000
234.225; -120.000; -631.000; -539.000
234.368; -257.200; -773.000; -723.000
234.512;  -75.600; -385.000; -299.000
234.655; -170.200; -582.000; -555.000
234.798; -132.400; -493.000; -466.000
234.942; -271.200; -884.000;-1002.000
235.085; -144.500; -651.000; -443.000
235.229; -178.000; -405.000; -410.000
235.372;  -95.200; -247.000; -191.000
235.516; -113.800; -397.000; -321.000
235.659;   70.100;   92.000;  121.000
235.802;  -29.600;  -38.000;  -22.000
235.946;   67.900;  335.000;  215.000
236.089;   83.700;  126.000;  250.000
236.233;  101.100;  275.000;  298.000
236.376;  -87.800; -235.000; -378.000
236.519;  -92.500; -297.000; -319.000
236.663;  -70.100; -215.000; -117.000
236.806; -269.700;-1029.000; -999.000
236.949;  144.700;  543.000;  431.000
237.092;  165.900;  412.000;  391.000
237.236; -186.000; -589.000; -502.000
237.379;  137.400;  352.000;  428.000
237.522; -252.300; -879.000; -768.000
237.666;  -45.100; -271.000;   18.000
237.809; -287.500; -851.000; -823.000
237.952;   57.000;  469.000;  271.000
238.095; -107.900; -447.000; -442.000
238.238;  189.300;  688.000;  700.000
238.382;   -4.700;  166.000;  103.000
238.525; -111.600; -598.000; -511.000
238.668; -275.200;-1060.000; -985.000
238.811; -153.500; -638.000; -643.000
238.954; -156.100; -483.000; -334.000
239.097;  204.100;  617.000;  664.000
239.241;   35.100;  394.000;  326.000
239.384;  -51.900; -254.000; -214.000
239.527; -114.200; -424.000; -224.000
239.670; -333.000; -994.000;-1091.000
239.813; -225.700; -696.000; -658.000
239.956;  153.500;  579.000;  473.000
240.099; -226.100; -778.000; -725.000
240.242;  152.200;  428.000;  432.000
240.385;   98.000;  466.000;  450.000
240.528; -111.300; -706.000; -473.000
240.671;   46.900;  189.000;  134.000
240.814;  -87.500; -441.000; -158.000
240.957; -190.000; -767.000; -578.000
241.100; -168.900; -779.000; -755.000
241.243; -292.900;-1234.000; -893.000
241.386; -108.200; -508.000; -379.000
241.529; -187.600; -735.000; -547.000
241.672; -117.500; -566.000; -495.000
241.815; -224.800; -832.000; -808.000
241.958;  -68.000; -125.000; -182.000
242.101; -137.800; -545.000; -390.000
242.244;  -88.100; -270.000; -325.000
242.387; -120.500; -304.000; -246.000
242.530;  144.600;  470.000;  134.000
242.673;  -96.800; -381.000; -309.000
242.815; -255.500; -925.000; -899.000
242.958; -125.100; -482.000; -381.000
243.101;   18.900;  132.000;  187.000
243.244; -154.400; -564.000; -521.000
243.387;  -67.900; -313.000; -316.000
243.530; -223.400; -657.000; -674.000
243.672;   27.000;   43.000;  -92.000
243.815;  -92.000; -355.000; -283.000
243.958;  -21.900;   98.000;  -26.000
244.101;    1.200;   59.000;  -16.000
244.243;  -19.200;  -47.000;  101.000
244.386; -210.700; -761.000; -630.000
244.529;  -56.600; -132.000; -139.000
244.672; -332.800;-1154.000; -951.000
244.814; -202.600; -621.000; -794.000
244.957;  -75.100; -380.000; -304.000
245.100; -122.800; -489.000; -489.000
245.242; -151.400; -387.000; -374.000
245.385;  -15.500;  -59.000;  -39.000
245.528; -227.000; -871.000; -705.000
245.670;  225.800;  612.000;  634.000
245.813; -152.600; -599.000; -547.000
245.956;  -27.800; -324.000; -275.000
246.098; -157.000; -508.000; -650.000
246.241;   40.900;  194.000;   48.000
246.383;   -3.000; -119.000;  -73.000
246.526; -157.000; -454.000; -525.000
246.669; -241.800; -889.000; -780.000
246.811;   39.600;  172.000;   -1.000
246.954; -118.200; -512.000; -426.000
247.096;  -44.300;  -84.000;   -6.000
247.239; -120.700; -482.000; -445.000
247.381; -149.600; -647.000; -488.000
247.524;  178.100;  645.000;  679.000
247.666;   26.800;   58.000;   11.000
247.809; -220.700; -887.000; -691.000
247.951;  -36.500;  -75.000;  138.000
248.094;   39.000;  432.000;  308.000
248.236; -305.000;-1262.000;-1238.000
248.378;    4.700; -356.000;  -81.000
248.521;  -53.000; -334.000; -337.000
248.663;  -91.900; -236.000; -267.000
248.806;  -40.600; -300.000; -266.000
248.948; -178.400; -886.000; -763.000
249.090;  -85.000; -428.000; -398.000
249.233;  -83.900; -344.000; -381.000
249.375; -124.700; -474.000; -451.000
249.518;  -45.300;  -83.000; -133.000
249.660;  -24.200; -103.000;    3.000
249.802; -382.800;-1303.000;-1189.000
249.945; -125.000; -612.000; -540.000
250.087; -258.300; -834.000; -768.000
250.229;  -87.700; -362.000; -480.000
250.371; -174.800; -494.000; -439.000
250.514;  -89.400; -310.000; -244.000
250.656; -128.300;   69.000;  102.000
250.798; -237.900; -849.000; -800.000
250.940; -135.400; -322.000; -322.000
251.083;  -12.000; -335.000; -111.000
251.225;  126.100;  338.000;  310.000
251.367;  -65.700; -274.000; -373.000
251.509;  -60.700; -265.000; -210.000
251.651; -186.200; -731.000; -671.000
251.794;  137.200;  538.000;  632.000
251.936; -196.500; -821.000; -747.000
252.078; -142.300; -540.000; -461.000
252.220; -137.100; -645.000; -477.000
252.362;  158.600;  344.000;  462.000
252.504; -136.500; -677.000; -584.000
252.646; -243.000; -875.000; -722.000
252.788;  -16.900;   14.000; -128.000
252.931;  -83.000; -257.000; -253.000
253.073;  -87.500; -376.000; -317.000
253.215;  -28.400;  141.000;  122.000
253.357;  -10.700;   82.000; -153.000
253.499; -105.500; -374.000; -234.000
253.641; -163.700; -749.000; -594.000
253.783; -182.700; -609.000; -527.000
253.925; -173.300; -586.000; -591.000
254.067; -208.100; -744.000; -667.000
254.209;  -56.900; -391.000; -259.000
254.351; -297.500; -865.000; -883.000
254.493;  -95.900; -441.000; -417.000
254.635; -226.000; -936.000; -818.000
254.777; -158.300; -752.000; -687.000
254.918; -162.600; -512.000; -430.000
255.060; -102.000; -551.000; -395.000
255.202; -114.400; -473.000; -261.000
255.344; -130.100; -658.000; -455.000
255.486; -132.200; -471.000; -406.000
255.628; -193.200; -780.000; -781.000
255.770; -189.800; -676.000; -536.000
255.912; -149.100; -559.000; -468.000
256.053; -148.000; -730.000; -508.000
256.195;  332.500; 1008.000;  903.000
256.337; -197.800; -861.000; -595.000
256.479;  145.900;  532.000;  416.000
256.621;  -79.100; -394.000; -212.000
256.762; -158.900; -789.000; -742.000
256.904;  132.700;  485.000;  487.000
257.046;  -53.000; -381.000; -271.000
257.188;  -83.700; -351.000; -264.000
257.329; -121.000; -525.000; -464.000
257.471; -235.100; -939.000; -807.000
257.613; -103.400; -584.000; -498.000
257.755; -302.600;-1073.000; -982.000
257.896;  102.400;  286.000;  392.000
258.038; -147.800; -403.000; -352.000
258.180;  -49.800; -354.000; -279.000
258.321; -187.200; -581.000; -457.000
258.463;    7.700;  -71.000;  133.000
258.605; -186.100; -562.000; -570.000
258.746; -181.800; -886.000; -772.000
258.888; -306.200;-1026.000;-1020.000
259.029;   48.100;  121.000;   -8.000
259.171; -196.100; -614.000; -550.000
259.313;   16.300;  -49.000;  -47.000
259.454; -129.000; -536.000; -414.000
259.596; -117.500; -483.000; -390.000
259.737; -140.500; -590.000; -474.000
259.879;   91.500;  217.000;  311.000
260.020;  216.900;  901.000;  636.000
260.162;  -31.300; -146.000; -253.000
260.303; -230.500; -768.000; -687.000
260.445; -177.100; -609.000; -613.000
260.586;   60.000;  392.000;  157.000
260.728;  -71.900; -360.000; -248.000
260.869; -132.300; -350.000; -343.000
261.011;  172.700;  706.000;  537.000
261.152;  -91.500; -479.000; -319.000
261.293; -171.800; -576.000; -595.000
261.435;  -33.300; -219.000; -184.000
261.576;  -67.700; -455.000; -325.000
261.718;  120.000;  420.000;  470.000
261.859; -247.200; -940.000; -949.000
262.000; -272.800; -951.000;-1016.000
262.142;  -18.800;  -52.000;  -60.000
262.283; -219.000; -808.000; -691.000
262.424; -171.700; -666.000; -625.000
262.566; -324.800;-1161.000; -983.000
262.707; -217.000; -840.000; -830.000
262.848; -232.300; -769.000; -726.000
262.990; -103.900; -362.000; -345.000
263.131;  194.900;  650.000;  681.000
263.272;    1.800;  -61.000;  -41.000
263.413; -159.100; -589.000; -561.000
263.555; -104.200; -669.000; -143.000
263.696; -167.000; -550.000; -641.000
263.837; -129.000; -449.000; -551.000
263.978;   20.300;   -5.000;  -77.000
264.119;  -96.900; -283.000; -264.000
264.261; -237.100; -847.000; -630.000
264.402;   11.300;   33.000;   40.000
264.543; -180.500; -509.000; -524.000
264.684;  -20.000;   61.000;  -50.000
264.825; -142.300; -816.000; -538.000
264.966;  -12.300;  -84.000;  -67.000
265.107; -210.400; -646.000; -670.000
265.248; -225.600; -825.000; -812.000
265.390;  -30.700;  152.000;   -9.000
265.531;  -40.700; -238.000; -107.000
265.672; -158.900; -557.000; -630.000
265.813;  182.600;  563.000;  439.000
265.954; -305.900; -959.000; -940.000
266.095;   -3.900; -372.000; -322.000
266.236; -153.000; -686.000; -548.000
266.377;  -56.500; -243.000; -297.000
266.518; -147.300; -619.000; -547.000
266.659;   79.100;  170.000;  268.000
266.800;   41.300;   83.000;   85.000
266.941; -140.700; -487.000; -478.000
267.082;   51.000;  354.000;   99.000
267.223;  -85.700; -344.000; -273.000
267.364; -239.400; -892.000; -686.000
267.504;  -11.400;    3.000;  135.000
267.645;   31.100;  160.000;   67.000
267.786;  -61.300; -147.000;  -86.000
267.927; -122.100; -473.000; -379.000
268.068;  -20.200; -186.000;  -61.000
268.209;  -56.100; -175.000; -413.000
268.350; -105.900; -388.000; -532.000
268.490; -162.500; -648.000; -521.000
268.631;   80.900;  127.000;  225.000
268.772; -219.600; -874.000; -647.000
268.913;  -71.500; -328.000; -476.000
269.054;    3.500; -117.000;   12.000
269.194;  -50.000; -418.000; -402.000
269.335; -306.700;-1137.000;-1074.000
269.476;  -36.200;   33.000;  -35.000
269.617;  -97.900; -347.000; -392.000
269.757; -190.300; -713.000; -646.000
269.898; -197.900; -856.000; -613.000
270.039; -147.400; -415.000; -405.000
270.180; -265.000; -952.000; -816.000
270.320;  -22.600; -190.000; -250.000
270.461;  -64.800; -277.000; -249.000
270.602;    2.800; -186.000; -156.000
270.742; -237.100; -868.000; -943.000
270.883;  -88.900; -442.000; -390.000
271.023; -135.000; -358.000; -357.000
271.164; -146.100; -607.000; -528.000
271.305; -168.100; -666.000; -654.000
271.445; -126.400; -722.000; -683.000
271.586; -128.400; -462.000; -283.000
271.726;  -81.800; -397.000; -322.000
271.867; -108.000; -594.000; -534.000
272.008;  339.400; -473.000; -285.000
272.148;  274.300;  462.000;  468.000
272.289;   42.000; -113.000; -181.000
272.429;   43.300;   19.000;  185.000
272.570; -165.700; -633.000; -737.000
272.710; -179.000; -825.000; -775.000
272.851;  -25.400;  113.000; -130.000
272.991; -329.200;-1173.000;-1077.000
273.131;  -85.100; -419.000; -459.000
273.272; -166.200; -683.000; -723.000
273.412;   15.700; -143.000;  -31.000
273.553;  -63.900; -488.000; -507.000
273.693;  311.000;  913.000;  858.000
273.834; -157.000; -894.000; -692.000
273.974; -116.100; -664.000; -615.000
274.114; -193.500; -772.000; -560.000
274.255;  163.600;  414.000;  373.000
274.395;   31.500; -180.000; -125.000
274.535;   97.800;  199.000;  350.000
274.676;   74.200;  225.000;   94.000
274.816;   48.900;  110.000;   34.000
274.956; -157.300; -624.000; -690.000
275.097; -143.000;-1014.000; -922.000
275.237; -180.000; -913.000; -803.000
275.377; -188.600; -778.000; -689.000
275.517; -259.000; -878.000; -937.000
275.658;  -73.800; -590.000; -555.000
275.798; -119.500; -606.000; -413.000
275.938;   61.700;  215.000;  323.000
276.078; -152.400; -626.000; -395.000
276.218;   45.300;   99.000;  104.000
276.359; -232.500;-1026.000;-1024.000
276.499; -126.900; -605.000; -446.000
276.639;  -42.500; -305.000; -151.000
276.779;  -78.200; -475.000; -357.000
276.919; -180.600; -783.000; -624.000
277.059;  -38.600; -261.000; -212.000
277.199;  -91.000; -357.000; -259.000
277.340;  130.600;  287.000;  175.000
277.480; -232.700; -840.000; -693.000
277.620;   83.900;  192.000;   16.000
277.760; -363.700;-1533.000;-1294.000
277.900;   83.000;  113.000;   33.000
278.040;   86.200;  137.000;  159.000
278.180;   84.200;  270.000;  170.000
278.320;   40.400;   21.000;   56.000
278.460; -130.700; -443.000; -469.000
278.600; -158.500; -708.000; -598.000
278.740;  169.000;  448.000;  224.000
278.880;  -50.400; -768.000; -791.000
279.020;   95.500; -194.000; -144.000
279.160; -184.700; -672.000; -595.000
279.300; -236.800; -926.000; -873.000
279.440; -179.700; -709.000; -622.000
279.579;  -92.900;-1014.000; -929.000
279.719; -122.700; -410.000; -394.000
279.859;  159.100;   -4.000;   41.000
279.999;   76.400; -208.000;  101.000
280.139;  -21.900; -435.000; -387.000
280.279; -134.500; -708.000; -745.000
280.419;    7.800; -229.000; -147.000
280.559;  -41.000; -259.000; -180.000
280.698; -133.500; -790.000; -639.000
280.838; -142.800; -778.000; -800.000
280.978; -175.100; -846.000; -790.000
281.118; -187.000; -811.000; -704.000
281.257;   27.500;   24.000;    6.000
281.397; -164.500;-1094.000; -960.000
281.537; -120.900; -599.000; -712.000
281.677;  -14.400; -150.000; -101.000
281.816; -164.800; -700.000; -630.000
281.956;  -20.000; -193.000; -257.000
282.096; -107.400; -539.000; -396.000
282.235; -182.800; -672.000; -638.000
282.375;  -17.000; -243.000;  -98.000
282.515; -181.100; -715.000; -707.000
282.654;  114.600;   29.000;  106.000
282.794;  115.400;  388.000;  244.000
282.934;  -79.000; -530.000; -491.000
283.073; -213.200;-1030.000; -857.000
283.213;  -80.600; -460.000; -467.000
283.353;  -47.900; -408.000; -349.000
283.492;    6.000; -264.000; -296.000
283.632;  -53.000; -254.000; -168.000
283.771; -169.600; -859.000; -730.000
283.911;  -74.300; -369.000; -260.000
284.050; -187.700; -794.000; -748.000
284.190; -290.800;-1229.000;-1096.000
284.329; -237.100;-1055.000; -964.000
284.469;  -87.300; -516.000; -591.000
284.608;  -98.900; -559.000; -598.000
284.748; -134.000; -614.000; -570.000
284.887;   17.100;  -87.000;  -20.000
285.027; -207.200; -844.000; -892.000
285.166;  -52.800; -192.000; -249.000
285.306;   35.100; -116.000;  -33.000
285.445;  -65.800; -229.000; -343.000
285.584; -149.400; -630.000; -494.000
285.724;  -47.600; -282.000; -322.000
285.863; -211.500; -857.000; -507.000
286.002;  -74.100; -366.000; -276.000
286.142; -178.700; -715.000; -622.000
286.281; -110.000; -525.000; -493.000
286.420; -143.800; -554.000; -417.000
286.560;  262.400;  653.000;  623.000
286.699; -216.700; -958.000; -912.000
286.838; -119.100; -590.000; -591.000
286.978; -177.200; -533.000; -537.000
287.117; -268.300;-1085.000; -950.000
287.256;  -42.900; -228.000; -211.000
287.395;  -60.200; -197.000; -378.000
287.535;  -65.900; -370.000; -298.000
287.674; -123.300; -509.000; -484.000
287.813;  184.200;  661.000;  533.000
287.952; -239.600;-1010.000; -871.000
288.091; -275.800;-1049.000; -915.000
288.231;   85.600;   13.000;   15.000
288.370; -323.300;-1217.000;-1200.000
288.509; -143.800; -728.000; -645.000
288.648; -150.900; -770.000; -548.000
288.787;  -19.700; -243.000;  -87.000
288.926;  -85.400; -454.000; -475.000
289.065;  320.300;  859.000;  672.000
289.204;  -66.200; -377.000; -217.000
289.344; -165.500; -791.000; -690.000
289.483;  128.200;  416.000;  304.000
289.622;   -6.100; -291.000; -149.000
289.761;   -1.400; -309.000; -166.000
289.900; -172.300; -785.000; -626.000
290.039;   23.300;  -12.000;  -95.000
290.178;  -40.000; -274.000; -180.000
290.317; -128.500; -618.000; -479.000
290.456;  -84.200; -463.000; -451.000
290.595; -264.700; -961.000; -833.000
290.734; -237.800; -904.000; -891.000
290.873; -110.700; -456.000; -420.000
291.011; -186.900; -833.000; -843.000
291.150; -171.600; -770.000; -682.000
291.289;   -7.000; -343.000; -110.000
291.428; -186.200; -599.000; -480.000
291.567;  -82.200; -370.000; -442.000
291.706;   38.200;  109.000;  154.000
291.845; -155.800; -597.000; -505.000
291.984; -312.700;-1234.000;-1061.000
292.122;  192.200;  602.000;  582.000
292.261;  146.400;  620.000;  463.000
292.400;   53.700; -144.000;  211.000
292.539; -241.000; -959.000; -813.000
292.678;  -38.300; -325.000; -300.000
292.816; -271.200;-1136.000; -965.000
292.955; -150.700; -844.000; -684.000
293.094;  -28.300; -173.000; -337.000
293.233;  -66.800; -556.000; -400.000
293.371;  -26.100; -225.000;  -84.000
293.510; -194.100; -866.000; -780.000
293.649; -252.200; -959.000; -924.000
293.787;  -70.700;-1083.000;-1012.000
293.926;   39.000; -113.000;  -32.000
294.065;  -61.600; -379.000; -290.000
294.203;  157.500;  298.000;  406.000
294.342;  113.500;   74.000;  156.000
294.481;12235.000;51180.000; -836.000
294.619;   -5.000; -425.000; -582.000
294.758; -261.900;-1230.000;-1137.000
294.896;  226.200; -125.000;    5.000
295.035; -249.000;-1040.000;-1006.000
295.174; -222.800;-1082.000; -954.000
295.312;  -51.100; -323.000; -203.000
295.451;   36.000; -307.000; -428.000
295.589;  -75.900; -389.000; -518.000
295.728;   97.700; -292.000; -165.000
295.866;   71.600;  -36.000;  -51.000
296.005; -120.500; -584.000; -341.000
296.143; -111.700; -558.000; -596.000
296.282; -197.400; -957.000; -881.000
296.420; -125.500; -657.000; -557.000
296.559; -146.800; -892.000; -633.000
296.697;   85.900; -847.000; -665.000
296.835;  169.200;-1141.000;-1002.000
296.974;  123.200;  -23.000;   39.000
297.112;   49.800; -443.000; -504.000
297.251; -101.100; -815.000; -755.000
297.389;  228.300; -576.000; -438.000
297.527;  137.900; -145.000;  -83.000
297.666;  -35.100; -486.000; -438.000
297.804;  -78.300; -404.000; -264.000
297.942;   22.400; -136.000; -161.000
298.081;   63.300; -183.000;   63.000
298.219;  202.700;  -17.000;  -19.000
298.357;  133.400; -144.000;  -71.000
298.495;   92.800; -810.000; -812.000
298.634;  217.000;  245.000;  219.000
298.772;  224.400; -220.000; -338.000
298.910;  -48.300; -309.000; -182.000
299.048;   15.000; -130.000; -153.000
299.187;  -19.300; -350.000; -250.000
299.325;  128.800;   52.000;  122.000
299.463;  168.500; -389.000; -299.000
299.601;  322.700; -327.000; -271.000
299.739; -168.800; -908.000; -883.000
299.877; -121.100; -791.000; -703.000
300.016;  -76.500;-1095.000; -935.000
300.154;  376.500;  -19.000; -161.000
300.292;  152.400; -428.000; -348.000
300.430;  153.500; -408.000; -291.000
300.568; -141.000; -940.000; -874.000
300.706;  -49.400; -366.000; -469.000
300.844; -142.100;-1108.000; -979.000
300.982;  274.100;  246.000;  282.000
301.120; -182.300; -965.000; -866.000
301.258;  -58.200; -812.000; -705.000
301.396;  155.100;  104.000;  -41.000
301.534;  237.100; -218.000; -293.000
301.672;   84.400; -664.000; -521.000
301.810;  124.400; -613.000; -545.000
301.948;  315.200;   53.000;  149.000
302.086; 1243.600; -250.000;  -32.000
302.224; 2007.400; -610.000; -585.000
302.362;  151.300; -558.000; -622.000
302.500;   17.000; -923.000; -893.000
302.638;  311.600;  128.000;  245.000
302.776;   41.900; -352.000; -408.000
302.913;  156.400;  447.000;  236.000
303.051;   49.300;  -86.000;  -23.000
303.189;  143.300;   90.000;  118.000
303.327;  -42.800; -341.000; -256.000
303.465;  -98.200; -832.000; -588.000
303.603; -147.800; -805.000; -604.000
303.740;  264.000;  417.000;  241.000
303.878;   86.500; -800.000; -759.000
304.016; -137.900; -915.000; -790.000
304.154; -219.000;-1123.000;-1152.000
304.291;  -49.900; -505.000; -554.000
304.429;   68.300;  102.000;   74.000
304.567; -229.400; -908.000; -893.000
304.705;  -65.700; -408.000; -515.000
304.842;  206.100; -616.000; -540.000
304.980;  132.000;  215.000;   35.000
305.118;  160.400; -367.000; -365.000
305.255;  -61.700; -945.000; -927.000
305.393;  165.700;  178.000;  239.000
305.531; -134.700;-1173.000; -956.000
305.668; -145.200; -663.000; -582.000
305.806;  215.100; -358.000; -439.000
305.943;  201.200; -629.000; -637.000
306.081;  163.800; -378.000; -267.000
306.219; -184.600; -863.000; -748.000
306.356;   85.900;  158.000;   27.000
306.494;  342.700;  981.000;  761.000
306.631;   85.000;  -11.000;  -55.000
306.769;   43.000; -613.000; -485.000
306.906;   16.400; -284.000; -258.000
307.044;  -61.100; -473.000; -488.000
307.181;  -70.500; -410.000; -332.000
307.319;  123.600;  112.000;   87.000
307.456; -326.300;-1191.000;-1153.000
307.594; -141.400; -980.000; -727.000
307.731;  -13.100; -371.000; -164.000
307.868;   77.000;  -15.000;   20.000
308.006; -235.100; -961.000; -847.000
308.143;  -70.500; -618.000; -330.000
308.281;  460.300;  -37.000; -254.000
308.418;  112.300; -748.000; -640.000
308.555;  -77.600; -400.000; -250.000
308.693;  -88.900; -577.000; -573.000
308.830; -161.700; -712.000; -657.000
308.967;   66.900; -215.000;  -95.000
309.105;   11.900; -507.000; -396.000
309.242;  124.500; -468.000; -367.000
309.379;  870.200; -577.000; -655.000
309.517;  -27.900; -936.000; -948.000
309.654; -165.900; -910.000; -734.000
309.791;  -90.300; -662.000; -580.000
309.928; -146.800; -977.000; -914.000
310.065;  393.100;  819.000;  697.000
310.203;   89.000; -825.000; -850.000
310.340;   96.000; -465.000; -321.000
310.477; -106.300; -412.000; -516.000
310.614;  -93.900; -383.000; -473.000
310.751;  -94.200; -427.000; -518.000
310.889;   45.300;    1.000;   11.000
311.026; -259.600;-1161.000; -939.000
311.163;  -21.600; -386.000; -380.000
311.300; -101.200; -512.000; -479.000
311.437;  -83.000; -658.000; -619.000
311.574; -281.400;-1226.000; -985.000
311.711;  -64.600; -595.000; -433.000
311.848;  -15.300; -380.000; -388.000
311.985;  100.500;  270.000;   93.000
312.122; -194.500; -932.000; -762.000
312.259; -164.200; -941.000; -994.000
312.396; -120.800; -508.000; -551.000
312.533; -116.600; -812.000; -790.000
312.670; -186.100;-1070.000; -898.000
312.807;   -8.300; -352.000; -367.000
312.944;  -94.000; -513.000; -611.000
313.081;   -9.200; -150.000; -415.000
313.218; -198.600;-1111.000; -867.000
313.355;   87.800; -531.000; -449.000
313.492;   77.300; -455.000; -292.000
313.629;  333.100;  815.000;  735.000
313.766; -271.900;-1176.000;-1008.000
313.902;   19.200; -186.000;   21.000
314.039;  -55.400; -372.000; -289.000
314.176;  120.600;  286.000;  192.000
314.313; -118.400; -569.000; -473.000
314.450; -108.400; -788.000; -684.000
314.587;  -70.300; -468.000; -480.000
314.723;   41.000;  -78.000;  130.000
314.860;  112.400;  318.000;  332.000
314.997;  104.900;  223.000;  142.000
315.134;   -4.400; -385.000; -368.000
315.270;  -14.700; -480.000; -496.000
315.407; -186.200;-1094.000; -967.000
315.544;   -4.700; -657.000; -538.000
315.681;  -78.000; -681.000; -565.000
315.817;  129.300; -133.000; -176.000
315.954;   67.300; -613.000; -392.000
316.091; -190.500;-1045.000;-1023.000
316.227;   12.400;  -71.000; -179.000
316.364;   34.600;   23.000;    6.000
316.500;  -36.200; -113.000; -300.000
316.637;  -35.100; -181.000; -302.000
316.774; -141.800; -625.000; -358.000
316.910; -126.300; -598.000; -629.000
317.047; -115.600; -487.000; -351.000
317.183;  -72.500; -435.000; -566.000
317.320;  -15.300; -367.000; -321.000
317.456; -127.600; -733.000; -805.000
317.593; -134.200; -598.000; -641.000
317.729;   43.600;  168.000;  -67.000
317.866; -374.700;-1434.000;-1285.000
318.002; -134.600; -708.000; -948.000
318.139; -132.500; -883.000; -867.000
318.275; -174.100;-1003.000; -738.000
318.412;  -71.400; -517.000; -336.000
318.548;  -10.300; -751.000; -720.000
318.685; -146.000; -985.000; -888.000
318.821; -144.700; -762.000; -735.000
318.957;    7.700;   34.000;  -23.000
319.094;  145.900;  297.000;  154.000
319.230;  -62.000; -756.000; -742.000
319.367;  315.100; -471.000; -520.000
319.503;  165.400; -538.000; -436.000
319.639; -115.500; -877.000; -793.000
319.775;  -53.100; -750.000; -685.000
319.912;  -68.500; -424.000; -519.000
320.048; -122.200;-1184.000;-1184.000
320.184;  176.300;   59.000;   70.000
320.321;  -70.900; -497.000; -467.000
320.457;  173.000;  475.000;  662.000
320.593;  -97.200; -375.000; -382.000
320.729; -171.900; -732.000; -734.000
320.866; -106.600; -577.000; -635.000
321.002; -118.800; -759.000; -809.000
321.138;   11.800; -135.000; -211.000
321.274;  149.800; -148.000; -115.000
321.410;   -5.700; -585.000; -353.000
321.546;  -22.200;-1011.000; -911.000
321.683;  140.600;  400.000;  185.000
321.819;   62.300;  -48.000; -117.000
321.955; -160.500; -743.000; -722.000
322.091;  -64.900; -585.000; -540.000
322.227;   22.200; -382.000; -202.000
322.363;   25.800; -320.000; -215.000
322.499;  -20.800; -343.000; -331.000
322.635;  366.300;  636.000;  443.000
322.771;   59.100; -139.000;   12.000
322.907;  235.300;  129.000;  327.000
323.043;   22.400; -115.000; -206.000
323.179;  -50.400; -394.000; -363.000
323.315;  160.300; -401.000; -371.000
323.451;  293.800; -328.000; -236.000
323.587;  158.600;  -60.000;  -77.000
323.723;   50.400; -682.000; -601.000
323.859;  -24.500; -258.000;  -76.000
323.995;   -6.000; -467.000; -409.000
324.131; -192.000; -967.000; -892.000
324.267;   -7.600; -254.000; -276.000
324.402; -210.200; -960.000; -983.000
324.538;    7.200; -279.000; -104.000
324.674;   96.700;  164.000;   77.000
324.810;  467.200;  226.000;  308.000
324.946;   98.000; -810.000; -658.000
325.082;  -90.900; -568.000; -475.000
325.217;   43.000;  -62.000;   16.000
325.353; -153.900; -764.000; -659.000
325.489; -129.400; -540.000; -506.000
325.625;  -72.300; -579.000; -525.000
325.760;  136.000;  517.000;  376.000
325.896;  -52.900; -515.000; -702.000
326.032;  -62.000; -403.000; -352.000
326.168;  -86.100; -462.000; -369.000
326.303;  -77.700; -352.000; -461.000
326.439;  -17.000; -336.000; -276.000
326.575;   66.700; -190.000;  -29.000
326.710;   23.900; -156.000;  -30.000
326.846;   23.000;  146.000;  103.000
326.982; -156.600; -530.000; -548.000
327.117; -133.700; -481.000; -442.000
327.253; -144.900; -745.000; -742.000
327.388; -222.900;-1137.000;-1153.000
327.524;    5.000; -811.000; -578.000
327.659;   -3.000;  -58.000;  -22.000
327.795;   18.200;   69.000;   45.000
327.931; -155.500; -723.000; -499.000
328.066;   35.800; -417.000; -276.000
328.202;   36.500;   12.000; -129.000
328.337;  282.100;  957.000;  713.000
328.473;   23.600;  -12.000;  -74.000
328.608;   -8.500; -256.000; -267.000
328.743; -147.400; -799.000; -664.000
328.879;  108.300;  214.000;  114.000
329.014;  -89.200; -102.000; -122.000
329.150; -117.300; -358.000; -483.000
329.285;  -72.300; -465.000; -466.000
329.421;  -39.000; -548.000; -246.000
329.556;   -1.700;  -36.000;   85.000
329.691; -139.800; -633.000; -615.000
329.827; -119.500; -626.000; -480.000
329.962;  -36.900;  131.000; -301.000
330.097; -115.900; -673.000; -585.000
330.233;  -47.500; -410.000; -223.000
330.368; -215.200; -839.000; -628.000
330.503;   53.700;    3.000;   98.000
330.638;   83.200;  -93.000; -125.000
330.774;  -48.700; -609.000; -530.000
330.909;  -40.800; -434.000; -244.000
331.044; -132.000; -714.000; -708.000
331.179; -287.800;-1217.000;-1109.000
331.315;   83.800;   77.000;   20.000
331.450;   54.100;  157.000;  285.000
331.585; -135.200; -805.000; -706.000
331.720;  -95.800; -510.000; -460.000
331.855;   52.900;  -35.000; -102.000
331.990;  353.200;   62.000;  138.000
332.126;  196.500; -110.000;   71.000
332.261;  -39.500; -379.000; -265.000
332.396;   12.400; -135.000; -242.000
332.531; -181.900;-1074.000;-1031.000
332.666;   43.500; -519.000; -363.000
332.801; -184.600; -726.000; -807.000
332.936;   18.000; -192.000; -122.000
333.071; -253.600; -870.000; -817.000
333.206;   89.000;  307.000;  379.000
333.341;  100.200;  344.000;  418.000
333.476;  -87.400; -627.000; -623.000
333.611;   -9.400; -251.000; -173.000
333.746;  -14.700; -381.000; -464.000
333.881; -169.000; -973.000; -935.000
334.016; -200.000; -936.000; -917.000
334.151; -187.000; -746.000; -702.000
334.286;  126.200;  152.000;  186.000
334.421;   24.200; -125.000; -178.000
334.556;  -92.800; -611.000; -567.000
334.690; -117.500; -631.000; -577.000
334.825;  192.000;  381.000;   83.000
334.960;  -77.500; -285.000; -413.000
335.095;   76.100;  135.000;  -91.000
335.230; -163.100; -722.000; -738.000
335.365; -189.800;-1084.000; -990.000
335.499; -184.500;-1108.000;-1037.000
335.634;  116.800;    9.000;  534.000
335.769; -147.500; -755.000; -720.000
335.904;  -32.900; -603.000; -561.000
336.038;  -49.200; -735.000; -657.000
336.173; -178.000;-1206.000;-1194.000
336.308;   92.100; -116.000; -189.000
336.443;   11.800; -544.000; -634.000
336.577; -121.500; -936.000; -787.000
336.712;  193.300;   -4.000;  -12.000
336.847;  -12.700; -724.000; -607.000
336.981;  230.800; -272.000; -208.000
337.116;  645.000;  615.000;  501.000
337.250;  391.000; -434.000; -421.000
337.385;  290.700; -297.000; -208.000
337.520;   30.200; -632.000; -603.000
337.654;  -35.400; -215.000; -126.000
337.789; -208.000; -989.000; -933.000
337.923;    7.600; -104.000; -205.000
338.058; -149.000; -673.000; -738.000
338.192;  -34.200; -611.000; -488.000
338.327;   63.100;  -18.000; -155.000
338.461;  -44.900; -299.000; -469.000
338.596; -117.500; -780.000; -638.000
338.730; -178.800; -767.000; -803.000
338.865;  165.800;  -46.000; -140.000
338.999; -170.500; -846.000; -702.000
339.134;  -41.700; -634.000; -536.000
339.268;   25.300; -741.000; -603.000
339.403;  470.400; -740.000; -775.000
339.537;   87.200; -894.000; -820.000
339.671; -177.600; -829.000; -813.000
339.806; -102.800; -556.000; -512.000
339.940;   39.100; -261.000; -235.000
340.074; -145.000; -685.000; -510.000
340.209;  -44.100; -351.000; -230.000
340.343; -123.000; -517.000; -573.000
340.477;  377.200;  998.000; 1036.000
340.612; -120.700;-1033.000; -900.000
340.746;  166.300; -199.000; -243.000
340.880;  -74.100; -924.000; -785.000
341.014;   25.400;  -45.000; -154.000
341.149; -189.100; -756.000; -718.000
341.283; -177.900; -839.000; -754.000
341.417; -158.800;-1124.000; -938.000
341.551;  406.500; -768.000; -708.000
341.685;    3.000; -633.000; -611.000
341.820;  -78.300; -562.000; -493.000
341.954;  -48.300; -218.000; -349.000
342.088; -258.300;-1102.000;-1019.000
342.222;  161.200;  565.000;  618.000
342.356;  -55.100; -395.000; -335.000
342.490; -113.200; -880.000; -841.000
342.624;  -15.100; -339.000; -242.000
342.758;   67.900; -364.000; -312.000
342.892;  -78.500; -710.000; -585.000
343.026;  -18.300;  -58.000; -116.000
343.160;  -61.500; -426.000; -376.000
343.294; -117.800; -474.000; -337.000
343.428;   27.600; -488.000; -448.000
343.562;   70.500; -172.000;  -23.000
343.696;   13.300; -385.000; -314.000
343.830;   23.800; -362.000; -356.000
343.964;   76.300; -231.000; -168.000
344.098; 2029.100;  199.000;   70.000
344.232; 1709.200; -266.000; -127.000
344.366;  179.900; -567.000; -453.000
344.500;  208.600; -665.000; -744.000
344.634;  152.600; -324.000; -164.000
344.768;   75.700; -531.000; -341.000
344.902;  105.100;  278.000;  256.000
345.035; -118.700; -556.000; -496.000
345.169; -229.000; -933.000; -656.000
345.303;    5.800; -308.000; -482.000
345.437;  -56.800; -826.000; -717.000
345.571;  -89.300; -675.000; -594.000
345.704;  -73.900; -309.000; -532.000
345.838;    1.300; -331.000; -284.000
345.972;  -38.300; -543.000; -495.000
346.106;  275.200; -179.000; -190.000
346.239;  800.800; -312.000; -243.000
346.373;   86.700; -343.000; -302.000
346.507; -248.700; -950.000; -962.000
346.640;  395.500;  -30.000;   13.000
346.774;  -42.700; -650.000; -797.000
346.908;   48.800; -138.000;  -11.000
347.041; -128.700; -646.000; -593.000
347.175;   66.200;  259.000;   27.000
347.309;  -89.500; -698.000; -628.000
347.442; -160.100; -883.000; -732.000
347.576;  732.700;  670.000;  668.000
347.709;  499.000; -123.000;  -52.000
347.843; -112.400; -933.000; -825.000
347.976;  138.100;  235.000;  294.000
348.110; -298.000;-1268.000;-1186.000
348.243; -134.100; -679.000; -772.000
348.377;   63.800;  -26.000;   60.000
348.510;  180.300;  403.000;  540.000
348.644;   -7.800;  -37.000; -159.000
348.777;   63.700;  180.000;  191.000
348.911;  -42.300; -142.000; -112.000
349.044;  412.900;  471.000;  448.000
349.178;  416.600;-1069.000;-1006.000
349.311;  280.400;  141.000;  255.000
349.444;  -17.200; -927.000; -813.000
349.578;   19.700; -347.000; -200.000
349.711; -148.100; -959.000; -862.000
349.845;   68.900; -661.000; -591.000
349.978; -262.700;-1224.000;-1137.000
350.111; -129.900; -546.000; -612.000
350.244;  -97.400; -596.000; -700.000
350.378;   67.000; -392.000; -393.000
350.511;  -73.600; -393.000; -426.000
350.644; -163.700; -808.000; -806.000
350.778;   64.200;  168.000;  104.000
350.911;   73.600;  134.000;  140.000
351.044; -132.700; -685.000; -615.000
351.177;   16.300; -321.000; -281.000
351.310;   42.000;    3.000; -131.000
351.444;  -64.100; -888.000; -788.000
351.577;  354.800;  140.000;   90.000
351.710;  278.700;  593.000;  417.000
351.843;   10.700; -165.000;  -77.000
351.976;   65.300;  149.000;  -79.000
352.109; -109.600; -621.000; -612.000
352.242;   20.500; -464.000; -419.000
352.376;  -27.600; -580.000; -636.000
352.509;  502.900; -437.000; -356.000
352.642;   86.000; -654.000; -604.000
352.775;  189.300; -141.000;  -98.000
352.908; -202.100; -933.000; -904.000
353.041; -130.800; -814.000; -824.000
353.174;  -50.800; -551.000; -424.000
353.307; -113.700; -753.000; -764.000
353.440;  181.000;  541.000;  453.000
353.573; -171.900; -957.000;-1008.000
353.706;  -66.900; -384.000; -558.000
353.839;   30.000; -264.000; -220.000
353.971; -102.100; -657.000; -512.000
354.104; -142.500; -896.000; -835.000
354.237;  -20.900; -627.000; -662.000
354.370; -142.800; -846.000; -879.000
354.503; -332.800;-1231.000;-1308.000
354.636;   13.300; -529.000; -348.000
354.769; -188.300; -937.000; -860.000
354.902;   40.700; -230.000; -139.000
355.034;   44.800; -164.000; -220.000
355.167;   37.200; -262.000; -162.000
355.300; -160.600;-1061.000; -880.000
355.433; 1399.900;  -71.000;  -14.000
355.565; 2104.200; -402.000; -384.000
355.698;  537.500; -356.000; -296.000
355.831;   23.100; -882.000; -801.000
355.964;  227.800; -285.000; -170.000
356.096; -107.600; -856.000; -843.000
356.229;  136.200; -523.000; -530.000
356.362;  450.500; -373.000; -266.000
356.494;  892.100; -229.000; -162.000
356.627; 1032.300;  269.000;  377.000
356.760; 1044.000;  120.000;   53.000
356.892; 1267.300; -286.000; -601.000
357.025; 1422.600;  403.000;  389.000
357.157; 1375.600; -167.000; -179.000
357.290;  775.500; -856.000; -713.000
357.423;  260.200; -667.000; -556.000
357.555;  297.200; -217.000; -228.000
357.688;  306.200; -483.000; -364.000
357.820;  852.300; -870.000; -877.000
357.953; 6785.400; -563.000; -589.000
358.085; 1691.300; -632.000; -612.000
358.218; 3032.200;-1131.000; -932.000
358.350;  578.300;  -58.000;  312.000
358.483; -161.500;-1300.000;-1187.000
358.615;  112.500;-1182.000;-1078.000
358.747;    7.300;-1187.000;-1058.000
358.880;  177.200; -810.000; -744.000
359.012;   65.600; -376.000; -202.000
359.145;  -57.700; -480.000; -511.000
359.277;  137.400; -962.000; -913.000
359.409; 5866.300;  536.000;  231.000
359.542; 1502.200; -738.000; -688.000
359.674;  190.300;   46.000;   13.000
359.806;  -76.100; -565.000; -438.000
359.939;  -45.100; -617.000; -516.000
360.071;  -47.300; -583.000; -579.000
360.203;   -9.400; -411.000; -364.000
360.335;  136.700;  164.000;  -16.000
360.468;  404.600; -249.000; -307.000
360.600; 4399.800; -547.000; -454.000
360.732; 3592.100; -546.000; -423.000
360.864;  431.300;-1216.000;-1044.000
360.996;  709.500; -516.000; -554.000
361.129;  164.600; -389.000; -598.000
361.261;   83.500;  110.000; -113.000
361.393;   19.500; -252.000; -214.000
361.525;  121.700;   94.000;  244.000
361.657;  -55.900; -821.000; -703.000
361.789;  111.900; -139.000; -155.000
361.921;  659.000; -642.000; -593.000
362.053;  723.000;  524.000;  541.000
362.185;  193.900;  288.000;   72.000
362.318; -107.900; -709.000; -705.000
362.450;  390.200;  294.000;  444.000
362.582;  542.700; -913.000; -870.000
362.714;    7.100; -353.000; -332.000
362.846;  -95.100; -606.000; -490.000
362.978; -240.100; -941.000; -811.000
363.109;  170.900; -161.000; -260.000
363.241; 1067.500; -739.000; -749.000
363.373;  680.300; -649.000; -564.000
363.505;  834.300; -186.000;  -91.000
363.637;  242.400; -787.000; -601.000
363.769; -205.000;-1067.000;-1080.000
363.901;  -85.900; -596.000; -654.000
364.033; -170.000;-1103.000;-1062.000
364.165;   46.000; -283.000; -283.000
364.296;  124.900; -316.000; -177.000
364.428;   34.700;-1344.000;-1220.000
364.560;  -91.900; -679.000; -661.000
364.692;  -59.800; -738.000; -835.000
364.824;  766.600; -588.000; -456.000
364.955;  728.700; -402.000; -564.000
365.087;  930.900;-1097.000; -852.000
365.219;   17.100; -686.000; -816.000
365.351; -108.100; -526.000; -572.000
365.482;  160.000;  300.000;  240.000
365.614;  -37.300; -402.000; -314.000
365.746; -142.900; -729.000; -752.000
365.877; -160.900; -706.000; -672.000
366.009;  401.400;  -35.000;  -62.000
366.141; -171.700;-1249.000;-1134.000
366.272; -194.000; -803.000; -719.000
366.404; -192.900;-1005.000; -874.000
366.535;   44.300; -139.000;  -12.000
366.667; -112.000; -644.000; -649.000
366.799;  151.200;  353.000;  203.000
366.930; -189.500; -862.000; -996.000
367.062;  239.600; -639.000; -613.000
367.193;  165.700; -872.000; -842.000
367.325;  -53.500; -580.000; -684.000
367.456;  281.400; -246.000;   31.000
367.588;  254.500; -371.000; -318.000
367.719;   84.000;  -44.000;  -45.000
367.851;   55.200; -222.000; -241.000
367.982;    3.800; -875.000; -732.000
368.113;  316.700; -475.000; -358.000
368.245; -170.500; -960.000; -841.000
368.376;   22.500; -254.000; -302.000
368.508;   50.900; -188.000; -263.000
368.639; -206.200;-1166.000;-1034.000
368.770;   38.800; -670.000; -589.000
368.902;  -85.300; -836.000; -926.000
369.033; -166.900; -906.000; -855.000
369.164;  -57.300; -720.000; -653.000
369.296; -179.200; -452.000; -601.000
369.427;   71.000; -209.000; -144.000
369.558;  -35.100; -593.000; -377.000
369.689; -134.100; -721.000; -569.000
369.821; -219.700; -951.000; -845.000
369.952;   10.800;   42.000; -108.000
370.083;  -65.400; -229.000; -108.000
370.214; -109.400; -735.000; -650.000
370.345;   33.900;   65.000;   81.000
370.477;  -99.200; -810.000; -790.000
370.608;  618.600; -328.000; -264.000
370.739;  -25.000;-1233.000;-1292.000
370.870;   -3.200;-1102.000; -923.000
371.001;  291.500; -378.000; -467.000
371.132;  -77.400; -754.000; -735.000
371.263;   34.100;  -42.000; -148.000
371.394; -230.100; -841.000; -748.000
371.525;  121.900;  345.000;  225.000
371.657; -133.800; -808.000; -670.000
371.788;  222.200;  103.000;  199.000
371.919;  434.000; -384.000; -304.000
372.050; 7651.300;  -91.000; -156.000
372.181; 2286.000; -188.000; -294.000
372.311;  907.900;   42.000; -127.000
372.442;  152.900; -457.000; -451.000
372.573;   19.900; -444.000; -340.000
372.704; -170.800;-1008.000; -980.000
372.835;  265.700; -228.000; -289.000
372.966;  -88.800; -646.000; -554.000
373.097;  -48.900; -575.000; -711.000
373.228;   26.800; -717.000; -542.000
373.359;  364.800; -824.000; -536.000
373.490; 2182.500; -881.000; -727.000
373.620; 2688.300;-1001.000; -803.000
373.751; 4084.700; -332.000; -396.000
373.882; 1768.900; -663.000; -733.000
374.013;  246.100; -449.000; -262.000
374.143;    2.700; -581.000; -659.000
374.274; -160.900; -987.000; -908.000
374.405;  431.300; -388.000; -276.000
374.536; 1082.800; -526.000; -387.000
374.666; 2629.300; -759.000; -807.000
374.797;  576.800; -817.000; -868.000
374.928; 2112.300; -710.000; -560.000
375.058; 2036.100; -535.000; -500.000
375.189;  230.100;  -59.000;  -93.000
375.320; -132.300; -928.000;-1034.000
375.450;  -34.500; -625.000; -616.000
375.581;  -33.000; -526.000; -436.000
375.712;   -9.200; -574.000; -250.000
375.842;  767.400; -438.000; -415.000
375.973;  580.700; -554.000; -513.000
376.103;   19.000; -665.000; -648.000
376.234;  -98.400; -531.000; -552.000
376.364;   -5.300; -944.000; -867.000
376.495;  751.100;  925.000;  529.000
376.625;  118.000; -472.000; -485.000
376.756;  255.000; -709.000; -678.000
376.886;  -42.700;-1178.000;-1026.000
377.017;   18.200;-1048.000;-1061.000
377.147;  394.100; -786.000; -782.000
377.278;  174.600;  174.000;  228.000
377.408; -228.400; -801.000; -815.000
377.538; -148.800; -707.000; -693.000
377.669; -103.800; -537.000; -613.000
377.799;  -96.700; -645.000; -635.000
377.929;  -22.300; -610.000; -428.000
378.060; -181.100; -781.000; -847.000
378.190;  -59.900; -726.000; -531.000
378.320;  -46.400; -401.000; -406.000
378.451;   57.000; -131.000;  -22.000
378.581;   66.700;  -67.000; -110.000
378.711;  446.400; 1035.000;  866.000
378.841;   31.700; -533.000; -675.000
378.972;  -45.300; -871.000; -751.000
379.102;  130.400; -652.000; -579.000
379.232;   49.300; -126.000;  -73.000
379.362; -177.300;-1001.000; -885.000
379.492;  120.100; -373.000; -424.000
379.623;  287.500;    0.000;  111.000
379.753; -113.300;-1107.000; -974.000
379.883;  514.800;   59.000;  156.000
380.013;   70.400;-1081.000;-1017.000
380.143; -159.700;-1097.000;-1056.000
380.273; -136.700; -985.000; -861.000
380.403;   64.700; -344.000; -257.000
380.533;   25.700; -651.000; -664.000
380.663;  259.900;  173.000;  128.000
380.793; -107.000;-1027.000;-1074.000
380.923;   61.900; -103.000;  -34.000
381.053; -129.100; -613.000; -623.000
381.183;   20.900; -106.000; -248.000
381.313;  164.000; -656.000; -470.000
381.443;  191.200; -692.000; -473.000
381.573;  577.100; -402.000; -409.000
381.703;  797.300;-1249.000;-1095.000
381.833; -149.700;-1454.000;-1336.000
381.963;  276.400; -134.000;  -87.000
382.093; 2843.300; -925.000; -909.000
382.223;  894.600; -713.000; -602.000
382.353;   61.200; -801.000; -608.000
382.482;  974.000;-1091.000; -964.000
382.612; 1696.500; -872.000; -644.000
382.742;  916.500; -695.000; -622.000
382.872;  748.600; -565.000; -551.000
383.002;  232.200;  347.000; -132.000
383.131;   36.800; -226.000; -160.000
383.261;  -21.700; -706.000; -768.000
383.391;  519.300; -552.000; -377.000
383.521; 4019.400;  451.000;  263.000
383.650;  751.000; -947.000; -904.000
383.780;   10.400; -783.000; -656.000
383.910;  338.100;  880.000;  802.000
384.039;  119.500; -794.000; -656.000
384.169;  572.200;-1205.000;-1017.000
384.299;   33.900; -650.000; -662.000
384.428;  -86.300; -764.000; -680.000
384.558;   -2.300; -308.000; -275.000
384.687;   76.000; -414.000; -334.000
384.817;  168.300;   75.000;   -2.000
384.947;  166.500; -234.000; -141.000
385.076;  722.500;  982.000;  912.000
385.206;  330.900;  369.000;  480.000
385.335;   37.500; -549.000; -417.000
385.465;  -58.200; -655.000; -663.000
385.594;  411.500;  -53.000;  -44.000
385.724; 1119.700; -868.000; -838.000
385.853;  367.700; -296.000; -270.000
385.982; 3272.400; -743.000; -787.000
386.112; 4751.300;-1052.000; -871.000
386.241;  387.000; -307.000; -312.000
386.371;  140.800; -174.000;  -87.000
386.500;  113.000; -825.000; -789.000
386.629;   82.500; -874.000; -817.000
386.759;  216.800;  -43.000;   68.000
386.888;  129.500; -170.000; -250.000
387.017;  -68.100; -648.000; -620.000
387.147;  -26.000; -771.000; -798.000
387.276;   99.500; -410.000; -397.000
387.405;  135.500; -398.000; -342.000
387.535;  -10.000; -452.000; -361.000
387.664;  -69.400; -692.000; -620.000
387.793;  260.500; -198.000; -113.000
387.922; 1348.300;  255.000;  200.000
388.052;  201.300; -576.000; -423.000
388.181;  245.400; -342.000; -472.000
388.310;  271.400; -889.000; -710.000
388.439;    8.200; -749.000; -742.000
388.568;  563.100;  365.000;  244.000
388.697; 2509.700; -756.000; -653.000
388.826;  579.000; -768.000; -666.000
388.956;  229.800; -285.000; -307.000
389.085;   42.800; -347.000; -287.000
389.214; -120.800; -842.000; -872.000
389.343;  -63.600; -645.000; -413.000
389.472;  658.300;  126.000;  149.000
389.601;  966.700;   91.000;    0.000
389.730;   71.900; -568.000; -687.000
389.859;  259.900;  226.000;   46.000
389.988;  520.800; -423.000; -408.000
390.117;  350.500; -168.000; -146.000
390.246;  100.200; -331.000; -320.000
390.375;  342.300; -673.000; -626.000
390.504;  -31.100; -703.000; -621.000
390.633; -118.700; -672.000; -726.000
390.761;  -45.500; -732.000; -645.000
390.890;  171.400;   -4.000; -130.000
391.019;   72.300; -421.000; -441.000
391.148; -186.400; -826.000; -855.000
391.277;  -32.900; -576.000; -493.000
391.406;  -68.000; -821.000; -805.000
391.534;  151.500;  574.000; -301.000
391.663;  -15.300; -583.000; -645.000
391.792;  -81.900; -673.000; -701.000
391.921;  369.600;   -3.000;   15.000
392.050;  593.000; -287.000; -228.000
392.178;   62.900;-1206.000;-1061.000
392.307;  435.100; -758.000; -712.000
392.436;  223.400; -427.000; -641.000
392.564;  129.300;  166.000;   -6.000
392.693; -114.500; -860.000; -682.000
392.822;  582.300; -529.000; -534.000
392.950;  369.300; -880.000; -714.000
393.079;  802.700; -188.000; -328.000
393.208;  154.400; -488.000; -511.000
393.336;   48.800; -170.000; -145.000
393.465;  -45.200; -317.000; -199.000
393.593;   81.600;   62.000;   79.000
393.722; -264.800;-1121.000; -916.000
393.850;    7.600; -188.000;  -61.000
393.979; -237.200; -926.000; -805.000
394.107;  -48.900; -517.000; -537.000
394.236;   13.400; -570.000; -507.000
394.364;  598.900;  383.000;  206.000
394.493;  944.900; -911.000; -767.000
394.621;   26.500; -955.000; -916.000
394.750;  996.400; -873.000; -923.000
394.878; 4321.100; -247.000; -149.000
395.007; 5388.300; -721.000; -807.000
395.135;  385.100; -790.000; -721.000
395.263; -146.900;-1038.000;-1040.000
395.392;   68.000;  -25.000; -107.000
395.520; -128.700; -818.000; -679.000
395.648;  -79.300; -865.000; -915.000
395.777;   72.900; -366.000; -405.000
395.905;  -11.800; -449.000; -564.000
396.033;  130.000;  217.000;  172.000
396.162; 1619.900; -399.000; -453.000
396.290; 1353.000;  -17.000;   -2.000
396.418;  328.800; -555.000; -514.000
396.546; -116.300; -571.000; -466.000
396.674; -138.200; -850.000; -878.000
396.803;   81.700;  -72.000;  -23.000
396.931;  319.700; -179.000; -199.000
397.059;  243.500;-1026.000; -989.000
397.187; -122.700;-1026.000; -975.000
397.315; -202.700; -884.000; -649.000
397.443; -120.500; -592.000; -443.000
397.572; -109.600; -578.000; -424.000
397.700;   90.800; -607.000; -614.000
397.828;  161.300;  120.000;  -90.000
397.956;  -63.300; -508.000; -478.000
398.084; -128.500; -767.000; -626.000
398.212;  185.900;  137.000;  124.000
398.340;  123.700;  -56.000;  159.000
398.468;  159.000; -390.000; -169.000
398.596; -215.400; -993.000; -953.000
398.724; -191.700; -762.000; -767.000
398.852; -257.200;-1024.000; -976.000
398.980;  -39.600; -560.000; -560.000
399.108;  -23.100; -982.000; -735.000
399.236;  154.000;   13.000;    8.000
399.363;  104.700;  222.000;  196.000
399.491;  -31.400; -404.000; -398.000
399.619; -184.000; -829.000; -800.000
399.747; -138.600; -859.000; -771.000
399.875;  248.400;  220.000;  234.000
400.003;  -18.000; -359.000; -284.000
400.130; -116.900; -421.000; -341.000
400.258;   12.200;  -83.000;   38.000
400.386;  -74.800; -352.000; -168.000
400.514;   13.900; -526.000; -587.000
400.641;  -81.900; -928.000; -802.000
400.769; -205.100; -979.000; -888.000
400.897;  -38.000; -838.000; -793.000
401.025;   95.800; -166.000; -152.000
401.152;   72.100;  220.000;   38.000
401.280; -102.300; -430.000; -429.000
401.408; -175.400; -712.000; -576.000
401.535; -157.000; -735.000; -758.000
401.663; -317.500;-1134.000;-1054.000
401.790; -103.200; -514.000; -525.000
401.918;  153.300;  436.000;  405.000
402.046;   49.200;  134.000;  122.000
402.173;    6.600;  -18.000;    7.000
402.301;  -43.300; -519.000; -397.000
402.428;  128.500;  528.000;  383.000
402.556; -258.700;-1188.000; -913.000
402.683;   -2.100;  -20.000;   -1.000
402.811;   20.200;  -37.000; -206.000
402.938;   18.000;   20.000;   27.000
403.066;  503.200; -574.000; -558.000
403.193;  748.700;  299.000;  239.000
403.321;  604.400; -396.000; -574.000
403.448;  722.400;   83.000;   27.000
403.575;  384.500;  -90.000;  -46.000
403.703; -125.000; -732.000; -557.000
403.830;  -79.700; -531.000; -496.000
403.957; -231.700;-1117.000;-1023.000
404.085;   93.100;  -61.000; -172.000
404.212;  226.500;  -50.000;   63.000
404.339;  440.300; -566.000; -306.000
404.467; 8056.300; -612.000; -524.000
404.594; 5878.000; -287.000; -227.000
404.721; 1590.800; -869.000; -764.000
404.848;  190.300; -113.000; -202.000
404.976; -149.300; -856.000; -783.000
405.103;   64.600;  -14.000;  -82.000
405.230;   83.800;  190.000;  226.000
405.357;  147.500;  117.000;   44.000
405.484;  403.500;  -49.000;    5.000
405.612;   85.900; -548.000; -563.000
405.739;  -77.600; -488.000; -243.000
405.866;  228.300;  669.000;  385.000
405.993;  -38.200; -398.000; -102.000
406.120; -222.200; -801.000; -887.000
406.247;  -42.100; -323.000; -342.000
406.374; 1197.800;  540.000;  629.000
406.501;  335.500; -632.000; -702.000
406.628;  -78.900; -621.000; -589.000
406.755; -103.500; -803.000; -620.000
406.882;  -13.700; -228.000; -277.000
407.009; -150.700; -719.000; -628.000
407.136;  237.200; -480.000; -401.000
407.263;  468.300; -939.000; -829.000
407.390;  -57.100; -692.000; -614.000
407.517; -225.400;-1139.000;-1187.000
407.644;  -51.600; -332.000; -256.000
407.771;  -40.200; -249.000; -287.000
407.898;  116.800;  168.000;  328.000
408.025;  -82.200; -421.000; -313.000
408.151;   51.600;   82.000;  153.000
408.278;  -65.600; -267.000; -216.000
408.405; -170.700; -931.000; -899.000
408.532; -113.600; -549.000; -542.000
408.659; -212.200; -677.000; -648.000
408.785; -364.400;-1298.000;-1170.000
408.912;  -48.600; -412.000; -296.000
409.039; -170.100; -610.000; -686.000
409.166; -151.600; -591.000; -555.000
409.292; -146.800; -571.000; -534.000
409.419; -169.400; -665.000; -649.000
409.546; -126.000; -431.000; -192.000
409.672; -157.400; -713.000; -545.000
409.799;   30.700;  -36.000;   34.000
409.926;  -24.700; -180.000; -179.000
410.052; -272.500;-1127.000;-1091.000
410.179;  -25.000; -368.000; -392.000
410.305; -116.100; -375.000; -493.000
410.432;  -13.700; -220.000; -333.000
410.558; -110.800; -305.000; -380.000
410.685; -158.200; -688.000; -431.000
410.812; -136.500; -409.000; -588.000
410.938; -199.400; -964.000; -808.000
411.065; -149.500; -671.000; -645.000
411.191;   17.900; -189.000; -174.000
411.317; -196.700; -823.000; -742.000
411.444;  -56.000; -317.000; -246.000
411.570;  -60.600; -339.000; -294.000
411.697; -201.200; -758.000; -752.000
411.823; -274.800; -989.000; -999.000
411.949;   -8.400;  -56.000;   17.000
412.076; -114.700; -539.000; -519.000
412.202; -153.900; -758.000; -757.000
412.329; -190.300; -798.000; -752.000
412.455; -149.000; -821.000; -657.000
412.581;   47.600;  -15.000;  172.000
412.707;  -45.700; -540.000; -457.000
412.834;  118.000;  156.000;  219.000
412.960; -109.500; -785.000; -784.000
413.086; -152.100; -743.000; -701.000
413.212;  449.800;  604.000;  578.000
413.339;  -69.500; -685.000; -701.000
413.465;  118.300; -364.000; -310.000
413.591; -103.700; -757.000; -474.000
413.717;  -14.400; -358.000; -366.000
413.843; -209.000; -839.000; -861.000
413.969;  -75.000;  -47.000; -292.000
414.096; -157.800; -679.000; -679.000
414.222;   58.900;  -33.000;   85.000
414.348;   52.600; -652.000; -385.000
414.474;  303.100;   38.000;  -52.000
414.600;   37.300; -126.000; -144.000
414.726;   61.800;  -96.000;  -55.000
414.852;  -46.600; -365.000; -342.000
414.978;  122.900;  104.000;  -18.000
415.104;  109.400;   38.000;   80.000
415.230;   71.100; -329.000; -330.000
415.356;  105.400; -409.000; -514.000
415.482;  409.000;   13.000;  -35.000
415.608;  431.300; -247.000; -323.000
415.734; 1607.500;   67.000;   38.000
415.860;32240.100; -875.000; -767.000
415.986;21113.200; -685.000; -607.000
416.111; 1727.500; -798.000; -652.000
416.237;  389.400; -424.000; -571.000
416.363; 1721.200; -765.000; -733.000
416.489; 5748.300; -324.000; -251.000
416.615;  557.400; -707.000; -742.000
416.741;  -55.900; -677.000; -784.000
416.866; -174.500; -673.000; -736.000
416.992; -200.900; -801.000; -818.000
417.118;   16.700;  -41.000;  -80.000
417.244;  -84.100; -798.000; -531.000
417.369; -117.100; -801.000; -612.000
417.495;   86.200; -325.000; -254.000
417.621; -112.000;-1015.000; -803.000
417.746;   40.800; -579.000; -572.000
417.872;  127.300; -254.000; -144.000
417.998;  113.100; -515.000; -530.000
418.123; 1600.000;-1073.000; -845.000
418.249; 7551.800; -512.000; -601.000
418.374;  892.300; -916.000; -824.000
418.500;  153.100; -383.000; -482.000
418.626;  209.200;   70.000;  -59.000
418.751;  224.900; -549.000; -448.000
418.877;  291.100; -637.000; -643.000
419.002; 2849.900; -688.000; -560.000
419.128;17880.500; -930.000; -721.000
419.253; 3847.000; -967.000; -837.000
419.379;  561.300; -391.000; -338.000
419.504;  632.500;  325.000;  415.000
419.629;  705.300; -393.000; -212.000
419.755; 5105.300; -317.000; -254.000
419.880;27047.500;  -98.000;   67.000
420.006;16695.400; -280.000; -221.000
420.131;42890.100; -662.000; -775.000
420.256; 5717.900; -315.000; -316.000
420.382;  787.000; -665.000; -687.000
420.507;   74.700; -649.000; -778.000
420.632;  396.400; -337.000; -339.000
420.758;  693.100; -251.000; -425.000
420.883; -102.500; -876.000; -672.000
421.008; -122.300; -775.000; -619.000
421.133; -105.700; -509.000; -467.000
421.259;  -31.700; -325.000; -259.000
421.384; -152.100; -834.000; -693.000
421.509;   52.400;-1052.000; -862.000
421.634; 3236.900; -936.000; -820.000
421.759; 1233.100; -359.000; -327.000
421.885;    0.700; -717.000; -656.000
422.010;  -71.500; -673.000; -542.000
422.135; -273.100; -695.000; -727.000
422.260;  149.600;  340.000;  280.000
422.385;  -50.000;   12.000;  -98.000
422.510;   72.800;  151.000;  -26.000
422.635;  166.500;  -87.000;  -43.000
422.760;  230.700; -766.000; -791.000
422.885;  147.900;  -57.000;  -80.000
423.010;    9.000; -112.000; -169.000
423.135; -126.700; -481.000; -561.000
423.260;   61.600; -150.000; -245.000
423.385;  228.800;  476.000;  222.000
423.510;  168.900;   71.000;  -22.000
423.635;  223.100;  133.000;   45.000
423.760;  222.700;  383.000;  328.000
423.885;  195.700;  336.000;  391.000
424.010;   69.400;  -68.000;  -13.000
424.135;   -0.300;    5.000;  -33.000
424.259; -132.700; -654.000; -457.000
424.384;  -43.300; -279.000; -272.000
424.509;   62.000; -260.000; -186.000
424.634; -121.400; -761.000; -623.000
424.759;  -15.800; -688.000; -544.000
424.883;   14.700; -506.000; -527.000
425.008;  347.900; -502.000; -410.000
425.133; 3010.000; -679.000; -653.000
425.258; 1242.700; -517.000; -381.000
425.382; 2223.600; -867.000; -774.000
425.507; 5251.300; -487.000; -543.000
425.632;  763.200; -802.000; -663.000
425.756;  657.500; -256.000; -146.000
425.881; 8637.100; -831.000; -857.000
426.006;20527.500; -604.000; -355.000
426.130; 3147.900; -696.000; -508.000
426.255;  389.600; -611.000; -491.000
426.379;  248.800; -189.000; -577.000
426.504;  697.700;  660.000;  544.000
426.629; 6563.700; -519.000; -466.000
426.753; 4128.500;   64.000;  -46.000
426.878;  509.700; -252.000; -288.000
427.002;  320.600; -651.000; -668.000
427.127; 2672.000;  -35.000; -158.000
427.251;16333.300;  372.000;  401.000
427.375; 4265.400; -191.000; -173.000
427.500; 4661.900; -616.000; -610.000
427.624; 1473.200; -234.000; -400.000
427.749;  304.700; -216.000; -225.000
427.873;   23.300; -499.000; -412.000
427.997;    1.800; -222.000; -230.000
428.122;  246.600;  795.000;  703.000
428.246;  264.300;  433.000;  434.000
428.371; -163.400; -869.000; -773.000
428.495; -142.300; -624.000; -646.000
428.619;   71.700; -186.000; -117.000
428.743;  157.900;   65.000;  132.000
428.868;  137.100; -732.000; -643.000
428.992; 3089.700; -219.000; -326.000
429.116; 1279.000; -329.000; -357.000
429.240;  746.800;  419.000;  426.000
429.365;   34.600; -454.000; -574.000
429.489;   37.300; -638.000; -647.000
429.613;  127.500; -236.000; -177.000
429.737;  147.100; -563.000; -432.000
429.861;  523.200; -247.000; -133.000
429.985; 8609.200; -425.000; -305.000
430.109; 8455.500; -770.000; -908.000
430.234; 1021.100;   76.000;  -50.000
430.358;  161.000; -250.000; -160.000
430.482;  -39.700; -672.000; -564.000
430.606;  -36.700; -655.000; -375.000
430.730;  164.000; -437.000; -388.000
430.854;  424.600; -909.000; -835.000
430.978;  -45.200; -795.000; -764.000
431.102;  -18.300; -499.000; -422.000
431.226;  -59.300; -874.000; -815.000
431.350;  262.100;  345.000;  422.000
431.474;  -32.900; -661.000; -373.000
431.597; -227.100;-1060.000; -848.000
431.721;  -91.600; -276.000; -267.000
431.845; -181.000; -704.000; -472.000
431.969;  -94.500; -304.000; -349.000
432.093; -132.400; -395.000; -317.000
432.217;   37.100;   32.000;   82.000
432.341;  -86.600; -523.000; -518.000
432.464;  119.100;   96.000;   40.000
432.588;  636.800; -401.000; -329.000
432.712;  278.700;  -52.000;  -52.000
432.836;  153.500;  213.000;  263.000
432.959;  -10.900; -372.000; -311.000
433.083;  203.700;   11.000;    2.000
433.207;  625.800;  285.000;  930.000
433.330; 7392.300; -391.000; -200.000
433.454; 8255.600; -654.000; -638.000
433.578; 5025.800;  583.000;  278.000
433.701;  913.700; -623.000; -675.000
433.825;  407.800; -292.000; -299.000
433.949;  655.100;   28.000;  -72.000
434.072;  278.600; -410.000; -323.000
434.196;   57.800; -309.000; -117.000
434.319; 8002.100;25482.000;25124.000
434.443; 1411.300; -656.000; -603.000
434.566; 3784.200;  281.000;   62.000
434.690;  530.600; -637.000; -383.000
434.813;  134.700; -251.000; -173.000
434.937;  -68.900; -569.000; -696.000
435.060;   51.600; -423.000; -332.000
435.184; 1082.500; -492.000; -217.000
435.307;  554.000;  159.000;  102.000
435.431;   63.500;  -40.000;   24.000
435.554;  -74.500; -399.000; -240.000
435.677;  -89.900; -350.000; -258.000
435.801;  -12.300;  -25.000;   49.000
435.924;   93.700;    1.000;  -67.000
436.048;  -96.500;-1019.000; -732.000
436.171;  -69.900; -240.000;  -66.000
436.294;   20.900; -248.000; -229.000
436.417;   69.200; -963.000; -849.000
436.541; -160.700; -814.000; -840.000
436.664;   -9.500; -242.000; -316.000
436.787;   76.200;   13.000;  113.000
436.910; -152.200; -792.000; -422.000
437.034;  139.500;  142.000;  143.000
437.157;  298.500;  -11.000;    0.000
437.280;   25.500; -392.000; -292.000
437.403;  -47.700; -982.000; -869.000
437.526; 2029.100; -903.000; -865.000
437.649; 6052.700; -505.000; -332.000
437.772;  878.900; -692.000; -540.000
437.896;  339.400;  700.000;  544.000
438.019; -112.200; -758.000; -503.000
438.142; -126.300; -596.000; -506.000
438.265;  126.300; -639.000; -670.000
438.388; 1499.900; -520.000; -410.000
438.511;  286.500; -597.000; -394.000
438.634;    0.800; -247.000; -125.000
438.757; -187.700; -693.000; -619.000
438.880;   22.600;  -34.000;  -57.000
439.003;  -82.900; -417.000; -437.000
439.126;  -30.100; -287.000; -167.000
439.248;  -54.300;  -98.000; -139.000
439.371;   -8.800;    9.000;  -53.000
439.494;  114.700;  510.000;  439.000
439.617;  -45.100;   65.000;  -88.000
439.740; -301.700; -968.000; -816.000
439.863; -218.500; -755.000; -595.000
439.986; -179.400; -476.000; -431.000
440.108;   -7.400; -161.000; -112.000
440.231; -257.500; -950.000; -836.000
440.354;   23.200;  -64.000; -150.000
440.477;  192.100; -566.000; -542.000
440.599;  154.300; -200.000; -225.000
440.722; -164.400; -709.000; -586.000
440.845;  216.400;  751.000;  928.000
440.968; -174.800; -415.000; -311.000
441.090;  -96.900; -199.000;  -33.000
441.213; -284.100;-1021.000; -825.000
441.336;  -20.500; -159.000;   -5.000
441.458;  -66.500; -549.000; -396.000
441.581;  -56.300; -628.000; -629.000
441.703;  -85.000; -152.000;   13.000
441.826; -147.200; -557.000; -400.000
441.948;  -22.400;   56.000;   51.000
442.071;  143.300;  555.000;  424.000
442.193; -190.900; -531.000; -485.000
442.316;  117.000;  152.000;   97.000
442.438;  125.600; -233.000;  -10.000
442.561;  231.600;  272.000;  262.000
442.683; 1651.800; -809.000; -522.000
442.806; 2943.300;   -8.000;   74.000
442.928;  138.100; -859.000; -604.000
443.051;  -93.600; -577.000; -373.000
443.173; -106.800; -341.000; -339.000
443.295; -121.400; -263.000; -371.000
443.418;  -78.700; -321.000;  -29.000
443.540;   39.300; -106.000;   -4.000
443.662; -146.600; -563.000; -465.000
443.785;   79.300;  335.000;  199.000
443.907; -177.000; -362.000; -208.000
444.029; -182.500; -767.000; -494.000
444.152; -211.700; -644.000; -554.000
444.274;  -20.400;  -18.000;  -24.000
444.396; -174.200; -461.000; -221.000
444.518; -178.700; -691.000; -454.000
444.640; -166.800; -268.000; -111.000
444.763;   37.500;  388.000;  249.000
444.885; -158.200; -432.000; -392.000
445.007;  -16.200;   35.000;   86.000
445.129; -155.600; -610.000; -515.000
445.251; -137.700; -372.000; -439.000
445.373; -216.500; -537.000; -386.000
445.495;  108.100;  242.000;  350.000
445.617;  208.000;  853.000;  753.000
445.739;  -80.000; -215.000;  -97.000
445.861;   -3.800; -245.000; -112.000
445.984;   -2.100; -267.000; -101.000
446.105;  623.000; -418.000; -251.000
446.227; 1512.700; -176.000;  -19.000
446.349;  103.700; -358.000; -249.000
446.471; -133.200; -615.000; -448.000
446.593;  -49.600; -316.000;   19.000
446.715;   73.500;  -67.000;   41.000
446.837;  199.900;  697.000;  832.000
446.959; -120.600; -457.000; -478.000
447.081; -182.000; -628.000; -518.000
447.203;  179.000;  862.000;  834.000
447.325; -114.300; -270.000;   42.000
447.446;   64.100;  286.000;  530.000
447.568; -263.800; -921.000; -803.000
447.690;  -89.200; -236.000; -245.000
447.812; -264.000; -798.000; -519.000
447.933;   32.300;  155.000;  127.000
448.055;  -77.800; -306.000; -261.000
448.177;  425.900;   31.000;   79.000
448.299;  253.800; -935.000; -727.000
448.420;  110.500;  -25.000;  159.000
448.542;  -23.600;   -3.000;   33.000
448.664;   26.900;  109.000;  322.000
448.785;    4.300;  265.000;   83.000
448.907; -104.900; -614.000; -353.000
449.028;  -24.500; -771.000; -471.000
449.150;  202.600;  492.000;  589.000
449.272; -313.200;-1044.000; -913.000
449.393;  169.600;  612.000;  694.000
449.515; -207.800; -634.000; -581.000
449.636;  -43.000; -264.000; -155.000
449.758;  224.400;  763.000;  622.000
449.879; -119.100; -498.000; -396.000
450.001;  -96.400; -149.000;  -49.000
450.122;    7.500;  -95.000;  162.000
450.244;   20.900;   37.000;  364.000
450.365; -138.900; -495.000; -301.000
450.486;   -1.000;   80.000;  268.000
450.608;  107.900;  393.000;  326.000
450.729;  166.900;  578.000;  645.000
450.850;  -22.300; -574.000; -466.000
450.972; 1001.200; -552.000; -389.000
451.093; 6524.300;  190.000;  588.000
451.214; 2430.000; -516.000; -337.000
451.336;  592.900;  773.000;  579.000
451.457;  118.700;  264.000;  393.000
451.578;  -29.300; -118.000;  -74.000
451.699; -217.300; -546.000; -540.000
451.821;  -84.900; -284.000;  -50.000
451.942;   48.000;  278.000;  285.000
452.063;  131.700;  228.000;  419.000
452.184;  869.700;  -54.000;  -49.000
452.305; 1581.800;  103.000;  170.000
452.427;  149.300; -549.000; -301.000
452.548;   47.500;   23.000;   79.000
452.669;  -15.900; -257.000;  -89.000
452.790;  -13.900;    3.000;  -18.000
452.911;   32.700;  195.000;  259.000
453.032;  -46.700; -289.000;  -60.000
453.153;  -18.400;  -29.000;   81.000
453.274;  197.800;  737.000;  868.000
453.395;  -30.900;  -51.000;  175.000
453.516;  376.100; 1317.000; 1388.000
453.637;  -13.000; -205.000; -150.000
453.758;  -41.800;   15.000;   69.000
453.879; -194.200; -462.000; -250.000
454.000;  239.100; 1086.000;  948.000
454.121; -136.700; -554.000; -326.000
454.242; -173.900; -599.000; -383.000
454.362;  -44.700;  -99.000;  114.000
454.483;   -1.800; -309.000; -229.000
454.604;  197.800;  512.000;  580.000
454.725; -191.600; -627.000; -555.000
454.846; -198.500; -474.000; -406.000
454.967;   47.000;  230.000;  539.000
455.087;    4.700;  179.000;  153.000
455.208;  122.800;  554.000;  856.000
455.329;  -52.200;  -22.000;   82.000
455.450;  127.800;  473.000;  633.000
455.570; -119.300; -234.000; -211.000
455.691;  -14.200;  201.000;  407.000
455.812; -152.200; -270.000;  -92.000
455.932;  -70.500;  107.000;  -97.000
456.053;  -97.500;   36.000;   24.000
456.173; -175.700; -433.000; -355.000
456.294; -194.500; -476.000; -303.000
456.415;  -60.700;  -73.000;   70.000
456.535;   11.000;  297.000;  273.000
456.656;   16.500;  132.000;  240.000
456.776;  -56.600;    3.000;  298.000
456.897;   69.500;  308.000;  513.000
457.017;  -82.700; -153.000;   -3.000
457.138;  -98.900; -402.000; -249.000
457.258;   60.600;  263.000;  224.000
457.379;   32.500;  509.000;  521.000
457.499;   14.400;  443.000;  432.000
457.620; -193.800; -407.000; -231.000
457.740; -140.400; -132.000;  -11.000
457.860;  -46.500;   87.000;   44.000
457.981;  -19.500;  132.000;  124.000
458.101;  -53.500;  -89.000;   40.000
458.221;   43.400;  336.000;  402.000
458.342;  -55.800;   -4.000;  -37.000
458.462;  118.500;  617.000;  352.000
458.582;  -76.400; -302.000; -294.000
458.703;   21.400;  303.000;  154.000
458.823;   -8.500;   22.000;  163.000
458.943;  120.100;  341.000;  467.000
459.063;   17.200; 1124.000;  192.000
459.183;   37.200;  328.000;  313.000
459.304;  104.800;  315.000;  517.000
459.424;  -83.400; -246.000;  -89.000
459.544;  589.700;  388.000;  764.000
459.664; 1226.500;  499.000;  506.000
459.784;  513.900; 1004.000; 1175.000
459.904;  189.600;  867.000;  744.000
460.024;  220.000;  867.000;  684.000
460.144;  106.000;  449.000;  554.000
460.264;   99.600;  515.000;  327.000
460.385; -114.600; -145.000; -119.000
460.505;  157.500;  905.000;  858.000
460.625;  -98.800;  -17.000;  -68.000
460.745;   38.700;  396.000;  541.000
460.864;  -14.600;  153.000;  469.000
460.984;  150.500;  499.000;  573.000
461.104;  396.700; 1656.000; 1775.000
461.224;  125.600;  657.000;  650.000
461.344;   -0.900;  431.000;  360.000
461.464;   10.600;  258.000;  513.000
461.584;   48.800;  283.000;  466.000
461.704;  -44.400;   58.000;  108.000
461.824;  -62.200;  238.000;  259.000
461.943;   31.300;  191.000;  130.000
462.063;  -71.300;    2.000;  324.000
462.183;  154.900;  639.000;  717.000
462.303;  288.400; 1678.000; 1230.000
462.422;  115.500;  781.000;  840.000
462.542;    0.800;  271.000;  391.000
462.662;  142.900;  353.000;  380.000
462.782;  474.200;  833.000;  572.000
462.901;  789.800;  545.000;  717.000
463.021;  546.500; 1702.000; 1638.000
463.141;   74.300;  337.000;  770.000
463.260;   30.700;  614.000;  474.000
463.380;  102.300;  902.000;  884.000
463.499;  -17.800;  342.000;  332.000
463.619;  -24.300;  581.000;  559.000
463.738;  347.500; 1644.000;  903.000
463.858;  112.400;  657.000;  811.000
463.978;   13.100;  542.000;  396.000
464.097;  169.500;  921.000; 1114.000
464.217;  249.100; 1196.000; 1143.000
464.336;  298.900; 1068.000; 1130.000
464.455;  -11.900;  328.000;  659.000
464.575;  205.500;  597.000;  602.000
464.694;  434.200; 1204.000; 1179.000
464.814;  317.900; 1190.000; 1138.000
464.933;  230.000; 1095.000; 1027.000
465.052;  252.000; 1412.000; 1054.000
465.172;  222.000;  922.000;  799.000
465.291;  379.300; 1376.000; 1320.000
465.410;  104.600;  462.000;  735.000
465.530;  271.800; 1355.000; 1310.000
465.649;  209.100; 1209.000; 1273.000
465.768;  383.100; 1673.000; 1508.000
465.888;  181.000;  941.000; 1174.000
466.007;  301.000; 1335.000; 1440.000
466.126;   67.000;  721.000;  641.000
466.245;  147.400; 1176.000; 1187.000
466.364;  134.700;  950.000; 1060.000
466.484;  172.200; 1024.000; 1213.000
466.603;  136.300; 1101.000; 1222.000
466.722;  334.000; 1490.000; 1769.000
466.841;  246.000; 1151.000; 1401.000
466.960;  131.600; 1069.000;  972.000
467.079;  376.300; 1971.000; 1786.000
467.198;  146.000; 1238.000; 1181.000
467.317;  254.200; 1768.000; 1162.000
467.436;  260.800; 1709.000; 1261.000
467.555;  322.600; 1796.000; 1746.000
467.674;  179.200; 1227.000; 1329.000
467.793;  182.000; 1376.000; 1374.000
467.912;  270.900; 1658.000; 1539.000
468.031;  333.300; 2038.000; 1930.000
468.150;  423.600; 1842.000; 1837.000
468.269;  408.500; 2313.000; 2090.000
468.388;  491.700; 2168.000; 2339.000
468.507;  562.500; 2884.000; 2903.000
468.626;  648.900; 2555.000; 2541.000
468.744;  362.000; 2018.000; 2174.000
468.863;  452.800; 2312.000; 2523.000
468.982;  289.600; 1503.000; 1555.000
469.101;  545.400; 2788.000; 2692.000
469.220;  391.600; 2333.000; 2176.000
469.338;  606.100; 2935.000; 3051.000
469.457;  429.700; 2719.000; 2545.000
469.576;  838.300; 3953.000; 3784.000
469.695;  555.000; 2877.000; 3066.000
469.813;  948.200; 4148.000; 4192.000
469.932;  884.100; 4255.000; 4485.000
470.051;  947.500; 4075.000; 4161.000
470.169; 1576.900; 4470.000; 4338.000
470.288; 2414.200; 4700.000; 4809.000
470.406; 1542.300; 5059.000; 5194.000
470.525; 1350.700; 6101.000; 5787.000
470.644; 1438.800; 6847.000; 6794.000
470.762; 1831.400; 8397.000; 7873.000
470.881; 1824.700; 8651.000; 8464.000
470.999; 2142.800; 9685.000; 9151.000
471.118; 2311.600;11174.000;10711.000

