
Integration time [ms]: 100.000
Averaging Nr. [scans]: 40
Smoothing Nr. [pixels]: 0
Data measured with spectrometer [name]: 2101012U2
Wave   ;Sample   ;Dark     ;Reference
[nm]   ;[counts] ;[counts] ;[counts] 

197.733;   53.050;  516.000;  404.000
197.879;  -68.975; -610.000; -634.000
198.025;  -53.575; -475.000; -420.000
198.171;  -66.450; -602.000; -612.000
198.317;  -31.075; -401.000; -316.000
198.463;  -60.750; -655.000; -404.000
198.609;   13.925;  181.000; -137.000
198.755;  -69.425; -644.000; -410.000
198.901;  -46.650; -505.000; -424.000
199.047;  -66.925; -615.000; -488.000
199.193;  -28.325; -230.000; -468.000
199.339;  -27.950; -222.000; -369.000
199.485;   36.850;  330.000;  271.000
199.631;    5.900;  227.000;  310.000
199.777;  -46.425; -466.000; -398.000
199.923;  -57.925; -610.000; -424.000
200.069;  -14.875; -141.000;  -58.000
200.215;   55.000;  128.000;  453.000
200.361;   40.200;  243.000;  477.000
200.507;  -57.050; -600.000; -373.000
200.653;  -30.850; -371.000; -194.000
200.798;  -32.350; -215.000; -125.000
200.944;   -1.650; -146.000;  -41.000
201.090;   26.600;   61.000;  222.000
201.236;  -11.775; -116.000; -158.000
201.382;  102.575;  874.000;  903.000
201.528;   -0.400;  -58.000;  -48.000
201.674;  -44.300; -386.000; -293.000
201.819;  -71.925; -540.000; -439.000
201.965;  -70.775; -699.000; -447.000
202.111;  -23.700; -273.000; -226.000
202.257;  -38.125; -250.000; -238.000
202.402;    1.300;   13.000;  -36.000
202.548;  -18.025; -169.000; -116.000
202.694;   76.625;  410.000; -183.000
202.840;  -69.100; -603.000; -531.000
202.985;  -67.425; -681.000; -639.000
203.131;  -89.050; -832.000; -666.000
203.277;  -23.475; -199.000; -262.000
203.423;  -53.450; -434.000; -520.000
203.568;  -45.275; -462.000; -237.000
203.714;  -68.450; -535.000; -542.000
203.860;  -76.150; -682.000; -641.000
204.005;   14.175;  112.000;  167.000
204.151;   66.000;  561.000;  556.000
204.296;  -40.625; -354.000; -221.000
204.442;  -72.125; -600.000; -547.000
204.588;  -59.400; -592.000; -579.000
204.733;   10.300;  178.000;  168.000
204.879; -125.000;-1018.000; -822.000
205.025;    2.850;  -99.000;  126.000
205.170;   10.750;  -17.000;   94.000
205.316;   78.600;  438.000;  661.000
205.461;  -79.125; -698.000; -554.000
205.607;   86.125;  609.000;  665.000
205.752;  -77.500; -626.000; -551.000
205.898;  -46.450; -501.000; -391.000
206.043;  -65.275; -578.000; -506.000
206.189;  -42.050; -243.000; -285.000
206.334;   82.550;  554.000;  606.000
206.480;   67.875;  409.000;  239.000
206.625;  -85.550; -529.000; -552.000
206.771;  -43.925; -451.000; -373.000
206.916;  -32.200; -210.000; -537.000
207.062;  -73.350; -545.000; -591.000
207.207;  -59.175; -546.000; -443.000
207.353;   41.150;  185.000;  460.000
207.498;    9.500;  196.000;   85.000
207.643;  -40.100; -501.000; -370.000
207.789; -111.575;-1069.000; -910.000
207.934;  -93.225; -665.000; -713.000
208.080;  -11.900; -154.000;   66.000
208.225;   -9.150;  -22.000;  -57.000
208.370;  -73.975; -727.000; -619.000
208.516;  -69.900; -741.000; -487.000
208.661;  -33.100; -127.000;  -69.000
208.806;  -21.975; -165.000; -171.000
208.952; -105.025;-1044.000; -731.000
209.097;   66.175;  378.000;  349.000
209.242;  -30.875; -307.000; -382.000
209.387;   89.000;  392.000;  350.000
209.533;  -45.025; -321.000; -350.000
209.678;   70.750;  472.000;  543.000
209.823;  -53.225; -408.000; -310.000
209.969; -101.225; -860.000; -757.000
210.114;  -92.700; -907.000; -719.000
210.259; -110.100; -939.000; -889.000
210.404;   -4.625; -171.000;  103.000
210.549;   10.600;  108.000;    3.000
210.695;   -0.625;   -3.000;  -95.000
210.840;   19.275;   94.000;   67.000
210.985;  -58.550; -484.000; -303.000
211.130;   54.875;  268.000;  406.000
211.275;   19.125;  207.000;  199.000
211.420;  -30.075; -300.000; -289.000
211.566;  -64.825; -536.000; -489.000
211.711;   11.200;  218.000;  157.000
211.856;  -58.875; -545.000; -519.000
212.001;   10.800;  151.000;   44.000
212.146;   19.150;  153.000;   49.000
212.291;   -7.975; -210.000; -186.000
212.436;  -24.275; -280.000;   -6.000
212.581;  -72.025; -685.000; -653.000
212.726;  -82.175; -487.000; -538.000
212.871;  -46.675; -552.000; -217.000
213.016; -132.850;-1172.000;-1029.000
213.161;   63.750;  406.000;  291.000
213.306;  -75.175; -435.000; -577.000
213.451;  -88.775; -778.000; -689.000
213.596;  -41.675; -455.000; -347.000
213.741;  -60.700; -448.000; -538.000
213.886;  -66.000; -498.000; -517.000
214.031;  -20.150; -294.000; -124.000
214.176;  -44.725; -408.000; -341.000
214.321;  -14.650; -296.000; -157.000
214.466;  -17.975; -163.000;  -43.000
214.611;   -6.125;  -61.000;  -10.000
214.756;  -96.825; -948.000; -858.000
214.901;  -28.725; -388.000; -226.000
215.046; -101.925; -797.000; -825.000
215.191;   17.975;  128.000;   35.000
215.336;    1.575; -157.000;  -19.000
215.480;  -82.300; -684.000; -505.000
215.625;   -7.250; -175.000;  -19.000
215.770;  -73.875; -757.000; -662.000
215.915;   -8.625;   -5.000;  -97.000
216.060;    3.150; -113.000;  -21.000
216.205;  -95.600; -731.000; -779.000
216.349;  -68.775; -470.000; -533.000
216.494; -122.575; -939.000; -867.000
216.639; -109.225; -823.000; -888.000
216.784;  -85.300; -577.000; -525.000
216.929;   47.425;  392.000;  281.000
217.073;   -7.200; -244.000;  -31.000
217.218;   12.825;   78.000;  -47.000
217.363;  -76.200; -656.000; -618.000
217.507;  -75.850; -623.000; -588.000
217.652; -109.650; -845.000; -874.000
217.797;  -83.300; -708.000; -659.000
217.942;  -95.800; -856.000; -720.000
218.086;   69.350;  608.000;  539.000
218.231;  -19.925; -174.000;  -26.000
218.376;  -26.200; -337.000; -229.000
218.520;   12.725;  -41.000;   96.000
218.665;  -45.225; -338.000; -204.000
218.810;  -28.400; -275.000; -233.000
218.954;   15.000;  201.000;   35.000
219.099; -103.550; -713.000; -963.000
219.243;  -68.450; -589.000; -554.000
219.388;  -13.650; -264.000; -136.000
219.532;   -3.400; -116.000; -116.000
219.677;  -67.700; -564.000; -521.000
219.822;   -0.225;   33.000;   89.000
219.966;   -9.800;   17.000;  -99.000
220.111;  -37.500; -328.000;  -40.000
220.255;  -75.550; -797.000; -750.000
220.400;  -23.775; -180.000; -146.000
220.544;  -65.600; -516.000; -450.000
220.689;  -52.150; -422.000; -451.000
220.833;   -7.150; -123.000;  -58.000
220.978;  -34.300; -393.000; -563.000
221.122;   11.275;  319.000;  307.000
221.267; -109.550; -906.000; -837.000
221.411;  -68.300; -478.000; -394.000
221.555;  -14.250; -104.000;  -23.000
221.700;  -42.450; -329.000; -222.000
221.844;   34.600;  255.000;  272.000
221.989;  -42.975; -328.000; -311.000
222.133;  -50.475; -289.000; -307.000
222.277;  -11.250;    5.000;   78.000
222.422;   20.400;  227.000;  113.000
222.566;  -35.525; -381.000; -214.000
222.711;  -60.850; -414.000; -479.000
222.855;  -81.625; -643.000; -586.000
222.999;  -70.975; -642.000; -717.000
223.144;  -23.525; -195.000; -194.000
223.288;   48.700;  423.000;  251.000
223.432;   26.100;  184.000;  230.000
223.576;   17.025;  152.000;  -21.000
223.721;   33.975;  364.000;  273.000
223.865;  -59.650; -472.000; -475.000
224.009;  246.100; 1673.000; 1631.000
224.153;  -74.900; -660.000; -671.000
224.298;  -56.600; -531.000; -489.000
224.442;  -11.150;  -74.000;  -33.000
224.586;  -13.975; -169.000; -106.000
224.730;  -90.525; -858.000; -670.000
224.875;  -96.775; -739.000; -688.000
225.019;    3.050;  102.000;  188.000
225.163;   58.550;  208.000;  341.000
225.307;   20.375;   97.000;  -91.000
225.451;   45.725;  360.000;  481.000
225.595;   14.875;  264.000;  176.000
225.739;  -27.175; -170.000;  -94.000
225.884;   -2.100;   86.000;    5.000
226.028;  -90.950; -760.000; -626.000
226.172;  -31.000; -260.000; -273.000
226.316; -112.200; -941.000; -902.000
226.460;  -64.875; -645.000; -493.000
226.604;  -48.050; -406.000; -400.000
226.748;  -98.350; -836.000; -733.000
226.892;  -36.000; -227.000; -181.000
227.036;  -59.050; -537.000; -447.000
227.180;  -42.500; -551.000; -375.000
227.324;  -57.025; -561.000; -580.000
227.468;  -97.425; -819.000; -717.000
227.612;    9.350;  242.000;  -28.000
227.756;  -88.300; -845.000; -698.000
227.900;   39.325;  342.000;  441.000
228.044;  -39.600; -509.000; -290.000
228.188;   50.425;  448.000;  568.000
228.332;  -79.650; -546.000; -472.000
228.476;  -32.100; -223.000; -149.000
228.620;  -28.250; -210.000; -150.000
228.764;   62.475;  431.000;  349.000
228.908;  -21.275; -155.000;   30.000
229.052;  -60.775; -615.000; -528.000
229.195;  -10.650; -172.000;   13.000
229.339;  -27.025; -235.000; -305.000
229.483;  -22.575;    5.000; -162.000
229.627;    2.125; -156.000;  139.000
229.771;  -35.725; -218.000; -294.000
229.915;    2.500;  230.000;   79.000
230.059;  -75.450; -648.000; -663.000
230.202;  -43.750; -370.000; -317.000
230.346;  -16.375; -107.000;  107.000
230.490;  -64.125; -489.000; -521.000
230.634;  -99.100; -736.000; -553.000
230.777;   80.100;  478.000;  509.000
230.921;  -53.350; -450.000; -359.000
231.065;  -29.250; -246.000; -286.000
231.209;   34.325;  261.000;  265.000
231.352;   10.625;   54.000;   40.000
231.496;   18.250;  568.000;  188.000
231.640;  -69.000; -693.000; -621.000
231.783;   65.500;  546.000;  525.000
231.927;  -46.925; -294.000; -365.000
232.071;  -99.400; -962.000; -736.000
232.214; -101.575; -980.000; -764.000
232.358;  -96.600; -683.000; -599.000
232.502;   -4.400;  -19.000;    7.000
232.645; -131.675;-1090.000; -927.000
232.789;  -33.325; -257.000; -218.000
232.933;  -37.975; -407.000; -224.000
233.076; -112.625;-1038.000; -897.000
233.220;  -94.750; -752.000; -777.000
233.363;  -77.025; -669.000; -477.000
233.507;   43.850;  371.000;  129.000
233.650; -107.725; -764.000; -834.000
233.794;   40.575;  438.000;  461.000
233.938;  -70.575; -530.000; -362.000
234.081;  -18.900;  -93.000;   31.000
234.225;  -65.650; -631.000; -539.000
234.368;  -92.000; -773.000; -723.000
234.512;  -47.075; -385.000; -299.000
234.655;  -78.025; -582.000; -555.000
234.798;  -80.325; -493.000; -466.000
234.942; -117.250; -884.000;-1002.000
235.085;  -68.325; -651.000; -443.000
235.229;  -69.175; -405.000; -410.000
235.372;  -57.075; -247.000; -191.000
235.516;  -47.100; -397.000; -321.000
235.659;   22.800;   92.000;  121.000
235.802;   -8.425;  -38.000;  -22.000
235.946;   33.775;  335.000;  215.000
236.089;   20.850;  126.000;  250.000
236.233;   36.050;  275.000;  298.000
236.376;  -41.050; -235.000; -378.000
236.519;  -36.950; -297.000; -319.000
236.663;  -29.300; -215.000; -117.000
236.806; -124.275;-1029.000; -999.000
236.949;   52.625;  543.000;  431.000
237.092;   52.475;  412.000;  391.000
237.236;  -75.300; -589.000; -502.000
237.379;   64.575;  352.000;  428.000
237.522; -116.400; -879.000; -768.000
237.666;  -14.625; -271.000;   18.000
237.809; -103.200; -851.000; -823.000
237.952;   22.175;  469.000;  271.000
238.095;  -50.000; -447.000; -442.000
238.238;   67.550;  688.000;  700.000
238.382;    1.475;  166.000;  103.000
238.525;  -65.275; -598.000; -511.000
238.668; -125.000;-1060.000; -985.000
238.811;  -88.025; -638.000; -643.000
238.954;  -61.525; -483.000; -334.000
239.097;   91.525;  617.000;  664.000
239.241;   20.625;  394.000;  326.000
239.384;  -27.175; -254.000; -214.000
239.527;  -59.350; -424.000; -224.000
239.670; -141.350; -994.000;-1091.000
239.813; -101.125; -696.000; -658.000
239.956;   64.675;  579.000;  473.000
240.099;  -90.350; -778.000; -725.000
240.242;   61.075;  428.000;  432.000
240.385;   36.650;  466.000;  450.000
240.528;  -74.700; -706.000; -473.000
240.671;   18.000;  189.000;  134.000
240.814;  -41.475; -441.000; -158.000
240.957;  -86.600; -767.000; -578.000
241.100;  -85.325; -779.000; -755.000
241.243; -142.000;-1234.000; -893.000
241.386;  -53.500; -508.000; -379.000
241.529;  -67.375; -735.000; -547.000
241.672;  -70.375; -566.000; -495.000
241.815; -111.025; -832.000; -808.000
241.958;  -22.000; -125.000; -182.000
242.101;  -68.525; -545.000; -390.000
242.244;  -47.775; -270.000; -325.000
242.387;  -32.525; -304.000; -246.000
242.530;   51.200;  470.000;  134.000
242.673;  -49.350; -381.000; -309.000
242.815; -107.525; -925.000; -899.000
242.958;  -60.425; -482.000; -381.000
243.101;   16.675;  132.000;  187.000
243.244;  -66.375; -564.000; -521.000
243.387;  -42.500; -313.000; -316.000
243.530;  -95.550; -657.000; -674.000
243.672;   -9.100;   43.000;  -92.000
243.815;  -41.450; -355.000; -283.000
243.958;    0.825;   98.000;  -26.000
244.101;   -3.875;   59.000;  -16.000
244.243;  -19.825;  -47.000;  101.000
244.386; -100.200; -761.000; -630.000
244.529;  -21.500; -132.000; -139.000
244.672; -136.275;-1154.000; -951.000
244.814; -101.225; -621.000; -794.000
244.957;  -46.950; -380.000; -304.000
245.100;  -74.175; -489.000; -489.000
245.242;  -76.475; -387.000; -374.000
245.385;   -7.000;  -59.000;  -39.000
245.528; -100.700; -871.000; -705.000
245.670;   93.575;  612.000;  634.000
245.813;  -94.350; -599.000; -547.000
245.956;  -39.700; -324.000; -275.000
246.098;  -66.500; -508.000; -650.000
246.241;    6.225;  194.000;   48.000
246.383;  -22.825; -119.000;  -73.000
246.526;  -65.075; -454.000; -525.000
246.669; -113.300; -889.000; -780.000
246.811;   13.975;  172.000;   -1.000
246.954;  -61.725; -512.000; -426.000
247.096;  -24.025;  -84.000;   -6.000
247.239;  -56.800; -482.000; -445.000
247.381;  -76.475; -647.000; -488.000
247.524;   63.900;  645.000;  679.000
247.666;   -6.125;   58.000;   11.000
247.809; -112.775; -887.000; -691.000
247.951;  -10.325;  -75.000;  138.000
248.094;   20.275;  432.000;  308.000
248.236; -150.000;-1262.000;-1238.000
248.378;  -27.675; -356.000;  -81.000
248.521;  -41.600; -334.000; -337.000
248.663;  -46.650; -236.000; -267.000
248.806;  -35.350; -300.000; -266.000
248.948;  -99.075; -886.000; -763.000
249.090;  -57.050; -428.000; -398.000
249.233;  -64.050; -344.000; -381.000
249.375;  -68.225; -474.000; -451.000
249.518;  -26.350;  -83.000; -133.000
249.660;  -22.525; -103.000;    3.000
249.802; -169.000;-1303.000;-1189.000
249.945;  -73.100; -612.000; -540.000
250.087;  -97.875; -834.000; -768.000
250.229;  -49.325; -362.000; -480.000
250.371;  -67.200; -494.000; -439.000
250.514;  -53.650; -310.000; -244.000
250.656;   -8.200;   69.000;  102.000
250.798; -118.275; -849.000; -800.000
250.940;  -51.275; -322.000; -322.000
251.083;  -27.125; -335.000; -111.000
251.225;   53.125;  338.000;  310.000
251.367;  -43.425; -274.000; -373.000
251.509;  -34.775; -265.000; -210.000
251.651;  -88.525; -731.000; -671.000
251.794;   48.375;  538.000;  632.000
251.936; -106.075; -821.000; -747.000
252.078;  -71.450; -540.000; -461.000
252.220;  -65.800; -645.000; -477.000
252.362;   48.675;  344.000;  462.000
252.504;  -86.400; -677.000; -584.000
252.646; -106.475; -875.000; -722.000
252.788;  -17.575;   14.000; -128.000
252.931;  -54.650; -257.000; -253.000
253.073;  -37.200; -376.000; -317.000
253.215;   -8.375;  141.000;  122.000
253.357;  -15.875;   82.000; -153.000
253.499;  -50.075; -374.000; -234.000
253.641;  -95.775; -749.000; -594.000
253.783;  -78.900; -609.000; -527.000
253.925;  -85.625; -586.000; -591.000
254.067;  -96.050; -744.000; -667.000
254.209;  -30.525; -391.000; -259.000
254.351; -127.475; -865.000; -883.000
254.493;  -63.600; -441.000; -417.000
254.635; -115.275; -936.000; -818.000
254.777;  -88.000; -752.000; -687.000
254.918;  -66.025; -512.000; -430.000
255.060;  -68.250; -551.000; -395.000
255.202;  -52.750; -473.000; -261.000
255.344;  -76.225; -658.000; -455.000
255.486;  -56.625; -471.000; -406.000
255.628; -109.800; -780.000; -781.000
255.770;  -85.450; -676.000; -536.000
255.912;  -68.950; -559.000; -468.000
256.053;  -80.075; -730.000; -508.000
256.195;  151.825; 1008.000;  903.000
256.337;  -88.675; -861.000; -595.000
256.479;   50.225;  532.000;  416.000
256.621;  -43.600; -394.000; -212.000
256.762;  -77.950; -789.000; -742.000
256.904;   46.150;  485.000;  487.000
257.046;  -49.550; -381.000; -271.000
257.188;  -36.100; -351.000; -264.000
257.329;  -69.225; -525.000; -464.000
257.471; -111.375; -939.000; -807.000
257.613;  -74.900; -584.000; -498.000
257.755; -139.075;-1073.000; -982.000
257.896;   30.025;  286.000;  392.000
258.038;  -68.100; -403.000; -352.000
258.180;  -43.775; -354.000; -279.000
258.321;  -67.575; -581.000; -457.000
258.463;   -2.000;  -71.000;  133.000
258.605;  -80.800; -562.000; -570.000
258.746; -100.850; -886.000; -772.000
258.888; -135.350;-1026.000;-1020.000
259.029;   11.225;  121.000;   -8.000
259.171;  -90.550; -614.000; -550.000
259.313;   -3.575;  -49.000;  -47.000
259.454;  -67.750; -536.000; -414.000
259.596;  -55.550; -483.000; -390.000
259.737;  -67.150; -590.000; -474.000
259.879;   40.375;  217.000;  311.000
260.020;   79.600;  901.000;  636.000
260.162;  -33.400; -146.000; -253.000
260.303;  -93.025; -768.000; -687.000
260.445;  -81.125; -609.000; -613.000
260.586;   22.250;  392.000;  157.000
260.728;  -47.450; -360.000; -248.000
260.869;  -62.225; -350.000; -343.000
261.011;   64.300;  706.000;  537.000
261.152;  -55.225; -479.000; -319.000
261.293;  -82.700; -576.000; -595.000
261.435;  -20.775; -219.000; -184.000
261.576;  -44.300; -455.000; -325.000
261.718;   49.650;  420.000;  470.000
261.859; -128.425; -940.000; -949.000
262.000; -117.575; -951.000;-1016.000
262.142;  -20.425;  -52.000;  -60.000
262.283;  -98.925; -808.000; -691.000
262.424;  -83.675; -666.000; -625.000
262.566; -127.900;-1161.000; -983.000
262.707; -109.750; -840.000; -830.000
262.848; -113.950; -769.000; -726.000
262.990;  -35.375; -362.000; -345.000
263.131;   64.025;  650.000;  681.000
263.272;  -16.100;  -61.000;  -41.000
263.413;  -79.825; -589.000; -561.000
263.555;  -65.025; -669.000; -143.000
263.696;  -84.225; -550.000; -641.000
263.837;  -60.925; -449.000; -551.000
263.978;   -4.625;   -5.000;  -77.000
264.119;  -42.250; -283.000; -264.000
264.261; -110.300; -847.000; -630.000
264.402;  -10.225;   33.000;   40.000
264.543;  -63.950; -509.000; -524.000
264.684;  -13.925;   61.000;  -50.000
264.825;  -63.025; -816.000; -538.000
264.966;  -15.550;  -84.000;  -67.000
265.107; -103.850; -646.000; -670.000
265.248; -107.425; -825.000; -812.000
265.390;  -17.775;  152.000;   -9.000
265.531;  -26.250; -238.000; -107.000
265.672;  -74.900; -557.000; -630.000
265.813;   47.975;  563.000;  439.000
265.954; -126.750; -959.000; -940.000
266.095;  -13.175; -372.000; -322.000
266.236;  -77.650; -686.000; -548.000
266.377;  -44.000; -243.000; -297.000
266.518;  -57.675; -619.000; -547.000
266.659;   17.350;  170.000;  268.000
266.800;    4.550;   83.000;   85.000
266.941;  -81.500; -487.000; -478.000
267.082;   25.575;  354.000;   99.000
267.223;  -40.925; -344.000; -273.000
267.364;  -90.800; -892.000; -686.000
267.504;  -18.700;    3.000;  135.000
267.645;   13.275;  160.000;   67.000
267.786;  -29.975; -147.000;  -86.000
267.927;  -68.775; -473.000; -379.000
268.068;  -26.750; -186.000;  -61.000
268.209;  -45.100; -175.000; -413.000
268.350;  -48.500; -388.000; -532.000
268.490;  -82.600; -648.000; -521.000
268.631;   23.450;  127.000;  225.000
268.772; -102.600; -874.000; -647.000
268.913;  -40.400; -328.000; -476.000
269.054;   -9.675; -117.000;   12.000
269.194;  -56.925; -418.000; -402.000
269.335; -150.350;-1137.000;-1074.000
269.476;  -12.800;   33.000;  -35.000
269.617;  -34.925; -347.000; -392.000
269.757;  -94.150; -713.000; -646.000
269.898;  -99.975; -856.000; -613.000
270.039;  -62.325; -415.000; -405.000
270.180; -124.700; -952.000; -816.000
270.320;  -31.675; -190.000; -250.000
270.461;  -33.475; -277.000; -249.000
270.602;  -17.875; -186.000; -156.000
270.742; -103.975; -868.000; -943.000
270.883;  -64.025; -442.000; -390.000
271.023;  -62.600; -358.000; -357.000
271.164;  -74.075; -607.000; -528.000
271.305;  -87.700; -666.000; -654.000
271.445;  -83.575; -722.000; -683.000
271.586;  -54.825; -462.000; -283.000
271.726;  -45.950; -397.000; -322.000
271.867;  -74.975; -594.000; -534.000
272.008;   22.800; -473.000; -285.000
272.148;   61.250;  462.000;  468.000
272.289;  -22.725; -113.000; -181.000
272.429;    7.675;   19.000;  185.000
272.570;  -88.025; -633.000; -737.000
272.710;  -86.375; -825.000; -775.000
272.851;   -7.050;  113.000; -130.000
272.991; -138.250;-1173.000;-1077.000
273.131;  -65.350; -419.000; -459.000
273.272;  -99.675; -683.000; -723.000
273.412;   -9.150; -143.000;  -31.000
273.553;  -58.075; -488.000; -507.000
273.693;  112.175;  913.000;  858.000
273.834; -105.775; -894.000; -692.000
273.974;  -86.950; -664.000; -615.000
274.114;  -89.000; -772.000; -560.000
274.255;   57.450;  414.000;  373.000
274.395;  -17.350; -180.000; -125.000
274.535;   35.075;  199.000;  350.000
274.676;   24.725;  225.000;   94.000
274.816;    7.200;  110.000;   34.000
274.956;  -80.475; -624.000; -690.000
275.097; -104.575;-1014.000; -922.000
275.237; -108.825; -913.000; -803.000
275.377;  -98.400; -778.000; -689.000
275.517; -133.600; -878.000; -937.000
275.658;  -59.425; -590.000; -555.000
275.798;  -84.875; -606.000; -413.000
275.938;   12.875;  215.000;  323.000
276.078;  -72.550; -626.000; -395.000
276.218;    6.125;   99.000;  104.000
276.359; -115.950;-1026.000;-1024.000
276.499;  -68.600; -605.000; -446.000
276.639;  -31.850; -305.000; -151.000
276.779;  -55.850; -475.000; -357.000
276.919; -110.850; -783.000; -624.000
277.059;  -25.825; -261.000; -212.000
277.199;  -41.100; -357.000; -259.000
277.340;   41.325;  287.000;  175.000
277.480;  -97.575; -840.000; -693.000
277.620;   21.375;  192.000;   16.000
277.760; -178.400;-1533.000;-1294.000
277.900;   11.400;  113.000;   33.000
278.040;    5.425;  137.000;  159.000
278.180;   14.600;  270.000;  170.000
278.320;   -2.950;   21.000;   56.000
278.460;  -50.975; -443.000; -469.000
278.600;  -79.550; -708.000; -598.000
278.740;   42.850;  448.000;  224.000
278.880;  -92.450; -768.000; -791.000
279.020;  -30.375; -194.000; -144.000
279.160;  -99.000; -672.000; -595.000
279.300; -100.000; -926.000; -873.000
279.440;  -84.900; -709.000; -622.000
279.579;  -93.500;-1014.000; -929.000
279.719;  -54.000; -410.000; -394.000
279.859;   32.250;   -4.000;   41.000
279.999;    2.925; -208.000;  101.000
280.139;  -42.575; -435.000; -387.000
280.279;  -82.075; -708.000; -745.000
280.419;  -27.525; -229.000; -147.000
280.559;  -37.225; -259.000; -180.000
280.698;  -92.875; -790.000; -639.000
280.838;  -98.250; -778.000; -800.000
280.978;  -80.525; -846.000; -790.000
281.118;  -89.475; -811.000; -704.000
281.257;    3.900;   24.000;    6.000
281.397; -124.475;-1094.000; -960.000
281.537;  -88.100; -599.000; -712.000
281.677;  -16.225; -150.000; -101.000
281.816;  -83.650; -700.000; -630.000
281.956;  -30.400; -193.000; -257.000
282.096;  -47.975; -539.000; -396.000
282.235;  -79.875; -672.000; -638.000
282.375;    3.800; -243.000;  -98.000
282.515;  -69.900; -715.000; -707.000
282.654;   34.550;   29.000;  106.000
282.794;   56.225;  388.000;  244.000
282.934;  -38.700; -530.000; -491.000
283.073;  -94.850;-1030.000; -857.000
283.213;  -43.225; -460.000; -467.000
283.353;  -45.200; -408.000; -349.000
283.492;  -22.400; -264.000; -296.000
283.632;  -32.225; -254.000; -168.000
283.771;  -86.300; -859.000; -730.000
283.911;  -38.800; -369.000; -260.000
284.050;  -86.300; -794.000; -748.000
284.190; -135.175;-1229.000;-1096.000
284.329; -109.100;-1055.000; -964.000
284.469;  -68.875; -516.000; -591.000
284.608;  -38.775; -559.000; -598.000
284.748;  -70.000; -614.000; -570.000
284.887;   -0.675;  -87.000;  -20.000
285.027; -105.075; -844.000; -892.000
285.166;  -28.100; -192.000; -249.000
285.306;   -2.500; -116.000;  -33.000
285.445;  -46.400; -229.000; -343.000
285.584;  -85.500; -630.000; -494.000
285.724;  -42.125; -282.000; -322.000
285.863;  -92.900; -857.000; -507.000
286.002;  -41.550; -366.000; -276.000
286.142;  -92.125; -715.000; -622.000
286.281;  -62.150; -525.000; -493.000
286.420;  -61.875; -554.000; -417.000
286.560;   88.950;  653.000;  623.000
286.699; -126.775; -958.000; -912.000
286.838;  -82.950; -590.000; -591.000
286.978;  -80.725; -533.000; -537.000
287.117; -118.775;-1085.000; -950.000
287.256;  -25.800; -228.000; -211.000
287.395;  -36.350; -197.000; -378.000
287.535;  -39.800; -370.000; -298.000
287.674;  -62.150; -509.000; -484.000
287.813;   81.025;  661.000;  533.000
287.952; -132.500;-1010.000; -871.000
288.091; -138.425;-1049.000; -915.000
288.231;    3.050;   13.000;   15.000
288.370; -147.650;-1217.000;-1200.000
288.509;  -74.075; -728.000; -645.000
288.648;  -71.125; -770.000; -548.000
288.787;  -14.575; -243.000;  -87.000
288.926;  -53.475; -454.000; -475.000
289.065;   92.300;  859.000;  672.000
289.204;  -38.025; -377.000; -217.000
289.344;  -78.500; -791.000; -690.000
289.483;   21.850;  416.000;  304.000
289.622;  -12.725; -291.000; -149.000
289.761;  -14.950; -309.000; -166.000
289.900; -105.125; -785.000; -626.000
290.039;  -16.950;  -12.000;  -95.000
290.178;  -31.800; -274.000; -180.000
290.317;  -73.225; -618.000; -479.000
290.456;  -54.775; -463.000; -451.000
290.595; -109.050; -961.000; -833.000
290.734; -127.400; -904.000; -891.000
290.873;  -38.950; -456.000; -420.000
291.011;  -97.500; -833.000; -843.000
291.150;  -77.800; -770.000; -682.000
291.289;  -22.125; -343.000; -110.000
291.428;  -89.675; -599.000; -480.000
291.567;  -47.050; -370.000; -442.000
291.706;   13.100;  109.000;  154.000
291.845;  -73.375; -597.000; -505.000
291.984; -153.625;-1234.000;-1061.000
292.122;   76.075;  602.000;  582.000
292.261;   42.925;  620.000;  463.000
292.400;   13.375; -144.000;  211.000
292.539; -117.825; -959.000; -813.000
292.678;  -40.050; -325.000; -300.000
292.816; -122.625;-1136.000; -965.000
292.955;  -82.975; -844.000; -684.000
293.094;  -21.500; -173.000; -337.000
293.233;  -39.700; -556.000; -400.000
293.371;  -11.825; -225.000;  -84.000
293.510;  -90.875; -866.000; -780.000
293.649; -125.275; -959.000; -924.000
293.787;  -95.625;-1083.000;-1012.000
293.926;   -6.500; -113.000;  -32.000
294.065;  -31.200; -379.000; -290.000
294.203;   39.725;  298.000;  406.000
294.342;   42.875;   74.000;  156.000
294.481; 5361.750;51180.000; -836.000
294.619;  -26.550; -425.000; -582.000
294.758; -132.600;-1230.000;-1137.000
294.896;   14.700; -125.000;    5.000
295.035; -122.650;-1040.000;-1006.000
295.174; -105.775;-1082.000; -954.000
295.312;  -18.675; -323.000; -203.000
295.451;  -22.100; -307.000; -428.000
295.589;  -62.275; -389.000; -518.000
295.728;    5.625; -292.000; -165.000
295.866;   -1.325;  -36.000;  -51.000
296.005;  -51.500; -584.000; -341.000
296.143;  -54.575; -558.000; -596.000
296.282;  -89.625; -957.000; -881.000
296.420;  -59.775; -657.000; -557.000
296.559;  -57.425; -892.000; -633.000
296.697;  -22.750; -847.000; -665.000
296.835;  -36.350;-1141.000;-1002.000
296.974;   64.650;  -23.000;   39.000
297.112;   -4.375; -443.000; -504.000
297.251;  -43.625; -815.000; -755.000
297.389;    5.775; -576.000; -438.000
297.527;   36.525; -145.000;  -83.000
297.666;  -36.075; -486.000; -438.000
297.804;  -23.150; -404.000; -264.000
297.942;    9.900; -136.000; -161.000
298.081;   16.375; -183.000;   63.000
298.219;    9.975;  -17.000;  -19.000
298.357;   -7.400; -144.000;  -71.000
298.495;  -52.700; -810.000; -812.000
298.634;   34.925;  245.000;  219.000
298.772;  -17.950; -220.000; -338.000
298.910;  -30.550; -309.000; -182.000
299.048;  -11.425; -130.000; -153.000
299.187;  -21.875; -350.000; -250.000
299.325;   19.250;   52.000;  122.000
299.463;  -18.250; -389.000; -299.000
299.601;   -5.600; -327.000; -271.000
299.739; -115.750; -908.000; -883.000
299.877;  -79.375; -791.000; -703.000
300.016;  -96.600;-1095.000; -935.000
300.154;   39.875;  -19.000; -161.000
300.292;  -24.300; -428.000; -348.000
300.430;  -20.575; -408.000; -291.000
300.568;  -99.175; -940.000; -874.000
300.706;  -69.850; -366.000; -469.000
300.844; -114.250;-1108.000; -979.000
300.982;   65.725;  246.000;  282.000
301.120; -114.625; -965.000; -866.000
301.258;  -76.325; -812.000; -705.000
301.396;   12.875;  104.000;  -41.000
301.534;   -2.675; -218.000; -293.000
301.672;  -51.275; -664.000; -521.000
301.810;  -65.950; -613.000; -545.000
301.948;   49.975;   53.000;  149.000
302.086;  161.800; -250.000;  -32.000
302.224;  188.300; -610.000; -585.000
302.362;  -56.600; -558.000; -622.000
302.500;  -89.800; -923.000; -893.000
302.638;   41.625;  128.000;  245.000
302.776;  -30.425; -352.000; -408.000
302.913;   36.875;  447.000;  236.000
303.051;  -14.575;  -86.000;  -23.000
303.189;   22.475;   90.000;  118.000
303.327;  -26.850; -341.000; -256.000
303.465;  -67.075; -832.000; -588.000
303.603;  -75.075; -805.000; -604.000
303.740;   46.050;  417.000;  241.000
303.878;  -53.700; -800.000; -759.000
304.016;  -87.600; -915.000; -790.000
304.154; -139.150;-1123.000;-1152.000
304.291;  -56.175; -505.000; -554.000
304.429;   13.475;  102.000;   74.000
304.567; -121.150; -908.000; -893.000
304.705;  -63.125; -408.000; -515.000
304.842;  -20.125; -616.000; -540.000
304.980;   35.325;  215.000;   35.000
305.118;  -11.425; -367.000; -365.000
305.255;  -97.325; -945.000; -927.000
305.393;   50.775;  178.000;  239.000
305.531; -118.825;-1173.000; -956.000
305.668;  -68.975; -663.000; -582.000
305.806;    1.350; -358.000; -439.000
305.943;   -9.925; -629.000; -637.000
306.081;   -3.825; -378.000; -267.000
306.219;  -84.700; -863.000; -748.000
306.356;   25.450;  158.000;   27.000
306.494;  168.000;  981.000;  761.000
306.631;   47.475;  -11.000;  -55.000
306.769;   36.550; -613.000; -485.000
306.906;   39.150; -284.000; -258.000
307.044;  -15.475; -473.000; -488.000
307.181;  -11.775; -410.000; -332.000
307.319;   48.575;  112.000;   87.000
307.456; -132.700;-1191.000;-1153.000
307.594;  -77.500; -980.000; -727.000
307.731;   -1.425; -371.000; -164.000
307.868;   24.700;  -15.000;   20.000
308.006;  -83.100; -961.000; -847.000
308.143;  -42.450; -618.000; -330.000
308.281;   72.225;  -37.000; -254.000
308.418;  -38.950; -748.000; -640.000
308.555;  -39.475; -400.000; -250.000
308.693;  -27.150; -577.000; -573.000
308.830;  -51.850; -712.000; -657.000
308.967;   23.750; -215.000;  -95.000
309.105;   49.525; -507.000; -396.000
309.242;   38.900; -468.000; -367.000
309.379;   75.450; -577.000; -655.000
309.517;  -39.075; -936.000; -948.000
309.654;  -45.100; -910.000; -734.000
309.791;  -29.100; -662.000; -580.000
309.928;  -61.325; -977.000; -914.000
310.065;  168.400;  819.000;  697.000
310.203;  -24.700; -825.000; -850.000
310.340;   24.975; -465.000; -321.000
310.477;  -39.250; -412.000; -516.000
310.614;   -9.825; -383.000; -473.000
310.751;    3.725; -427.000; -518.000
310.889;   20.600;    1.000;   11.000
311.026;  -91.325;-1161.000; -939.000
311.163;  -13.225; -386.000; -380.000
311.300;  -24.600; -512.000; -479.000
311.437;  -23.400; -658.000; -619.000
311.574; -104.550;-1226.000; -985.000
311.711;  -25.375; -595.000; -433.000
311.848;   30.625; -380.000; -388.000
311.985;   69.075;  270.000;   93.000
312.122;  -67.450; -932.000; -762.000
312.259;  -42.950; -941.000; -994.000
312.396;   11.575; -508.000; -551.000
312.533;   -5.300; -812.000; -790.000
312.670;  -69.475;-1070.000; -898.000
312.807;   43.900; -352.000; -367.000
312.944;   12.675; -513.000; -611.000
313.081;   49.450; -150.000; -415.000
313.218;  -32.675;-1111.000; -867.000
313.355;   14.200; -531.000; -449.000
313.492;   32.425; -455.000; -292.000
313.629;  169.175;  815.000;  735.000
313.766;  -93.875;-1176.000;-1008.000
313.902;   22.850; -186.000;   21.000
314.039;  -21.675; -372.000; -289.000
314.176;   56.800;  286.000;  192.000
314.313;  -27.275; -569.000; -473.000
314.450;  -39.025; -788.000; -684.000
314.587;   -7.650; -468.000; -480.000
314.723;   67.775;  -78.000;  130.000
314.860;   86.450;  318.000;  332.000
314.997;   59.425;  223.000;  142.000
315.134;    1.150; -385.000; -368.000
315.270;    8.825; -480.000; -496.000
315.407;  -84.025;-1094.000; -967.000
315.544;   -5.450; -657.000; -538.000
315.681;  -29.950; -681.000; -565.000
315.817;   84.075; -133.000; -176.000
315.954;   69.450; -613.000; -392.000
316.091;  -95.175;-1045.000;-1023.000
316.227;    5.800;  -71.000; -179.000
316.364;   14.775;   23.000;    6.000
316.500;    1.300; -113.000; -300.000
316.637;  -10.350; -181.000; -302.000
316.774;  -57.750; -625.000; -358.000
316.910;  -67.025; -598.000; -629.000
317.047;  -13.875; -487.000; -351.000
317.183;  -42.675; -435.000; -566.000
317.320;   45.700; -367.000; -321.000
317.456;  -14.700; -733.000; -805.000
317.593;  -60.425; -598.000; -641.000
317.729;    9.050;  168.000;  -67.000
317.866; -163.550;-1434.000;-1285.000
318.002;  -81.175; -708.000; -948.000
318.139;  -89.900; -883.000; -867.000
318.275;  -89.925;-1003.000; -738.000
318.412;  -43.075; -517.000; -336.000
318.548;  -51.950; -751.000; -720.000
318.685;  -85.200; -985.000; -888.000
318.821;  -68.200; -762.000; -735.000
318.957;  -15.875;   34.000;  -23.000
319.094;   36.325;  297.000;  154.000
319.230;  -76.750; -756.000; -742.000
319.367;    1.275; -471.000; -520.000
319.503;  -17.350; -538.000; -436.000
319.639;  -80.050; -877.000; -793.000
319.775;  -80.750; -750.000; -685.000
319.912;  -41.725; -424.000; -519.000
320.048;  -96.650;-1184.000;-1184.000
320.184;  106.225;   59.000;   70.000
320.321;  -30.050; -497.000; -467.000
320.457;   87.375;  475.000;  662.000
320.593;  -50.275; -375.000; -382.000
320.729;  -88.000; -732.000; -734.000
320.866;  -58.375; -577.000; -635.000
321.002;  -75.200; -759.000; -809.000
321.138;  -27.675; -135.000; -211.000
321.274;   18.475; -148.000; -115.000
321.410;  -38.625; -585.000; -353.000
321.546;  -84.900;-1011.000; -911.000
321.683;   37.150;  400.000;  185.000
321.819;   -7.275;  -48.000; -117.000
321.955;  -94.200; -743.000; -722.000
322.091;  -59.175; -585.000; -540.000
322.227;  -26.675; -382.000; -202.000
322.363;  -20.600; -320.000; -215.000
322.499;  -37.350; -343.000; -331.000
322.635;  100.950;  636.000;  443.000
322.771;    0.300; -139.000;   12.000
322.907;   54.775;  129.000;  327.000
323.043;  -36.225; -115.000; -206.000
323.179;  -33.975; -394.000; -363.000
323.315;  -24.650; -401.000; -371.000
323.451;    9.875; -328.000; -236.000
323.587;   63.225;  -60.000;  -77.000
323.723;  -45.600; -682.000; -601.000
323.859;   -4.575; -258.000;  -76.000
323.995;  -51.925; -467.000; -409.000
324.131; -111.100; -967.000; -892.000
324.267;  -29.150; -254.000; -276.000
324.402; -109.400; -960.000; -983.000
324.538;  -23.175; -279.000; -104.000
324.674;   18.000;  164.000;   77.000
324.810;   67.250;  226.000;  308.000
324.946;  -19.475; -810.000; -658.000
325.082;  -61.875; -568.000; -475.000
325.217;  -11.975;  -62.000;   16.000
325.353;  -91.850; -764.000; -659.000
325.489;  -84.100; -540.000; -506.000
325.625;  -65.175; -579.000; -525.000
325.760;   90.375;  517.000;  376.000
325.896;   12.825; -515.000; -702.000
326.032;  -28.150; -403.000; -352.000
326.168;  -60.575; -462.000; -369.000
326.303;  -43.000; -352.000; -461.000
326.439;   -1.850; -336.000; -276.000
326.575;    6.475; -190.000;  -29.000
326.710;   -3.300; -156.000;  -30.000
326.846;   -5.875;  146.000;  103.000
326.982;  -84.450; -530.000; -548.000
327.117;  -60.925; -481.000; -442.000
327.253;  -75.975; -745.000; -742.000
327.388; -148.150;-1137.000;-1153.000
327.524;  -56.075; -811.000; -578.000
327.659;  -12.025;  -58.000;  -22.000
327.795;    0.050;   69.000;   45.000
327.931;  -55.725; -723.000; -499.000
328.066;  -13.275; -417.000; -276.000
328.202;   -2.500;   12.000; -129.000
328.337;   84.175;  957.000;  713.000
328.473;   43.500;  -12.000;  -74.000
328.608;  -17.350; -256.000; -267.000
328.743;  -84.350; -799.000; -664.000
328.879;   33.875;  214.000;  114.000
329.014;  -13.150; -102.000; -122.000
329.150;  -59.850; -358.000; -483.000
329.285;  -62.800; -465.000; -466.000
329.421;  -20.750; -548.000; -246.000
329.556;   14.625;  -36.000;   85.000
329.691;  -67.500; -633.000; -615.000
329.827;  -48.350; -626.000; -480.000
329.962;  -14.275;  131.000; -301.000
330.097;  -45.350; -673.000; -585.000
330.233;  -24.250; -410.000; -223.000
330.368;  -86.575; -839.000; -628.000
330.503;    7.900;    3.000;   98.000
330.638;    3.825;  -93.000; -125.000
330.774;  -69.150; -609.000; -530.000
330.909;  -31.575; -434.000; -244.000
331.044;  -79.400; -714.000; -708.000
331.179; -141.925;-1217.000;-1109.000
331.315;   22.800;   77.000;   20.000
331.450;   20.250;  157.000;  285.000
331.585;  -70.950; -805.000; -706.000
331.720;  -72.300; -510.000; -460.000
331.855;   12.075;  -35.000; -102.000
331.990;  424.375;   62.000;  138.000
332.126;  218.200; -110.000;   71.000
332.261;    6.800; -379.000; -265.000
332.396;   21.750; -135.000; -242.000
332.531;  -52.550;-1074.000;-1031.000
332.666;   97.800; -519.000; -363.000
332.801;  -71.825; -726.000; -807.000
332.936;  -25.650; -192.000; -122.000
333.071;  -99.925; -870.000; -817.000
333.206;   34.000;  307.000;  379.000
333.341;   39.025;  344.000;  418.000
333.476;  -74.200; -627.000; -623.000
333.611;  -18.750; -251.000; -173.000
333.746;  -40.275; -381.000; -464.000
333.881;  -95.250; -973.000; -935.000
334.016; -108.075; -936.000; -917.000
334.151; -105.100; -746.000; -702.000
334.286;   23.725;  152.000;  186.000
334.421;   -2.225; -125.000; -178.000
334.556;  -66.775; -611.000; -567.000
334.690;  -71.575; -631.000; -577.000
334.825;   67.625;  381.000;   83.000
334.960;  -33.250; -285.000; -413.000
335.095;   30.850;  135.000;  -91.000
335.230;  -67.750; -722.000; -738.000
335.365; -110.325;-1084.000; -990.000
335.499; -109.875;-1108.000;-1037.000
335.634;   24.350;    9.000;  534.000
335.769;  -64.300; -755.000; -720.000
335.904;  -30.200; -603.000; -561.000
336.038;  -18.850; -735.000; -657.000
336.173;  -91.525;-1206.000;-1194.000
336.308;   29.350; -116.000; -189.000
336.443;   65.925; -544.000; -634.000
336.577;  -15.425; -936.000; -787.000
336.712;   81.300;   -4.000;  -12.000
336.847;    2.375; -724.000; -607.000
336.981;   83.725; -272.000; -208.000
337.116;  304.950;  615.000;  501.000
337.250;  154.525; -434.000; -421.000
337.385;  440.975; -297.000; -208.000
337.520;  209.075; -632.000; -603.000
337.654;  -16.225; -215.000; -126.000
337.789; -122.650; -989.000; -933.000
337.923;  -24.650; -104.000; -205.000
338.058; -101.025; -673.000; -738.000
338.192;  -46.750; -611.000; -488.000
338.327;    4.125;  -18.000; -155.000
338.461;  -44.000; -299.000; -469.000
338.596;  -72.950; -780.000; -638.000
338.730;  -62.350; -767.000; -803.000
338.865;  164.125;  -46.000; -140.000
338.999;   19.125; -846.000; -702.000
339.134;   18.375; -634.000; -536.000
339.268;   38.375; -741.000; -603.000
339.403;  530.975; -740.000; -775.000
339.537;  269.975; -894.000; -820.000
339.671;  -85.700; -829.000; -813.000
339.806;  -15.875; -556.000; -512.000
339.940;   51.200; -261.000; -235.000
340.074;  -75.825; -685.000; -510.000
340.209;  -40.150; -351.000; -230.000
340.343;  -71.975; -517.000; -573.000
340.477;  132.175;  998.000; 1036.000
340.612;   11.475;-1033.000; -900.000
340.746;  214.825; -199.000; -243.000
340.880;  -89.650; -924.000; -785.000
341.014;  -15.100;  -45.000; -154.000
341.149;  -89.325; -756.000; -718.000
341.283; -105.175; -839.000; -754.000
341.417; -113.300;-1124.000; -938.000
341.551;  -39.100; -768.000; -708.000
341.685;  -57.350; -633.000; -611.000
341.820;  -43.175; -562.000; -493.000
341.954;  -38.150; -218.000; -349.000
342.088; -128.025;-1102.000;-1019.000
342.222;   58.475;  565.000;  618.000
342.356;  -72.150; -395.000; -335.000
342.490; -101.725; -880.000; -841.000
342.624;  -62.975; -339.000; -242.000
342.758;  -47.075; -364.000; -312.000
342.892;  -76.275; -710.000; -585.000
343.026;  -31.800;  -58.000; -116.000
343.160;  -45.275; -426.000; -376.000
343.294;  -76.150; -474.000; -337.000
343.428;  -61.550; -488.000; -448.000
343.562;  -21.800; -172.000;  -23.000
343.696;  -42.850; -385.000; -314.000
343.830;  -27.850; -362.000; -356.000
343.964;  -19.125; -231.000; -168.000
344.098;  259.425;  199.000;   70.000
344.232;  230.925; -266.000; -127.000
344.366;   57.575; -567.000; -453.000
344.500;  -33.375; -665.000; -744.000
344.634;  -12.500; -324.000; -164.000
344.768;  -56.475; -531.000; -341.000
344.902;    5.375;  278.000;  256.000
345.035;  -64.025; -556.000; -496.000
345.169; -118.375; -933.000; -656.000
345.303;  -47.600; -308.000; -482.000
345.437;  -93.025; -826.000; -717.000
345.571;  -64.200; -675.000; -594.000
345.704;  -55.550; -309.000; -532.000
345.838;  -12.700; -331.000; -284.000
345.972;  -53.150; -543.000; -495.000
346.106;  251.800; -179.000; -190.000
346.239;  466.250; -312.000; -243.000
346.373;    0.050; -343.000; -302.000
346.507; -120.450; -950.000; -962.000
346.640;   42.400;  -30.000;   13.000
346.774;  -82.825; -650.000; -797.000
346.908;   -7.575; -138.000;  -11.000
347.041;  -84.900; -646.000; -593.000
347.175;   17.325;  259.000;   27.000
347.309;  -74.675; -698.000; -628.000
347.442;  -89.500; -883.000; -732.000
347.576;  128.850;  670.000;  668.000
347.709;   52.850; -123.000;  -52.000
347.843;  -94.275; -933.000; -825.000
347.976;   35.775;  235.000;  294.000
348.110; -159.825;-1268.000;-1186.000
348.243;  -81.675; -679.000; -772.000
348.377;   14.775;  -26.000;   60.000
348.510;   64.225;  403.000;  540.000
348.644;  -21.575;  -37.000; -159.000
348.777;   11.225;  180.000;  191.000
348.911;  -22.625; -142.000; -112.000
349.044;  106.450;  471.000;  448.000
349.178;   -4.675;-1069.000;-1006.000
349.311;  118.000;  141.000;  255.000
349.444;   40.625; -927.000; -813.000
349.578;  -15.300; -347.000; -200.000
349.711; -100.850; -959.000; -862.000
349.845;  -56.325; -661.000; -591.000
349.978; -132.225;-1224.000;-1137.000
350.111;  -68.000; -546.000; -612.000
350.244;  -92.325; -596.000; -700.000
350.378;  -40.600; -392.000; -393.000
350.511;  -54.300; -393.000; -426.000
350.644;  -78.875; -808.000; -806.000
350.778;   27.050;  168.000;  104.000
350.911;    0.325;  134.000;  140.000
351.044;  -62.900; -685.000; -615.000
351.177;  -18.700; -321.000; -281.000
351.310;   -2.875;    3.000; -131.000
351.444;  -87.050; -888.000; -788.000
351.577;   50.775;  140.000;   90.000
351.710;   85.950;  593.000;  417.000
351.843;  -18.725; -165.000;  -77.000
351.976;    9.025;  149.000;  -79.000
352.109;  -80.875; -621.000; -612.000
352.242;  -43.025; -464.000; -419.000
352.376;  -69.850; -580.000; -636.000
352.509;   16.425; -437.000; -356.000
352.642;  -97.625; -654.000; -604.000
352.775;   13.250; -141.000;  -98.000
352.908; -106.350; -933.000; -904.000
353.041;  -87.200; -814.000; -824.000
353.174;  -41.225; -551.000; -424.000
353.307;  -80.425; -753.000; -764.000
353.440;   85.625;  541.000;  453.000
353.573;  -80.200; -957.000;-1008.000
353.706;  -22.775; -384.000; -558.000
353.839;   -7.825; -264.000; -220.000
353.971;  -74.400; -657.000; -512.000
354.104; -102.000; -896.000; -835.000
354.237;  -62.725; -627.000; -662.000
354.370;  -71.950; -846.000; -879.000
354.503; -141.600;-1231.000;-1308.000
354.636;   -4.875; -529.000; -348.000
354.769;  -98.550; -937.000; -860.000
354.902;   -9.650; -230.000; -139.000
355.034;    8.150; -164.000; -220.000
355.167;   11.450; -262.000; -162.000
355.300;  -39.450;-1061.000; -880.000
355.433; 1476.950;  -71.000;  -14.000
355.565; 2305.375; -402.000; -384.000
355.698;  569.700; -356.000; -296.000
355.831;   10.050; -882.000; -801.000
355.964;   46.025; -285.000; -170.000
356.096;  -37.900; -856.000; -843.000
356.229;   27.275; -523.000; -530.000
356.362;  527.000; -373.000; -266.000
356.494;  907.075; -229.000; -162.000
356.627;  356.375;  269.000;  377.000
356.760;  889.350;  120.000;   53.000
356.892; 1507.925; -286.000; -601.000
357.025;  358.075;  403.000;  389.000
357.157;  247.025; -167.000; -179.000
357.290; 1081.900; -856.000; -713.000
357.423;  332.375; -667.000; -556.000
357.555;  128.000; -217.000; -228.000
357.688;  179.975; -483.000; -364.000
357.820;  135.750; -870.000; -877.000
357.953; 1167.650; -563.000; -589.000
358.085;  189.150; -632.000; -612.000
358.218;  145.075;-1131.000; -932.000
358.350;   72.550;  -58.000;  312.000
358.483; -136.400;-1300.000;-1187.000
358.615; -108.850;-1182.000;-1078.000
358.747; -114.275;-1187.000;-1058.000
358.880;  -34.850; -810.000; -744.000
359.012;   -3.575; -376.000; -202.000
359.145;  -63.075; -480.000; -511.000
359.277;  -57.850; -962.000; -913.000
359.409;  999.525;  536.000;  231.000
359.542;  221.575; -738.000; -688.000
359.674;   34.950;   46.000;   13.000
359.806;  -58.675; -565.000; -438.000
359.939;  -31.650; -617.000; -516.000
360.071;   39.050; -583.000; -579.000
360.203;  -14.975; -411.000; -364.000
360.335;   50.875;  164.000;  -16.000
360.468;   76.375; -249.000; -307.000
360.600; 1083.100; -547.000; -454.000
360.732; 3936.525; -546.000; -423.000
360.864;  642.875;-1216.000;-1044.000
360.996;   86.125; -516.000; -554.000
361.129;  -19.350; -389.000; -598.000
361.261;    1.200;  110.000; -113.000
361.393;  -32.625; -252.000; -214.000
361.525;   18.625;   94.000;  244.000
361.657;  -79.550; -821.000; -703.000
361.789;  -16.550; -139.000; -155.000
361.921;  -21.300; -642.000; -593.000
362.053;   96.750;  524.000;  541.000
362.185;   16.875;  288.000;   72.000
362.318; -100.000; -709.000; -705.000
362.450;   58.425;  294.000;  444.000
362.582;  -60.800; -913.000; -870.000
362.714;  -49.525; -353.000; -332.000
362.846;  -76.575; -606.000; -490.000
362.978; -115.575; -941.000; -811.000
363.109;  -16.500; -161.000; -260.000
363.241;  169.700; -739.000; -749.000
363.373;  671.475; -649.000; -564.000
363.505; 1002.850; -186.000;  -91.000
363.637;  236.400; -787.000; -601.000
363.769; -125.425;-1067.000;-1080.000
363.901;  -77.725; -596.000; -654.000
364.033; -129.700;-1103.000;-1062.000
364.165;  -19.825; -283.000; -283.000
364.296;   91.625; -316.000; -177.000
364.428;  198.825;-1344.000;-1220.000
364.560;  -39.625; -679.000; -661.000
364.692;  -69.375; -738.000; -835.000
364.824;    7.850; -588.000; -456.000
364.955;  468.550; -402.000; -564.000
365.087; 1547.000;-1097.000; -852.000
365.219;  100.050; -686.000; -816.000
365.351;  -54.000; -526.000; -572.000
365.482;   31.575;  300.000;  240.000
365.614;  -54.650; -402.000; -314.000
365.746; -107.400; -729.000; -752.000
365.877;  -63.250; -706.000; -672.000
366.009;  412.325;  -35.000;  -62.000
366.141;  -17.050;-1249.000;-1134.000
366.272;  -99.600; -803.000; -719.000
366.404; -102.175;-1005.000; -874.000
366.535;    7.700; -139.000;  -12.000
366.667;  -81.025; -644.000; -649.000
366.799;   49.375;  353.000;  203.000
366.930; -119.525; -862.000; -996.000
367.062;  188.900; -639.000; -613.000
367.193;  354.625; -872.000; -842.000
367.325;  -30.175; -580.000; -684.000
367.456;   16.625; -246.000;   31.000
367.588;  257.450; -371.000; -318.000
367.719;   66.850;  -44.000;  -45.000
367.851;  -26.475; -222.000; -241.000
367.982; -100.800; -875.000; -732.000
368.113;  -16.550; -475.000; -358.000
368.245; -128.075; -960.000; -841.000
368.376;  -27.625; -254.000; -302.000
368.508;  -17.525; -188.000; -263.000
368.639; -138.350;-1166.000;-1034.000
368.770;  -75.850; -670.000; -589.000
368.902;  -96.025; -836.000; -926.000
369.033;  -91.025; -906.000; -855.000
369.164;  -11.850; -720.000; -653.000
369.296;  -78.375; -452.000; -601.000
369.427;   -4.600; -209.000; -144.000
369.558;  -48.700; -593.000; -377.000
369.689;  -58.750; -721.000; -569.000
369.821; -109.300; -951.000; -845.000
369.952;    1.525;   42.000; -108.000
370.083;  -44.525; -229.000; -108.000
370.214;  -78.850; -735.000; -650.000
370.345;    2.900;   65.000;   81.000
370.477;  -84.975; -810.000; -790.000
370.608;   38.600; -328.000; -264.000
370.739; -110.000;-1233.000;-1292.000
370.870;  -90.925;-1102.000; -923.000
371.001;   -8.000; -378.000; -467.000
371.132;  -82.475; -754.000; -735.000
371.263;  -13.125;  -42.000; -148.000
371.394; -112.200; -841.000; -748.000
371.525;   37.325;  345.000;  225.000
371.657; -100.150; -808.000; -670.000
371.788;   29.900;  103.000;  199.000
371.919;   25.200; -384.000; -304.000
372.050; 1065.900;  -91.000; -156.000
372.181;  327.925; -188.000; -294.000
372.311;   96.675;   42.000; -127.000
372.442;  -32.325; -457.000; -451.000
372.573;  -31.325; -444.000; -340.000
372.704; -120.925;-1008.000; -980.000
372.835;   -7.825; -228.000; -289.000
372.966;  -48.800; -646.000; -554.000
373.097;  -70.950; -575.000; -711.000
373.228;  -77.300; -717.000; -542.000
373.359;  -34.550; -824.000; -536.000
373.490;  148.425; -881.000; -727.000
373.620;  215.650;-1001.000; -803.000
373.751;  453.075; -332.000; -396.000
373.882;  211.750; -663.000; -733.000
374.013;  -15.800; -449.000; -262.000
374.143;  -72.150; -581.000; -659.000
374.274; -108.625; -987.000; -908.000
374.405;   56.550; -388.000; -276.000
374.536;  128.200; -526.000; -387.000
374.666;  262.400; -759.000; -807.000
374.797;  -14.700; -817.000; -868.000
374.928;  152.450; -710.000; -560.000
375.058;  185.250; -535.000; -500.000
375.189;    5.925;  -59.000;  -93.000
375.320; -114.600; -928.000;-1034.000
375.450;  -38.450; -625.000; -616.000
375.581;  -29.575; -526.000; -436.000
375.712;  -43.650; -574.000; -250.000
375.842;   15.850; -438.000; -415.000
375.973;   -7.125; -554.000; -513.000
376.103;  -75.150; -665.000; -648.000
376.234;  -82.650; -531.000; -552.000
376.364;  -99.600; -944.000; -867.000
376.495;  153.950;  925.000;  529.000
376.625;  -18.400; -472.000; -485.000
376.756;  -43.575; -709.000; -678.000
376.886; -105.025;-1178.000;-1026.000
377.017;  146.675;-1048.000;-1061.000
377.147;  651.750; -786.000; -782.000
377.278;   95.500;  174.000;  228.000
377.408;  -90.375; -801.000; -815.000
377.538;  -93.375; -707.000; -693.000
377.669;  -51.825; -537.000; -613.000
377.799;  -83.600; -645.000; -635.000
377.929;  -66.375; -610.000; -428.000
378.060; -108.775; -781.000; -847.000
378.190;   -2.525; -726.000; -531.000
378.320;  -18.050; -401.000; -406.000
378.451;   -0.425; -131.000;  -22.000
378.581;   -3.400;  -67.000; -110.000
378.711;  132.375; 1035.000;  866.000
378.841;  -54.100; -533.000; -675.000
378.972;  -88.925; -871.000; -751.000
379.102;  -49.050; -652.000; -579.000
379.232;  -27.400; -126.000;  -73.000
379.362; -109.850;-1001.000; -885.000
379.492;  -31.075; -373.000; -424.000
379.623;   49.025;    0.000;  111.000
379.753;  -91.000;-1107.000; -974.000
379.883;   79.225;   59.000;  156.000
380.013;  -82.450;-1081.000;-1017.000
380.143;  -87.775;-1097.000;-1056.000
380.273;  -74.375; -985.000; -861.000
380.403;   20.775; -344.000; -257.000
380.533;  -12.900; -651.000; -664.000
380.663;   46.225;  173.000;  128.000
380.793; -116.575;-1027.000;-1074.000
380.923;  -11.300; -103.000;  -34.000
381.053;  -62.350; -613.000; -623.000
381.183;  -16.125; -106.000; -248.000
381.313;  -36.225; -656.000; -470.000
381.443;  -31.875; -692.000; -473.000
381.573;    3.150; -402.000; -409.000
381.703;  -55.725;-1249.000;-1095.000
381.833; -155.000;-1454.000;-1336.000
381.963;   36.525; -134.000;  -87.000
382.093;  322.775; -925.000; -909.000
382.223;   90.175; -713.000; -602.000
382.353;  -61.700; -801.000; -608.000
382.482;    9.975;-1091.000; -964.000
382.612;  145.775; -872.000; -644.000
382.742;   78.000; -695.000; -622.000
382.872;   20.050; -565.000; -551.000
383.002;   36.975;  347.000; -132.000
383.131;   -0.225; -226.000; -160.000
383.261;  -31.375; -706.000; -768.000
383.391;  317.150; -552.000; -377.000
383.521; 4659.450;  451.000;  263.000
383.650; 1447.025; -947.000; -904.000
383.780;   56.900; -783.000; -656.000
383.910;  124.600;  880.000;  802.000
384.039;  -59.450; -794.000; -656.000
384.169;  -68.500;-1205.000;-1017.000
384.299;  -52.525; -650.000; -662.000
384.428;  -83.200; -764.000; -680.000
384.558;  -35.000; -308.000; -275.000
384.687;  -43.650; -414.000; -334.000
384.817;   10.525;   75.000;   -2.000
384.947;   -6.625; -234.000; -141.000
385.076;  211.225;  982.000;  912.000
385.206;   94.050;  369.000;  480.000
385.335;  -48.500; -549.000; -417.000
385.465;  -64.175; -655.000; -663.000
385.594;   32.700;  -53.000;  -44.000
385.724;   45.900; -868.000; -838.000
385.853;   17.350; -296.000; -270.000
385.982;  292.250; -743.000; -787.000
386.112;  546.625;-1052.000; -871.000
386.241;   18.800; -307.000; -312.000
386.371;  -11.725; -174.000;  -87.000
386.500;  -49.675; -825.000; -789.000
386.629;   11.250; -874.000; -817.000
386.759;   83.675;  -43.000;   68.000
386.888;   -4.075; -170.000; -250.000
387.017;  -61.725; -648.000; -620.000
387.147;  -79.725; -771.000; -798.000
387.276;  -33.975; -410.000; -397.000
387.405;  -33.850; -398.000; -342.000
387.535;  -60.650; -452.000; -361.000
387.664;  -59.525; -692.000; -620.000
387.793;    4.400; -198.000; -113.000
387.922;  157.575;  255.000;  200.000
388.052;  -27.100; -576.000; -423.000
388.181;  -12.775; -342.000; -472.000
388.310;  -59.725; -889.000; -710.000
388.439;  -62.000; -749.000; -742.000
388.568;   54.425;  365.000;  244.000
388.697;  221.775; -756.000; -653.000
388.826;    5.075; -768.000; -666.000
388.956;   -6.375; -285.000; -307.000
389.085;  -30.925; -347.000; -287.000
389.214;  -74.225; -842.000; -872.000
389.343;  -37.825; -645.000; -413.000
389.472;  565.550;  126.000;  149.000
389.601;  643.775;   91.000;    0.000
389.730;   18.300; -568.000; -687.000
389.859;   55.900;  226.000;   46.000
389.988;   49.400; -423.000; -408.000
390.117;   64.425; -168.000; -146.000
390.246;  -21.275; -331.000; -320.000
390.375;  -37.850; -673.000; -626.000
390.504;  -58.650; -703.000; -621.000
390.633;  -83.375; -672.000; -726.000
390.761;  -70.025; -732.000; -645.000
390.890;    9.800;   -4.000; -130.000
391.019;  -36.775; -421.000; -441.000
391.148;  -93.025; -826.000; -855.000
391.277;  -56.700; -576.000; -493.000
391.406;  -78.375; -821.000; -805.000
391.534;   31.450;  574.000; -301.000
391.663;  -50.250; -583.000; -645.000
391.792;  -84.600; -673.000; -701.000
391.921;   18.325;   -3.000;   15.000
392.050;   37.200; -287.000; -228.000
392.178; -104.875;-1206.000;-1061.000
392.307;  -20.975; -758.000; -712.000
392.436;  -25.875; -427.000; -641.000
392.564;   17.175;  166.000;   -6.000
392.693;  -66.425; -860.000; -682.000
392.822;   19.225; -529.000; -534.000
392.950;  -15.250; -880.000; -714.000
393.079;   58.925; -188.000; -328.000
393.208;  -25.125; -488.000; -511.000
393.336;    6.625; -170.000; -145.000
393.465;  -19.825; -317.000; -199.000
393.593;   20.575;   62.000;   79.000
393.722; -112.625;-1121.000; -916.000
393.850;   -6.200; -188.000;  -61.000
393.979; -112.975; -926.000; -805.000
394.107;  -36.300; -517.000; -537.000
394.236;  -14.825; -570.000; -507.000
394.364;  110.425;  383.000;  206.000
394.493;   81.875; -911.000; -767.000
394.621;   36.125; -955.000; -916.000
394.750; 1196.050; -873.000; -923.000
394.878; 4600.550; -247.000; -149.000
395.007; 6742.100; -721.000; -807.000
395.135;  648.750; -790.000; -721.000
395.263;  -15.350;-1038.000;-1040.000
395.392;   23.600;  -25.000; -107.000
395.520; -114.675; -818.000; -679.000
395.648; -104.950; -865.000; -915.000
395.777;  -41.850; -366.000; -405.000
395.905;  -59.350; -449.000; -564.000
396.033;   22.775;  217.000;  172.000
396.162;   77.825; -399.000; -453.000
396.290;  108.025;  -17.000;   -2.000
396.418;  -40.750; -555.000; -514.000
396.546;  -85.725; -571.000; -466.000
396.674; -117.725; -850.000; -878.000
396.803;   -9.175;  -72.000;  -23.000
396.931;   -8.675; -179.000; -199.000
397.059; -110.350;-1026.000; -989.000
397.187; -125.650;-1026.000; -975.000
397.315; -120.700; -884.000; -649.000
397.443;  -80.650; -592.000; -443.000
397.572;  -68.050; -578.000; -424.000
397.700;  -65.925; -607.000; -614.000
397.828;  -25.800;  120.000;  -90.000
397.956;  -16.500; -508.000; -478.000
398.084;  -11.125; -767.000; -626.000
398.212;    5.950;  137.000;  124.000
398.340;   -7.300;  -56.000;  159.000
398.468;  -43.100; -390.000; -169.000
398.596; -136.175; -993.000; -953.000
398.724; -123.625; -762.000; -767.000
398.852; -137.600;-1024.000; -976.000
398.980;  -65.525; -560.000; -560.000
399.108;  -83.550; -982.000; -735.000
399.236;  -16.325;   13.000;    8.000
399.363;   16.475;  222.000;  196.000
399.491;  -50.250; -404.000; -398.000
399.619;  -82.500; -829.000; -800.000
399.747;  -88.050; -859.000; -771.000
399.875;   49.650;  220.000;  234.000
400.003;  -59.675; -359.000; -284.000
400.130;  -80.200; -421.000; -341.000
400.258;  -24.450;  -83.000;   38.000
400.386;  -60.625; -352.000; -168.000
400.514;  -77.775; -526.000; -587.000
400.641; -118.625; -928.000; -802.000
400.769; -138.700; -979.000; -888.000
400.897; -106.425; -838.000; -793.000
401.025;  -26.700; -166.000; -152.000
401.152;    5.125;  220.000;   38.000
401.280;  -62.625; -430.000; -429.000
401.408;  -85.300; -712.000; -576.000
401.535;  -93.325; -735.000; -758.000
401.663; -171.675;-1134.000;-1054.000
401.790;  -76.800; -514.000; -525.000
401.918;   45.500;  436.000;  405.000
402.046;  -15.875;  134.000;  122.000
402.173;  -18.875;  -18.000;    7.000
402.301;  -50.000; -519.000; -397.000
402.428;   53.550;  528.000;  383.000
402.556; -124.675;-1188.000; -913.000
402.683;   -7.275;  -20.000;   -1.000
402.811;    0.625;  -37.000; -206.000
402.938;   15.925;   20.000;   27.000
403.066;   -4.000; -574.000; -558.000
403.193;  126.575;  299.000;  239.000
403.321;   56.525; -396.000; -574.000
403.448;  149.350;   83.000;   27.000
403.575;   69.425;  -90.000;  -46.000
403.703;  -74.125; -732.000; -557.000
403.830;  -11.225; -531.000; -496.000
403.957;  -85.800;-1117.000;-1023.000
404.085;   55.400;  -61.000; -172.000
404.212;  162.325;  -50.000;   63.000
404.339;  474.000; -566.000; -306.000
404.467; 9086.175; -612.000; -524.000
404.594; 5699.300; -287.000; -227.000
404.721; 1009.150; -869.000; -764.000
404.848;  137.150; -113.000; -202.000
404.976;  -66.500; -856.000; -783.000
405.103;    7.550;  -14.000;  -82.000
405.230;   32.900;  190.000;  226.000
405.357;  100.400;  117.000;   44.000
405.484;  446.700;  -49.000;    5.000
405.612;  162.025; -548.000; -563.000
405.739;  -29.125; -488.000; -243.000
405.866;   96.375;  669.000;  385.000
405.993;  -29.375; -398.000; -102.000
406.120; -113.400; -801.000; -887.000
406.247;  -47.625; -323.000; -342.000
406.374;  125.550;  540.000;  629.000
406.501;  -63.425; -632.000; -702.000
406.628;  -73.575; -621.000; -589.000
406.755;  -89.000; -803.000; -620.000
406.882;  -42.325; -228.000; -277.000
407.009;  -88.575; -719.000; -628.000
407.136;  -22.200; -480.000; -401.000
407.263;    7.250; -939.000; -829.000
407.390;  -62.375; -692.000; -614.000
407.517; -145.775;-1139.000;-1187.000
407.644;  -51.225; -332.000; -256.000
407.771;  -59.425; -249.000; -287.000
407.898;   13.700;  168.000;  328.000
408.025;  -40.875; -421.000; -313.000
408.151;   10.800;   82.000;  153.000
408.278;  -38.075; -267.000; -216.000
408.405; -107.325; -931.000; -899.000
408.532;  -80.550; -549.000; -542.000
408.659; -109.175; -677.000; -648.000
408.785; -151.225;-1298.000;-1170.000
408.912;  -47.775; -412.000; -296.000
409.039;  -82.975; -610.000; -686.000
409.166;  -80.625; -591.000; -555.000
409.292;  -88.450; -571.000; -534.000
409.419;  -94.250; -665.000; -649.000
409.546;  -56.975; -431.000; -192.000
409.672;  -90.700; -713.000; -545.000
409.799;  -29.825;  -36.000;   34.000
409.926;  -39.500; -180.000; -179.000
410.052; -142.250;-1127.000;-1091.000
410.179;  -62.900; -368.000; -392.000
410.305;  -78.300; -375.000; -493.000
410.432;    8.675; -220.000; -333.000
410.558;  -56.775; -305.000; -380.000
410.685;  -80.425; -688.000; -431.000
410.812;  -87.875; -409.000; -588.000
410.938; -111.975; -964.000; -808.000
411.065;  -87.300; -671.000; -645.000
411.191;  -29.050; -189.000; -174.000
411.317; -114.825; -823.000; -742.000
411.444;  -56.650; -317.000; -246.000
411.570;  -54.625; -339.000; -294.000
411.697; -106.275; -758.000; -752.000
411.823; -145.725; -989.000; -999.000
411.949;  -21.350;  -56.000;   17.000
412.076; -104.600; -539.000; -519.000
412.202; -109.325; -758.000; -757.000
412.329; -110.075; -798.000; -752.000
412.455; -120.150; -821.000; -657.000
412.581;   -9.050;  -15.000;  172.000
412.707;  -93.575; -540.000; -457.000
412.834;   16.575;  156.000;  219.000
412.960;  -93.125; -785.000; -784.000
413.086;  -86.725; -743.000; -701.000
413.212;  161.725;  604.000;  578.000
413.339;  -70.850; -685.000; -701.000
413.465;  -51.525; -364.000; -310.000
413.591;  -84.025; -757.000; -474.000
413.717;  -45.000; -358.000; -366.000
413.843; -119.900; -839.000; -861.000
413.969;  -52.475;  -47.000; -292.000
414.096;  -67.775; -679.000; -679.000
414.222;   -4.400;  -33.000;   85.000
414.348;  -62.950; -652.000; -385.000
414.474;   21.100;   38.000;  -52.000
414.600;    5.000; -126.000; -144.000
414.726;    8.225;  -96.000;  -55.000
414.852;  -20.550; -365.000; -342.000
414.978;   46.150;  104.000;  -18.000
415.104;   81.900;   38.000;   80.000
415.230;   71.000; -329.000; -330.000
415.356;  101.450; -409.000; -514.000
415.482;  260.350;   13.000;  -35.000
415.608;  457.200; -247.000; -323.000
415.734; 1398.975;   67.000;   38.000
415.860;28950.025; -875.000; -767.000
415.986;24485.250; -685.000; -607.000
416.111; 2352.400; -798.000; -652.000
416.237;  519.800; -424.000; -571.000
416.363; 1691.925; -765.000; -733.000
416.489; 6872.650; -324.000; -251.000
416.615; 1015.050; -707.000; -742.000
416.741;   93.500; -677.000; -784.000
416.866;  -42.450; -673.000; -736.000
416.992;  -69.050; -801.000; -818.000
417.118;   13.450;  -41.000;  -80.000
417.244;  -33.675; -798.000; -531.000
417.369;  -39.225; -801.000; -612.000
417.495;   17.075; -325.000; -254.000
417.621;  -42.425;-1015.000; -803.000
417.746;   35.150; -579.000; -572.000
417.872;  103.400; -254.000; -144.000
417.998;  143.400; -515.000; -530.000
418.123; 1587.125;-1073.000; -845.000
418.249; 8818.150; -512.000; -601.000
418.374; 1590.225; -916.000; -824.000
418.500;  281.275; -383.000; -482.000
418.626;  201.400;   70.000;  -59.000
418.751;  201.150; -549.000; -448.000
418.877;  341.750; -637.000; -643.000
419.002; 2624.225; -688.000; -560.000
419.128;19783.400; -930.000; -721.000
419.253; 5823.350; -967.000; -837.000
419.379;  805.625; -391.000; -338.000
419.504;  627.525;  325.000;  415.000
419.629;  861.075; -393.000; -212.000
419.755; 5230.000; -317.000; -254.000
419.880;34569.525;  -98.000;   67.000
420.006;17774.525; -280.000; -221.000
420.131;44788.600; -662.000; -775.000
420.256; 7534.525; -315.000; -316.000
420.382; 1065.425; -665.000; -687.000
420.507;  212.925; -649.000; -778.000
420.632;   89.850; -337.000; -339.000
420.758;   74.875; -251.000; -425.000
420.883;  -68.000; -876.000; -672.000
421.008;  -88.600; -775.000; -619.000
421.133;  -65.600; -509.000; -467.000
421.259;  -22.300; -325.000; -259.000
421.384;  -94.675; -834.000; -693.000
421.509;  -96.925;-1052.000; -862.000
421.634;  199.200; -936.000; -820.000
421.759;  103.325; -359.000; -327.000
421.885;  -59.575; -717.000; -656.000
422.010;  -77.000; -673.000; -542.000
422.135; -115.775; -695.000; -727.000
422.260;   29.175;  340.000;  280.000
422.385;  -14.950;   12.000;  -98.000
422.510;   12.125;  151.000;  -26.000
422.635;    6.875;  -87.000;  -43.000
422.760;    1.650; -766.000; -791.000
422.885;   50.625;  -57.000;  -80.000
423.010;   -4.950; -112.000; -169.000
423.135;  -62.475; -481.000; -561.000
423.260;  -33.275; -150.000; -245.000
423.385;   46.250;  476.000;  222.000
423.510;   14.350;   71.000;  -22.000
423.635;   27.300;  133.000;   45.000
423.760;   76.100;  383.000;  328.000
423.885;   57.400;  336.000;  391.000
424.010;    1.300;  -68.000;  -13.000
424.135;  -11.200;    5.000;  -33.000
424.259;  -51.925; -654.000; -457.000
424.384;  -19.875; -279.000; -272.000
424.509;  -17.000; -260.000; -186.000
424.634;  -58.525; -761.000; -623.000
424.759;  -27.900; -688.000; -544.000
424.883;   17.875; -506.000; -527.000
425.008;  209.800; -502.000; -410.000
425.133; 2911.775; -679.000; -653.000
425.258; 1625.300; -517.000; -381.000
425.382;  479.125; -867.000; -774.000
425.507;  986.600; -487.000; -543.000
425.632;  381.425; -802.000; -663.000
425.756;  692.375; -256.000; -146.000
425.881; 9494.200; -831.000; -857.000
426.006;29970.800; -604.000; -355.000
426.130; 5113.675; -696.000; -508.000
426.255;  712.925; -611.000; -491.000
426.379;  307.950; -189.000; -577.000
426.504;  535.600;  660.000;  544.000
426.629; 6026.775; -519.000; -466.000
426.753; 4887.750;   64.000;  -46.000
426.878;  617.475; -252.000; -288.000
427.002;  336.475; -651.000; -668.000
427.127; 2066.700;  -35.000; -158.000
427.251;17403.150;  372.000;  401.000
427.375; 5846.125; -191.000; -173.000
427.500; 1228.575; -616.000; -610.000
427.624;  397.950; -234.000; -400.000
427.749;  144.125; -216.000; -225.000
427.873;   37.050; -499.000; -412.000
427.997;  -18.725; -222.000; -230.000
428.122;   84.300;  795.000;  703.000
428.246;   42.025;  433.000;  434.000
428.371; -104.600; -869.000; -773.000
428.495;  -90.450; -624.000; -646.000
428.619;  -17.075; -186.000; -117.000
428.743;   32.075;   65.000;  132.000
428.868;  -68.075; -732.000; -643.000
428.992;  408.225; -219.000; -326.000
429.116;  173.025; -329.000; -357.000
429.240;  155.425;  419.000;  426.000
429.365;  -12.825; -454.000; -574.000
429.489;  -39.200; -638.000; -647.000
429.613;   63.500; -236.000; -177.000
429.737;  125.150; -563.000; -432.000
429.861;  425.125; -247.000; -133.000
429.985; 8048.325; -425.000; -305.000
430.109;10565.325; -770.000; -908.000
430.234; 1345.925;   76.000;  -50.000
430.358;  205.725; -250.000; -160.000
430.482;   -3.400; -672.000; -564.000
430.606;  -29.050; -655.000; -375.000
430.730;  -31.575; -437.000; -388.000
430.854;  -29.650; -909.000; -835.000
430.978;  -33.525; -795.000; -764.000
431.102;  -29.350; -499.000; -422.000
431.226;  -62.850; -874.000; -815.000
431.350;   70.325;  345.000;  422.000
431.474;  -43.925; -661.000; -373.000
431.597; -150.100;-1060.000; -848.000
431.721;  -69.700; -276.000; -267.000
431.845; -103.125; -704.000; -472.000
431.969;  -68.500; -304.000; -349.000
432.093;  -63.325; -395.000; -317.000
432.217;   -8.075;   32.000;   82.000
432.341;  -49.400; -523.000; -518.000
432.464;   23.025;   96.000;   40.000
432.588;   10.600; -401.000; -329.000
432.712;   39.975;  -52.000;  -52.000
432.836;   81.400;  213.000;  263.000
432.959;   53.350; -372.000; -311.000
433.083;  207.525;   11.000;    2.000
433.207;  619.375;  285.000;  930.000
433.330; 7643.150; -391.000; -200.000
433.454;10902.350; -654.000; -638.000
433.578; 6035.625;  583.000;  278.000
433.701; 1374.025; -623.000; -675.000
433.825;  200.500; -292.000; -299.000
433.949;   85.350;   28.000;  -72.000
434.072;   12.725; -410.000; -323.000
434.196;   26.425; -309.000; -117.000
434.319; 3436.525;25482.000;25124.000
434.443;  887.975; -656.000; -603.000
434.566; 4150.075;  281.000;   62.000
434.690;  958.700; -637.000; -383.000
434.813;  217.550; -251.000; -173.000
434.937;    1.100; -569.000; -696.000
435.060;  -45.375; -423.000; -332.000
435.184;   12.800; -492.000; -217.000
435.307;   54.200;  159.000;  102.000
435.431;   -6.675;  -40.000;   24.000
435.554;  -55.150; -399.000; -240.000
435.677;  -64.400; -350.000; -258.000
435.801;  -19.325;  -25.000;   49.000
435.924;  -33.075;    1.000;  -67.000
436.048; -115.875;-1019.000; -732.000
436.171;  -63.725; -240.000;  -66.000
436.294;    8.425; -248.000; -229.000
436.417;  237.775; -963.000; -849.000
436.541;    1.675; -814.000; -840.000
436.664;  -24.525; -242.000; -316.000
436.787;    5.475;   13.000;  113.000
436.910;  -99.225; -792.000; -422.000
437.034;   27.350;  142.000;  143.000
437.157;   55.500;  -11.000;    0.000
437.280;  -56.925; -392.000; -292.000
437.403; -117.675; -982.000; -869.000
437.526;   36.100; -903.000; -865.000
437.649;  534.425; -505.000; -332.000
437.772;   25.900; -692.000; -540.000
437.896;   69.100;  700.000;  544.000
438.019;  -65.525; -758.000; -503.000
438.142;  -76.450; -596.000; -506.000
438.265;  -96.125; -639.000; -670.000
438.388;   43.550; -520.000; -410.000
438.511;  -27.975; -597.000; -394.000
438.634;  -50.275; -247.000; -125.000
438.757; -125.950; -693.000; -619.000
438.880;  -36.750;  -34.000;  -57.000
439.003;  -78.125; -417.000; -437.000
439.126;  -58.250; -287.000; -167.000
439.248;  -44.325;  -98.000; -139.000
439.371;  -31.250;    9.000;  -53.000
439.494;   45.975;  510.000;  439.000
439.617;  -37.750;   65.000;  -88.000
439.740; -157.200; -968.000; -816.000
439.863; -126.225; -755.000; -595.000
439.986;  -90.725; -476.000; -431.000
440.108;  -15.075; -161.000; -112.000
440.231; -134.975; -950.000; -836.000
440.354;  -54.250;  -64.000; -150.000
440.477;  -87.000; -566.000; -542.000
440.599;  -63.300; -200.000; -225.000
440.722; -118.525; -709.000; -586.000
440.845;   79.100;  751.000;  928.000
440.968; -102.900; -415.000; -311.000
441.090;  -56.325; -199.000;  -33.000
441.213; -153.500;-1021.000; -825.000
441.336;  -43.700; -159.000;   -5.000
441.458;  -78.175; -549.000; -396.000
441.581;  -97.475; -628.000; -629.000
441.703;  -66.025; -152.000;   13.000
441.826; -101.450; -557.000; -400.000
441.948;  -50.300;   56.000;   51.000
442.071;   34.625;  555.000;  424.000
442.193;  -98.550; -531.000; -485.000
442.316;   22.825;  152.000;   97.000
442.438;   80.975; -233.000;  -10.000
442.561;   81.600;  272.000;  262.000
442.683;   98.400; -809.000; -522.000
442.806;  288.525;   -8.000;   74.000
442.928;  -89.225; -859.000; -604.000
443.051;  -76.025; -577.000; -373.000
443.173;  -68.150; -341.000; -339.000
443.295;  -86.175; -263.000; -371.000
443.418;  -57.250; -321.000;  -29.000
443.540;  -33.150; -106.000;   -4.000
443.662; -115.475; -563.000; -465.000
443.785;  -26.150;  335.000;  199.000
443.907;  -86.175; -362.000; -208.000
444.029; -116.550; -767.000; -494.000
444.152; -124.775; -644.000; -554.000
444.274;  -31.675;  -18.000;  -24.000
444.396; -106.600; -461.000; -221.000
444.518; -121.525; -691.000; -454.000
444.640;  -81.100; -268.000; -111.000
444.763;  -24.050;  388.000;  249.000
444.885;  -97.775; -432.000; -392.000
445.007;  -22.475;   35.000;   86.000
445.129; -123.425; -610.000; -515.000
445.251; -100.700; -372.000; -439.000
445.373; -140.250; -537.000; -386.000
445.495;  -10.550;  242.000;  350.000
445.617;   37.100;  853.000;  753.000
445.739;  -69.775; -215.000;  -97.000
445.861;  -53.650; -245.000; -112.000
445.984;  -75.900; -267.000; -101.000
446.105;  -24.550; -418.000; -251.000
446.227;  110.100; -176.000;  -19.000
446.349;  -71.325; -358.000; -249.000
446.471; -115.850; -615.000; -448.000
446.593;  -69.450; -316.000;   19.000
446.715;  -33.075;  -67.000;   41.000
446.837;   42.850;  697.000;  832.000
446.959; -106.350; -457.000; -478.000
447.081; -125.325; -628.000; -518.000
447.203;   44.600;  862.000;  834.000
447.325;  -74.750; -270.000;   42.000
447.446;    1.600;  286.000;  530.000
447.568; -144.275; -921.000; -803.000
447.690;  -88.675; -236.000; -245.000
447.812; -138.500; -798.000; -519.000
447.933;  -25.525;  155.000;  127.000
448.055;  -56.100; -306.000; -261.000
448.177;   33.625;   31.000;   79.000
448.299;  -81.525; -935.000; -727.000
448.420;    0.475;  -25.000;  159.000
448.542;  -46.025;   -3.000;   33.000
448.664;  -26.500;  109.000;  322.000
448.785;  -26.050;  265.000;   83.000
448.907;  -78.700; -614.000; -353.000
449.028;  -79.700; -771.000; -471.000
449.150;   53.200;  492.000;  589.000
449.272; -156.925;-1044.000; -913.000
449.393;   34.500;  612.000;  694.000
449.515; -115.925; -634.000; -581.000
449.636;  -41.000; -264.000; -155.000
449.758;   70.475;  763.000;  622.000
449.879;  -72.000; -498.000; -396.000
450.001;  -46.825; -149.000;  -49.000
450.122;  -13.525;  -95.000;  162.000
450.244;   -1.950;   37.000;  364.000
450.365;  -48.625; -495.000; -301.000
450.486;   17.525;   80.000;  268.000
450.608;   67.900;  393.000;  326.000
450.729;  151.550;  578.000;  645.000
450.850;  121.975; -574.000; -466.000
450.972; 1222.475; -552.000; -389.000
451.093; 7899.175;  190.000;  588.000
451.214; 4219.575; -516.000; -337.000
451.336;  732.875;  773.000;  579.000
451.457;  127.350;  264.000;  393.000
451.578;   -0.975; -118.000;  -74.000
451.699;  -85.725; -546.000; -540.000
451.821;  -43.400; -284.000;  -50.000
451.942;   33.650;  278.000;  285.000
452.063;   57.500;  228.000;  419.000
452.184;  828.750;  -54.000;  -49.000
452.305; 1808.125;  103.000;  170.000
452.427;  379.650; -549.000; -301.000
452.548;   51.775;   23.000;   79.000
452.669;  -43.150; -257.000;  -89.000
452.790;  -55.250;    3.000;  -18.000
452.911;   -2.425;  195.000;  259.000
453.032;  -66.500; -289.000;  -60.000
453.153;  -30.075;  -29.000;   81.000
453.274;   60.850;  737.000;  868.000
453.395;  -39.950;  -51.000;  175.000
453.516;   98.850; 1317.000; 1388.000
453.637;  -75.600; -205.000; -150.000
453.758;  -43.825;   15.000;   69.000
453.879;  -88.575; -462.000; -250.000
454.000;   69.350; 1086.000;  948.000
454.121; -107.250; -554.000; -326.000
454.242;  -81.850; -599.000; -383.000
454.362;  -34.725;  -99.000;  114.000
454.483;   14.550; -309.000; -229.000
454.604;  119.200;  512.000;  580.000
454.725; -109.675; -627.000; -555.000
454.846; -122.925; -474.000; -406.000
454.967;  -25.425;  230.000;  539.000
455.087;  -19.675;  179.000;  153.000
455.208;   18.525;  554.000;  856.000
455.329;  -33.450;  -22.000;   82.000
455.450;   64.200;  473.000;  633.000
455.570;  -45.525; -234.000; -211.000
455.691;  -31.750;  201.000;  407.000
455.812;  -72.450; -270.000;  -92.000
455.932;  -45.325;  107.000;  -97.000
456.053;  -65.875;   36.000;   24.000
456.173; -105.075; -433.000; -355.000
456.294; -111.125; -476.000; -303.000
456.415;  -50.425;  -73.000;   70.000
456.535;  -14.150;  297.000;  273.000
456.656;  -47.200;  132.000;  240.000
456.776;  -53.450;    3.000;  298.000
456.897;    8.275;  308.000;  513.000
457.017;  -51.850; -153.000;   -3.000
457.138; -102.450; -402.000; -249.000
457.258;  -25.225;  263.000;  224.000
457.379;   10.750;  509.000;  521.000
457.499;  -29.400;  443.000;  432.000
457.620; -104.075; -407.000; -231.000
457.740;  -71.825; -132.000;  -11.000
457.860;  -42.250;   87.000;   44.000
457.981;   -6.950;  132.000;  124.000
458.101;  -54.275;  -89.000;   40.000
458.221;    1.925;  336.000;  402.000
458.342;  -46.450;   -4.000;  -37.000
458.462;   53.425;  617.000;  352.000
458.582;   17.400; -302.000; -294.000
458.703;   67.000;  303.000;  154.000
458.823;   24.925;   22.000;  163.000
458.943;   73.825;  341.000;  467.000
459.063;   51.700; 1124.000;  192.000
459.183;   -9.100;  328.000;  313.000
459.304;   21.275;  315.000;  517.000
459.424;  -24.700; -246.000;  -89.000
459.544;  467.125;  388.000;  764.000
459.664; 1345.425;  499.000;  506.000
459.784;  559.500; 1004.000; 1175.000
459.904;  108.225;  867.000;  744.000
460.024;   58.800;  867.000;  684.000
460.144;  -13.175;  449.000;  554.000
460.264;    1.450;  515.000;  327.000
460.385;  -68.350; -145.000; -119.000
460.505;   50.750;  905.000;  858.000
460.625;  -72.950;  -17.000;  -68.000
460.745;  -28.700;  396.000;  541.000
460.864;  -15.700;  153.000;  469.000
460.984;   70.150;  499.000;  573.000
461.104;  182.425; 1656.000; 1775.000
461.224;   36.525;  657.000;  650.000
461.344;  -14.375;  431.000;  360.000
461.464;  -40.650;  258.000;  513.000
461.584;   -9.150;  283.000;  466.000
461.704;  -57.800;   58.000;  108.000
461.824;  -52.100;  238.000;  259.000
461.943;  -44.650;  191.000;  130.000
462.063;  -41.875;    2.000;  324.000
462.183;   23.925;  639.000;  717.000
462.303;   86.675; 1678.000; 1230.000
462.422;   28.050;  781.000;  840.000
462.542;  -22.675;  271.000;  391.000
462.662;   60.375;  353.000;  380.000
462.782;  366.900;  833.000;  572.000
462.901;  764.275;  545.000;  717.000
463.021;  426.775; 1702.000; 1638.000
463.141;   12.975;  337.000;  770.000
463.260;  -10.175;  614.000;  474.000
463.380;   32.050;  902.000;  884.000
463.499;  -18.025;  342.000;  332.000
463.619;  -35.250;  581.000;  559.000
463.738;  118.050; 1644.000;  903.000
463.858;   18.375;  657.000;  811.000
463.978;  -29.900;  542.000;  396.000
464.097;   52.625;  921.000; 1114.000
464.217;  149.400; 1196.000; 1143.000
464.336;  151.775; 1068.000; 1130.000
464.455;  -15.075;  328.000;  659.000
464.575;   -2.800;  597.000;  602.000
464.694;  135.050; 1204.000; 1179.000
464.814;  159.325; 1190.000; 1138.000
464.933;   85.050; 1095.000; 1027.000
465.052;  105.825; 1412.000; 1054.000
465.172;   83.425;  922.000;  799.000
465.291;  118.450; 1376.000; 1320.000
465.410;   16.075;  462.000;  735.000
465.530;   89.450; 1355.000; 1310.000
465.649;   73.325; 1209.000; 1273.000
465.768;  156.325; 1673.000; 1508.000
465.888;   96.175;  941.000; 1174.000
466.007;  106.125; 1335.000; 1440.000
466.126;   16.825;  721.000;  641.000
466.245;   58.625; 1176.000; 1187.000
466.364;   19.925;  950.000; 1060.000
466.484;   61.350; 1024.000; 1213.000
466.603;   37.925; 1101.000; 1222.000
466.722;  100.425; 1490.000; 1769.000
466.841;   77.450; 1151.000; 1401.000
466.960;   50.225; 1069.000;  972.000
467.079;  149.525; 1971.000; 1786.000
467.198;   53.750; 1238.000; 1181.000
467.317;   94.500; 1768.000; 1162.000
467.436;   76.350; 1709.000; 1261.000
467.555;  121.025; 1796.000; 1746.000
467.674;   69.575; 1227.000; 1329.000
467.793;   66.475; 1376.000; 1374.000
467.912;   86.400; 1658.000; 1539.000
468.031;  150.975; 2038.000; 1930.000
468.150;  145.675; 1842.000; 1837.000
468.269;  192.400; 2313.000; 2090.000
468.388;  183.750; 2168.000; 2339.000
468.507;  268.150; 2884.000; 2903.000
468.626;  226.000; 2555.000; 2541.000
468.744;  166.475; 2018.000; 2174.000
468.863;  215.100; 2312.000; 2523.000
468.982;  108.975; 1503.000; 1555.000
469.101;  226.275; 2788.000; 2692.000
469.220;  181.575; 2333.000; 2176.000
469.338;  247.950; 2935.000; 3051.000
469.457;  212.225; 2719.000; 2545.000
469.576;  346.350; 3953.000; 3784.000
469.695;  256.625; 2877.000; 3066.000
469.813;  417.300; 4148.000; 4192.000
469.932;  417.950; 4255.000; 4485.000
470.051;  449.325; 4075.000; 4161.000
470.169; 1041.550; 4470.000; 4338.000
470.288; 2036.925; 4700.000; 4809.000
470.406; 1215.750; 5059.000; 5194.000
470.525;  676.025; 6101.000; 5787.000
470.644;  661.825; 6847.000; 6794.000
470.762;  808.250; 8397.000; 7873.000
470.881;  922.475; 8651.000; 8464.000
470.999; 1087.925; 9685.000; 9151.000
471.118; 1118.750;11174.000;10711.000

