
Integration time [ms]: 200.000
Averaging Nr. [scans]: 10
Smoothing Nr. [pixels]: 0
Data measured with spectrometer [name]: 2101012U2
Wave   ;Sample   ;Dark     ;Reference
[nm]   ;[counts] ;[counts] ;[counts] 

197.733;  131.400;  516.000;  404.000
197.879; -149.300; -610.000; -634.000
198.025;  -82.100; -475.000; -420.000
198.171; -143.400; -602.000; -612.000
198.317;  -77.700; -401.000; -316.000
198.463; -124.500; -655.000; -404.000
198.609;   65.400;  181.000; -137.000
198.755; -155.500; -644.000; -410.000
198.901; -120.600; -505.000; -424.000
199.047; -152.900; -615.000; -488.000
199.193;  -85.400; -230.000; -468.000
199.339;  -86.900; -222.000; -369.000
199.485;  103.000;  330.000;  271.000
199.631;   34.700;  227.000;  310.000
199.777; -107.800; -466.000; -398.000
199.923; -167.100; -610.000; -424.000
200.069;   -7.700; -141.000;  -58.000
200.215;  120.200;  128.000;  453.000
200.361;  104.200;  243.000;  477.000
200.507; -122.700; -600.000; -373.000
200.653;  -38.600; -371.000; -194.000
200.798;  -46.700; -215.000; -125.000
200.944;    4.000; -146.000;  -41.000
201.090;   96.100;   61.000;  222.000
201.236;   -2.800; -116.000; -158.000
201.382;  288.900;  874.000;  903.000
201.528;   45.800;  -58.000;  -48.000
201.674;  -97.300; -386.000; -293.000
201.819; -114.800; -540.000; -439.000
201.965; -179.700; -699.000; -447.000
202.111;  -18.700; -273.000; -226.000
202.257;  -58.200; -250.000; -238.000
202.402;   27.900;   13.000;  -36.000
202.548;  -57.800; -169.000; -116.000
202.694;  186.300;  410.000; -183.000
202.840; -140.600; -603.000; -531.000
202.985; -131.300; -681.000; -639.000
203.131; -203.600; -832.000; -666.000
203.277;  -41.600; -199.000; -262.000
203.423;  -94.300; -434.000; -520.000
203.568;  -47.500; -462.000; -237.000
203.714; -139.700; -535.000; -542.000
203.860; -166.800; -682.000; -641.000
204.005;   41.800;  112.000;  167.000
204.151;  157.900;  561.000;  556.000
204.296;  -77.800; -354.000; -221.000
204.442; -134.700; -600.000; -547.000
204.588; -146.400; -592.000; -579.000
204.733;   77.900;  178.000;  168.000
204.879; -241.200;-1018.000; -822.000
205.025;   21.500;  -99.000;  126.000
205.170;   -1.200;  -17.000;   94.000
205.316;  175.600;  438.000;  661.000
205.461; -179.700; -698.000; -554.000
205.607;  184.400;  609.000;  665.000
205.752; -157.200; -626.000; -551.000
205.898;  -97.300; -501.000; -391.000
206.043; -150.400; -578.000; -506.000
206.189; -116.500; -243.000; -285.000
206.334;  196.400;  554.000;  606.000
206.480;  148.600;  409.000;  239.000
206.625; -205.100; -529.000; -552.000
206.771;  -83.100; -451.000; -373.000
206.916;  -48.200; -210.000; -537.000
207.062; -139.900; -545.000; -591.000
207.207; -122.800; -546.000; -443.000
207.353;  114.600;  185.000;  460.000
207.498;   46.700;  196.000;   85.000
207.643;  -89.100; -501.000; -370.000
207.789; -268.200;-1069.000; -910.000
207.934; -198.500; -665.000; -713.000
208.080;  -57.800; -154.000;   66.000
208.225;   -5.500;  -22.000;  -57.000
208.370; -173.400; -727.000; -619.000
208.516; -148.400; -741.000; -487.000
208.661;  -46.900; -127.000;  -69.000
208.806;   -9.600; -165.000; -171.000
208.952; -263.900;-1044.000; -731.000
209.097;  174.400;  378.000;  349.000
209.242;  -87.300; -307.000; -382.000
209.387;  145.500;  392.000;  350.000
209.533; -101.000; -321.000; -350.000
209.678;  166.400;  472.000;  543.000
209.823;  -94.100; -408.000; -310.000
209.969; -230.300; -860.000; -757.000
210.114; -224.100; -907.000; -719.000
210.259; -233.600; -939.000; -889.000
210.404;  -17.800; -171.000;  103.000
210.549;   39.200;  108.000;    3.000
210.695;  -30.100;   -3.000;  -95.000
210.840;  109.500;   94.000;   67.000
210.985; -141.100; -484.000; -303.000
211.130;  140.400;  268.000;  406.000
211.275;   33.800;  207.000;  199.000
211.420;  -95.900; -300.000; -289.000
211.566; -133.600; -536.000; -489.000
211.711;   66.400;  218.000;  157.000
211.856; -142.700; -545.000; -519.000
212.001;   61.200;  151.000;   44.000
212.146;  -12.200;  153.000;   49.000
212.291;  -46.900; -210.000; -186.000
212.436;  -47.200; -280.000;   -6.000
212.581; -151.000; -685.000; -653.000
212.726; -158.100; -487.000; -538.000
212.871;  -68.500; -552.000; -217.000
213.016; -303.100;-1172.000;-1029.000
213.161;  150.100;  406.000;  291.000
213.306; -178.800; -435.000; -577.000
213.451; -205.300; -778.000; -689.000
213.596;  -84.400; -455.000; -347.000
213.741;  -81.100; -448.000; -538.000
213.886; -171.200; -498.000; -517.000
214.031;  -26.100; -294.000; -124.000
214.176; -112.000; -408.000; -341.000
214.321;  -30.700; -296.000; -157.000
214.466;  -44.600; -163.000;  -43.000
214.611;  -28.400;  -61.000;  -10.000
214.756; -275.700; -948.000; -858.000
214.901;   -9.600; -388.000; -226.000
215.046; -245.300; -797.000; -825.000
215.191;   38.000;  128.000;   35.000
215.336;  -16.700; -157.000;  -19.000
215.480; -137.000; -684.000; -505.000
215.625;  -12.700; -175.000;  -19.000
215.770; -174.000; -757.000; -662.000
215.915;    5.900;   -5.000;  -97.000
216.060;    9.300; -113.000;  -21.000
216.205; -203.400; -731.000; -779.000
216.349; -149.000; -470.000; -533.000
216.494; -291.200; -939.000; -867.000
216.639; -239.000; -823.000; -888.000
216.784; -182.800; -577.000; -525.000
216.929;  133.900;  392.000;  281.000
217.073;  -14.600; -244.000;  -31.000
217.218;   39.700;   78.000;  -47.000
217.363; -156.800; -656.000; -618.000
217.507; -150.300; -623.000; -588.000
217.652; -247.400; -845.000; -874.000
217.797; -179.800; -708.000; -659.000
217.942; -235.900; -856.000; -720.000
218.086;  160.600;  608.000;  539.000
218.231;  -61.200; -174.000;  -26.000
218.376;  -61.500; -337.000; -229.000
218.520;   27.000;  -41.000;   96.000
218.665;  -62.700; -338.000; -204.000
218.810;  -74.800; -275.000; -233.000
218.954;   32.900;  201.000;   35.000
219.099; -224.000; -713.000; -963.000
219.243; -140.800; -589.000; -554.000
219.388;  -63.500; -264.000; -136.000
219.532;  -27.500; -116.000; -116.000
219.677; -176.000; -564.000; -521.000
219.822;   43.000;   33.000;   89.000
219.966;   32.900;   17.000;  -99.000
220.111;  -43.700; -328.000;  -40.000
220.255; -223.500; -797.000; -750.000
220.400;  -31.500; -180.000; -146.000
220.544; -120.800; -516.000; -450.000
220.689; -105.300; -422.000; -451.000
220.833;  -47.000; -123.000;  -58.000
220.978;  -85.800; -393.000; -563.000
221.122;   55.500;  319.000;  307.000
221.267; -219.400; -906.000; -837.000
221.411; -128.700; -478.000; -394.000
221.555;  -10.600; -104.000;  -23.000
221.700;  -67.700; -329.000; -222.000
221.844;  124.700;  255.000;  272.000
221.989;  -71.400; -328.000; -311.000
222.133;  -48.700; -289.000; -307.000
222.277;  -14.600;    5.000;   78.000
222.422;   32.200;  227.000;  113.000
222.566;  -74.500; -381.000; -214.000
222.711;  -87.100; -414.000; -479.000
222.855; -172.100; -643.000; -586.000
222.999; -139.100; -642.000; -717.000
223.144;  -46.900; -195.000; -194.000
223.288;  149.900;  423.000;  251.000
223.432;   50.000;  184.000;  230.000
223.576;   37.600;  152.000;  -21.000
223.721;   97.600;  364.000;  273.000
223.865; -111.000; -472.000; -475.000
224.009;  479.000; 1673.000; 1631.000
224.153; -133.200; -660.000; -671.000
224.298; -136.500; -531.000; -489.000
224.442;    1.000;  -74.000;  -33.000
224.586;  -27.600; -169.000; -106.000
224.730; -211.500; -858.000; -670.000
224.875; -223.800; -739.000; -688.000
225.019;   37.000;  102.000;  188.000
225.163;   98.900;  208.000;  341.000
225.307;   65.200;   97.000;  -91.000
225.451;  129.200;  360.000;  481.000
225.595;  101.800;  264.000;  176.000
225.739;  -22.500; -170.000;  -94.000
225.884;   21.700;   86.000;    5.000
226.028; -190.600; -760.000; -626.000
226.172;  -53.600; -260.000; -273.000
226.316; -227.900; -941.000; -902.000
226.460; -130.600; -645.000; -493.000
226.604;  -79.000; -406.000; -400.000
226.748; -181.900; -836.000; -733.000
226.892;  -73.200; -227.000; -181.000
227.036; -108.400; -537.000; -447.000
227.180; -103.500; -551.000; -375.000
227.324; -127.000; -561.000; -580.000
227.468; -216.400; -819.000; -717.000
227.612;   32.800;  242.000;  -28.000
227.756; -189.100; -845.000; -698.000
227.900;  100.200;  342.000;  441.000
228.044; -109.900; -509.000; -290.000
228.188;  166.600;  448.000;  568.000
228.332; -155.700; -546.000; -472.000
228.476;  -48.800; -223.000; -149.000
228.620;  -56.300; -210.000; -150.000
228.764;  157.300;  431.000;  349.000
228.908;  -13.400; -155.000;   30.000
229.052; -132.500; -615.000; -528.000
229.195;  -32.300; -172.000;   13.000
229.339;  -47.700; -235.000; -305.000
229.483;  -36.100;    5.000; -162.000
229.627;   19.600; -156.000;  139.000
229.771;  -85.100; -218.000; -294.000
229.915;   55.200;  230.000;   79.000
230.059; -182.700; -648.000; -663.000
230.202;  -64.400; -370.000; -317.000
230.346;  -23.100; -107.000;  107.000
230.490; -122.000; -489.000; -521.000
230.634; -219.900; -736.000; -553.000
230.777;  170.300;  478.000;  509.000
230.921;  -90.800; -450.000; -359.000
231.065;  -67.200; -246.000; -286.000
231.209;   70.200;  261.000;  265.000
231.352;   85.500;   54.000;   40.000
231.496;   56.000;  568.000;  188.000
231.640; -127.500; -693.000; -621.000
231.783;  170.600;  546.000;  525.000
231.927;  -83.800; -294.000; -365.000
232.071; -233.500; -962.000; -736.000
232.214; -200.200; -980.000; -764.000
232.358; -192.300; -683.000; -599.000
232.502;   25.100;  -19.000;    7.000
232.645; -305.300;-1090.000; -927.000
232.789;  -39.700; -257.000; -218.000
232.933;  -59.500; -407.000; -224.000
233.076; -277.500;-1038.000; -897.000
233.220; -224.200; -752.000; -777.000
233.363; -145.300; -669.000; -477.000
233.507;  172.000;  371.000;  129.000
233.650; -203.900; -764.000; -834.000
233.794;   95.400;  438.000;  461.000
233.938;  -72.400; -530.000; -362.000
234.081;  -59.500;  -93.000;   31.000
234.225; -111.500; -631.000; -539.000
234.368; -218.600; -773.000; -723.000
234.512;  -41.100; -385.000; -299.000
234.655; -162.500; -582.000; -555.000
234.798; -130.900; -493.000; -466.000
234.942; -269.800; -884.000;-1002.000
235.085; -112.400; -651.000; -443.000
235.229; -132.500; -405.000; -410.000
235.372;  -93.000; -247.000; -191.000
235.516;  -92.000; -397.000; -321.000
235.659;   76.000;   92.000;  121.000
235.802;  -27.600;  -38.000;  -22.000
235.946;   84.400;  335.000;  215.000
236.089;   66.900;  126.000;  250.000
236.233;  119.800;  275.000;  298.000
236.376;  -79.400; -235.000; -378.000
236.519;  -57.200; -297.000; -319.000
236.663;  -23.200; -215.000; -117.000
236.806; -275.900;-1029.000; -999.000
236.949;  157.000;  543.000;  431.000
237.092;  151.000;  412.000;  391.000
237.236; -169.900; -589.000; -502.000
237.379;  184.300;  352.000;  428.000
237.522; -237.500; -879.000; -768.000
237.666;  -23.600; -271.000;   18.000
237.809; -228.900; -851.000; -823.000
237.952;   66.100;  469.000;  271.000
238.095; -134.600; -447.000; -442.000
238.238;  205.900;  688.000;  700.000
238.382;   37.100;  166.000;  103.000
238.525; -127.200; -598.000; -511.000
238.668; -257.500;-1060.000; -985.000
238.811; -158.500; -638.000; -643.000
238.954; -112.900; -483.000; -334.000
239.097;  216.600;  617.000;  664.000
239.241;   74.400;  394.000;  326.000
239.384;  -71.800; -254.000; -214.000
239.527; -111.900; -424.000; -224.000
239.670; -249.500; -994.000;-1091.000
239.813; -229.900; -696.000; -658.000
239.956;  170.300;  579.000;  473.000
240.099; -227.700; -778.000; -725.000
240.242;  176.600;  428.000;  432.000
240.385;  122.900;  466.000;  450.000
240.528; -142.700; -706.000; -473.000
240.671;   56.800;  189.000;  134.000
240.814;  -31.700; -441.000; -158.000
240.957; -189.100; -767.000; -578.000
241.100; -195.800; -779.000; -755.000
241.243; -276.300;-1234.000; -893.000
241.386; -132.600; -508.000; -379.000
241.529; -171.700; -735.000; -547.000
241.672; -109.200; -566.000; -495.000
241.815; -233.300; -832.000; -808.000
241.958;  -46.000; -125.000; -182.000
242.101; -144.400; -545.000; -390.000
242.244;  -44.100; -270.000; -325.000
242.387;  -77.200; -304.000; -246.000
242.530;  126.500;  470.000;  134.000
242.673;  -87.800; -381.000; -309.000
242.815; -245.300; -925.000; -899.000
242.958; -114.800; -482.000; -381.000
243.101;   19.200;  132.000;  187.000
243.244; -187.700; -564.000; -521.000
243.387; -111.300; -313.000; -316.000
243.530; -176.100; -657.000; -674.000
243.672;   15.800;   43.000;  -92.000
243.815;  -77.500; -355.000; -283.000
243.958;   21.800;   98.000;  -26.000
244.101;   34.300;   59.000;  -16.000
244.243;   18.200;  -47.000;  101.000
244.386; -193.700; -761.000; -630.000
244.529;  -30.700; -132.000; -139.000
244.672; -302.400;-1154.000; -951.000
244.814; -198.500; -621.000; -794.000
244.957; -112.600; -380.000; -304.000
245.100; -143.700; -489.000; -489.000
245.242; -100.300; -387.000; -374.000
245.385;   -3.400;  -59.000;  -39.000
245.528; -229.700; -871.000; -705.000
245.670;  218.700;  612.000;  634.000
245.813; -187.400; -599.000; -547.000
245.956;  -13.900; -324.000; -275.000
246.098; -179.000; -508.000; -650.000
246.241;   13.400;  194.000;   48.000
246.383;  -48.300; -119.000;  -73.000
246.526; -160.300; -454.000; -525.000
246.669; -226.400; -889.000; -780.000
246.811;   53.100;  172.000;   -1.000
246.954; -102.900; -512.000; -426.000
247.096;  -30.700;  -84.000;   -6.000
247.239; -141.400; -482.000; -445.000
247.381; -123.900; -647.000; -488.000
247.524;  208.000;  645.000;  679.000
247.666;   10.000;   58.000;   11.000
247.809; -229.900; -887.000; -691.000
247.951;   -4.400;  -75.000;  138.000
248.094;   76.000;  432.000;  308.000
248.236; -334.300;-1262.000;-1238.000
248.378;   -8.900; -356.000;  -81.000
248.521;  -42.200; -334.000; -337.000
248.663;  -74.100; -236.000; -267.000
248.806;  -42.200; -300.000; -266.000
248.948; -201.100; -886.000; -763.000
249.090;  -73.400; -428.000; -398.000
249.233; -112.800; -344.000; -381.000
249.375;  -98.800; -474.000; -451.000
249.518;  -22.300;  -83.000; -133.000
249.660;   33.100; -103.000;    3.000
249.802; -348.500;-1303.000;-1189.000
249.945; -142.800; -612.000; -540.000
250.087; -233.900; -834.000; -768.000
250.229;  -68.700; -362.000; -480.000
250.371; -148.000; -494.000; -439.000
250.514;  -88.600; -310.000; -244.000
250.656; -124.800;   69.000;  102.000
250.798; -202.400; -849.000; -800.000
250.940;  -88.500; -322.000; -322.000
251.083;  -46.200; -335.000; -111.000
251.225;  145.100;  338.000;  310.000
251.367;  -58.200; -274.000; -373.000
251.509;  -44.800; -265.000; -210.000
251.651; -163.000; -731.000; -671.000
251.794;  120.700;  538.000;  632.000
251.936; -183.900; -821.000; -747.000
252.078; -150.800; -540.000; -461.000
252.220; -104.100; -645.000; -477.000
252.362;  172.500;  344.000;  462.000
252.504; -102.500; -677.000; -584.000
252.646; -240.200; -875.000; -722.000
252.788;  -20.700;   14.000; -128.000
252.931;  -87.200; -257.000; -253.000
253.073;  -80.500; -376.000; -317.000
253.215;   -8.500;  141.000;  122.000
253.357;  -23.400;   82.000; -153.000
253.499;  -89.700; -374.000; -234.000
253.641; -158.700; -749.000; -594.000
253.783; -198.400; -609.000; -527.000
253.925; -152.400; -586.000; -591.000
254.067; -214.400; -744.000; -667.000
254.209;  -42.600; -391.000; -259.000
254.351; -284.600; -865.000; -883.000
254.493; -104.300; -441.000; -417.000
254.635; -220.500; -936.000; -818.000
254.777; -154.900; -752.000; -687.000
254.918; -146.600; -512.000; -430.000
255.060; -107.100; -551.000; -395.000
255.202;  -78.100; -473.000; -261.000
255.344; -144.200; -658.000; -455.000
255.486; -123.900; -471.000; -406.000
255.628; -200.100; -780.000; -781.000
255.770; -190.200; -676.000; -536.000
255.912; -115.400; -559.000; -468.000
256.053; -177.400; -730.000; -508.000
256.195;  335.300; 1008.000;  903.000
256.337; -194.300; -861.000; -595.000
256.479;  170.400;  532.000;  416.000
256.621;  -80.500; -394.000; -212.000
256.762; -174.800; -789.000; -742.000
256.904;  141.900;  485.000;  487.000
257.046;  -65.500; -381.000; -271.000
257.188;  -61.400; -351.000; -264.000
257.329; -128.000; -525.000; -464.000
257.471; -206.900; -939.000; -807.000
257.613; -121.700; -584.000; -498.000
257.755; -296.400;-1073.000; -982.000
257.896;   88.300;  286.000;  392.000
258.038; -132.000; -403.000; -352.000
258.180;  -71.800; -354.000; -279.000
258.321; -179.700; -581.000; -457.000
258.463;   27.000;  -71.000;  133.000
258.605; -172.100; -562.000; -570.000
258.746; -180.600; -886.000; -772.000
258.888; -310.300;-1026.000;-1020.000
259.029;   68.100;  121.000;   -8.000
259.171; -213.000; -614.000; -550.000
259.313;   26.700;  -49.000;  -47.000
259.454; -143.800; -536.000; -414.000
259.596;  -93.400; -483.000; -390.000
259.737; -162.100; -590.000; -474.000
259.879;  105.300;  217.000;  311.000
260.020;  192.400;  901.000;  636.000
260.162;  -32.400; -146.000; -253.000
260.303; -232.700; -768.000; -687.000
260.445; -140.900; -609.000; -613.000
260.586;   92.900;  392.000;  157.000
260.728;  -67.700; -360.000; -248.000
260.869; -136.700; -350.000; -343.000
261.011;  209.400;  706.000;  537.000
261.152;  -98.200; -479.000; -319.000
261.293; -163.000; -576.000; -595.000
261.435;  -48.500; -219.000; -184.000
261.576;  -69.000; -455.000; -325.000
261.718;  157.800;  420.000;  470.000
261.859; -238.300; -940.000; -949.000
262.000; -264.800; -951.000;-1016.000
262.142;  -20.200;  -52.000;  -60.000
262.283; -244.100; -808.000; -691.000
262.424; -121.200; -666.000; -625.000
262.566; -295.200;-1161.000; -983.000
262.707; -229.400; -840.000; -830.000
262.848; -217.500; -769.000; -726.000
262.990;  -77.300; -362.000; -345.000
263.131;  162.100;  650.000;  681.000
263.272;   34.700;  -61.000;  -41.000
263.413; -148.100; -589.000; -561.000
263.555; -117.300; -669.000; -143.000
263.696; -155.800; -550.000; -641.000
263.837; -106.600; -449.000; -551.000
263.978;    4.900;   -5.000;  -77.000
264.119;  -67.700; -283.000; -264.000
264.261; -188.000; -847.000; -630.000
264.402;   36.300;   33.000;   40.000
264.543; -150.800; -509.000; -524.000
264.684;   29.000;   61.000;  -50.000
264.825; -124.300; -816.000; -538.000
264.966;   21.800;  -84.000;  -67.000
265.107; -229.300; -646.000; -670.000
265.248; -201.600; -825.000; -812.000
265.390;  -12.700;  152.000;   -9.000
265.531;   -6.600; -238.000; -107.000
265.672; -169.300; -557.000; -630.000
265.813;  175.300;  563.000;  439.000
265.954; -266.000; -959.000; -940.000
266.095;    8.300; -372.000; -322.000
266.236; -180.400; -686.000; -548.000
266.377;  -48.600; -243.000; -297.000
266.518; -128.300; -619.000; -547.000
266.659;   94.200;  170.000;  268.000
266.800;   41.400;   83.000;   85.000
266.941; -139.100; -487.000; -478.000
267.082;   40.300;  354.000;   99.000
267.223; -103.900; -344.000; -273.000
267.364; -248.700; -892.000; -686.000
267.504;   -4.000;    3.000;  135.000
267.645;   20.200;  160.000;   67.000
267.786;  -44.200; -147.000;  -86.000
267.927; -159.100; -473.000; -379.000
268.068;   -0.400; -186.000;  -61.000
268.209;  -81.800; -175.000; -413.000
268.350;  -97.100; -388.000; -532.000
268.490; -167.400; -648.000; -521.000
268.631;  118.700;  127.000;  225.000
268.772; -188.600; -874.000; -647.000
268.913;  -96.600; -328.000; -476.000
269.054;  -14.500; -117.000;   12.000
269.194;  -63.400; -418.000; -402.000
269.335; -326.400;-1137.000;-1074.000
269.476;   -9.000;   33.000;  -35.000
269.617;  -80.500; -347.000; -392.000
269.757; -144.200; -713.000; -646.000
269.898; -207.500; -856.000; -613.000
270.039; -103.800; -415.000; -405.000
270.180; -244.600; -952.000; -816.000
270.320;  -16.900; -190.000; -250.000
270.461;  -38.500; -277.000; -249.000
270.602;   -0.100; -186.000; -156.000
270.742; -258.600; -868.000; -943.000
270.883;  -97.700; -442.000; -390.000
271.023; -121.200; -358.000; -357.000
271.164; -130.800; -607.000; -528.000
271.305; -194.700; -666.000; -654.000
271.445; -154.800; -722.000; -683.000
271.586;  -88.900; -462.000; -283.000
271.726;  -71.300; -397.000; -322.000
271.867;  -77.400; -594.000; -534.000
272.008;  302.800; -473.000; -285.000
272.148;  276.700;  462.000;  468.000
272.289;   35.000; -113.000; -181.000
272.429;   39.900;   19.000;  185.000
272.570; -144.500; -633.000; -737.000
272.710; -171.800; -825.000; -775.000
272.851;  -17.200;  113.000; -130.000
272.991; -322.600;-1173.000;-1077.000
273.131; -106.100; -419.000; -459.000
273.272; -195.900; -683.000; -723.000
273.412;   21.400; -143.000;  -31.000
273.553; -111.000; -488.000; -507.000
273.693;  326.300;  913.000;  858.000
273.834; -208.800; -894.000; -692.000
273.974; -138.800; -664.000; -615.000
274.114; -163.400; -772.000; -560.000
274.255;  165.600;  414.000;  373.000
274.395;   31.700; -180.000; -125.000
274.535;  111.400;  199.000;  350.000
274.676;   95.800;  225.000;   94.000
274.816;   56.400;  110.000;   34.000
274.956; -123.100; -624.000; -690.000
275.097; -147.100;-1014.000; -922.000
275.237; -212.700; -913.000; -803.000
275.377; -181.400; -778.000; -689.000
275.517; -281.600; -878.000; -937.000
275.658; -102.000; -590.000; -555.000
275.798; -140.500; -606.000; -413.000
275.938;   68.900;  215.000;  323.000
276.078; -140.800; -626.000; -395.000
276.218;   31.900;   99.000;  104.000
276.359; -243.800;-1026.000;-1024.000
276.499;  -94.600; -605.000; -446.000
276.639;   -6.800; -305.000; -151.000
276.779;  -48.200; -475.000; -357.000
276.919; -191.100; -783.000; -624.000
277.059;    3.200; -261.000; -212.000
277.199;  -73.000; -357.000; -259.000
277.340;  102.800;  287.000;  175.000
277.480; -159.600; -840.000; -693.000
277.620;   81.600;  192.000;   16.000
277.760; -392.900;-1533.000;-1294.000
277.900;   67.300;  113.000;   33.000
278.040;   58.000;  137.000;  159.000
278.180;   95.500;  270.000;  170.000
278.320;   45.000;   21.000;   56.000
278.460; -117.700; -443.000; -469.000
278.600; -140.600; -708.000; -598.000
278.740;  140.500;  448.000;  224.000
278.880; -130.800; -768.000; -791.000
279.020;   56.100; -194.000; -144.000
279.160; -149.900; -672.000; -595.000
279.300; -215.400; -926.000; -873.000
279.440; -168.200; -709.000; -622.000
279.579;  -61.400;-1014.000; -929.000
279.719; -111.800; -410.000; -394.000
279.859;  150.800;   -4.000;   41.000
279.999;  103.600; -208.000;  101.000
280.139;  -20.000; -435.000; -387.000
280.279; -126.700; -708.000; -745.000
280.419;    2.500; -229.000; -147.000
280.559;  -32.100; -259.000; -180.000
280.698; -128.600; -790.000; -639.000
280.838; -166.200; -778.000; -800.000
280.978; -157.500; -846.000; -790.000
281.118; -198.100; -811.000; -704.000
281.257;   57.400;   24.000;    6.000
281.397; -228.600;-1094.000; -960.000
281.537; -141.700; -599.000; -712.000
281.677;  -24.400; -150.000; -101.000
281.816; -181.700; -700.000; -630.000
281.956;  -33.800; -193.000; -257.000
282.096; -101.900; -539.000; -396.000
282.235; -156.500; -672.000; -638.000
282.375;   15.800; -243.000;  -98.000
282.515; -177.400; -715.000; -707.000
282.654;   99.100;   29.000;  106.000
282.794;   91.300;  388.000;  244.000
282.934;  -61.800; -530.000; -491.000
283.073; -237.900;-1030.000; -857.000
283.213;  -89.400; -460.000; -467.000
283.353;  -44.200; -408.000; -349.000
283.492;  -45.300; -264.000; -296.000
283.632;  -55.600; -254.000; -168.000
283.771; -173.300; -859.000; -730.000
283.911;  -84.200; -369.000; -260.000
284.050; -179.800; -794.000; -748.000
284.190; -279.800;-1229.000;-1096.000
284.329; -274.600;-1055.000; -964.000
284.469;  -95.400; -516.000; -591.000
284.608;  -72.600; -559.000; -598.000
284.748; -149.500; -614.000; -570.000
284.887;   37.700;  -87.000;  -20.000
285.027; -214.200; -844.000; -892.000
285.166;  -11.900; -192.000; -249.000
285.306;   51.500; -116.000;  -33.000
285.445;  -63.200; -229.000; -343.000
285.584; -152.800; -630.000; -494.000
285.724;  -42.400; -282.000; -322.000
285.863; -204.800; -857.000; -507.000
286.002;  -55.400; -366.000; -276.000
286.142; -176.900; -715.000; -622.000
286.281; -126.900; -525.000; -493.000
286.420; -142.100; -554.000; -417.000
286.560;  247.800;  653.000;  623.000
286.699; -266.100; -958.000; -912.000
286.838; -134.300; -590.000; -591.000
286.978; -161.600; -533.000; -537.000
287.117; -238.000;-1085.000; -950.000
287.256;  -56.000; -228.000; -211.000
287.395;  -35.600; -197.000; -378.000
287.535;  -63.900; -370.000; -298.000
287.674; -132.400; -509.000; -484.000
287.813;  147.400;  661.000;  533.000
287.952; -230.300;-1010.000; -871.000
288.091; -266.100;-1049.000; -915.000
288.231;   64.200;   13.000;   15.000
288.370; -336.700;-1217.000;-1200.000
288.509; -174.800; -728.000; -645.000
288.648; -157.000; -770.000; -548.000
288.787;  -12.700; -243.000;  -87.000
288.926;  -78.500; -454.000; -475.000
289.065;  287.000;  859.000;  672.000
289.204;  -94.000; -377.000; -217.000
289.344; -154.900; -791.000; -690.000
289.483;  106.600;  416.000;  304.000
289.622;  -16.700; -291.000; -149.000
289.761;   -9.100; -309.000; -166.000
289.900; -166.000; -785.000; -626.000
290.039;    2.700;  -12.000;  -95.000
290.178;  -66.300; -274.000; -180.000
290.317; -147.200; -618.000; -479.000
290.456;  -97.400; -463.000; -451.000
290.595; -251.800; -961.000; -833.000
290.734; -264.800; -904.000; -891.000
290.873; -120.500; -456.000; -420.000
291.011; -195.000; -833.000; -843.000
291.150; -180.000; -770.000; -682.000
291.289;   -6.000; -343.000; -110.000
291.428; -155.500; -599.000; -480.000
291.567;  -66.500; -370.000; -442.000
291.706;   44.500;  109.000;  154.000
291.845; -128.200; -597.000; -505.000
291.984; -314.200;-1234.000;-1061.000
292.122;  215.200;  602.000;  582.000
292.261;  120.400;  620.000;  463.000
292.400;   46.400; -144.000;  211.000
292.539; -225.100; -959.000; -813.000
292.678;  -48.700; -325.000; -300.000
292.816; -258.500;-1136.000; -965.000
292.955; -162.600; -844.000; -684.000
293.094;   -8.100; -173.000; -337.000
293.233;  -87.600; -556.000; -400.000
293.371;  -46.500; -225.000;  -84.000
293.510; -192.900; -866.000; -780.000
293.649; -221.600; -959.000; -924.000
293.787; -108.000;-1083.000;-1012.000
293.926;   38.800; -113.000;  -32.000
294.065;  -62.400; -379.000; -290.000
294.203;  118.900;  298.000;  406.000
294.342;  129.100;   74.000;  156.000
294.481;11872.400;51180.000; -836.000
294.619;  -23.300; -425.000; -582.000
294.758; -263.600;-1230.000;-1137.000
294.896;  184.700; -125.000;    5.000
295.035; -249.800;-1040.000;-1006.000
295.174; -206.900;-1082.000; -954.000
295.312;  -42.700; -323.000; -203.000
295.451;   18.000; -307.000; -428.000
295.589;  -53.800; -389.000; -518.000
295.728;   89.100; -292.000; -165.000
295.866;   39.600;  -36.000;  -51.000
296.005; -112.700; -584.000; -341.000
296.143;  -89.900; -558.000; -596.000
296.282; -177.300; -957.000; -881.000
296.420; -126.600; -657.000; -557.000
296.559; -130.200; -892.000; -633.000
296.697;    4.700; -847.000; -665.000
296.835;  127.100;-1141.000;-1002.000
296.974;  157.200;  -23.000;   39.000
297.112;   47.400; -443.000; -504.000
297.251; -110.000; -815.000; -755.000
297.389;  189.300; -576.000; -438.000
297.527;  137.300; -145.000;  -83.000
297.666;  -44.200; -486.000; -438.000
297.804;  -87.800; -404.000; -264.000
297.942;   24.100; -136.000; -161.000
298.081;   16.200; -183.000;   63.000
298.219;  179.300;  -17.000;  -19.000
298.357;   91.100; -144.000;  -71.000
298.495;   46.200; -810.000; -812.000
298.634;  193.600;  245.000;  219.000
298.772;  169.000; -220.000; -338.000
298.910;  -60.300; -309.000; -182.000
299.048;   28.900; -130.000; -153.000
299.187;  -42.900; -350.000; -250.000
299.325;   56.500;   52.000;  122.000
299.463;  137.200; -389.000; -299.000
299.601;  273.900; -327.000; -271.000
299.739; -175.900; -908.000; -883.000
299.877;  -90.900; -791.000; -703.000
300.016; -105.100;-1095.000; -935.000
300.154;  350.700;  -19.000; -161.000
300.292;  123.400; -428.000; -348.000
300.430;  105.300; -408.000; -291.000
300.568; -165.200; -940.000; -874.000
300.706;  -47.200; -366.000; -469.000
300.844; -139.200;-1108.000; -979.000
300.982;  303.200;  246.000;  282.000
301.120; -185.300; -965.000; -866.000
301.258;  -97.700; -812.000; -705.000
301.396;  119.900;  104.000;  -41.000
301.534;  194.200; -218.000; -293.000
301.672;    8.600; -664.000; -521.000
301.810;   96.500; -613.000; -545.000
301.948;  291.600;   53.000;  149.000
302.086; 1057.300; -250.000;  -32.000
302.224; 1734.000; -610.000; -585.000
302.362;  117.200; -558.000; -622.000
302.500;  -24.200; -923.000; -893.000
302.638;  283.600;  128.000;  245.000
302.776;   64.700; -352.000; -408.000
302.913;  154.300;  447.000;  236.000
303.051;   38.500;  -86.000;  -23.000
303.189;  139.200;   90.000;  118.000
303.327;    6.600; -341.000; -256.000
303.465; -120.800; -832.000; -588.000
303.603; -146.200; -805.000; -604.000
303.740;  223.200;  417.000;  241.000
303.878;   82.800; -800.000; -759.000
304.016; -151.800; -915.000; -790.000
304.154; -237.600;-1123.000;-1152.000
304.291;  -18.100; -505.000; -554.000
304.429;   69.600;  102.000;   74.000
304.567; -221.500; -908.000; -893.000
304.705; -104.200; -408.000; -515.000
304.842;  155.600; -616.000; -540.000
304.980;  164.100;  215.000;   35.000
305.118;  131.900; -367.000; -365.000
305.255;  -87.600; -945.000; -927.000
305.393;  172.800;  178.000;  239.000
305.531; -195.600;-1173.000; -956.000
305.668; -126.600; -663.000; -582.000
305.806;  195.000; -358.000; -439.000
305.943;  171.300; -629.000; -637.000
306.081;  141.800; -378.000; -267.000
306.219; -187.500; -863.000; -748.000
306.356;   74.800;  158.000;   27.000
306.494;  290.100;  981.000;  761.000
306.631;   36.100;  -11.000;  -55.000
306.769;   38.600; -613.000; -485.000
306.906;   53.300; -284.000; -258.000
307.044;  -58.200; -473.000; -488.000
307.181;  -97.500; -410.000; -332.000
307.319;  153.500;  112.000;   87.000
307.456; -286.500;-1191.000;-1153.000
307.594; -153.900; -980.000; -727.000
307.731;   32.600; -371.000; -164.000
307.868;   79.600;  -15.000;   20.000
308.006; -222.900; -961.000; -847.000
308.143;  -61.300; -618.000; -330.000
308.281;  403.100;  -37.000; -254.000
308.418;   27.900; -748.000; -640.000
308.555;  -63.800; -400.000; -250.000
308.693; -100.400; -577.000; -573.000
308.830; -163.700; -712.000; -657.000
308.967;   59.900; -215.000;  -95.000
309.105;  -22.100; -507.000; -396.000
309.242;  129.700; -468.000; -367.000
309.379;  751.600; -577.000; -655.000
309.517;  -55.100; -936.000; -948.000
309.654; -151.900; -910.000; -734.000
309.791;  -67.600; -662.000; -580.000
309.928; -197.700; -977.000; -914.000
310.065;  391.500;  819.000;  697.000
310.203;   22.600; -825.000; -850.000
310.340;   66.200; -465.000; -321.000
310.477; -127.400; -412.000; -516.000
310.614;  -75.400; -383.000; -473.000
310.751;  -84.200; -427.000; -518.000
310.889;   16.500;    1.000;   11.000
311.026; -253.900;-1161.000; -939.000
311.163;  -42.300; -386.000; -380.000
311.300;  -81.000; -512.000; -479.000
311.437;  -78.400; -658.000; -619.000
311.574; -277.000;-1226.000; -985.000
311.711;  -81.100; -595.000; -433.000
311.848;  -23.700; -380.000; -388.000
311.985;   83.300;  270.000;   93.000
312.122; -190.600; -932.000; -762.000
312.259; -184.200; -941.000; -994.000
312.396;  -52.000; -508.000; -551.000
312.533; -123.600; -812.000; -790.000
312.670; -199.100;-1070.000; -898.000
312.807;  -45.800; -352.000; -367.000
312.944;  -93.500; -513.000; -611.000
313.081;   19.200; -150.000; -415.000
313.218; -175.500;-1111.000; -867.000
313.355;   47.300; -531.000; -449.000
313.492;   47.000; -455.000; -292.000
313.629;  315.800;  815.000;  735.000
313.766; -290.100;-1176.000;-1008.000
313.902;   18.300; -186.000;   21.000
314.039;  -56.800; -372.000; -289.000
314.176;  138.900;  286.000;  192.000
314.313; -128.600; -569.000; -473.000
314.450; -100.300; -788.000; -684.000
314.587;  -63.800; -468.000; -480.000
314.723;   90.300;  -78.000;  130.000
314.860;  113.800;  318.000;  332.000
314.997;   94.300;  223.000;  142.000
315.134;  -70.200; -385.000; -368.000
315.270;  -18.300; -480.000; -496.000
315.407; -246.800;-1094.000; -967.000
315.544;  -62.200; -657.000; -538.000
315.681;  -78.000; -681.000; -565.000
315.817;  124.000; -133.000; -176.000
315.954;   64.600; -613.000; -392.000
316.091; -224.500;-1045.000;-1023.000
316.227;   -2.000;  -71.000; -179.000
316.364;   80.600;   23.000;    6.000
316.500;  -10.900; -113.000; -300.000
316.637;  -40.500; -181.000; -302.000
316.774; -132.300; -625.000; -358.000
316.910; -124.500; -598.000; -629.000
317.047; -105.300; -487.000; -351.000
317.183;  -54.000; -435.000; -566.000
317.320;  -30.800; -367.000; -321.000
317.456; -104.100; -733.000; -805.000
317.593; -138.800; -598.000; -641.000
317.729;   61.900;  168.000;  -67.000
317.866; -361.400;-1434.000;-1285.000
318.002; -133.100; -708.000; -948.000
318.139; -145.800; -883.000; -867.000
318.275; -179.900;-1003.000; -738.000
318.412;  -71.400; -517.000; -336.000
318.548;  -18.400; -751.000; -720.000
318.685; -159.200; -985.000; -888.000
318.821; -158.800; -762.000; -735.000
318.957;   -3.500;   34.000;  -23.000
319.094;  138.100;  297.000;  154.000
319.230; -102.700; -756.000; -742.000
319.367;  265.800; -471.000; -520.000
319.503;  172.500; -538.000; -436.000
319.639; -139.700; -877.000; -793.000
319.775; -100.200; -750.000; -685.000
319.912;  -62.600; -424.000; -519.000
320.048; -168.100;-1184.000;-1184.000
320.184;  244.300;   59.000;   70.000
320.321;  -65.000; -497.000; -467.000
320.457;  144.600;  475.000;  662.000
320.593;  -92.500; -375.000; -382.000
320.729; -173.700; -732.000; -734.000
320.866; -105.400; -577.000; -635.000
321.002; -111.900; -759.000; -809.000
321.138;    9.600; -135.000; -211.000
321.274;  170.900; -148.000; -115.000
321.410;  -24.200; -585.000; -353.000
321.546;  -49.400;-1011.000; -911.000
321.683;  165.600;  400.000;  185.000
321.819;   75.800;  -48.000; -117.000
321.955; -149.000; -743.000; -722.000
322.091;  -49.300; -585.000; -540.000
322.227;   20.800; -382.000; -202.000
322.363;   29.900; -320.000; -215.000
322.499;  -37.300; -343.000; -331.000
322.635;  311.600;  636.000;  443.000
322.771;   93.900; -139.000;   12.000
322.907;  236.900;  129.000;  327.000
323.043;   22.500; -115.000; -206.000
323.179;  -55.900; -394.000; -363.000
323.315;   76.300; -401.000; -371.000
323.451;  256.100; -328.000; -236.000
323.587;  150.700;  -60.000;  -77.000
323.723;   64.900; -682.000; -601.000
323.859;  -36.700; -258.000;  -76.000
323.995;  -19.800; -467.000; -409.000
324.131; -235.800; -967.000; -892.000
324.267;    0.300; -254.000; -276.000
324.402; -237.800; -960.000; -983.000
324.538;   25.800; -279.000; -104.000
324.674;   82.600;  164.000;   77.000
324.810;  344.400;  226.000;  308.000
324.946;   93.500; -810.000; -658.000
325.082;  -82.900; -568.000; -475.000
325.217;   21.500;  -62.000;   16.000
325.353; -148.700; -764.000; -659.000
325.489; -119.900; -540.000; -506.000
325.625; -102.600; -579.000; -525.000
325.760;  182.300;  517.000;  376.000
325.896;  -21.600; -515.000; -702.000
326.032;  -70.400; -403.000; -352.000
326.168;  -65.600; -462.000; -369.000
326.303;  -78.900; -352.000; -461.000
326.439;  -15.600; -336.000; -276.000
326.575;   50.300; -190.000;  -29.000
326.710;   73.800; -156.000;  -30.000
326.846;   50.900;  146.000;  103.000
326.982; -116.100; -530.000; -548.000
327.117; -137.400; -481.000; -442.000
327.253; -136.000; -745.000; -742.000
327.388; -248.300;-1137.000;-1153.000
327.524;  -24.200; -811.000; -578.000
327.659;   26.800;  -58.000;  -22.000
327.795;   36.400;   69.000;   45.000
327.931; -124.800; -723.000; -499.000
328.066;    5.500; -417.000; -276.000
328.202;   49.200;   12.000; -129.000
328.337;  282.600;  957.000;  713.000
328.473;   37.300;  -12.000;  -74.000
328.608;   24.300; -256.000; -267.000
328.743; -141.500; -799.000; -664.000
328.879;   62.300;  214.000;  114.000
329.014;  -83.100; -102.000; -122.000
329.150;  -94.300; -358.000; -483.000
329.285; -106.200; -465.000; -466.000
329.421;  -50.600; -548.000; -246.000
329.556;   16.200;  -36.000;   85.000
329.691; -139.700; -633.000; -615.000
329.827; -127.200; -626.000; -480.000
329.962;  -37.400;  131.000; -301.000
330.097; -146.700; -673.000; -585.000
330.233;  -20.900; -410.000; -223.000
330.368; -231.900; -839.000; -628.000
330.503;   17.200;    3.000;   98.000
330.638;   68.100;  -93.000; -125.000
330.774;  -50.100; -609.000; -530.000
330.909;  -35.300; -434.000; -244.000
331.044; -140.500; -714.000; -708.000
331.179; -323.300;-1217.000;-1109.000
331.315;   50.000;   77.000;   20.000
331.450;   74.900;  157.000;  285.000
331.585; -146.300; -805.000; -706.000
331.720; -137.000; -510.000; -460.000
331.855;   32.800;  -35.000; -102.000
331.990;  484.500;   62.000;  138.000
332.126;  255.000; -110.000;   71.000
332.261;  -22.400; -379.000; -265.000
332.396;   20.100; -135.000; -242.000
332.531; -181.600;-1074.000;-1031.000
332.666;   98.100; -519.000; -363.000
332.801; -151.500; -726.000; -807.000
332.936;  -36.800; -192.000; -122.000
333.071; -276.700; -870.000; -817.000
333.206;  122.900;  307.000;  379.000
333.341;   71.200;  344.000;  418.000
333.476; -129.700; -627.000; -623.000
333.611;  -30.700; -251.000; -173.000
333.746;  -39.200; -381.000; -464.000
333.881; -191.800; -973.000; -935.000
334.016; -217.800; -936.000; -917.000
334.151; -220.500; -746.000; -702.000
334.286;   92.900;  152.000;  186.000
334.421;   21.900; -125.000; -178.000
334.556; -107.400; -611.000; -567.000
334.690; -120.300; -631.000; -577.000
334.825;  174.300;  381.000;   83.000
334.960;  -94.100; -285.000; -413.000
335.095;   73.200;  135.000;  -91.000
335.230; -179.900; -722.000; -738.000
335.365; -227.000;-1084.000; -990.000
335.499; -218.100;-1108.000;-1037.000
335.634;  113.300;    9.000;  534.000
335.769; -154.300; -755.000; -720.000
335.904;  -69.000; -603.000; -561.000
336.038;  -95.300; -735.000; -657.000
336.173; -146.800;-1206.000;-1194.000
336.308;   48.500; -116.000; -189.000
336.443;   30.600; -544.000; -634.000
336.577; -109.300; -936.000; -787.000
336.712;  151.000;   -4.000;  -12.000
336.847;  -47.400; -724.000; -607.000
336.981;  178.100; -272.000; -208.000
337.116;  520.800;  615.000;  501.000
337.250;  311.100; -434.000; -421.000
337.385;  429.200; -297.000; -208.000
337.520;  184.900; -632.000; -603.000
337.654;  -58.700; -215.000; -126.000
337.789; -210.400; -989.000; -933.000
337.923;  -23.800; -104.000; -205.000
338.058; -119.900; -673.000; -738.000
338.192;  -29.500; -611.000; -488.000
338.327;   45.300;  -18.000; -155.000
338.461;  -95.400; -299.000; -469.000
338.596; -118.200; -780.000; -638.000
338.730; -165.400; -767.000; -803.000
338.865;  192.300;  -46.000; -140.000
338.999;  -95.700; -846.000; -702.000
339.134;  -23.900; -634.000; -536.000
339.268;   33.200; -741.000; -603.000
339.403;  605.100; -740.000; -775.000
339.537;  185.000; -894.000; -820.000
339.671; -165.300; -829.000; -813.000
339.806; -112.100; -556.000; -512.000
339.940;   86.400; -261.000; -235.000
340.074; -130.100; -685.000; -510.000
340.209;  -31.700; -351.000; -230.000
340.343; -136.800; -517.000; -573.000
340.477;  396.500;  998.000; 1036.000
340.612;  -61.500;-1033.000; -900.000
340.746;  275.000; -199.000; -243.000
340.880;  -98.000; -924.000; -785.000
341.014;   33.000;  -45.000; -154.000
341.149; -174.600; -756.000; -718.000
341.283; -181.700; -839.000; -754.000
341.417; -161.800;-1124.000; -938.000
341.551;  272.700; -768.000; -708.000
341.685;   -2.600; -633.000; -611.000
341.820;  -73.100; -562.000; -493.000
341.954;  -42.200; -218.000; -349.000
342.088; -263.300;-1102.000;-1019.000
342.222;  135.600;  565.000;  618.000
342.356;  -48.800; -395.000; -335.000
342.490; -162.800; -880.000; -841.000
342.624;  -29.300; -339.000; -242.000
342.758;   62.100; -364.000; -312.000
342.892;  -88.800; -710.000; -585.000
343.026;  -30.900;  -58.000; -116.000
343.160;  -50.600; -426.000; -376.000
343.294; -105.700; -474.000; -337.000
343.428;  -22.000; -488.000; -448.000
343.562;   -2.300; -172.000;  -23.000
343.696;   10.400; -385.000; -314.000
343.830;  -20.400; -362.000; -356.000
343.964;  106.500; -231.000; -168.000
344.098; 1674.100;  199.000;   70.000
344.232; 1376.700; -266.000; -127.000
344.366;  155.500; -567.000; -453.000
344.500;  151.500; -665.000; -744.000
344.634;  128.200; -324.000; -164.000
344.768;   22.700; -531.000; -341.000
344.902;   94.600;  278.000;  256.000
345.035; -121.700; -556.000; -496.000
345.169; -249.200; -933.000; -656.000
345.303;  -26.000; -308.000; -482.000
345.437;  -99.400; -826.000; -717.000
345.571; -112.500; -675.000; -594.000
345.704; -107.400; -309.000; -532.000
345.838;   27.000; -331.000; -284.000
345.972;  -36.500; -543.000; -495.000
346.106;  329.500; -179.000; -190.000
346.239;  741.600; -312.000; -243.000
346.373;   44.700; -343.000; -302.000
346.507; -259.600; -950.000; -962.000
346.640;  319.900;  -30.000;   13.000
346.774;  -49.100; -650.000; -797.000
346.908;    6.400; -138.000;  -11.000
347.041; -135.000; -646.000; -593.000
347.175;   62.700;  259.000;   27.000
347.309; -132.300; -698.000; -628.000
347.442; -126.800; -883.000; -732.000
347.576;  600.600;  670.000;  668.000
347.709;  421.400; -123.000;  -52.000
347.843; -158.200; -933.000; -825.000
347.976;  143.500;  235.000;  294.000
348.110; -354.800;-1268.000;-1186.000
348.243; -113.800; -679.000; -772.000
348.377;   34.000;  -26.000;   60.000
348.510;  185.100;  403.000;  540.000
348.644;  -23.100;  -37.000; -159.000
348.777;   63.400;  180.000;  191.000
348.911;  -31.500; -142.000; -112.000
349.044;  388.700;  471.000;  448.000
349.178;  258.300;-1069.000;-1006.000
349.311;  272.800;  141.000;  255.000
349.444;    2.600; -927.000; -813.000
349.578;   34.500; -347.000; -200.000
349.711; -175.300; -959.000; -862.000
349.845;    6.800; -661.000; -591.000
349.978; -281.800;-1224.000;-1137.000
350.111; -132.400; -546.000; -612.000
350.244; -138.000; -596.000; -700.000
350.378;   69.000; -392.000; -393.000
350.511;  -40.600; -393.000; -426.000
350.644; -132.300; -808.000; -806.000
350.778;   89.500;  168.000;  104.000
350.911;   70.100;  134.000;  140.000
351.044; -128.900; -685.000; -615.000
351.177;    1.200; -321.000; -281.000
351.310;   49.400;    3.000; -131.000
351.444; -131.500; -888.000; -788.000
351.577;  287.400;  140.000;   90.000
351.710;  293.600;  593.000;  417.000
351.843;    5.700; -165.000;  -77.000
351.976;   46.400;  149.000;  -79.000
352.109; -129.400; -621.000; -612.000
352.242;  -15.300; -464.000; -419.000
352.376;  -91.800; -580.000; -636.000
352.509;  350.800; -437.000; -356.000
352.642;   15.600; -654.000; -604.000
352.775;  144.400; -141.000;  -98.000
352.908; -193.600; -933.000; -904.000
353.041; -164.100; -814.000; -824.000
353.174;  -68.700; -551.000; -424.000
353.307; -106.000; -753.000; -764.000
353.440;  223.500;  541.000;  453.000
353.573; -166.300; -957.000;-1008.000
353.706;  -80.400; -384.000; -558.000
353.839;   -5.500; -264.000; -220.000
353.971; -136.900; -657.000; -512.000
354.104; -132.900; -896.000; -835.000
354.237;  -73.000; -627.000; -662.000
354.370; -120.400; -846.000; -879.000
354.503; -302.700;-1231.000;-1308.000
354.636;  -38.400; -529.000; -348.000
354.769; -216.500; -937.000; -860.000
354.902;   41.000; -230.000; -139.000
355.034;   21.100; -164.000; -220.000
355.167;   14.800; -262.000; -162.000
355.300; -179.300;-1061.000; -880.000
355.433; 1760.800;  -71.000;  -14.000
355.565; 2612.800; -402.000; -384.000
355.698;  667.800; -356.000; -296.000
355.831;   24.900; -882.000; -801.000
355.964;  255.100; -285.000; -170.000
356.096; -133.600; -856.000; -843.000
356.229;   38.000; -523.000; -530.000
356.362;  580.700; -373.000; -266.000
356.494; 1084.800; -229.000; -162.000
356.627;  963.100;  269.000;  377.000
356.760; 1183.400;  120.000;   53.000
356.892; 1636.700; -286.000; -601.000
357.025; 1294.500;  403.000;  389.000
357.157; 1154.000; -167.000; -179.000
357.290; 1075.700; -856.000; -713.000
357.423;  342.300; -667.000; -556.000
357.555;  251.200; -217.000; -228.000
357.688;  250.000; -483.000; -364.000
357.820;  743.300; -870.000; -877.000
357.953; 6229.600; -563.000; -589.000
358.085; 1398.500; -632.000; -612.000
358.218; 2197.200;-1131.000; -932.000
358.350;  440.100;  -58.000;  312.000
358.483; -221.300;-1300.000;-1187.000
358.615;    6.100;-1182.000;-1078.000
358.747; -100.200;-1187.000;-1058.000
358.880;   54.900; -810.000; -744.000
359.012;   61.300; -376.000; -202.000
359.145;  -27.100; -480.000; -511.000
359.277;  113.500; -962.000; -913.000
359.409; 5237.400;  536.000;  231.000
359.542; 1317.000; -738.000; -688.000
359.674;  151.100;   46.000;   13.000
359.806;  -59.800; -565.000; -438.000
359.939;  -42.000; -617.000; -516.000
360.071;    4.900; -583.000; -579.000
360.203;   16.400; -411.000; -364.000
360.335;  161.900;  164.000;  -16.000
360.468;  391.600; -249.000; -307.000
360.600; 4195.800; -547.000; -454.000
360.732; 4640.200; -546.000; -423.000
360.864;  620.700;-1216.000;-1044.000
360.996;  616.500; -516.000; -554.000
361.129;   96.000; -389.000; -598.000
361.261;  113.300;  110.000; -113.000
361.393;  -20.100; -252.000; -214.000
361.525;  134.900;   94.000;  244.000
361.657;  -55.400; -821.000; -703.000
361.789;  102.800; -139.000; -155.000
361.921;  443.500; -642.000; -593.000
362.053;  567.500;  524.000;  541.000
362.185;  183.500;  288.000;   72.000
362.318;  -91.300; -709.000; -705.000
362.450;  304.400;  294.000;  444.000
362.582;  260.400; -913.000; -870.000
362.714;  -54.300; -353.000; -332.000
362.846; -110.000; -606.000; -490.000
362.978; -241.500; -941.000; -811.000
363.109;  171.000; -161.000; -260.000
363.241;  854.000; -739.000; -749.000
363.373;  744.900; -649.000; -564.000
363.505; 1160.100; -186.000;  -91.000
363.637;  283.500; -787.000; -601.000
363.769; -213.400;-1067.000;-1080.000
363.901;  -96.900; -596.000; -654.000
364.033; -194.100;-1103.000;-1062.000
364.165;   52.000; -283.000; -283.000
364.296;  184.100; -316.000; -177.000
364.428;  100.100;-1344.000;-1220.000
364.560;  -96.800; -679.000; -661.000
364.692;  -66.500; -738.000; -835.000
364.824;  540.700; -588.000; -456.000
364.955;  782.900; -402.000; -564.000
365.087; 1452.000;-1097.000; -852.000
365.219;   53.800; -686.000; -816.000
365.351;  -85.800; -526.000; -572.000
365.482;  194.900;  300.000;  240.000
365.614;  -31.900; -402.000; -314.000
365.746; -128.400; -729.000; -752.000
365.877; -134.200; -706.000; -672.000
366.009;  466.500;  -35.000;  -62.000
366.141; -158.100;-1249.000;-1134.000
366.272; -157.000; -803.000; -719.000
366.404; -201.800;-1005.000; -874.000
366.535;   41.900; -139.000;  -12.000
366.667; -164.600; -644.000; -649.000
366.799;  127.400;  353.000;  203.000
366.930; -199.500; -862.000; -996.000
367.062;  242.800; -639.000; -613.000
367.193;  244.700; -872.000; -842.000
367.325;  -77.400; -580.000; -684.000
367.456;  154.500; -246.000;   31.000
367.588;  334.600; -371.000; -318.000
367.719;   76.100;  -44.000;  -45.000
367.851;    6.500; -222.000; -241.000
367.982;  -54.400; -875.000; -732.000
368.113;  215.700; -475.000; -358.000
368.245; -168.000; -960.000; -841.000
368.376;   37.900; -254.000; -302.000
368.508;  -23.200; -188.000; -263.000
368.639; -239.400;-1166.000;-1034.000
368.770;    4.000; -670.000; -589.000
368.902;  -81.200; -836.000; -926.000
369.033; -169.200; -906.000; -855.000
369.164;  -73.400; -720.000; -653.000
369.296; -155.200; -452.000; -601.000
369.427;   55.400; -209.000; -144.000
369.558;  -80.100; -593.000; -377.000
369.689; -109.600; -721.000; -569.000
369.821; -225.100; -951.000; -845.000
369.952;   34.600;   42.000; -108.000
370.083;  -13.800; -229.000; -108.000
370.214; -105.700; -735.000; -650.000
370.345;   52.400;   65.000;   81.000
370.477; -118.900; -810.000; -790.000
370.608;  477.600; -328.000; -264.000
370.739;  -67.000;-1233.000;-1292.000
370.870;  -42.500;-1102.000; -923.000
371.001;  233.800; -378.000; -467.000
371.132;  -84.800; -754.000; -735.000
371.263;   25.500;  -42.000; -148.000
371.394; -214.600; -841.000; -748.000
371.525;  121.200;  345.000;  225.000
371.657; -119.000; -808.000; -670.000
371.788;  205.800;  103.000;  199.000
371.919;  338.700; -384.000; -304.000
372.050; 6451.400;  -91.000; -156.000
372.181; 1831.300; -188.000; -294.000
372.311;  706.400;   42.000; -127.000
372.442;  132.000; -457.000; -451.000
372.573;    0.400; -444.000; -340.000
372.704; -201.200;-1008.000; -980.000
372.835;  236.900; -228.000; -289.000
372.966;  -91.900; -646.000; -554.000
373.097;  -92.200; -575.000; -711.000
373.228;  -55.700; -717.000; -542.000
373.359;  284.900; -824.000; -536.000
373.490; 1716.200; -881.000; -727.000
373.620; 2141.200;-1001.000; -803.000
373.751; 3318.100; -332.000; -396.000
373.882; 1427.200; -663.000; -733.000
374.013;  199.300; -449.000; -262.000
374.143;  -23.400; -581.000; -659.000
374.274; -166.300; -987.000; -908.000
374.405;  379.400; -388.000; -276.000
374.536;  881.800; -526.000; -387.000
374.666; 2058.200; -759.000; -807.000
374.797;  424.400; -817.000; -868.000
374.928; 1591.400; -710.000; -560.000
375.058; 1606.400; -535.000; -500.000
375.189;  203.300;  -59.000;  -93.000
375.320; -143.300; -928.000;-1034.000
375.450;  -26.500; -625.000; -616.000
375.581;  -68.100; -526.000; -436.000
375.712;    4.700; -574.000; -250.000
375.842;  614.600; -438.000; -415.000
375.973;  444.400; -554.000; -513.000
376.103;  -42.900; -665.000; -648.000
376.234; -112.800; -531.000; -552.000
376.364;  -27.700; -944.000; -867.000
376.495;  683.300;  925.000;  529.000
376.625;   47.500; -472.000; -485.000
376.756;  160.600; -709.000; -678.000
376.886; -117.400;-1178.000;-1026.000
377.017;  103.300;-1048.000;-1061.000
377.147;  598.600; -786.000; -782.000
377.278;  135.900;  174.000;  228.000
377.408; -181.700; -801.000; -815.000
377.538; -152.700; -707.000; -693.000
377.669;  -88.100; -537.000; -613.000
377.799; -100.800; -645.000; -635.000
377.929;  -44.900; -610.000; -428.000
378.060; -173.700; -781.000; -847.000
378.190;  -88.400; -726.000; -531.000
378.320;   -7.100; -401.000; -406.000
378.451;   28.500; -131.000;  -22.000
378.581;   44.800;  -67.000; -110.000
378.711;  404.000; 1035.000;  866.000
378.841;   33.500; -533.000; -675.000
378.972; -109.700; -871.000; -751.000
379.102;   53.800; -652.000; -579.000
379.232;   33.600; -126.000;  -73.000
379.362; -151.600;-1001.000; -885.000
379.492;   92.600; -373.000; -424.000
379.623;  266.500;    0.000;  111.000
379.753; -152.800;-1107.000; -974.000
379.883;  444.400;   59.000;  156.000
380.013;   12.100;-1081.000;-1017.000
380.143; -145.300;-1097.000;-1056.000
380.273; -146.700; -985.000; -861.000
380.403;   53.500; -344.000; -257.000
380.533;   21.100; -651.000; -664.000
380.663;  219.900;  173.000;  128.000
380.793; -151.700;-1027.000;-1074.000
380.923;   45.000; -103.000;  -34.000
381.053; -124.700; -613.000; -623.000
381.183;   13.200; -106.000; -248.000
381.313;  143.100; -656.000; -470.000
381.443;  119.000; -692.000; -473.000
381.573;  499.400; -402.000; -409.000
381.703;  525.400;-1249.000;-1095.000
381.833; -191.200;-1454.000;-1336.000
381.963;  252.400; -134.000;  -87.000
382.093; 2543.200; -925.000; -909.000
382.223;  755.900; -713.000; -602.000
382.353;   28.900; -801.000; -608.000
382.482;  723.300;-1091.000; -964.000
382.612; 1391.700; -872.000; -644.000
382.742;  795.200; -695.000; -622.000
382.872;  565.500; -565.000; -551.000
383.002;  202.100;  347.000; -132.000
383.131;   33.800; -226.000; -160.000
383.261;   -3.200; -706.000; -768.000
383.391;  567.500; -552.000; -377.000
383.521; 5334.000;  451.000;  263.000
383.650; 1161.900; -947.000; -904.000
383.780;   -3.900; -783.000; -656.000
383.910;  313.500;  880.000;  802.000
384.039;  112.900; -794.000; -656.000
384.169;  385.000;-1205.000;-1017.000
384.299;   52.900; -650.000; -662.000
384.428; -104.300; -764.000; -680.000
384.558;   -2.900; -308.000; -275.000
384.687;    2.500; -414.000; -334.000
384.817;  115.400;   75.000;   -2.000
384.947;  118.500; -234.000; -141.000
385.076;  628.500;  982.000;  912.000
385.206;  278.000;  369.000;  480.000
385.335;   16.500; -549.000; -417.000
385.465;  -90.500; -655.000; -663.000
385.594;  341.700;  -53.000;  -44.000
385.724;  809.700; -868.000; -838.000
385.853;  266.000; -296.000; -270.000
385.982; 2619.500; -743.000; -787.000
386.112; 3760.500;-1052.000; -871.000
386.241;  303.900; -307.000; -312.000
386.371;  125.400; -174.000;  -87.000
386.500;   90.200; -825.000; -789.000
386.629;   70.400; -874.000; -817.000
386.759;  234.800;  -43.000;   68.000
386.888;   99.200; -170.000; -250.000
387.017;  -70.800; -648.000; -620.000
387.147;  -57.200; -771.000; -798.000
387.276;   99.500; -410.000; -397.000
387.405;   95.500; -398.000; -342.000
387.535;  -15.900; -452.000; -361.000
387.664;  -52.300; -692.000; -620.000
387.793;  197.700; -198.000; -113.000
387.922; 1067.600;  255.000;  200.000
388.052;  100.300; -576.000; -423.000
388.181;  121.000; -342.000; -472.000
388.310;   83.300; -889.000; -710.000
388.439;    3.900; -749.000; -742.000
388.568;  436.100;  365.000;  244.000
388.697; 1923.900; -756.000; -653.000
388.826;  384.700; -768.000; -666.000
388.956;  180.200; -285.000; -307.000
389.085;   42.000; -347.000; -287.000
389.214; -144.900; -842.000; -872.000
389.343;  -71.600; -645.000; -413.000
389.472;  758.300;  126.000;  149.000
389.601;  983.100;   91.000;    0.000
389.730;   90.600; -568.000; -687.000
389.859;  197.300;  226.000;   46.000
389.988;  406.200; -423.000; -408.000
390.117;  282.400; -168.000; -146.000
390.246;   76.100; -331.000; -320.000
390.375;  237.600; -673.000; -626.000
390.504;  -68.800; -703.000; -621.000
390.633; -136.900; -672.000; -726.000
390.761;  -50.900; -732.000; -645.000
390.890;  115.300;   -4.000; -130.000
391.019;    5.900; -421.000; -441.000
391.148; -205.600; -826.000; -855.000
391.277;  -88.200; -576.000; -493.000
391.406; -102.000; -821.000; -805.000
391.534;  130.400;  574.000; -301.000
391.663;  -52.500; -583.000; -645.000
391.792; -106.900; -673.000; -701.000
391.921;  266.800;   -3.000;   15.000
392.050;  432.400; -287.000; -228.000
392.178;  -49.700;-1206.000;-1061.000
392.307;  316.100; -758.000; -712.000
392.436;  148.300; -427.000; -641.000
392.564;  106.800;  166.000;   -6.000
392.693; -115.700; -860.000; -682.000
392.822;  465.100; -529.000; -534.000
392.950;  199.300; -880.000; -714.000
393.079;  638.200; -188.000; -328.000
393.208;   87.700; -488.000; -511.000
393.336;   31.800; -170.000; -145.000
393.465;  -24.900; -317.000; -199.000
393.593;   51.900;   62.000;   79.000
393.722; -201.800;-1121.000; -916.000
393.850;   30.600; -188.000;  -61.000
393.979; -248.200; -926.000; -805.000
394.107;  -67.900; -517.000; -537.000
394.236;   11.800; -570.000; -507.000
394.364;  536.000;  383.000;  206.000
394.493;  795.400; -911.000; -767.000
394.621;   24.300; -955.000; -916.000
394.750; 1298.300; -873.000; -923.000
394.878; 5266.300; -247.000; -149.000
395.007; 6720.300; -721.000; -807.000
395.135;  513.100; -790.000; -721.000
395.263; -134.400;-1038.000;-1040.000
395.392;   87.100;  -25.000; -107.000
395.520; -175.500; -818.000; -679.000
395.648; -135.600; -865.000; -915.000
395.777;   17.400; -366.000; -405.000
395.905;  -14.500; -449.000; -564.000
396.033;  117.300;  217.000;  172.000
396.162; 1349.500; -399.000; -453.000
396.290; 1166.800;  -17.000;   -2.000
396.418;  229.800; -555.000; -514.000
396.546; -105.900; -571.000; -466.000
396.674; -133.500; -850.000; -878.000
396.803;   84.800;  -72.000;  -23.000
396.931;  276.900; -179.000; -199.000
397.059;  118.500;-1026.000; -989.000
397.187; -163.600;-1026.000; -975.000
397.315; -228.000; -884.000; -649.000
397.443; -154.900; -592.000; -443.000
397.572; -111.600; -578.000; -424.000
397.700;   12.100; -607.000; -614.000
397.828;   64.500;  120.000;  -90.000
397.956;  -27.400; -508.000; -478.000
398.084; -127.400; -767.000; -626.000
398.212;  160.000;  137.000;  124.000
398.340;  109.300;  -56.000;  159.000
398.468;  134.000; -390.000; -169.000
398.596; -235.000; -993.000; -953.000
398.724; -180.600; -762.000; -767.000
398.852; -247.400;-1024.000; -976.000
398.980;  -92.500; -560.000; -560.000
399.108;  -57.800; -982.000; -735.000
399.236;  147.500;   13.000;    8.000
399.363;  101.500;  222.000;  196.000
399.491;  -59.900; -404.000; -398.000
399.619; -177.900; -829.000; -800.000
399.747; -163.800; -859.000; -771.000
399.875;  203.300;  220.000;  234.000
400.003;  -13.200; -359.000; -284.000
400.130;  -79.200; -421.000; -341.000
400.258;   -3.000;  -83.000;   38.000
400.386;  -58.300; -352.000; -168.000
400.514;  -35.100; -526.000; -587.000
400.641; -109.300; -928.000; -802.000
400.769; -219.200; -979.000; -888.000
400.897; -116.000; -838.000; -793.000
401.025;   44.300; -166.000; -152.000
401.152;   66.800;  220.000;   38.000
401.280;  -86.800; -430.000; -429.000
401.408; -175.500; -712.000; -576.000
401.535; -106.500; -735.000; -758.000
401.663; -321.500;-1134.000;-1054.000
401.790; -138.900; -514.000; -525.000
401.918;  148.100;  436.000;  405.000
402.046;   42.500;  134.000;  122.000
402.173;   23.100;  -18.000;    7.000
402.301;  -57.900; -519.000; -397.000
402.428;  178.900;  528.000;  383.000
402.556; -206.300;-1188.000; -913.000
402.683;   -1.700;  -20.000;   -1.000
402.811;   34.500;  -37.000; -206.000
402.938;   88.300;   20.000;   27.000
403.066;  371.100; -574.000; -558.000
403.193;  617.200;  299.000;  239.000
403.321;  492.500; -396.000; -574.000
403.448;  649.800;   83.000;   27.000
403.575;  289.500;  -90.000;  -46.000
403.703; -155.200; -732.000; -557.000
403.830;  -45.000; -531.000; -496.000
403.957; -226.900;-1117.000;-1023.000
404.085;   73.200;  -61.000; -172.000
404.212;  258.100;  -50.000;   63.000
404.339;  499.500; -566.000; -306.000
404.467;10278.200; -612.000; -524.000
404.594; 6577.800; -287.000; -227.000
404.721; 1564.700; -869.000; -764.000
404.848;  191.000; -113.000; -202.000
404.976; -151.700; -856.000; -783.000
405.103;   59.800;  -14.000;  -82.000
405.230;   77.500;  190.000;  226.000
405.357;  171.000;  117.000;   44.000
405.484;  540.100;  -49.000;    5.000
405.612;  136.600; -548.000; -563.000
405.739;  -53.700; -488.000; -243.000
405.866;  241.400;  669.000;  385.000
405.993;  -17.800; -398.000; -102.000
406.120; -207.000; -801.000; -887.000
406.247;  -34.800; -323.000; -342.000
406.374;  990.300;  540.000;  629.000
406.501;  250.400; -632.000; -702.000
406.628;  -64.200; -621.000; -589.000
406.755; -149.700; -803.000; -620.000
406.882;  -21.600; -228.000; -277.000
407.009; -150.600; -719.000; -628.000
407.136;  192.400; -480.000; -401.000
407.263;  315.500; -939.000; -829.000
407.390;  -97.100; -692.000; -614.000
407.517; -253.700;-1139.000;-1187.000
407.644;  -25.600; -332.000; -256.000
407.771;  -80.000; -249.000; -287.000
407.898;   87.100;  168.000;  328.000
408.025;  -78.200; -421.000; -313.000
408.151;   62.900;   82.000;  153.000
408.278;  -62.000; -267.000; -216.000
408.405; -171.900; -931.000; -899.000
408.532;  -64.400; -549.000; -542.000
408.659; -149.300; -677.000; -648.000
408.785; -347.500;-1298.000;-1170.000
408.912;  -42.700; -412.000; -296.000
409.039; -179.500; -610.000; -686.000
409.166; -143.100; -591.000; -555.000
409.292; -139.700; -571.000; -534.000
409.419; -157.400; -665.000; -649.000
409.546;  -85.100; -431.000; -192.000
409.672; -128.400; -713.000; -545.000
409.799;   37.700;  -36.000;   34.000
409.926;    2.700; -180.000; -179.000
410.052; -277.800;-1127.000;-1091.000
410.179;  -46.900; -368.000; -392.000
410.305; -126.800; -375.000; -493.000
410.432;  -13.500; -220.000; -333.000
410.558; -138.600; -305.000; -380.000
410.685; -139.800; -688.000; -431.000
410.812; -139.100; -409.000; -588.000
410.938; -225.700; -964.000; -808.000
411.065; -146.200; -671.000; -645.000
411.191;    8.300; -189.000; -174.000
411.317; -182.800; -823.000; -742.000
411.444;  -52.300; -317.000; -246.000
411.570;  -93.100; -339.000; -294.000
411.697; -178.700; -758.000; -752.000
411.823; -276.300; -989.000; -999.000
411.949;   24.200;  -56.000;   17.000
412.076; -173.500; -539.000; -519.000
412.202; -155.700; -758.000; -757.000
412.329; -198.700; -798.000; -752.000
412.455; -164.300; -821.000; -657.000
412.581;   34.400;  -15.000;  172.000
412.707;  -89.600; -540.000; -457.000
412.834;  119.500;  156.000;  219.000
412.960; -120.000; -785.000; -784.000
413.086; -171.000; -743.000; -701.000
413.212;  384.500;  604.000;  578.000
413.339;  -73.200; -685.000; -701.000
413.465;   72.600; -364.000; -310.000
413.591; -118.500; -757.000; -474.000
413.717;  -65.700; -358.000; -366.000
413.843; -221.500; -839.000; -861.000
413.969;  -36.400;  -47.000; -292.000
414.096; -141.600; -679.000; -679.000
414.222;   78.700;  -33.000;   85.000
414.348;    2.700; -652.000; -385.000
414.474;  248.300;   38.000;  -52.000
414.600;   31.300; -126.000; -144.000
414.726;   43.100;  -96.000;  -55.000
414.852;  -69.900; -365.000; -342.000
414.978;  141.400;  104.000;  -18.000
415.104;  161.000;   38.000;   80.000
415.230;  104.400; -329.000; -330.000
415.356;  134.200; -409.000; -514.000
415.482;  425.700;   13.000;  -35.000
415.608;  571.100; -247.000; -323.000
415.734; 1843.200;   67.000;   38.000
415.860;37298.700; -875.000; -767.000
415.986;24238.800; -685.000; -607.000
416.111; 2025.700; -798.000; -652.000
416.237;  485.400; -424.000; -571.000
416.363; 2157.500; -765.000; -733.000
416.489; 7223.300; -324.000; -251.000
416.615;  716.200; -707.000; -742.000
416.741;  -17.100; -677.000; -784.000
416.866; -147.600; -673.000; -736.000
416.992; -194.200; -801.000; -818.000
417.118;   31.800;  -41.000;  -80.000
417.244;  -46.300; -798.000; -531.000
417.369; -123.500; -801.000; -612.000
417.495;   48.400; -325.000; -254.000
417.621; -141.100;-1015.000; -803.000
417.746;   66.300; -579.000; -572.000
417.872;  139.400; -254.000; -144.000
417.998;  131.300; -515.000; -530.000
418.123; 2058.500;-1073.000; -845.000
418.249; 9340.700; -512.000; -601.000
418.374; 1206.600; -916.000; -824.000
418.500;  225.000; -383.000; -482.000
418.626;  255.100;   70.000;  -59.000
418.751;  260.100; -549.000; -448.000
418.877;  415.000; -637.000; -643.000
419.002; 3575.700; -688.000; -560.000
419.128;21900.000; -930.000; -721.000
419.253; 4833.200; -967.000; -837.000
419.379;  696.700; -391.000; -338.000
419.504;  735.400;  325.000;  415.000
419.629;  913.000; -393.000; -212.000
419.755; 6682.200; -317.000; -254.000
419.880;35737.200;  -98.000;   67.000
420.006;20325.300; -280.000; -221.000
420.131;50339.600; -662.000; -775.000
420.256; 6537.200; -315.000; -316.000
420.382;  908.500; -665.000; -687.000
420.507;  151.400; -649.000; -778.000
420.632;  323.900; -337.000; -339.000
420.758;  514.000; -251.000; -425.000
420.883; -155.300; -876.000; -672.000
421.008; -103.500; -775.000; -619.000
421.133;  -80.800; -509.000; -467.000
421.259;   -1.500; -325.000; -259.000
421.384; -163.300; -834.000; -693.000
421.509;  -45.100;-1052.000; -862.000
421.634; 2235.700; -936.000; -820.000
421.759;  942.400; -359.000; -327.000
421.885;  -43.200; -717.000; -656.000
422.010;  -98.000; -673.000; -542.000
422.135; -254.700; -695.000; -727.000
422.260;  147.000;  340.000;  280.000
422.385;  -18.500;   12.000;  -98.000
422.510;   81.100;  151.000;  -26.000
422.635;  119.500;  -87.000;  -43.000
422.760;  201.700; -766.000; -791.000
422.885;  149.900;  -57.000;  -80.000
423.010;   -7.000; -112.000; -169.000
423.135;  -80.900; -481.000; -561.000
423.260;   53.400; -150.000; -245.000
423.385;  210.400;  476.000;  222.000
423.510;  163.300;   71.000;  -22.000
423.635;  201.800;  133.000;   45.000
423.760;  207.400;  383.000;  328.000
423.885;  165.900;  336.000;  391.000
424.010;   91.000;  -68.000;  -13.000
424.135;   57.500;    5.000;  -33.000
424.259; -116.300; -654.000; -457.000
424.384;  -36.500; -279.000; -272.000
424.509;   32.700; -260.000; -186.000
424.634; -152.200; -761.000; -623.000
424.759;    4.900; -688.000; -544.000
424.883;   60.800; -506.000; -527.000
425.008;  361.400; -502.000; -410.000
425.133; 3621.000; -679.000; -653.000
425.258; 1502.000; -517.000; -381.000
425.382; 1959.400; -867.000; -774.000
425.507; 4498.400; -487.000; -543.000
425.632;  734.100; -802.000; -663.000
425.756;  845.700; -256.000; -146.000
425.881;11823.300; -831.000; -857.000
426.006;28691.100; -604.000; -355.000
426.130; 4151.300; -696.000; -508.000
426.255;  596.600; -611.000; -491.000
426.379;  329.700; -189.000; -577.000
426.504;  755.000;  660.000;  544.000
426.629; 7655.900; -519.000; -466.000
426.753; 4619.400;   64.000;  -46.000
426.878;  620.400; -252.000; -288.000
427.002;  375.600; -651.000; -668.000
427.127; 3143.400;  -35.000; -158.000
427.251;20306.800;  372.000;  401.000
427.375; 5117.800; -191.000; -173.000
427.500; 4121.000; -616.000; -610.000
427.624; 1210.600; -234.000; -400.000
427.749;  283.800; -216.000; -225.000
427.873;  -54.000; -499.000; -412.000
427.997;    6.000; -222.000; -230.000
428.122;  259.700;  795.000;  703.000
428.246;  222.200;  433.000;  434.000
428.371; -193.800; -869.000; -773.000
428.495; -134.300; -624.000; -646.000
428.619;   37.200; -186.000; -117.000
428.743;  127.800;   65.000;  132.000
428.868;   96.700; -732.000; -643.000
428.992; 2592.900; -219.000; -326.000
429.116; 1001.900; -329.000; -357.000
429.240;  541.100;  419.000;  426.000
429.365;   52.200; -454.000; -574.000
429.489;  -17.300; -638.000; -647.000
429.613;  132.300; -236.000; -177.000
429.737;  136.300; -563.000; -432.000
429.861;  595.100; -247.000; -133.000
429.985;10499.000; -425.000; -305.000
430.109;10279.300; -770.000; -908.000
430.234; 1203.800;   76.000;  -50.000
430.358;  177.100; -250.000; -160.000
430.482;  -42.400; -672.000; -564.000
430.606;  -57.100; -655.000; -375.000
430.730;  167.200; -437.000; -388.000
430.854;  293.200; -909.000; -835.000
430.978;  -80.200; -795.000; -764.000
431.102;  -75.500; -499.000; -422.000
431.226; -121.200; -874.000; -815.000
431.350;  171.100;  345.000;  422.000
431.474;  -77.200; -661.000; -373.000
431.597; -245.300;-1060.000; -848.000
431.721;  -88.100; -276.000; -267.000
431.845; -199.800; -704.000; -472.000
431.969;  -74.800; -304.000; -349.000
432.093; -113.000; -395.000; -317.000
432.217;   75.800;   32.000;   82.000
432.341; -127.300; -523.000; -518.000
432.464;   88.700;   96.000;   40.000
432.588;  430.300; -401.000; -329.000
432.712;  239.900;  -52.000;  -52.000
432.836;  139.300;  213.000;  263.000
432.959;   56.300; -372.000; -311.000
433.083;  190.400;   11.000;    2.000
433.207;  756.500;  285.000;  930.000
433.330; 9284.400; -391.000; -200.000
433.454;10499.300; -654.000; -638.000
433.578; 6229.700;  583.000;  278.000
433.701; 1019.100; -623.000; -675.000
433.825;  327.400; -292.000; -299.000
433.949;  431.000;   28.000;  -72.000
434.072;  151.600; -410.000; -323.000
434.196;   52.700; -309.000; -117.000
434.319; 7823.000;25482.000;25124.000
434.443; 1435.600; -656.000; -603.000
434.566; 4623.500;  281.000;   62.000
434.690;  736.900; -637.000; -383.000
434.813;  131.000; -251.000; -173.000
434.937; -103.600; -569.000; -696.000
435.060;  -23.400; -423.000; -332.000
435.184;  692.300; -492.000; -217.000
435.307;  388.000;  159.000;  102.000
435.431;   43.600;  -40.000;   24.000
435.554; -101.100; -399.000; -240.000
435.677;  -65.600; -350.000; -258.000
435.801;  -18.000;  -25.000;   49.000
435.924;   54.000;    1.000;  -67.000
436.048; -171.600;-1019.000; -732.000
436.171;  -36.300; -240.000;  -66.000
436.294;   21.900; -248.000; -229.000
436.417;  234.900; -963.000; -849.000
436.541; -136.400; -814.000; -840.000
436.664;  -13.500; -242.000; -316.000
436.787;   32.400;   13.000;  113.000
436.910; -146.500; -792.000; -422.000
437.034;  131.900;  142.000;  143.000
437.157;  196.800;  -11.000;    0.000
437.280;   -2.500; -392.000; -292.000
437.403; -105.700; -982.000; -869.000
437.526; 1286.900; -903.000; -865.000
437.649; 4274.500; -505.000; -332.000
437.772;  562.200; -692.000; -540.000
437.896;  280.700;  700.000;  544.000
438.019; -121.100; -758.000; -503.000
438.142; -107.000; -596.000; -506.000
438.265;   57.300; -639.000; -670.000
438.388; 1094.200; -520.000; -410.000
438.511;  207.700; -597.000; -394.000
438.634;  -13.900; -247.000; -125.000
438.757; -211.300; -693.000; -619.000
438.880;    4.100;  -34.000;  -57.000
439.003; -104.600; -417.000; -437.000
439.126;  -72.300; -287.000; -167.000
439.248;  -57.400;  -98.000; -139.000
439.371;  -15.000;    9.000;  -53.000
439.494;  169.600;  510.000;  439.000
439.617;   -0.300;   65.000;  -88.000
439.740; -289.500; -968.000; -816.000
439.863; -227.800; -755.000; -595.000
439.986; -161.900; -476.000; -431.000
440.108;  -26.000; -161.000; -112.000
440.231; -296.200; -950.000; -836.000
440.354;  -31.800;  -64.000; -150.000
440.477;  158.800; -566.000; -542.000
440.599;   70.600; -200.000; -225.000
440.722; -173.500; -709.000; -586.000
440.845;  229.800;  751.000;  928.000
440.968; -128.100; -415.000; -311.000
441.090;  -50.100; -199.000;  -33.000
441.213; -260.600;-1021.000; -825.000
441.336;  -48.400; -159.000;   -5.000
441.458; -110.200; -549.000; -396.000
441.581;  -90.800; -628.000; -629.000
441.703;  -46.600; -152.000;   13.000
441.826; -141.000; -557.000; -400.000
441.948;  -21.200;   56.000;   51.000
442.071;  151.200;  555.000;  424.000
442.193; -170.600; -531.000; -485.000
442.316;  111.300;  152.000;   97.000
442.438;  143.600; -233.000;  -10.000
442.561;  196.800;  272.000;  262.000
442.683; 1123.700; -809.000; -522.000
442.806; 2116.900;   -8.000;   74.000
442.928;   36.500; -859.000; -604.000
443.051;  -76.900; -577.000; -373.000
443.173; -116.300; -341.000; -339.000
443.295;  -92.200; -263.000; -371.000
443.418;  -74.400; -321.000;  -29.000
443.540;   68.800; -106.000;   -4.000
443.662; -159.800; -563.000; -465.000
443.785;   48.200;  335.000;  199.000
443.907; -154.500; -362.000; -208.000
444.029; -196.100; -767.000; -494.000
444.152; -235.000; -644.000; -554.000
444.274;   13.400;  -18.000;  -24.000
444.396; -145.900; -461.000; -221.000
444.518; -185.200; -691.000; -454.000
444.640; -192.100; -268.000; -111.000
444.763;   19.200;  388.000;  249.000
444.885; -163.300; -432.000; -392.000
445.007;   32.300;   35.000;   86.000
445.129; -152.300; -610.000; -515.000
445.251; -119.000; -372.000; -439.000
445.373; -194.300; -537.000; -386.000
445.495;   45.300;  242.000;  350.000
445.617;  164.000;  853.000;  753.000
445.739;  -75.800; -215.000;  -97.000
445.861;  -11.500; -245.000; -112.000
445.984;   -5.300; -267.000; -101.000
446.105;  442.800; -418.000; -251.000
446.227; 1147.300; -176.000;  -19.000
446.349;   33.700; -358.000; -249.000
446.471; -153.600; -615.000; -448.000
446.593;  -63.800; -316.000;   19.000
446.715;   60.300;  -67.000;   41.000
446.837;  189.100;  697.000;  832.000
446.959; -129.100; -457.000; -478.000
447.081; -208.500; -628.000; -518.000
447.203;  216.600;  862.000;  834.000
447.325; -118.200; -270.000;   42.000
447.446;  101.100;  286.000;  530.000
447.568; -218.200; -921.000; -803.000
447.690;  -83.200; -236.000; -245.000
447.812; -233.200; -798.000; -519.000
447.933;   15.500;  155.000;  127.000
448.055;  -60.100; -306.000; -261.000
448.177;  381.800;   31.000;   79.000
448.299;  138.100; -935.000; -727.000
448.420;  137.100;  -25.000;  159.000
448.542;  -33.100;   -3.000;   33.000
448.664;   33.700;  109.000;  322.000
448.785;    3.100;  265.000;   83.000
448.907;  -86.200; -614.000; -353.000
449.028;  -37.900; -771.000; -471.000
449.150;  197.800;  492.000;  589.000
449.272; -283.800;-1044.000; -913.000
449.393;  124.400;  612.000;  694.000
449.515; -225.200; -634.000; -581.000
449.636;  -24.900; -264.000; -155.000
449.758;  204.300;  763.000;  622.000
449.879; -102.500; -498.000; -396.000
450.001;  -94.200; -149.000;  -49.000
450.122;   17.400;  -95.000;  162.000
450.244;   38.900;   37.000;  364.000
450.365; -120.600; -495.000; -301.000
450.486;  -10.600;   80.000;  268.000
450.608;  134.700;  393.000;  326.000
450.729;  222.400;  578.000;  645.000
450.850;   46.200; -574.000; -466.000
450.972; 1429.700; -552.000; -389.000
451.093; 8697.400;  190.000;  588.000
451.214; 3219.600; -516.000; -337.000
451.336;  706.200;  773.000;  579.000
451.457;  175.300;  264.000;  393.000
451.578;   -1.900; -118.000;  -74.000
451.699; -176.100; -546.000; -540.000
451.821;  -62.100; -284.000;  -50.000
451.942;   57.300;  278.000;  285.000
452.063;  105.700;  228.000;  419.000
452.184; 1112.100;  -54.000;  -49.000
452.305; 1957.900;  103.000;  170.000
452.427;  200.400; -549.000; -301.000
452.548;   32.500;   23.000;   79.000
452.669;  -31.400; -257.000;  -89.000
452.790;  -17.500;    3.000;  -18.000
452.911;   63.900;  195.000;  259.000
453.032;  -29.200; -289.000;  -60.000
453.153;  -32.100;  -29.000;   81.000
453.274;  187.600;  737.000;  868.000
453.395;  -48.500;  -51.000;  175.000
453.516;  348.200; 1317.000; 1388.000
453.637;  -29.700; -205.000; -150.000
453.758;  -36.400;   15.000;   69.000
453.879; -176.100; -462.000; -250.000
454.000;  270.900; 1086.000;  948.000
454.121; -146.400; -554.000; -326.000
454.242; -152.900; -599.000; -383.000
454.362;  -41.000;  -99.000;  114.000
454.483;   31.200; -309.000; -229.000
454.604;  178.300;  512.000;  580.000
454.725; -182.200; -627.000; -555.000
454.846; -190.100; -474.000; -406.000
454.967;   58.000;  230.000;  539.000
455.087;   -7.400;  179.000;  153.000
455.208;  144.600;  554.000;  856.000
455.329;  -34.000;  -22.000;   82.000
455.450;  151.300;  473.000;  633.000
455.570; -116.500; -234.000; -211.000
455.691;   -6.600;  201.000;  407.000
455.812; -128.500; -270.000;  -92.000
455.932;  -24.700;  107.000;  -97.000
456.053;  -92.000;   36.000;   24.000
456.173; -130.500; -433.000; -355.000
456.294; -189.000; -476.000; -303.000
456.415;  -56.100;  -73.000;   70.000
456.535;   29.000;  297.000;  273.000
456.656;  -24.200;  132.000;  240.000
456.776;  -65.500;    3.000;  298.000
456.897;   83.200;  308.000;  513.000
457.017;  -91.200; -153.000;   -3.000
457.138; -144.800; -402.000; -249.000
457.258;   39.700;  263.000;  224.000
457.379;   81.000;  509.000;  521.000
457.499;   26.800;  443.000;  432.000
457.620; -164.900; -407.000; -231.000
457.740; -137.700; -132.000;  -11.000
457.860;  -20.700;   87.000;   44.000
457.981;  -31.900;  132.000;  124.000
458.101;  -76.500;  -89.000;   40.000
458.221;   76.400;  336.000;  402.000
458.342;  -53.200;   -4.000;  -37.000
458.462;  136.700;  617.000;  352.000
458.582;  -49.600; -302.000; -294.000
458.703;   67.700;  303.000;  154.000
458.823;   -8.600;   22.000;  163.000
458.943;  168.600;  341.000;  467.000
459.063;   40.700; 1124.000;  192.000
459.183;   19.800;  328.000;  313.000
459.304;   97.600;  315.000;  517.000
459.424;  -54.700; -246.000;  -89.000
459.544;  720.400;  388.000;  764.000
459.664; 1500.700;  499.000;  506.000
459.784;  605.700; 1004.000; 1175.000
459.904;  200.000;  867.000;  744.000
460.024;  236.400;  867.000;  684.000
460.144;   93.500;  449.000;  554.000
460.264;   72.000;  515.000;  327.000
460.385; -117.600; -145.000; -119.000
460.505;  161.100;  905.000;  858.000
460.625; -137.300;  -17.000;  -68.000
460.745;   26.400;  396.000;  541.000
460.864;   -2.000;  153.000;  469.000
460.984;  133.300;  499.000;  573.000
461.104;  348.900; 1656.000; 1775.000
461.224;  120.800;  657.000;  650.000
461.344;   39.600;  431.000;  360.000
461.464;    5.900;  258.000;  513.000
461.584;   30.300;  283.000;  466.000
461.704;  -19.400;   58.000;  108.000
461.824;  -46.300;  238.000;  259.000
461.943;  -13.400;  191.000;  130.000
462.063;  -66.900;    2.000;  324.000
462.183;  167.400;  639.000;  717.000
462.303;  279.800; 1678.000; 1230.000
462.422;  132.600;  781.000;  840.000
462.542;  -11.100;  271.000;  391.000
462.662;  114.300;  353.000;  380.000
462.782;  496.500;  833.000;  572.000
462.901;  913.200;  545.000;  717.000
463.021;  604.300; 1702.000; 1638.000
463.141;   73.400;  337.000;  770.000
463.260;   44.200;  614.000;  474.000
463.380;  127.400;  902.000;  884.000
463.499;   -3.600;  342.000;  332.000
463.619;    4.200;  581.000;  559.000
463.738;  333.600; 1644.000;  903.000
463.858;  113.400;  657.000;  811.000
463.978;    6.200;  542.000;  396.000
464.097;  182.200;  921.000; 1114.000
464.217;  297.200; 1196.000; 1143.000
464.336;  317.800; 1068.000; 1130.000
464.455;   -6.100;  328.000;  659.000
464.575;  186.900;  597.000;  602.000
464.694;  429.000; 1204.000; 1179.000
464.814;  310.500; 1190.000; 1138.000
464.933;  220.900; 1095.000; 1027.000
465.052;  283.900; 1412.000; 1054.000
465.172;  243.800;  922.000;  799.000
465.291;  395.300; 1376.000; 1320.000
465.410;  123.000;  462.000;  735.000
465.530;  264.100; 1355.000; 1310.000
465.649;  215.900; 1209.000; 1273.000
465.768;  419.900; 1673.000; 1508.000
465.888;  184.100;  941.000; 1174.000
466.007;  265.700; 1335.000; 1440.000
466.126;   71.900;  721.000;  641.000
466.245;  183.200; 1176.000; 1187.000
466.364;  142.100;  950.000; 1060.000
466.484;  202.400; 1024.000; 1213.000
466.603;  185.700; 1101.000; 1222.000
466.722;  344.200; 1490.000; 1769.000
466.841;  222.500; 1151.000; 1401.000
466.960;  151.600; 1069.000;  972.000
467.079;  353.000; 1971.000; 1786.000
467.198;  168.700; 1238.000; 1181.000
467.317;  260.100; 1768.000; 1162.000
467.436;  254.200; 1709.000; 1261.000
467.555;  345.300; 1796.000; 1746.000
467.674;  184.700; 1227.000; 1329.000
467.793;  168.400; 1376.000; 1374.000
467.912;  292.000; 1658.000; 1539.000
468.031;  380.400; 2038.000; 1930.000
468.150;  368.300; 1842.000; 1837.000
468.269;  436.900; 2313.000; 2090.000
468.388;  507.900; 2168.000; 2339.000
468.507;  631.100; 2884.000; 2903.000
468.626;  701.800; 2555.000; 2541.000
468.744;  378.300; 2018.000; 2174.000
468.863;  506.500; 2312.000; 2523.000
468.982;  272.900; 1503.000; 1555.000
469.101;  555.700; 2788.000; 2692.000
469.220;  390.000; 2333.000; 2176.000
469.338;  604.900; 2935.000; 3051.000
469.457;  475.800; 2719.000; 2545.000
469.576;  778.500; 3953.000; 3784.000
469.695;  562.500; 2877.000; 3066.000
469.813;  921.200; 4148.000; 4192.000
469.932;  927.600; 4255.000; 4485.000
470.051;  949.200; 4075.000; 4161.000
470.169; 1745.300; 4470.000; 4338.000
470.288; 2865.800; 4700.000; 4809.000
470.406; 1656.700; 5059.000; 5194.000
470.525; 1307.900; 6101.000; 5787.000
470.644; 1389.200; 6847.000; 6794.000
470.762; 1755.700; 8397.000; 7873.000
470.881; 1893.800; 8651.000; 8464.000
470.999; 2172.500; 9685.000; 9151.000
471.118; 2337.700;11174.000;10711.000

