
Integration time [ms]: 100.000
Averaging Nr. [scans]: 40
Smoothing Nr. [pixels]: 0
Data measured with spectrometer [name]: 2101012U2
Wave   ;Sample   ;Dark     ;Reference
[nm]   ;[counts] ;[counts] ;[counts] 

197.733;   46.000;  516.000;  404.000
197.879;  -83.700; -610.000; -634.000
198.025;  -45.675; -475.000; -420.000
198.171;  -71.900; -602.000; -612.000
198.317;  -33.775; -401.000; -316.000
198.463;  -58.825; -655.000; -404.000
198.609;   33.150;  181.000; -137.000
198.755;  -67.975; -644.000; -410.000
198.901;  -60.050; -505.000; -424.000
199.047;  -65.600; -615.000; -488.000
199.193;  -32.600; -230.000; -468.000
199.339;  -46.350; -222.000; -369.000
199.485;   43.200;  330.000;  271.000
199.631;    1.100;  227.000;  310.000
199.777;  -47.575; -466.000; -398.000
199.923;  -58.700; -610.000; -424.000
200.069;    4.650; -141.000;  -58.000
200.215;   44.550;  128.000;  453.000
200.361;   38.050;  243.000;  477.000
200.507;  -62.525; -600.000; -373.000
200.653;  -20.050; -371.000; -194.000
200.798;  -50.525; -215.000; -125.000
200.944;  -10.425; -146.000;  -41.000
201.090;   28.475;   61.000;  222.000
201.236;   -6.650; -116.000; -158.000
201.382;  110.000;  874.000;  903.000
201.528;    8.000;  -58.000;  -48.000
201.674;  -48.850; -386.000; -293.000
201.819;  -60.575; -540.000; -439.000
201.965;  -89.900; -699.000; -447.000
202.111;  -15.650; -273.000; -226.000
202.257;  -38.550; -250.000; -238.000
202.402;   13.300;   13.000;  -36.000
202.548;  -37.100; -169.000; -116.000
202.694;   80.625;  410.000; -183.000
202.840;  -83.650; -603.000; -531.000
202.985;  -81.700; -681.000; -639.000
203.131;  -99.950; -832.000; -666.000
203.277;  -16.775; -199.000; -262.000
203.423;  -56.375; -434.000; -520.000
203.568;  -27.475; -462.000; -237.000
203.714;  -68.175; -535.000; -542.000
203.860;  -69.325; -682.000; -641.000
204.005;    0.825;  112.000;  167.000
204.151;   79.225;  561.000;  556.000
204.296;  -45.225; -354.000; -221.000
204.442;  -62.800; -600.000; -547.000
204.588;  -75.675; -592.000; -579.000
204.733;   24.500;  178.000;  168.000
204.879; -133.150;-1018.000; -822.000
205.025;   11.150;  -99.000;  126.000
205.170;    4.200;  -17.000;   94.000
205.316;   81.125;  438.000;  661.000
205.461;  -83.225; -698.000; -554.000
205.607;   57.825;  609.000;  665.000
205.752;  -71.650; -626.000; -551.000
205.898;  -64.200; -501.000; -391.000
206.043;  -64.450; -578.000; -506.000
206.189;  -31.825; -243.000; -285.000
206.334;   66.675;  554.000;  606.000
206.480;   78.750;  409.000;  239.000
206.625;  -69.125; -529.000; -552.000
206.771;  -48.900; -451.000; -373.000
206.916;  -44.050; -210.000; -537.000
207.062;  -72.525; -545.000; -591.000
207.207;  -53.550; -546.000; -443.000
207.353;   59.025;  185.000;  460.000
207.498;    8.800;  196.000;   85.000
207.643;  -46.550; -501.000; -370.000
207.789; -132.650;-1069.000; -910.000
207.934;  -78.550; -665.000; -713.000
208.080;  -21.150; -154.000;   66.000
208.225;   -9.000;  -22.000;  -57.000
208.370;  -77.150; -727.000; -619.000
208.516;  -62.450; -741.000; -487.000
208.661;  -26.925; -127.000;  -69.000
208.806;  -11.050; -165.000; -171.000
208.952; -120.725;-1044.000; -731.000
209.097;   80.850;  378.000;  349.000
209.242;  -53.675; -307.000; -382.000
209.387;   46.050;  392.000;  350.000
209.533;  -56.125; -321.000; -350.000
209.678;   75.675;  472.000;  543.000
209.823;  -47.550; -408.000; -310.000
209.969; -100.300; -860.000; -757.000
210.114; -101.900; -907.000; -719.000
210.259; -106.675; -939.000; -889.000
210.404;  -14.550; -171.000;  103.000
210.549;   16.050;  108.000;    3.000
210.695;  -29.725;   -3.000;  -95.000
210.840;   32.525;   94.000;   67.000
210.985;  -62.425; -484.000; -303.000
211.130;   58.075;  268.000;  406.000
211.275;   20.100;  207.000;  199.000
211.420;  -54.425; -300.000; -289.000
211.566;  -67.600; -536.000; -489.000
211.711;   20.925;  218.000;  157.000
211.856;  -66.025; -545.000; -519.000
212.001;    8.775;  151.000;   44.000
212.146;   25.825;  153.000;   49.000
212.291;  -32.250; -210.000; -186.000
212.436;  -32.225; -280.000;   -6.000
212.581;  -80.350; -685.000; -653.000
212.726;  -81.675; -487.000; -538.000
212.871;  -44.675; -552.000; -217.000
213.016; -141.250;-1172.000;-1029.000
213.161;   74.800;  406.000;  291.000
213.306;  -81.975; -435.000; -577.000
213.451;  -80.000; -778.000; -689.000
213.596;  -46.650; -455.000; -347.000
213.741;  -45.875; -448.000; -538.000
213.886;  -78.750; -498.000; -517.000
214.031;  -24.700; -294.000; -124.000
214.176;  -57.975; -408.000; -341.000
214.321;  -12.275; -296.000; -157.000
214.466;  -21.575; -163.000;  -43.000
214.611;  -13.225;  -61.000;  -10.000
214.756; -118.325; -948.000; -858.000
214.901;  -15.000; -388.000; -226.000
215.046; -122.800; -797.000; -825.000
215.191;   15.500;  128.000;   35.000
215.336;  -14.050; -157.000;  -19.000
215.480;  -64.200; -684.000; -505.000
215.625;  -20.200; -175.000;  -19.000
215.770;  -88.650; -757.000; -662.000
215.915;  -26.525;   -5.000;  -97.000
216.060;    6.025; -113.000;  -21.000
216.205; -104.300; -731.000; -779.000
216.349;  -68.850; -470.000; -533.000
216.494; -131.050; -939.000; -867.000
216.639; -109.425; -823.000; -888.000
216.784;  -80.150; -577.000; -525.000
216.929;   56.775;  392.000;  281.000
217.073;  -24.650; -244.000;  -31.000
217.218;   17.425;   78.000;  -47.000
217.363;  -86.100; -656.000; -618.000
217.507;  -66.300; -623.000; -588.000
217.652; -115.525; -845.000; -874.000
217.797;  -83.425; -708.000; -659.000
217.942; -117.050; -856.000; -720.000
218.086;   60.300;  608.000;  539.000
218.231;  -12.825; -174.000;  -26.000
218.376;  -22.250; -337.000; -229.000
218.520;   -0.650;  -41.000;   96.000
218.665;  -49.575; -338.000; -204.000
218.810;  -62.500; -275.000; -233.000
218.954;   13.225;  201.000;   35.000
219.099; -112.675; -713.000; -963.000
219.243;  -63.350; -589.000; -554.000
219.388;  -36.000; -264.000; -136.000
219.532;    0.050; -116.000; -116.000
219.677;  -82.025; -564.000; -521.000
219.822;   -2.500;   33.000;   89.000
219.966;   -1.000;   17.000;  -99.000
220.111;  -26.500; -328.000;  -40.000
220.255; -102.675; -797.000; -750.000
220.400;  -20.250; -180.000; -146.000
220.544;  -65.975; -516.000; -450.000
220.689;  -51.125; -422.000; -451.000
220.833;  -16.900; -123.000;  -58.000
220.978;  -43.700; -393.000; -563.000
221.122;   26.600;  319.000;  307.000
221.267; -112.150; -906.000; -837.000
221.411;  -63.100; -478.000; -394.000
221.555;  -12.625; -104.000;  -23.000
221.700;  -46.700; -329.000; -222.000
221.844;   28.125;  255.000;  272.000
221.989;  -42.800; -328.000; -311.000
222.133;  -21.050; -289.000; -307.000
222.277;  -15.750;    5.000;   78.000
222.422;   11.975;  227.000;  113.000
222.566;  -33.725; -381.000; -214.000
222.711;  -57.650; -414.000; -479.000
222.855;  -79.075; -643.000; -586.000
222.999;  -82.825; -642.000; -717.000
223.144;  -36.700; -195.000; -194.000
223.288;   45.700;  423.000;  251.000
223.432;   22.575;  184.000;  230.000
223.576;   24.375;  152.000;  -21.000
223.721;   43.225;  364.000;  273.000
223.865;  -58.825; -472.000; -475.000
224.009;  222.850; 1673.000; 1631.000
224.153;  -81.950; -660.000; -671.000
224.298;  -77.975; -531.000; -489.000
224.442;  -26.725;  -74.000;  -33.000
224.586;  -17.850; -169.000; -106.000
224.730;  -89.400; -858.000; -670.000
224.875; -107.150; -739.000; -688.000
225.019;   15.850;  102.000;  188.000
225.163;   51.875;  208.000;  341.000
225.307;   17.225;   97.000;  -91.000
225.451;   58.275;  360.000;  481.000
225.595;   31.250;  264.000;  176.000
225.739;  -19.275; -170.000;  -94.000
225.884;    2.475;   86.000;    5.000
226.028; -101.350; -760.000; -626.000
226.172;  -28.475; -260.000; -273.000
226.316; -113.250; -941.000; -902.000
226.460;  -65.450; -645.000; -493.000
226.604;  -54.600; -406.000; -400.000
226.748;  -92.650; -836.000; -733.000
226.892;  -29.975; -227.000; -181.000
227.036;  -53.525; -537.000; -447.000
227.180;  -48.225; -551.000; -375.000
227.324;  -66.300; -561.000; -580.000
227.468; -124.850; -819.000; -717.000
227.612;   12.250;  242.000;  -28.000
227.756;  -98.400; -845.000; -698.000
227.900;   42.800;  342.000;  441.000
228.044;  -63.275; -509.000; -290.000
228.188;   49.925;  448.000;  568.000
228.332; -102.875; -546.000; -472.000
228.476;  -43.900; -223.000; -149.000
228.620;  -36.525; -210.000; -150.000
228.764;   85.000;  431.000;  349.000
228.908;  -16.800; -155.000;   30.000
229.052;  -54.125; -615.000; -528.000
229.195;  -16.150; -172.000;   13.000
229.339;  -34.325; -235.000; -305.000
229.483;  -34.775;    5.000; -162.000
229.627;    9.675; -156.000;  139.000
229.771;  -51.925; -218.000; -294.000
229.915;   -2.725;  230.000;   79.000
230.059;  -92.925; -648.000; -663.000
230.202;  -28.400; -370.000; -317.000
230.346;  -34.475; -107.000;  107.000
230.490;  -60.000; -489.000; -521.000
230.634; -103.025; -736.000; -553.000
230.777;   70.000;  478.000;  509.000
230.921;  -63.850; -450.000; -359.000
231.065;  -40.475; -246.000; -286.000
231.209;    6.925;  261.000;  265.000
231.352;   18.250;   54.000;   40.000
231.496;   -6.025;  568.000;  188.000
231.640;  -78.650; -693.000; -621.000
231.783;   54.750;  546.000;  525.000
231.927;  -37.800; -294.000; -365.000
232.071; -119.800; -962.000; -736.000
232.214; -115.125; -980.000; -764.000
232.358; -104.700; -683.000; -599.000
232.502;   12.750;  -19.000;    7.000
232.645; -124.050;-1090.000; -927.000
232.789;  -22.550; -257.000; -218.000
232.933;  -48.800; -407.000; -224.000
233.076; -115.325;-1038.000; -897.000
233.220; -105.900; -752.000; -777.000
233.363;  -66.500; -669.000; -477.000
233.507;   62.800;  371.000;  129.000
233.650;  -86.150; -764.000; -834.000
233.794;   37.025;  438.000;  461.000
233.938;  -54.100; -530.000; -362.000
234.081;  -27.200;  -93.000;   31.000
234.225;  -57.925; -631.000; -539.000
234.368; -115.675; -773.000; -723.000
234.512;  -39.325; -385.000; -299.000
234.655;  -89.100; -582.000; -555.000
234.798;  -64.400; -493.000; -466.000
234.942; -128.900; -884.000;-1002.000
235.085;  -74.100; -651.000; -443.000
235.229;  -78.650; -405.000; -410.000
235.372;  -46.150; -247.000; -191.000
235.516;  -64.050; -397.000; -321.000
235.659;   19.275;   92.000;  121.000
235.802;  -27.275;  -38.000;  -22.000
235.946;   16.525;  335.000;  215.000
236.089;   25.550;  126.000;  250.000
236.233;   44.950;  275.000;  298.000
236.376;  -56.250; -235.000; -378.000
236.519;  -45.425; -297.000; -319.000
236.663;  -27.025; -215.000; -117.000
236.806; -134.175;-1029.000; -999.000
236.949;   27.725;  543.000;  431.000
237.092;   53.125;  412.000;  391.000
237.236;  -80.000; -589.000; -502.000
237.379;   62.075;  352.000;  428.000
237.522; -117.225; -879.000; -768.000
237.666;    1.550; -271.000;   18.000
237.809; -123.675; -851.000; -823.000
237.952;   29.700;  469.000;  271.000
238.095;  -60.525; -447.000; -442.000
238.238;   80.875;  688.000;  700.000
238.382;  -10.750;  166.000;  103.000
238.525;  -61.875; -598.000; -511.000
238.668; -130.750;-1060.000; -985.000
238.811;  -77.150; -638.000; -643.000
238.954;  -55.225; -483.000; -334.000
239.097;   94.500;  617.000;  664.000
239.241;   14.875;  394.000;  326.000
239.384;  -20.750; -254.000; -214.000
239.527;  -65.675; -424.000; -224.000
239.670; -128.550; -994.000;-1091.000
239.813; -111.125; -696.000; -658.000
239.956;   66.500;  579.000;  473.000
240.099; -111.900; -778.000; -725.000
240.242;   61.475;  428.000;  432.000
240.385;   37.675;  466.000;  450.000
240.528;  -67.025; -706.000; -473.000
240.671;    7.150;  189.000;  134.000
240.814;  -32.625; -441.000; -158.000
240.957; -103.350; -767.000; -578.000
241.100;  -73.350; -779.000; -755.000
241.243; -146.525;-1234.000; -893.000
241.386;  -52.375; -508.000; -379.000
241.529;  -92.550; -735.000; -547.000
241.672;  -65.625; -566.000; -495.000
241.815; -117.875; -832.000; -808.000
241.958;  -34.675; -125.000; -182.000
242.101;  -78.950; -545.000; -390.000
242.244;  -44.825; -270.000; -325.000
242.387;  -54.325; -304.000; -246.000
242.530;   52.150;  470.000;  134.000
242.673;  -47.875; -381.000; -309.000
242.815; -106.950; -925.000; -899.000
242.958;  -74.225; -482.000; -381.000
243.101;    0.350;  132.000;  187.000
243.244;  -86.600; -564.000; -521.000
243.387;  -46.775; -313.000; -316.000
243.530;  -86.725; -657.000; -674.000
243.672;    3.750;   43.000;  -92.000
243.815;  -65.575; -355.000; -283.000
243.958;   -4.625;   98.000;  -26.000
244.101;  -12.625;   59.000;  -16.000
244.243;  -26.075;  -47.000;  101.000
244.386; -105.450; -761.000; -630.000
244.529;  -28.450; -132.000; -139.000
244.672; -156.800;-1154.000; -951.000
244.814;  -94.875; -621.000; -794.000
244.957;  -47.000; -380.000; -304.000
245.100;  -74.450; -489.000; -489.000
245.242;  -57.625; -387.000; -374.000
245.385;    3.925;  -59.000;  -39.000
245.528; -135.150; -871.000; -705.000
245.670;   86.975;  612.000;  634.000
245.813;  -87.500; -599.000; -547.000
245.956;  -22.850; -324.000; -275.000
246.098;  -70.425; -508.000; -650.000
246.241;   -2.250;  194.000;   48.000
246.383;  -24.300; -119.000;  -73.000
246.526;  -69.475; -454.000; -525.000
246.669; -126.775; -889.000; -780.000
246.811;   14.225;  172.000;   -1.000
246.954;  -61.450; -512.000; -426.000
247.096;  -18.525;  -84.000;   -6.000
247.239;  -80.175; -482.000; -445.000
247.381;  -72.325; -647.000; -488.000
247.524;   79.825;  645.000;  679.000
247.666;   -4.800;   58.000;   11.000
247.809; -105.525; -887.000; -691.000
247.951;   -2.800;  -75.000;  138.000
248.094;    1.150;  432.000;  308.000
248.236; -158.175;-1262.000;-1238.000
248.378;  -19.500; -356.000;  -81.000
248.521;  -37.400; -334.000; -337.000
248.663;  -45.800; -236.000; -267.000
248.806;  -32.625; -300.000; -266.000
248.948; -104.425; -886.000; -763.000
249.090;  -48.425; -428.000; -398.000
249.233;  -60.650; -344.000; -381.000
249.375;  -63.875; -474.000; -451.000
249.518;  -32.500;  -83.000; -133.000
249.660;  -15.825; -103.000;    3.000
249.802; -168.725;-1303.000;-1189.000
249.945;  -79.100; -612.000; -540.000
250.087; -112.875; -834.000; -768.000
250.229;  -49.025; -362.000; -480.000
250.371;  -88.850; -494.000; -439.000
250.514;  -48.950; -310.000; -244.000
250.656;  -71.200;   69.000;  102.000
250.798; -110.150; -849.000; -800.000
250.940;  -56.200; -322.000; -322.000
251.083;  -17.300; -335.000; -111.000
251.225;   42.350;  338.000;  310.000
251.367;  -47.325; -274.000; -373.000
251.509;  -56.650; -265.000; -210.000
251.651;  -87.075; -731.000; -671.000
251.794;   39.825;  538.000;  632.000
251.936; -107.550; -821.000; -747.000
252.078;  -88.775; -540.000; -461.000
252.220;  -66.850; -645.000; -477.000
252.362;   55.275;  344.000;  462.000
252.504;  -78.025; -677.000; -584.000
252.646; -115.175; -875.000; -722.000
252.788;  -13.250;   14.000; -128.000
252.931;  -44.050; -257.000; -253.000
253.073;  -48.975; -376.000; -317.000
253.215;  -13.600;  141.000;  122.000
253.357;  -18.725;   82.000; -153.000
253.499;  -55.700; -374.000; -234.000
253.641;  -93.800; -749.000; -594.000
253.783;  -96.025; -609.000; -527.000
253.925;  -76.025; -586.000; -591.000
254.067; -108.700; -744.000; -667.000
254.209;  -35.425; -391.000; -259.000
254.351; -147.900; -865.000; -883.000
254.493;  -56.150; -441.000; -417.000
254.635; -127.200; -936.000; -818.000
254.777;  -86.900; -752.000; -687.000
254.918;  -73.550; -512.000; -430.000
255.060;  -66.825; -551.000; -395.000
255.202;  -66.050; -473.000; -261.000
255.344;  -79.950; -658.000; -455.000
255.486;  -69.125; -471.000; -406.000
255.628; -109.125; -780.000; -781.000
255.770;  -78.075; -676.000; -536.000
255.912;  -60.800; -559.000; -468.000
256.053;  -97.725; -730.000; -508.000
256.195;  149.275; 1008.000;  903.000
256.337; -110.950; -861.000; -595.000
256.479;   60.100;  532.000;  416.000
256.621;  -52.375; -394.000; -212.000
256.762; -101.125; -789.000; -742.000
256.904;   35.300;  485.000;  487.000
257.046;  -41.150; -381.000; -271.000
257.188;  -57.800; -351.000; -264.000
257.329;  -77.325; -525.000; -464.000
257.471; -124.975; -939.000; -807.000
257.613;  -66.225; -584.000; -498.000
257.755; -142.225;-1073.000; -982.000
257.896;   32.775;  286.000;  392.000
258.038;  -69.650; -403.000; -352.000
258.180;  -44.450; -354.000; -279.000
258.321;  -83.450; -581.000; -457.000
258.463;   -2.125;  -71.000;  133.000
258.605;  -95.100; -562.000; -570.000
258.746; -107.800; -886.000; -772.000
258.888; -146.975;-1026.000;-1020.000
259.029;   13.600;  121.000;   -8.000
259.171;  -89.400; -614.000; -550.000
259.313;   -4.475;  -49.000;  -47.000
259.454;  -72.900; -536.000; -414.000
259.596;  -58.000; -483.000; -390.000
259.737;  -80.700; -590.000; -474.000
259.879;   29.050;  217.000;  311.000
260.020;   74.850;  901.000;  636.000
260.162;  -33.400; -146.000; -253.000
260.303; -119.975; -768.000; -687.000
260.445;  -85.750; -609.000; -613.000
260.586;   16.225;  392.000;  157.000
260.728;  -43.450; -360.000; -248.000
260.869;  -81.050; -350.000; -343.000
261.011;   74.225;  706.000;  537.000
261.152;  -76.125; -479.000; -319.000
261.293;  -83.700; -576.000; -595.000
261.435;  -40.675; -219.000; -184.000
261.576;  -50.550; -455.000; -325.000
261.718;   37.700;  420.000;  470.000
261.859; -106.575; -940.000; -949.000
262.000; -137.050; -951.000;-1016.000
262.142;  -23.675;  -52.000;  -60.000
262.283; -123.550; -808.000; -691.000
262.424;  -91.925; -666.000; -625.000
262.566; -159.900;-1161.000; -983.000
262.707; -118.975; -840.000; -830.000
262.848; -123.625; -769.000; -726.000
262.990;  -52.475; -362.000; -345.000
263.131;   72.300;  650.000;  681.000
263.272;   -9.075;  -61.000;  -41.000
263.413;  -90.025; -589.000; -561.000
263.555;  -71.725; -669.000; -143.000
263.696;  -83.825; -550.000; -641.000
263.837;  -56.450; -449.000; -551.000
263.978;  -17.050;   -5.000;  -77.000
264.119;  -36.425; -283.000; -264.000
264.261; -119.375; -847.000; -630.000
264.402;   -3.075;   33.000;   40.000
264.543;  -84.500; -509.000; -524.000
264.684;  -19.250;   61.000;  -50.000
264.825;  -81.000; -816.000; -538.000
264.966;   -2.425;  -84.000;  -67.000
265.107; -111.450; -646.000; -670.000
265.248; -119.550; -825.000; -812.000
265.390;  -17.975;  152.000;   -9.000
265.531;  -21.850; -238.000; -107.000
265.672;  -95.025; -557.000; -630.000
265.813;   50.400;  563.000;  439.000
265.954; -143.300; -959.000; -940.000
266.095;  -15.950; -372.000; -322.000
266.236; -105.575; -686.000; -548.000
266.377;  -42.225; -243.000; -297.000
266.518;  -79.050; -619.000; -547.000
266.659;   16.600;  170.000;  268.000
266.800;   -3.000;   83.000;   85.000
266.941;  -69.100; -487.000; -478.000
267.082;    7.025;  354.000;   99.000
267.223;  -67.725; -344.000; -273.000
267.364; -118.225; -892.000; -686.000
267.504;  -11.550;    3.000;  135.000
267.645;    0.725;  160.000;   67.000
267.786;  -29.150; -147.000;  -86.000
267.927;  -77.175; -473.000; -379.000
268.068;  -29.400; -186.000;  -61.000
268.209;  -49.900; -175.000; -413.000
268.350;  -64.225; -388.000; -532.000
268.490;  -86.450; -648.000; -521.000
268.631;   27.575;  127.000;  225.000
268.772; -112.175; -874.000; -647.000
268.913;  -56.150; -328.000; -476.000
269.054;  -24.550; -117.000;   12.000
269.194;  -45.600; -418.000; -402.000
269.335; -159.925;-1137.000;-1074.000
269.476;  -15.850;   33.000;  -35.000
269.617;  -56.300; -347.000; -392.000
269.757;  -95.700; -713.000; -646.000
269.898; -104.725; -856.000; -613.000
270.039;  -72.175; -415.000; -405.000
270.180; -139.825; -952.000; -816.000
270.320;  -32.550; -190.000; -250.000
270.461;  -49.475; -277.000; -249.000
270.602;  -29.700; -186.000; -156.000
270.742; -129.500; -868.000; -943.000
270.883;  -61.150; -442.000; -390.000
271.023;  -64.425; -358.000; -357.000
271.164;  -68.850; -607.000; -528.000
271.305; -101.550; -666.000; -654.000
271.445;  -78.075; -722.000; -683.000
271.586;  -69.100; -462.000; -283.000
271.726;  -42.550; -397.000; -322.000
271.867;  -82.800; -594.000; -534.000
272.008;   35.725; -473.000; -285.000
272.148;   69.925;  462.000;  468.000
272.289;   -4.250; -113.000; -181.000
272.429;   -7.325;   19.000;  185.000
272.570;  -97.875; -633.000; -737.000
272.710; -107.700; -825.000; -775.000
272.851;  -22.750;  113.000; -130.000
272.991; -158.525;-1173.000;-1077.000
273.131;  -69.550; -419.000; -459.000
273.272;  -96.125; -683.000; -723.000
273.412;   -6.650; -143.000;  -31.000
273.553;  -68.700; -488.000; -507.000
273.693;  112.800;  913.000;  858.000
273.834; -122.050; -894.000; -692.000
273.974;  -87.850; -664.000; -615.000
274.114; -108.475; -772.000; -560.000
274.255;   44.975;  414.000;  373.000
274.395;  -20.450; -180.000; -125.000
274.535;    3.725;  199.000;  350.000
274.676;   12.150;  225.000;   94.000
274.816;   -2.975;  110.000;   34.000
274.956;  -88.975; -624.000; -690.000
275.097;  -99.450;-1014.000; -922.000
275.237; -131.625; -913.000; -803.000
275.377; -104.775; -778.000; -689.000
275.517; -161.750; -878.000; -937.000
275.658;  -74.375; -590.000; -555.000
275.798;  -99.400; -606.000; -413.000
275.938;   20.200;  215.000;  323.000
276.078;  -90.250; -626.000; -395.000
276.218;    2.125;   99.000;  104.000
276.359; -140.225;-1026.000;-1024.000
276.499;  -77.200; -605.000; -446.000
276.639;  -42.000; -305.000; -151.000
276.779;  -46.000; -475.000; -357.000
276.919; -116.800; -783.000; -624.000
277.059;  -23.525; -261.000; -212.000
277.199;  -50.025; -357.000; -259.000
277.340;   39.300;  287.000;  175.000
277.480; -124.850; -840.000; -693.000
277.620;   19.425;  192.000;   16.000
277.760; -197.125;-1533.000;-1294.000
277.900;   11.750;  113.000;   33.000
278.040;   -8.150;  137.000;  159.000
278.180;   21.775;  270.000;  170.000
278.320;   -9.850;   21.000;   56.000
278.460;  -56.075; -443.000; -469.000
278.600;  -81.400; -708.000; -598.000
278.740;   31.825;  448.000;  224.000
278.880; -107.225; -768.000; -791.000
279.020;  -32.775; -194.000; -144.000
279.160;  -89.225; -672.000; -595.000
279.300; -106.700; -926.000; -873.000
279.440;  -94.875; -709.000; -622.000
279.579;  -85.625;-1014.000; -929.000
279.719;  -59.925; -410.000; -394.000
279.859;   35.550;   -4.000;   41.000
279.999;   -6.950; -208.000;  101.000
280.139;  -39.050; -435.000; -387.000
280.279;  -95.475; -708.000; -745.000
280.419;  -21.175; -229.000; -147.000
280.559;  -45.075; -259.000; -180.000
280.698;  -91.775; -790.000; -639.000
280.838; -121.225; -778.000; -800.000
280.978; -113.325; -846.000; -790.000
281.118; -114.175; -811.000; -704.000
281.257;   -2.875;   24.000;    6.000
281.397; -141.000;-1094.000; -960.000
281.537;  -96.100; -599.000; -712.000
281.677;  -29.825; -150.000; -101.000
281.816;  -85.800; -700.000; -630.000
281.956;  -41.700; -193.000; -257.000
282.096;  -72.150; -539.000; -396.000
282.235; -117.400; -672.000; -638.000
282.375;  -29.300; -243.000;  -98.000
282.515; -110.750; -715.000; -707.000
282.654;    2.225;   29.000;  106.000
282.794;   24.975;  388.000;  244.000
282.934;  -51.900; -530.000; -491.000
283.073; -139.475;-1030.000; -857.000
283.213;  -55.050; -460.000; -467.000
283.353;  -58.725; -408.000; -349.000
283.492;  -31.850; -264.000; -296.000
283.632;  -55.075; -254.000; -168.000
283.771; -102.375; -859.000; -730.000
283.911;  -72.100; -369.000; -260.000
284.050; -109.025; -794.000; -748.000
284.190; -154.900;-1229.000;-1096.000
284.329; -137.925;-1055.000; -964.000
284.469; -101.225; -516.000; -591.000
284.608;  -63.900; -559.000; -598.000
284.748;  -88.350; -614.000; -570.000
284.887;   -7.625;  -87.000;  -20.000
285.027; -133.250; -844.000; -892.000
285.166;  -43.050; -192.000; -249.000
285.306;  -11.650; -116.000;  -33.000
285.445;  -35.825; -229.000; -343.000
285.584;  -90.150; -630.000; -494.000
285.724;  -54.100; -282.000; -322.000
285.863; -123.925; -857.000; -507.000
286.002;  -47.325; -366.000; -276.000
286.142; -106.700; -715.000; -622.000
286.281;  -74.650; -525.000; -493.000
286.420; -100.125; -554.000; -417.000
286.560;   80.200;  653.000;  623.000
286.699; -143.925; -958.000; -912.000
286.838;  -73.725; -590.000; -591.000
286.978; -100.600; -533.000; -537.000
287.117; -139.275;-1085.000; -950.000
287.256;  -39.125; -228.000; -211.000
287.395;  -51.300; -197.000; -378.000
287.535;  -66.850; -370.000; -298.000
287.674;  -89.825; -509.000; -484.000
287.813;   42.725;  661.000;  533.000
287.952; -112.875;-1010.000; -871.000
288.091; -145.800;-1049.000; -915.000
288.231;   -9.975;   13.000;   15.000
288.370; -180.425;-1217.000;-1200.000
288.509;  -79.450; -728.000; -645.000
288.648;  -94.000; -770.000; -548.000
288.787;  -40.225; -243.000;  -87.000
288.926;  -61.300; -454.000; -475.000
289.065;  105.450;  859.000;  672.000
289.204;  -55.500; -377.000; -217.000
289.344;  -93.450; -791.000; -690.000
289.483;   -7.300;  416.000;  304.000
289.622;  -30.575; -291.000; -149.000
289.761;  -30.075; -309.000; -166.000
289.900; -108.375; -785.000; -626.000
290.039;  -20.550;  -12.000;  -95.000
290.178;  -47.575; -274.000; -180.000
290.317;  -94.600; -618.000; -479.000
290.456;  -71.125; -463.000; -451.000
290.595; -124.425; -961.000; -833.000
290.734; -149.075; -904.000; -891.000
290.873;  -77.325; -456.000; -420.000
291.011; -107.700; -833.000; -843.000
291.150; -111.675; -770.000; -682.000
291.289;  -39.675; -343.000; -110.000
291.428;  -93.600; -599.000; -480.000
291.567;  -64.475; -370.000; -442.000
291.706;  -19.975;  109.000;  154.000
291.845;  -89.925; -597.000; -505.000
291.984; -164.450;-1234.000;-1061.000
292.122;   63.475;  602.000;  582.000
292.261;   29.375;  620.000;  463.000
292.400;   -4.075; -144.000;  211.000
292.539; -111.950; -959.000; -813.000
292.678;  -41.450; -325.000; -300.000
292.816; -159.025;-1136.000; -965.000
292.955;  -98.300; -844.000; -684.000
293.094;  -44.475; -173.000; -337.000
293.233;  -49.675; -556.000; -400.000
293.371;  -42.725; -225.000;  -84.000
293.510;  -99.050; -866.000; -780.000
293.649; -133.000; -959.000; -924.000
293.787; -109.400;-1083.000;-1012.000
293.926;  -31.150; -113.000;  -32.000
294.065;  -46.500; -379.000; -290.000
294.203;   19.750;  298.000;  406.000
294.342;   29.775;   74.000;  156.000
294.481; 5984.350;51180.000; -836.000
294.619;  -36.625; -425.000; -582.000
294.758; -156.700;-1230.000;-1137.000
294.896;    6.650; -125.000;    5.000
295.035; -135.375;-1040.000;-1006.000
295.174; -129.725;-1082.000; -954.000
295.312;  -55.600; -323.000; -203.000
295.451;  -40.700; -307.000; -428.000
295.589;  -79.875; -389.000; -518.000
295.728;   -6.600; -292.000; -165.000
295.866;  -28.700;  -36.000;  -51.000
296.005;  -72.125; -584.000; -341.000
296.143;  -76.275; -558.000; -596.000
296.282; -119.025; -957.000; -881.000
296.420;  -94.875; -657.000; -557.000
296.559; -104.500; -892.000; -633.000
296.697;  -69.125; -847.000; -665.000
296.835;  -94.750;-1141.000;-1002.000
296.974;    2.700;  -23.000;   39.000
297.112;  -47.625; -443.000; -504.000
297.251; -100.000; -815.000; -755.000
297.389;  -30.150; -576.000; -438.000
297.527;  -12.700; -145.000;  -83.000
297.666;  -70.450; -486.000; -438.000
297.804;  -50.125; -404.000; -264.000
297.942;   -8.425; -136.000; -161.000
298.081;  -11.250; -183.000;   63.000
298.219;    3.300;  -17.000;  -19.000
298.357;  -19.950; -144.000;  -71.000
298.495;  -75.600; -810.000; -812.000
298.634;   12.750;  245.000;  219.000
298.772;  -34.725; -220.000; -338.000
298.910;  -58.900; -309.000; -182.000
299.048;  -20.675; -130.000; -153.000
299.187;  -48.875; -350.000; -250.000
299.325;    1.400;   52.000;  122.000
299.463;  -33.750; -389.000; -299.000
299.601;   -7.600; -327.000; -271.000
299.739; -149.900; -908.000; -883.000
299.877;  -91.000; -791.000; -703.000
300.016; -110.900;-1095.000; -935.000
300.154;   34.375;  -19.000; -161.000
300.292;  -53.600; -428.000; -348.000
300.430;  -21.575; -408.000; -291.000
300.568; -117.875; -940.000; -874.000
300.706;  -75.975; -366.000; -469.000
300.844; -134.075;-1108.000; -979.000
300.982;   52.350;  246.000;  282.000
301.120; -123.800; -965.000; -866.000
301.258;  -91.350; -812.000; -705.000
301.396;  -14.725;  104.000;  -41.000
301.534;  -26.225; -218.000; -293.000
301.672;  -94.350; -664.000; -521.000
301.810;  -66.400; -613.000; -545.000
301.948;    7.400;   53.000;  149.000
302.086;  174.650; -250.000;  -32.000
302.224;  224.300; -610.000; -585.000
302.362;  -65.725; -558.000; -622.000
302.500; -116.925; -923.000; -893.000
302.638;   22.450;  128.000;  245.000
302.776;  -33.950; -352.000; -408.000
302.913;   58.425;  447.000;  236.000
303.051;  -17.000;  -86.000;  -23.000
303.189;   15.450;   90.000;  118.000
303.327;  -45.800; -341.000; -256.000
303.465;  -94.000; -832.000; -588.000
303.603; -105.300; -805.000; -604.000
303.740;   55.500;  417.000;  241.000
303.878;  -80.000; -800.000; -759.000
304.016; -112.700; -915.000; -790.000
304.154; -156.575;-1123.000;-1152.000
304.291;  -59.850; -505.000; -554.000
304.429;  -12.875;  102.000;   74.000
304.567; -133.550; -908.000; -893.000
304.705;  -63.900; -408.000; -515.000
304.842;  -31.200; -616.000; -540.000
304.980;   -0.075;  215.000;   35.000
305.118;  -30.275; -367.000; -365.000
305.255; -132.200; -945.000; -927.000
305.393;   31.650;  178.000;  239.000
305.531; -138.975;-1173.000; -956.000
305.668;  -73.575; -663.000; -582.000
305.806;    3.775; -358.000; -439.000
305.943;  -12.725; -629.000; -637.000
306.081;  -13.400; -378.000; -267.000
306.219; -108.225; -863.000; -748.000
306.356;   10.875;  158.000;   27.000
306.494;  112.375;  981.000;  761.000
306.631;   -8.600;  -11.000;  -55.000
306.769;  -40.225; -613.000; -485.000
306.906;  -39.250; -284.000; -258.000
307.044;  -58.025; -473.000; -488.000
307.181;  -76.225; -410.000; -332.000
307.319;    3.175;  112.000;   87.000
307.456; -173.025;-1191.000;-1153.000
307.594; -118.650; -980.000; -727.000
307.731;  -37.750; -371.000; -164.000
307.868;  -13.000;  -15.000;   20.000
308.006; -148.375; -961.000; -847.000
308.143;  -72.750; -618.000; -330.000
308.281;   28.300;  -37.000; -254.000
308.418;  -61.100; -748.000; -640.000
308.555; -100.850; -400.000; -250.000
308.693;  -81.850; -577.000; -573.000
308.830; -113.775; -712.000; -657.000
308.967;  -14.075; -215.000;  -95.000
309.105;  -45.625; -507.000; -396.000
309.242;  -23.875; -468.000; -367.000
309.379;   32.300; -577.000; -655.000
309.517; -106.350; -936.000; -948.000
309.654; -108.425; -910.000; -734.000
309.791;  -79.525; -662.000; -580.000
309.928; -125.375; -977.000; -914.000
310.065;  118.200;  819.000;  697.000
310.203;  -83.750; -825.000; -850.000
310.340;  -46.250; -465.000; -321.000
310.477;  -86.800; -412.000; -516.000
310.614;  -60.950; -383.000; -473.000
310.751;  -82.175; -427.000; -518.000
310.889;  -23.950;    1.000;   11.000
311.026; -151.625;-1161.000; -939.000
311.163;  -42.325; -386.000; -380.000
311.300;  -91.400; -512.000; -479.000
311.437;  -58.050; -658.000; -619.000
311.574; -143.300;-1226.000; -985.000
311.711;  -56.125; -595.000; -433.000
311.848;  -49.025; -380.000; -388.000
311.985;   10.750;  270.000;   93.000
312.122; -133.925; -932.000; -762.000
312.259; -125.375; -941.000; -994.000
312.396;  -85.025; -508.000; -551.000
312.533;  -78.850; -812.000; -790.000
312.670; -147.950;-1070.000; -898.000
312.807;  -34.500; -352.000; -367.000
312.944;  -77.025; -513.000; -611.000
313.081;  -18.300; -150.000; -415.000
313.218; -101.075;-1111.000; -867.000
313.355;  -15.200; -531.000; -449.000
313.492;  -37.700; -455.000; -292.000
313.629;  132.575;  815.000;  735.000
313.766; -158.975;-1176.000;-1008.000
313.902;  -16.475; -186.000;   21.000
314.039;  -65.775; -372.000; -289.000
314.176;   19.825;  286.000;  192.000
314.313;  -91.300; -569.000; -473.000
314.450;  -85.650; -788.000; -684.000
314.587;  -73.875; -468.000; -480.000
314.723;   -4.150;  -78.000;  130.000
314.860;   38.675;  318.000;  332.000
314.997;   18.925;  223.000;  142.000
315.134;  -53.350; -385.000; -368.000
315.270;  -20.975; -480.000; -496.000
315.407; -109.475;-1094.000; -967.000
315.544;  -44.300; -657.000; -538.000
315.681;  -61.075; -681.000; -565.000
315.817;   27.150; -133.000; -176.000
315.954;   43.575; -613.000; -392.000
316.091; -117.075;-1045.000;-1023.000
316.227;  -41.175;  -71.000; -179.000
316.364;   -5.000;   23.000;    6.000
316.500;  -49.650; -113.000; -300.000
316.637;  -35.975; -181.000; -302.000
316.774;  -93.825; -625.000; -358.000
316.910;  -89.700; -598.000; -629.000
317.047;  -85.750; -487.000; -351.000
317.183;  -57.675; -435.000; -566.000
317.320;   27.125; -367.000; -321.000
317.456;  -43.700; -733.000; -805.000
317.593;  -99.400; -598.000; -641.000
317.729;    7.725;  168.000;  -67.000
317.866; -196.925;-1434.000;-1285.000
318.002;  -98.875; -708.000; -948.000
318.139; -123.950; -883.000; -867.000
318.275; -111.875;-1003.000; -738.000
318.412;  -76.400; -517.000; -336.000
318.548;  -84.525; -751.000; -720.000
318.685; -108.000; -985.000; -888.000
318.821;  -90.200; -762.000; -735.000
318.957;  -36.025;   34.000;  -23.000
319.094;   29.175;  297.000;  154.000
319.230;  -95.275; -756.000; -742.000
319.367;  -16.200; -471.000; -520.000
319.503;  -33.775; -538.000; -436.000
319.639; -101.175; -877.000; -793.000
319.775; -110.525; -750.000; -685.000
319.912;  -73.625; -424.000; -519.000
320.048; -113.475;-1184.000;-1184.000
320.184;   77.975;   59.000;   70.000
320.321;  -52.875; -497.000; -467.000
320.457;   55.575;  475.000;  662.000
320.593;  -70.025; -375.000; -382.000
320.729; -109.375; -732.000; -734.000
320.866;  -78.825; -577.000; -635.000
321.002;  -86.600; -759.000; -809.000
321.138;  -44.675; -135.000; -211.000
321.274;   16.175; -148.000; -115.000
321.410;  -69.025; -585.000; -353.000
321.546; -121.450;-1011.000; -911.000
321.683;   30.225;  400.000;  185.000
321.819;  -16.725;  -48.000; -117.000
321.955; -115.600; -743.000; -722.000
322.091;  -67.600; -585.000; -540.000
322.227;  -43.225; -382.000; -202.000
322.363;  -40.450; -320.000; -215.000
322.499;  -56.050; -343.000; -331.000
322.635;   89.575;  636.000;  443.000
322.771;  -18.425; -139.000;   12.000
322.907;   45.675;  129.000;  327.000
323.043;  -52.400; -115.000; -206.000
323.179;  -62.825; -394.000; -363.000
323.315;  -65.950; -401.000; -371.000
323.451;   16.175; -328.000; -236.000
323.587;   40.700;  -60.000;  -77.000
323.723;  -58.825; -682.000; -601.000
323.859;  -33.000; -258.000;  -76.000
323.995;  -56.600; -467.000; -409.000
324.131; -132.600; -967.000; -892.000
324.267;  -46.425; -254.000; -276.000
324.402; -157.675; -960.000; -983.000
324.538;  -43.700; -279.000; -104.000
324.674;    2.050;  164.000;   77.000
324.810;   40.625;  226.000;  308.000
324.946;  -59.000; -810.000; -658.000
325.082;  -62.350; -568.000; -475.000
325.217;  -35.050;  -62.000;   16.000
325.353; -112.825; -764.000; -659.000
325.489;  -98.500; -540.000; -506.000
325.625;  -79.225; -579.000; -525.000
325.760;   66.375;  517.000;  376.000
325.896;   13.650; -515.000; -702.000
326.032;  -53.275; -403.000; -352.000
326.168;  -62.575; -462.000; -369.000
326.303;  -59.475; -352.000; -461.000
326.439;   -7.150; -336.000; -276.000
326.575;  -24.775; -190.000;  -29.000
326.710;  -12.000; -156.000;  -30.000
326.846;  -15.475;  146.000;  103.000
326.982;  -90.725; -530.000; -548.000
327.117;  -71.175; -481.000; -442.000
327.253;  -77.350; -745.000; -742.000
327.388; -157.725;-1137.000;-1153.000
327.524;  -95.475; -811.000; -578.000
327.659;  -24.525;  -58.000;  -22.000
327.795;  -15.825;   69.000;   45.000
327.931;  -93.900; -723.000; -499.000
328.066;  -35.025; -417.000; -276.000
328.202;  -30.625;   12.000; -129.000
328.337;   74.300;  957.000;  713.000
328.473;   28.500;  -12.000;  -74.000
328.608;  -20.600; -256.000; -267.000
328.743; -106.550; -799.000; -664.000
328.879;   10.175;  214.000;  114.000
329.014;  -34.550; -102.000; -122.000
329.150;  -82.975; -358.000; -483.000
329.285;  -81.175; -465.000; -466.000
329.421;  -57.450; -548.000; -246.000
329.556;  -28.100;  -36.000;   85.000
329.691;  -90.950; -633.000; -615.000
329.827;  -91.375; -626.000; -480.000
329.962;  -38.375;  131.000; -301.000
330.097;  -95.775; -673.000; -585.000
330.233;  -48.200; -410.000; -223.000
330.368; -124.250; -839.000; -628.000
330.503;  -18.275;    3.000;   98.000
330.638;  -31.775;  -93.000; -125.000
330.774;  -93.325; -609.000; -530.000
330.909;  -59.075; -434.000; -244.000
331.044;  -93.475; -714.000; -708.000
331.179; -181.200;-1217.000;-1109.000
331.315;   -5.725;   77.000;   20.000
331.450;   -5.475;  157.000;  285.000
331.585;  -90.250; -805.000; -706.000
331.720;  -94.750; -510.000; -460.000
331.855;   -5.300;  -35.000; -102.000
331.990;  404.400;   62.000;  138.000
332.126;  214.450; -110.000;   71.000
332.261;    2.500; -379.000; -265.000
332.396;   12.925; -135.000; -242.000
332.531;  -71.675;-1074.000;-1031.000
332.666;  104.350; -519.000; -363.000
332.801;  -89.375; -726.000; -807.000
332.936;   -2.350; -192.000; -122.000
333.071; -133.025; -870.000; -817.000
333.206;   14.900;  307.000;  379.000
333.341;    8.425;  344.000;  418.000
333.476;  -80.375; -627.000; -623.000
333.611;  -51.525; -251.000; -173.000
333.746;  -55.200; -381.000; -464.000
333.881; -123.700; -973.000; -935.000
334.016; -131.225; -936.000; -917.000
334.151; -133.225; -746.000; -702.000
334.286;   23.075;  152.000;  186.000
334.421;  -29.350; -125.000; -178.000
334.556;  -81.675; -611.000; -567.000
334.690;  -91.825; -631.000; -577.000
334.825;   51.600;  381.000;   83.000
334.960;  -65.350; -285.000; -413.000
335.095;    2.475;  135.000;  -91.000
335.230;  -89.800; -722.000; -738.000
335.365; -128.550;-1084.000; -990.000
335.499; -141.175;-1108.000;-1037.000
335.634;    6.425;    9.000;  534.000
335.769; -116.950; -755.000; -720.000
335.904;  -61.050; -603.000; -561.000
336.038;  -55.125; -735.000; -657.000
336.173; -120.100;-1206.000;-1194.000
336.308;    8.725; -116.000; -189.000
336.443;   35.925; -544.000; -634.000
336.577;  -51.525; -936.000; -787.000
336.712;   83.850;   -4.000;  -12.000
336.847;  -25.125; -724.000; -607.000
336.981;   66.875; -272.000; -208.000
337.116;  294.625;  615.000;  501.000
337.250;  125.850; -434.000; -421.000
337.385;  461.025; -297.000; -208.000
337.520;  235.225; -632.000; -603.000
337.654;  -42.900; -215.000; -126.000
337.789; -133.325; -989.000; -933.000
337.923;  -58.275; -104.000; -205.000
338.058; -115.275; -673.000; -738.000
338.192;  -74.050; -611.000; -488.000
338.327;  -14.725;  -18.000; -155.000
338.461;  -70.700; -299.000; -469.000
338.596;  -86.500; -780.000; -638.000
338.730;  -76.900; -767.000; -803.000
338.865;  155.450;  -46.000; -140.000
338.999;    9.600; -846.000; -702.000
339.134;   -9.425; -634.000; -536.000
339.268;   22.575; -741.000; -603.000
339.403;  545.675; -740.000; -775.000
339.537;  272.825; -894.000; -820.000
339.671;  -86.600; -829.000; -813.000
339.806;  -40.800; -556.000; -512.000
339.940;   39.075; -261.000; -235.000
340.074; -105.975; -685.000; -510.000
340.209;  -57.650; -351.000; -230.000
340.343; -104.400; -517.000; -573.000
340.477;  120.825;  998.000; 1036.000
340.612;   10.350;-1033.000; -900.000
340.746;  250.025; -199.000; -243.000
340.880; -104.250; -924.000; -785.000
341.014;  -26.850;  -45.000; -154.000
341.149; -132.025; -756.000; -718.000
341.283; -127.375; -839.000; -754.000
341.417; -140.875;-1124.000; -938.000
341.551;  -21.075; -768.000; -708.000
341.685;  -72.675; -633.000; -611.000
341.820;  -48.275; -562.000; -493.000
341.954;  -68.450; -218.000; -349.000
342.088; -150.900;-1102.000;-1019.000
342.222;   47.575;  565.000;  618.000
342.356;  -79.750; -395.000; -335.000
342.490; -134.550; -880.000; -841.000
342.624;  -58.450; -339.000; -242.000
342.758;  -55.975; -364.000; -312.000
342.892;  -96.275; -710.000; -585.000
343.026;  -54.175;  -58.000; -116.000
343.160;  -53.675; -426.000; -376.000
343.294;  -99.725; -474.000; -337.000
343.428;  -56.775; -488.000; -448.000
343.562;  -38.650; -172.000;  -23.000
343.696;  -48.400; -385.000; -314.000
343.830;  -62.125; -362.000; -356.000
343.964;  -34.875; -231.000; -168.000
344.098;  270.100;  199.000;   70.000
344.232;  230.400; -266.000; -127.000
344.366;   61.075; -567.000; -453.000
344.500;  -45.625; -665.000; -744.000
344.634;  -38.350; -324.000; -164.000
344.768;  -74.875; -531.000; -341.000
344.902;   -0.125;  278.000;  256.000
345.035;  -75.900; -556.000; -496.000
345.169; -137.850; -933.000; -656.000
345.303;  -57.175; -308.000; -482.000
345.437; -109.400; -826.000; -717.000
345.571;  -63.900; -675.000; -594.000
345.704;  -71.375; -309.000; -532.000
345.838;  -32.800; -331.000; -284.000
345.972;  -69.375; -543.000; -495.000
346.106;  253.175; -179.000; -190.000
346.239;  477.300; -312.000; -243.000
346.373;   -2.925; -343.000; -302.000
346.507; -131.475; -950.000; -962.000
346.640;   25.400;  -30.000;   13.000
346.774; -104.050; -650.000; -797.000
346.908;  -29.500; -138.000;  -11.000
347.041; -114.450; -646.000; -593.000
347.175;   -5.050;  259.000;   27.000
347.309; -100.850; -698.000; -628.000
347.442; -119.000; -883.000; -732.000
347.576;   98.600;  670.000;  668.000
347.709;   35.325; -123.000;  -52.000
347.843; -139.150; -933.000; -825.000
347.976;   16.225;  235.000;  294.000
348.110; -193.025;-1268.000;-1186.000
348.243; -119.675; -679.000; -772.000
348.377;   -7.100;  -26.000;   60.000
348.510;   39.325;  403.000;  540.000
348.644;  -66.900;  -37.000; -159.000
348.777;  -12.675;  180.000;  191.000
348.911;  -71.675; -142.000; -112.000
349.044;   73.075;  471.000;  448.000
349.178;  -43.900;-1069.000;-1006.000
349.311;   88.375;  141.000;  255.000
349.444;   24.450; -927.000; -813.000
349.578;  -20.675; -347.000; -200.000
349.711; -143.075; -959.000; -862.000
349.845;  -73.600; -661.000; -591.000
349.978; -170.100;-1224.000;-1137.000
350.111;  -94.925; -546.000; -612.000
350.244; -109.300; -596.000; -700.000
350.378;  -47.725; -392.000; -393.000
350.511;  -83.200; -393.000; -426.000
350.644; -113.550; -808.000; -806.000
350.778;    1.800;  168.000;  104.000
350.911;   -2.100;  134.000;  140.000
351.044;  -98.700; -685.000; -615.000
351.177;  -58.900; -321.000; -281.000
351.310;  -26.275;    3.000; -131.000
351.444; -110.375; -888.000; -788.000
351.577;   28.125;  140.000;   90.000
351.710;   65.450;  593.000;  417.000
351.843;  -40.500; -165.000;  -77.000
351.976;   -5.500;  149.000;  -79.000
352.109; -110.725; -621.000; -612.000
352.242;  -62.225; -464.000; -419.000
352.376;  -83.775; -580.000; -636.000
352.509;   25.500; -437.000; -356.000
352.642; -102.150; -654.000; -604.000
352.775;  -15.075; -141.000;  -98.000
352.908; -128.575; -933.000; -904.000
353.041; -109.225; -814.000; -824.000
353.174;  -65.550; -551.000; -424.000
353.307;  -96.600; -753.000; -764.000
353.440;   45.275;  541.000;  453.000
353.573; -100.475; -957.000;-1008.000
353.706;  -58.575; -384.000; -558.000
353.839;  -36.975; -264.000; -220.000
353.971;  -98.400; -657.000; -512.000
354.104; -111.825; -896.000; -835.000
354.237;  -78.125; -627.000; -662.000
354.370;  -90.500; -846.000; -879.000
354.503; -178.825;-1231.000;-1308.000
354.636;  -43.800; -529.000; -348.000
354.769; -137.875; -937.000; -860.000
354.902;  -27.300; -230.000; -139.000
355.034;  -24.625; -164.000; -220.000
355.167;  -25.750; -262.000; -162.000
355.300;  -64.825;-1061.000; -880.000
355.433; 1416.250;  -71.000;  -14.000
355.565; 2211.475; -402.000; -384.000
355.698;  575.175; -356.000; -296.000
355.831;   -5.525; -882.000; -801.000
355.964;    8.050; -285.000; -170.000
356.096;  -91.475; -856.000; -843.000
356.229;  -18.650; -523.000; -530.000
356.362;  509.200; -373.000; -266.000
356.494;  902.100; -229.000; -162.000
356.627;  311.575;  269.000;  377.000
356.760;  885.725;  120.000;   53.000
356.892; 1463.725; -286.000; -601.000
357.025;  329.575;  403.000;  389.000
357.157;  227.000; -167.000; -179.000
357.290; 1196.675; -856.000; -713.000
357.423;  361.150; -667.000; -556.000
357.555;   94.500; -217.000; -228.000
357.688;  124.825; -483.000; -364.000
357.820;  172.700; -870.000; -877.000
357.953; 1478.325; -563.000; -589.000
358.085;  220.200; -632.000; -612.000
358.218;   73.225;-1131.000; -932.000
358.350;   32.400;  -58.000;  312.000
358.483; -178.025;-1300.000;-1187.000
358.615; -133.175;-1182.000;-1078.000
358.747; -156.625;-1187.000;-1058.000
358.880;  -60.050; -810.000; -744.000
359.012;  -30.300; -376.000; -202.000
359.145;  -74.550; -480.000; -511.000
359.277;  -63.750; -962.000; -913.000
359.409; 1268.900;  536.000;  231.000
359.542;  261.375; -738.000; -688.000
359.674;    1.750;   46.000;   13.000
359.806;  -91.975; -565.000; -438.000
359.939;  -42.025; -617.000; -516.000
360.071;   32.375; -583.000; -579.000
360.203;  -27.875; -411.000; -364.000
360.335;   21.175;  164.000;  -16.000
360.468;   90.725; -249.000; -307.000
360.600; 1321.450; -547.000; -454.000
360.732; 4261.375; -546.000; -423.000
360.864;  637.825;-1216.000;-1044.000
360.996;   60.350; -516.000; -554.000
361.129;  -41.975; -389.000; -598.000
361.261;  -17.650;  110.000; -113.000
361.393;  -61.775; -252.000; -214.000
361.525;   -8.025;   94.000;  244.000
361.657; -119.475; -821.000; -703.000
361.789;  -28.500; -139.000; -155.000
361.921;  -33.825; -642.000; -593.000
362.053;   81.550;  524.000;  541.000
362.185;   -1.600;  288.000;   72.000
362.318; -122.325; -709.000; -705.000
362.450;   39.325;  294.000;  444.000
362.582;  -91.875; -913.000; -870.000
362.714;  -76.075; -353.000; -332.000
362.846; -103.375; -606.000; -490.000
362.978; -140.775; -941.000; -811.000
363.109;  -33.025; -161.000; -260.000
363.241;  133.400; -739.000; -749.000
363.373;  604.975; -649.000; -564.000
363.505; 1032.125; -186.000;  -91.000
363.637;  225.925; -787.000; -601.000
363.769; -147.300;-1067.000;-1080.000
363.901;  -78.175; -596.000; -654.000
364.033; -154.250;-1103.000;-1062.000
364.165;  -39.550; -283.000; -283.000
364.296;   95.125; -316.000; -177.000
364.428;  195.975;-1344.000;-1220.000
364.560;  -62.975; -679.000; -661.000
364.692;  -81.700; -738.000; -835.000
364.824;  -11.150; -588.000; -456.000
364.955;  508.950; -402.000; -564.000
365.087; 1711.300;-1097.000; -852.000
365.219;  102.275; -686.000; -816.000
365.351;  -62.425; -526.000; -572.000
365.482;   21.850;  300.000;  240.000
365.614;  -72.750; -402.000; -314.000
365.746; -108.975; -729.000; -752.000
365.877; -103.750; -706.000; -672.000
366.009;  422.425;  -35.000;  -62.000
366.141;  -34.725;-1249.000;-1134.000
366.272; -103.175; -803.000; -719.000
366.404; -125.350;-1005.000; -874.000
366.535;  -29.600; -139.000;  -12.000
366.667; -126.875; -644.000; -649.000
366.799;   27.425;  353.000;  203.000
366.930; -149.925; -862.000; -996.000
367.062;  207.925; -639.000; -613.000
367.193;  341.150; -872.000; -842.000
367.325;  -40.900; -580.000; -684.000
367.456;   -5.525; -246.000;   31.000
367.588;  242.650; -371.000; -318.000
367.719;   41.625;  -44.000;  -45.000
367.851;  -50.650; -222.000; -241.000
367.982; -125.850; -875.000; -732.000
368.113;  -12.050; -475.000; -358.000
368.245; -153.375; -960.000; -841.000
368.376;  -54.475; -254.000; -302.000
368.508;  -75.425; -188.000; -263.000
368.639; -160.825;-1166.000;-1034.000
368.770; -114.550; -670.000; -589.000
368.902; -118.350; -836.000; -926.000
369.033; -134.850; -906.000; -855.000
369.164;  -39.950; -720.000; -653.000
369.296; -109.425; -452.000; -601.000
369.427;  -47.500; -209.000; -144.000
369.558;  -75.000; -593.000; -377.000
369.689;  -84.100; -721.000; -569.000
369.821; -141.225; -951.000; -845.000
369.952;  -17.325;   42.000; -108.000
370.083;  -72.375; -229.000; -108.000
370.214; -103.850; -735.000; -650.000
370.345;  -25.300;   65.000;   81.000
370.477; -100.125; -810.000; -790.000
370.608;   21.525; -328.000; -264.000
370.739; -139.600;-1233.000;-1292.000
370.870; -124.300;-1102.000; -923.000
371.001;  -28.800; -378.000; -467.000
371.132;  -97.375; -754.000; -735.000
371.263;  -48.000;  -42.000; -148.000
371.394; -152.375; -841.000; -748.000
371.525;   11.475;  345.000;  225.000
371.657; -128.825; -808.000; -670.000
371.788;   17.600;  103.000;  199.000
371.919;   -0.025; -384.000; -304.000
372.050; 1232.975;  -91.000; -156.000
372.181;  358.425; -188.000; -294.000
372.311;   86.225;   42.000; -127.000
372.442;  -59.550; -457.000; -451.000
372.573;  -59.000; -444.000; -340.000
372.704; -150.625;-1008.000; -980.000
372.835;  -37.800; -228.000; -289.000
372.966;  -87.475; -646.000; -554.000
373.097;  -98.500; -575.000; -711.000
373.228;  -96.425; -717.000; -542.000
373.359;  -55.375; -824.000; -536.000
373.490;  143.575; -881.000; -727.000
373.620;  246.825;-1001.000; -803.000
373.751;  503.625; -332.000; -396.000
373.882;  190.950; -663.000; -733.000
374.013;  -43.875; -449.000; -262.000
374.143;  -80.375; -581.000; -659.000
374.274; -138.225; -987.000; -908.000
374.405;   53.525; -388.000; -276.000
374.536;   86.375; -526.000; -387.000
374.666;  245.450; -759.000; -807.000
374.797;  -20.500; -817.000; -868.000
374.928;  166.675; -710.000; -560.000
375.058;  169.525; -535.000; -500.000
375.189;    8.975;  -59.000;  -93.000
375.320; -126.975; -928.000;-1034.000
375.450;  -58.250; -625.000; -616.000
375.581;  -50.900; -526.000; -436.000
375.712;  -52.025; -574.000; -250.000
375.842;   -7.375; -438.000; -415.000
375.973;  -23.100; -554.000; -513.000
376.103; -108.825; -665.000; -648.000
376.234; -100.325; -531.000; -552.000
376.364; -131.975; -944.000; -867.000
376.495;  138.025;  925.000;  529.000
376.625;  -62.250; -472.000; -485.000
376.756;  -57.050; -709.000; -678.000
376.886; -138.700;-1178.000;-1026.000
377.017;  136.425;-1048.000;-1061.000
377.147;  650.325; -786.000; -782.000
377.278;   85.775;  174.000;  228.000
377.408; -122.300; -801.000; -815.000
377.538; -100.650; -707.000; -693.000
377.669;  -84.275; -537.000; -613.000
377.799; -113.425; -645.000; -635.000
377.929;  -83.275; -610.000; -428.000
378.060; -141.200; -781.000; -847.000
378.190;  -56.650; -726.000; -531.000
378.320;  -38.600; -401.000; -406.000
378.451;  -32.975; -131.000;  -22.000
378.581;  -43.175;  -67.000; -110.000
378.711;   95.375; 1035.000;  866.000
378.841;  -78.975; -533.000; -675.000
378.972; -122.350; -871.000; -751.000
379.102;  -70.225; -652.000; -579.000
379.232;  -57.925; -126.000;  -73.000
379.362; -131.225;-1001.000; -885.000
379.492;  -60.175; -373.000; -424.000
379.623;   40.050;    0.000;  111.000
379.753; -136.725;-1107.000; -974.000
379.883;   77.400;   59.000;  156.000
380.013; -104.275;-1081.000;-1017.000
380.143; -132.600;-1097.000;-1056.000
380.273; -120.925; -985.000; -861.000
380.403;    3.200; -344.000; -257.000
380.533;  -57.050; -651.000; -664.000
380.663;   13.400;  173.000;  128.000
380.793; -153.075;-1027.000;-1074.000
380.923;  -38.800; -103.000;  -34.000
381.053; -121.975; -613.000; -623.000
381.183;  -44.400; -106.000; -248.000
381.313;  -76.175; -656.000; -470.000
381.443;  -60.750; -692.000; -473.000
381.573;  -51.225; -402.000; -409.000
381.703; -100.175;-1249.000;-1095.000
381.833; -192.575;-1454.000;-1336.000
381.963;   16.675; -134.000;  -87.000
382.093;  366.450; -925.000; -909.000
382.223;   78.250; -713.000; -602.000
382.353; -108.350; -801.000; -608.000
382.482;    0.550;-1091.000; -964.000
382.612;  162.500; -872.000; -644.000
382.742;   77.600; -695.000; -622.000
382.872;  -30.325; -565.000; -551.000
383.002;    6.550;  347.000; -132.000
383.131;  -39.175; -226.000; -160.000
383.261;  -48.900; -706.000; -768.000
383.391;  321.200; -552.000; -377.000
383.521; 5101.400;  451.000;  263.000
383.650; 1472.575; -947.000; -904.000
383.780;   27.925; -783.000; -656.000
383.910;   69.925;  880.000;  802.000
384.039;  -82.050; -794.000; -656.000
384.169; -119.925;-1205.000;-1017.000
384.299;  -99.200; -650.000; -662.000
384.428; -127.025; -764.000; -680.000
384.558;  -78.325; -308.000; -275.000
384.687;  -77.325; -414.000; -334.000
384.817;   -7.925;   75.000;   -2.000
384.947;  -39.575; -234.000; -141.000
385.076;  147.050;  982.000;  912.000
385.206;   32.275;  369.000;  480.000
385.335;  -83.875; -549.000; -417.000
385.465; -112.700; -655.000; -663.000
385.594;   13.225;  -53.000;  -44.000
385.724;   13.625; -868.000; -838.000
385.853;   -5.375; -296.000; -270.000
385.982;  325.225; -743.000; -787.000
386.112;  654.350;-1052.000; -871.000
386.241;   -6.800; -307.000; -312.000
386.371;  -33.400; -174.000;  -87.000
386.500;  -69.675; -825.000; -789.000
386.629;   -4.200; -874.000; -817.000
386.759;   70.825;  -43.000;   68.000
386.888;  -24.450; -170.000; -250.000
387.017; -108.100; -648.000; -620.000
387.147; -103.950; -771.000; -798.000
387.276;  -77.975; -410.000; -397.000
387.405;  -52.625; -398.000; -342.000
387.535;  -78.225; -452.000; -361.000
387.664;  -66.075; -692.000; -620.000
387.793;  -40.450; -198.000; -113.000
387.922;  147.100;  255.000;  200.000
388.052;  -78.600; -576.000; -423.000
388.181;  -57.775; -342.000; -472.000
388.310; -120.400; -889.000; -710.000
388.439; -115.575; -749.000; -742.000
388.568;   28.100;  365.000;  244.000
388.697;  243.900; -756.000; -653.000
388.826;  -14.100; -768.000; -666.000
388.956;  -40.500; -285.000; -307.000
389.085;  -61.025; -347.000; -287.000
389.214; -123.200; -842.000; -872.000
389.343;  -84.525; -645.000; -413.000
389.472;  528.225;  126.000;  149.000
389.601;  627.075;   91.000;    0.000
389.730;  -19.750; -568.000; -687.000
389.859;   10.450;  226.000;   46.000
389.988;   12.950; -423.000; -408.000
390.117;   15.775; -168.000; -146.000
390.246;  -60.200; -331.000; -320.000
390.375;  -69.275; -673.000; -626.000
390.504; -103.525; -703.000; -621.000
390.633; -123.925; -672.000; -726.000
390.761; -106.050; -732.000; -645.000
390.890;  -48.975;   -4.000; -130.000
391.019;  -87.600; -421.000; -441.000
391.148; -139.450; -826.000; -855.000
391.277; -102.250; -576.000; -493.000
391.406; -137.775; -821.000; -805.000
391.534;    2.425;  574.000; -301.000
391.663; -101.775; -583.000; -645.000
391.792; -112.525; -673.000; -701.000
391.921;  -17.475;   -3.000;   15.000
392.050;  -17.075; -287.000; -228.000
392.178; -151.125;-1206.000;-1061.000
392.307;  -44.675; -758.000; -712.000
392.436;  -64.975; -427.000; -641.000
392.564;    2.350;  166.000;   -6.000
392.693; -125.075; -860.000; -682.000
392.822;  -12.300; -529.000; -534.000
392.950;  -57.875; -880.000; -714.000
393.079;   47.225; -188.000; -328.000
393.208;  -55.925; -488.000; -511.000
393.336;  -25.575; -170.000; -145.000
393.465;  -63.125; -317.000; -199.000
393.593;  -14.250;   62.000;   79.000
393.722; -154.500;-1121.000; -916.000
393.850;  -40.800; -188.000;  -61.000
393.979; -151.650; -926.000; -805.000
394.107;  -75.400; -517.000; -537.000
394.236;  -62.575; -570.000; -507.000
394.364;   98.600;  383.000;  206.000
394.493;   54.575; -911.000; -767.000
394.621;   -6.725; -955.000; -916.000
394.750; 1132.400; -873.000; -923.000
394.878; 4397.875; -247.000; -149.000
395.007; 6342.800; -721.000; -807.000
395.135;  552.875; -790.000; -721.000
395.263;  -61.700;-1038.000;-1040.000
395.392;    9.350;  -25.000; -107.000
395.520; -122.100; -818.000; -679.000
395.648; -130.250; -865.000; -915.000
395.777;  -90.275; -366.000; -405.000
395.905; -101.375; -449.000; -564.000
396.033;  -19.425;  217.000;  172.000
396.162;   92.875; -399.000; -453.000
396.290;  105.750;  -17.000;   -2.000
396.418;  -65.400; -555.000; -514.000
396.546; -120.125; -571.000; -466.000
396.674; -116.100; -850.000; -878.000
396.803;  -41.800;  -72.000;  -23.000
396.931;  -39.325; -179.000; -199.000
397.059; -131.725;-1026.000; -989.000
397.187; -144.975;-1026.000; -975.000
397.315; -161.225; -884.000; -649.000
397.443;  -99.125; -592.000; -443.000
397.572;  -95.750; -578.000; -424.000
397.700; -100.325; -607.000; -614.000
397.828;  -43.425;  120.000;  -90.000
397.956;  -46.950; -508.000; -478.000
398.084;  -40.375; -767.000; -626.000
398.212;   -8.275;  137.000;  124.000
398.340;  -26.225;  -56.000;  159.000
398.468;  -53.175; -390.000; -169.000
398.596; -170.275; -993.000; -953.000
398.724; -129.550; -762.000; -767.000
398.852; -159.675;-1024.000; -976.000
398.980;  -83.875; -560.000; -560.000
399.108; -114.625; -982.000; -735.000
399.236;   -7.700;   13.000;    8.000
399.363;  -18.800;  222.000;  196.000
399.491;  -76.525; -404.000; -398.000
399.619; -134.850; -829.000; -800.000
399.747; -112.875; -859.000; -771.000
399.875;   22.975;  220.000;  234.000
400.003;  -69.700; -359.000; -284.000
400.130; -107.100; -421.000; -341.000
400.258;  -40.625;  -83.000;   38.000
400.386;  -82.525; -352.000; -168.000
400.514; -101.675; -526.000; -587.000
400.641; -138.450; -928.000; -802.000
400.769; -151.525; -979.000; -888.000
400.897; -136.750; -838.000; -793.000
401.025;  -48.125; -166.000; -152.000
401.152;  -27.825;  220.000;   38.000
401.280;  -86.025; -430.000; -429.000
401.408; -131.400; -712.000; -576.000
401.535; -113.000; -735.000; -758.000
401.663; -208.000;-1134.000;-1054.000
401.790; -101.275; -514.000; -525.000
401.918;   15.675;  436.000;  405.000
402.046;  -27.750;  134.000;  122.000
402.173;  -56.275;  -18.000;    7.000
402.301;  -79.675; -519.000; -397.000
402.428;   19.350;  528.000;  383.000
402.556; -156.750;-1188.000; -913.000
402.683;  -47.750;  -20.000;   -1.000
402.811;  -33.375;  -37.000; -206.000
402.938;  -31.175;   20.000;   27.000
403.066;  -11.275; -574.000; -558.000
403.193;   72.025;  299.000;  239.000
403.321;   38.050; -396.000; -574.000
403.448;  106.175;   83.000;   27.000
403.575;   32.025;  -90.000;  -46.000
403.703; -113.125; -732.000; -557.000
403.830;  -64.200; -531.000; -496.000
403.957; -149.650;-1117.000;-1023.000
404.085;   17.450;  -61.000; -172.000
404.212;   90.575;  -50.000;   63.000
404.339;  426.050; -566.000; -306.000
404.467; 8874.675; -612.000; -524.000
404.594; 5350.200; -287.000; -227.000
404.721;  906.575; -869.000; -764.000
404.848;   97.825; -113.000; -202.000
404.976; -100.250; -856.000; -783.000
405.103;  -12.975;  -14.000;  -82.000
405.230;  -13.400;  190.000;  226.000
405.357;   32.350;  117.000;   44.000
405.484;  401.475;  -49.000;    5.000
405.612;  106.400; -548.000; -563.000
405.739;  -63.275; -488.000; -243.000
405.866;   61.350;  669.000;  385.000
405.993;  -74.250; -398.000; -102.000
406.120; -139.150; -801.000; -887.000
406.247;  -87.000; -323.000; -342.000
406.374;   91.575;  540.000;  629.000
406.501;  -93.775; -632.000; -702.000
406.628; -106.150; -621.000; -589.000
406.755; -135.175; -803.000; -620.000
406.882;  -59.500; -228.000; -277.000
407.009; -115.025; -719.000; -628.000
407.136;  -59.775; -480.000; -401.000
407.263;  -90.225; -939.000; -829.000
407.390; -107.950; -692.000; -614.000
407.517; -190.475;-1139.000;-1187.000
407.644;  -82.125; -332.000; -256.000
407.771;  -96.700; -249.000; -287.000
407.898;  -18.425;  168.000;  328.000
408.025;  -94.925; -421.000; -313.000
408.151;  -19.575;   82.000;  153.000
408.278;  -78.800; -267.000; -216.000
408.405; -143.625; -931.000; -899.000
408.532; -102.075; -549.000; -542.000
408.659; -122.750; -677.000; -648.000
408.785; -197.300;-1298.000;-1170.000
408.912;  -67.500; -412.000; -296.000
409.039; -126.500; -610.000; -686.000
409.166; -116.100; -591.000; -555.000
409.292; -125.225; -571.000; -534.000
409.419; -112.275; -665.000; -649.000
409.546;  -87.100; -431.000; -192.000
409.672; -119.450; -713.000; -545.000
409.799;  -49.625;  -36.000;   34.000
409.926;  -62.175; -180.000; -179.000
410.052; -180.775;-1127.000;-1091.000
410.179;  -87.900; -368.000; -392.000
410.305; -111.500; -375.000; -493.000
410.432;  -51.275; -220.000; -333.000
410.558;  -98.800; -305.000; -380.000
410.685; -103.475; -688.000; -431.000
410.812; -109.800; -409.000; -588.000
410.938; -143.250; -964.000; -808.000
411.065; -116.825; -671.000; -645.000
411.191;  -41.975; -189.000; -174.000
411.317; -140.700; -823.000; -742.000
411.444;  -83.475; -317.000; -246.000
411.570;  -89.075; -339.000; -294.000
411.697; -124.900; -758.000; -752.000
411.823; -196.200; -989.000; -999.000
411.949;  -52.325;  -56.000;   17.000
412.076; -136.625; -539.000; -519.000
412.202; -122.400; -758.000; -757.000
412.329; -149.150; -798.000; -752.000
412.455; -124.000; -821.000; -657.000
412.581;  -29.300;  -15.000;  172.000
412.707; -105.900; -540.000; -457.000
412.834;  -11.875;  156.000;  219.000
412.960; -106.400; -785.000; -784.000
413.086; -122.075; -743.000; -701.000
413.212;   98.475;  604.000;  578.000
413.339; -113.250; -685.000; -701.000
413.465;  -57.100; -364.000; -310.000
413.591; -119.725; -757.000; -474.000
413.717;  -59.275; -358.000; -366.000
413.843; -135.200; -839.000; -861.000
413.969;  -50.000;  -47.000; -292.000
414.096;  -98.850; -679.000; -679.000
414.222;  -18.225;  -33.000;   85.000
414.348;  -85.250; -652.000; -385.000
414.474;   -1.825;   38.000;  -52.000
414.600;  -27.725; -126.000; -144.000
414.726;  -10.475;  -96.000;  -55.000
414.852;  -48.125; -365.000; -342.000
414.978;   46.425;  104.000;  -18.000
415.104;   43.625;   38.000;   80.000
415.230;   37.150; -329.000; -330.000
415.356;   42.050; -409.000; -514.000
415.482;  215.625;   13.000;  -35.000
415.608;  376.875; -247.000; -323.000
415.734; 1297.275;   67.000;   38.000
415.860;27072.525; -875.000; -767.000
415.986;21799.675; -685.000; -607.000
416.111; 2012.450; -798.000; -652.000
416.237;  456.450; -424.000; -571.000
416.363; 1664.750; -765.000; -733.000
416.489; 6567.550; -324.000; -251.000
416.615;  877.150; -707.000; -742.000
416.741;   38.700; -677.000; -784.000
416.866;  -73.375; -673.000; -736.000
416.992; -101.050; -801.000; -818.000
417.118;  -43.750;  -41.000;  -80.000
417.244;  -81.050; -798.000; -531.000
417.369;  -77.750; -801.000; -612.000
417.495;  -15.750; -325.000; -254.000
417.621;  -99.500;-1015.000; -803.000
417.746;   11.725; -579.000; -572.000
417.872;   55.100; -254.000; -144.000
417.998;  117.650; -515.000; -530.000
418.123; 1526.875;-1073.000; -845.000
418.249; 8381.725; -512.000; -601.000
418.374; 1385.575; -916.000; -824.000
418.500;  204.900; -383.000; -482.000
418.626;  152.950;   70.000;  -59.000
418.751;  123.025; -549.000; -448.000
418.877;  287.725; -637.000; -643.000
419.002; 2523.900; -688.000; -560.000
419.128;19137.425; -930.000; -721.000
419.253; 5298.475; -967.000; -837.000
419.379;  723.900; -391.000; -338.000
419.504;  572.525;  325.000;  415.000
419.629;  806.075; -393.000; -212.000
419.755; 5332.825; -317.000; -254.000
419.880;34261.600;  -98.000;   67.000
420.006;17168.950; -280.000; -221.000
420.131;42644.200; -662.000; -775.000
420.256; 6779.675; -315.000; -316.000
420.382;  922.000; -665.000; -687.000
420.507;  150.150; -649.000; -778.000
420.632;   34.950; -337.000; -339.000
420.758;   25.575; -251.000; -425.000
420.883;  -98.950; -876.000; -672.000
421.008; -112.400; -775.000; -619.000
421.133;  -98.625; -509.000; -467.000
421.259;  -54.650; -325.000; -259.000
421.384; -147.825; -834.000; -693.000
421.509; -113.925;-1052.000; -862.000
421.634;  135.125; -936.000; -820.000
421.759;   65.925; -359.000; -327.000
421.885; -103.200; -717.000; -656.000
422.010; -100.625; -673.000; -542.000
422.135; -154.400; -695.000; -727.000
422.260;   12.725;  340.000;  280.000
422.385;  -60.900;   12.000;  -98.000
422.510;   -9.350;  151.000;  -26.000
422.635;  -29.425;  -87.000;  -43.000
422.760;  -27.800; -766.000; -791.000
422.885;   27.225;  -57.000;  -80.000
423.010;  -45.850; -112.000; -169.000
423.135; -108.550; -481.000; -561.000
423.260;  -52.975; -150.000; -245.000
423.385;   14.975;  476.000;  222.000
423.510;    8.350;   71.000;  -22.000
423.635;    3.000;  133.000;   45.000
423.760;   32.325;  383.000;  328.000
423.885;   23.250;  336.000;  391.000
424.010;  -18.925;  -68.000;  -13.000
424.135;  -44.975;    5.000;  -33.000
424.259;  -84.125; -654.000; -457.000
424.384;  -58.175; -279.000; -272.000
424.509;  -27.325; -260.000; -186.000
424.634; -102.075; -761.000; -623.000
424.759;  -31.225; -688.000; -544.000
424.883;   -3.225; -506.000; -527.000
425.008;  190.200; -502.000; -410.000
425.133; 2819.675; -679.000; -653.000
425.258; 1479.725; -517.000; -381.000
425.382;  494.950; -867.000; -774.000
425.507; 1111.925; -487.000; -543.000
425.632;  348.525; -802.000; -663.000
425.756;  694.450; -256.000; -146.000
425.881;10134.200; -831.000; -857.000
426.006;30694.775; -604.000; -355.000
426.130; 5002.825; -696.000; -508.000
426.255;  663.425; -611.000; -491.000
426.379;  266.025; -189.000; -577.000
426.504;  492.725;  660.000;  544.000
426.629; 5539.150; -519.000; -466.000
426.753; 4261.150;   64.000;  -46.000
426.878;  521.500; -252.000; -288.000
427.002;  284.800; -651.000; -668.000
427.127; 2054.550;  -35.000; -158.000
427.251;17045.475;  372.000;  401.000
427.375; 5398.750; -191.000; -173.000
427.500; 1273.975; -616.000; -610.000
427.624;  393.600; -234.000; -400.000
427.749;   62.500; -216.000; -225.000
427.873;  -30.300; -499.000; -412.000
427.997;  -42.075; -222.000; -230.000
428.122;   35.200;  795.000;  703.000
428.246;   30.525;  433.000;  434.000
428.371; -148.150; -869.000; -773.000
428.495; -109.375; -624.000; -646.000
428.619;  -54.075; -186.000; -117.000
428.743;   -1.175;   65.000;  132.000
428.868;  -84.925; -732.000; -643.000
428.992;  465.300; -219.000; -326.000
429.116;  155.800; -329.000; -357.000
429.240;   92.625;  419.000;  426.000
429.365;  -56.775; -454.000; -574.000
429.489;  -57.650; -638.000; -647.000
429.613;    8.925; -236.000; -177.000
429.737;   84.175; -563.000; -432.000
429.861;  357.200; -247.000; -133.000
429.985; 7852.500; -425.000; -305.000
430.109; 9713.650; -770.000; -908.000
430.234; 1178.450;   76.000;  -50.000
430.358;  124.425; -250.000; -160.000
430.482;  -51.775; -672.000; -564.000
430.606;  -72.525; -655.000; -375.000
430.730;  -73.200; -437.000; -388.000
430.854; -105.150; -909.000; -835.000
430.978;  -94.500; -795.000; -764.000
431.102; -110.375; -499.000; -422.000
431.226; -134.350; -874.000; -815.000
431.350;    6.050;  345.000;  422.000
431.474;  -97.750; -661.000; -373.000
431.597; -171.350;-1060.000; -848.000
431.721;  -69.200; -276.000; -267.000
431.845; -132.675; -704.000; -472.000
431.969;  -88.625; -304.000; -349.000
432.093; -107.625; -395.000; -317.000
432.217;  -28.875;   32.000;   82.000
432.341; -104.750; -523.000; -518.000
432.464;  -24.025;   96.000;   40.000
432.588;  -35.800; -401.000; -329.000
432.712;    3.400;  -52.000;  -52.000
432.836;   46.025;  213.000;  263.000
432.959;    2.725; -372.000; -311.000
433.083;  141.625;   11.000;    2.000
433.207;  549.250;  285.000;  930.000
433.330; 7623.675; -391.000; -200.000
433.454;10259.400; -654.000; -638.000
433.578; 5694.825;  583.000;  278.000
433.701; 1181.350; -623.000; -675.000
433.825;  127.675; -292.000; -299.000
433.949;   51.075;   28.000;  -72.000
434.072;  -35.150; -410.000; -323.000
434.196;  -11.600; -309.000; -117.000
434.319; 3560.050;25482.000;25124.000
434.443;  868.675; -656.000; -603.000
434.566; 4025.575;  281.000;   62.000
434.690;  851.700; -637.000; -383.000
434.813;  133.375; -251.000; -173.000
434.937;  -52.925; -569.000; -696.000
435.060;  -92.325; -423.000; -332.000
435.184;  -22.625; -492.000; -217.000
435.307;  -14.175;  159.000;  102.000
435.431;  -33.625;  -40.000;   24.000
435.554;  -90.100; -399.000; -240.000
435.677;  -99.150; -350.000; -258.000
435.801;  -73.725;  -25.000;   49.000
435.924;  -49.550;    1.000;  -67.000
436.048; -166.200;-1019.000; -732.000
436.171;  -61.200; -240.000;  -66.000
436.294;  -15.475; -248.000; -229.000
436.417;  211.500; -963.000; -849.000
436.541;  -36.325; -814.000; -840.000
436.664;  -63.175; -242.000; -316.000
436.787;  -37.500;   13.000;  113.000
436.910; -127.350; -792.000; -422.000
437.034;  -26.925;  142.000;  143.000
437.157;   -8.500;  -11.000;    0.000
437.280;  -92.325; -392.000; -292.000
437.403; -152.475; -982.000; -869.000
437.526;  -25.050; -903.000; -865.000
437.649;  401.575; -505.000; -332.000
437.772;  -41.225; -692.000; -540.000
437.896;   57.725;  700.000;  544.000
438.019; -125.850; -758.000; -503.000
438.142; -121.975; -596.000; -506.000
438.265; -138.825; -639.000; -670.000
438.388;   11.700; -520.000; -410.000
438.511;  -84.750; -597.000; -394.000
438.634;  -84.175; -247.000; -125.000
438.757; -153.650; -693.000; -619.000
438.880;  -45.250;  -34.000;  -57.000
439.003; -118.075; -417.000; -437.000
439.126;  -66.975; -287.000; -167.000
439.248;  -76.625;  -98.000; -139.000
439.371;  -58.175;    9.000;  -53.000
439.494;   19.150;  510.000;  439.000
439.617;  -53.800;   65.000;  -88.000
439.740; -174.200; -968.000; -816.000
439.863; -143.325; -755.000; -595.000
439.986; -130.725; -476.000; -431.000
440.108;  -51.825; -161.000; -112.000
440.231; -167.650; -950.000; -836.000
440.354;  -66.975;  -64.000; -150.000
440.477; -128.250; -566.000; -542.000
440.599;  -95.850; -200.000; -225.000
440.722; -134.825; -709.000; -586.000
440.845;   57.025;  751.000;  928.000
440.968; -123.650; -415.000; -311.000
441.090;  -69.475; -199.000;  -33.000
441.213; -190.675;-1021.000; -825.000
441.336;  -53.225; -159.000;   -5.000
441.458; -106.100; -549.000; -396.000
441.581; -137.675; -628.000; -629.000
441.703;  -73.800; -152.000;   13.000
441.826; -121.200; -557.000; -400.000
441.948;  -60.675;   56.000;   51.000
442.071;    5.225;  555.000;  424.000
442.193; -130.475; -531.000; -485.000
442.316;   -0.950;  152.000;   97.000
442.438;   63.775; -233.000;  -10.000
442.561;   59.800;  272.000;  262.000
442.683;   25.775; -809.000; -522.000
442.806;  234.400;   -8.000;   74.000
442.928; -126.525; -859.000; -604.000
443.051; -105.175; -577.000; -373.000
443.173; -103.325; -341.000; -339.000
443.295;  -92.725; -263.000; -371.000
443.418;  -96.150; -321.000;  -29.000
443.540;  -40.050; -106.000;   -4.000
443.662; -156.550; -563.000; -465.000
443.785;  -22.025;  335.000;  199.000
443.907; -109.600; -362.000; -208.000
444.029; -130.400; -767.000; -494.000
444.152; -143.275; -644.000; -554.000
444.274;  -52.225;  -18.000;  -24.000
444.396; -129.475; -461.000; -221.000
444.518; -135.375; -691.000; -454.000
444.640; -113.400; -268.000; -111.000
444.763;  -14.150;  388.000;  249.000
444.885; -131.025; -432.000; -392.000
445.007;  -54.800;   35.000;   86.000
445.129; -134.450; -610.000; -515.000
445.251; -113.550; -372.000; -439.000
445.373; -150.775; -537.000; -386.000
445.495;  -24.500;  242.000;  350.000
445.617;   18.825;  853.000;  753.000
445.739;  -83.475; -215.000;  -97.000
445.861;  -82.025; -245.000; -112.000
445.984;  -71.175; -267.000; -101.000
446.105;  -43.325; -418.000; -251.000
446.227;  101.500; -176.000;  -19.000
446.349;  -77.825; -358.000; -249.000
446.471; -132.950; -615.000; -448.000
446.593;  -96.850; -316.000;   19.000
446.715;  -42.725;  -67.000;   41.000
446.837;   29.050;  697.000;  832.000
446.959; -113.250; -457.000; -478.000
447.081; -144.025; -628.000; -518.000
447.203;   35.975;  862.000;  834.000
447.325;  -92.875; -270.000;   42.000
447.446;  -12.750;  286.000;  530.000
447.568; -167.600; -921.000; -803.000
447.690;  -95.675; -236.000; -245.000
447.812; -148.400; -798.000; -519.000
447.933;  -39.650;  155.000;  127.000
448.055;  -79.075; -306.000; -261.000
448.177;   10.125;   31.000;   79.000
448.299; -113.525; -935.000; -727.000
448.420;  -24.725;  -25.000;  159.000
448.542;  -63.875;   -3.000;   33.000
448.664;  -32.075;  109.000;  322.000
448.785;  -41.250;  265.000;   83.000
448.907; -111.150; -614.000; -353.000
449.028; -119.700; -771.000; -471.000
449.150;   41.050;  492.000;  589.000
449.272; -182.300;-1044.000; -913.000
449.393;    7.975;  612.000;  694.000
449.515; -146.850; -634.000; -581.000
449.636;  -87.675; -264.000; -155.000
449.758;   48.600;  763.000;  622.000
449.879;  -89.450; -498.000; -396.000
450.001;  -85.575; -149.000;  -49.000
450.122;  -41.350;  -95.000;  162.000
450.244;  -40.025;   37.000;  364.000
450.365;  -72.125; -495.000; -301.000
450.486;  -19.350;   80.000;  268.000
450.608;   44.275;  393.000;  326.000
450.729;   93.750;  578.000;  645.000
450.850;   77.300; -574.000; -466.000
450.972; 1182.975; -552.000; -389.000
451.093; 7831.075;  190.000;  588.000
451.214; 3985.400; -516.000; -337.000
451.336;  690.375;  773.000;  579.000
451.457;  100.025;  264.000;  393.000
451.578;  -21.300; -118.000;  -74.000
451.699; -118.225; -546.000; -540.000
451.821;  -50.325; -284.000;  -50.000
451.942;   -3.150;  278.000;  285.000
452.063;   51.500;  228.000;  419.000
452.184;  793.800;  -54.000;  -49.000
452.305; 1697.100;  103.000;  170.000
452.427;  292.025; -549.000; -301.000
452.548;   12.675;   23.000;   79.000
452.669;  -82.300; -257.000;  -89.000
452.790;  -68.775;    3.000;  -18.000
452.911;  -35.475;  195.000;  259.000
453.032;  -94.475; -289.000;  -60.000
453.153;  -65.500;  -29.000;   81.000
453.274;   35.275;  737.000;  868.000
453.395;  -66.875;  -51.000;  175.000
453.516;   91.025; 1317.000; 1388.000
453.637; -114.000; -205.000; -150.000
453.758;  -53.800;   15.000;   69.000
453.879; -124.350; -462.000; -250.000
454.000;   54.325; 1086.000;  948.000
454.121; -137.650; -554.000; -326.000
454.242; -128.125; -599.000; -383.000
454.362;  -81.800;  -99.000;  114.000
454.483;  -23.825; -309.000; -229.000
454.604;   45.100;  512.000;  580.000
454.725; -135.400; -627.000; -555.000
454.846; -140.525; -474.000; -406.000
454.967;  -34.325;  230.000;  539.000
455.087;  -48.525;  179.000;  153.000
455.208;   -1.500;  554.000;  856.000
455.329;  -66.750;  -22.000;   82.000
455.450;   69.575;  473.000;  633.000
455.570;  -73.100; -234.000; -211.000
455.691;  -47.500;  201.000;  407.000
455.812; -112.475; -270.000;  -92.000
455.932;  -56.075;  107.000;  -97.000
456.053;  -83.500;   36.000;   24.000
456.173; -104.850; -433.000; -355.000
456.294; -153.275; -476.000; -303.000
456.415;  -58.800;  -73.000;   70.000
456.535;  -54.875;  297.000;  273.000
456.656;  -55.500;  132.000;  240.000
456.776;  -78.350;    3.000;  298.000
456.897;   -9.700;  308.000;  513.000
457.017;  -85.175; -153.000;   -3.000
457.138; -104.850; -402.000; -249.000
457.258;  -38.525;  263.000;  224.000
457.379;  -14.775;  509.000;  521.000
457.499;  -43.250;  443.000;  432.000
457.620; -125.550; -407.000; -231.000
457.740; -110.375; -132.000;  -11.000
457.860;  -59.650;   87.000;   44.000
457.981;  -52.725;  132.000;  124.000
458.101;  -59.175;  -89.000;   40.000
458.221;  -31.350;  336.000;  402.000
458.342;  -57.075;   -4.000;  -37.000
458.462;   57.650;  617.000;  352.000
458.582;   22.550; -302.000; -294.000
458.703;   59.050;  303.000;  154.000
458.823;   16.300;   22.000;  163.000
458.943;   40.900;  341.000;  467.000
459.063;    8.275; 1124.000;  192.000
459.183;  -30.975;  328.000;  313.000
459.304;   19.350;  315.000;  517.000
459.424;  -40.200; -246.000;  -89.000
459.544;  474.500;  388.000;  764.000
459.664; 1297.375;  499.000;  506.000
459.784;  485.975; 1004.000; 1175.000
459.904;   73.525;  867.000;  744.000
460.024;   61.975;  867.000;  684.000
460.144;  -13.150;  449.000;  554.000
460.264;  -15.250;  515.000;  327.000
460.385;  -92.350; -145.000; -119.000
460.505;   23.325;  905.000;  858.000
460.625; -113.675;  -17.000;  -68.000
460.745;  -27.025;  396.000;  541.000
460.864;  -41.400;  153.000;  469.000
460.984;   15.575;  499.000;  573.000
461.104;  140.925; 1656.000; 1775.000
461.224;    6.325;  657.000;  650.000
461.344;  -47.375;  431.000;  360.000
461.464;  -47.075;  258.000;  513.000
461.584;  -38.750;  283.000;  466.000
461.704;  -73.300;   58.000;  108.000
461.824;  -58.875;  238.000;  259.000
461.943;  -44.625;  191.000;  130.000
462.063;  -85.075;    2.000;  324.000
462.183;    2.100;  639.000;  717.000
462.303;   76.625; 1678.000; 1230.000
462.422;   21.950;  781.000;  840.000
462.542;  -44.175;  271.000;  391.000
462.662;   33.125;  353.000;  380.000
462.782;  336.275;  833.000;  572.000
462.901;  712.800;  545.000;  717.000
463.021;  372.575; 1702.000; 1638.000
463.141;   10.050;  337.000;  770.000
463.260;  -33.825;  614.000;  474.000
463.380;   23.000;  902.000;  884.000
463.499;  -31.275;  342.000;  332.000
463.619;  -30.125;  581.000;  559.000
463.738;   85.400; 1644.000;  903.000
463.858;    5.300;  657.000;  811.000
463.978;  -50.850;  542.000;  396.000
464.097;   48.475;  921.000; 1114.000
464.217;  145.225; 1196.000; 1143.000
464.336;  149.450; 1068.000; 1130.000
464.455;  -38.200;  328.000;  659.000
464.575;   -3.700;  597.000;  602.000
464.694;  117.075; 1204.000; 1179.000
464.814;  159.550; 1190.000; 1138.000
464.933;   76.800; 1095.000; 1027.000
465.052;   92.800; 1412.000; 1054.000
465.172;   59.475;  922.000;  799.000
465.291;  110.525; 1376.000; 1320.000
465.410;   -3.125;  462.000;  735.000
465.530;   73.550; 1355.000; 1310.000
465.649;   46.200; 1209.000; 1273.000
465.768;  124.750; 1673.000; 1508.000
465.888;   52.575;  941.000; 1174.000
466.007;   97.800; 1335.000; 1440.000
466.126;  -17.825;  721.000;  641.000
466.245;   50.525; 1176.000; 1187.000
466.364;    6.850;  950.000; 1060.000
466.484;   52.650; 1024.000; 1213.000
466.603;   18.525; 1101.000; 1222.000
466.722;   90.850; 1490.000; 1769.000
466.841;   39.625; 1151.000; 1401.000
466.960;   41.575; 1069.000;  972.000
467.079;  107.325; 1971.000; 1786.000
467.198;   43.600; 1238.000; 1181.000
467.317;   84.425; 1768.000; 1162.000
467.436;   59.125; 1709.000; 1261.000
467.555;  113.700; 1796.000; 1746.000
467.674;   69.100; 1227.000; 1329.000
467.793;   39.175; 1376.000; 1374.000
467.912;   86.300; 1658.000; 1539.000
468.031;  113.675; 2038.000; 1930.000
468.150;  130.550; 1842.000; 1837.000
468.269;  167.875; 2313.000; 2090.000
468.388;  187.800; 2168.000; 2339.000
468.507;  241.875; 2884.000; 2903.000
468.626;  260.325; 2555.000; 2541.000
468.744;  129.775; 2018.000; 2174.000
468.863;  200.425; 2312.000; 2523.000
468.982;   97.300; 1503.000; 1555.000
469.101;  219.750; 2788.000; 2692.000
469.220;  131.600; 2333.000; 2176.000
469.338;  245.475; 2935.000; 3051.000
469.457;  176.375; 2719.000; 2545.000
469.576;  365.925; 3953.000; 3784.000
469.695;  215.125; 2877.000; 3066.000
469.813;  419.750; 4148.000; 4192.000
469.932;  398.500; 4255.000; 4485.000
470.051;  413.725; 4075.000; 4161.000
470.169; 1029.350; 4470.000; 4338.000
470.288; 1995.200; 4700.000; 4809.000
470.406; 1148.000; 5059.000; 5194.000
470.525;  681.825; 6101.000; 5787.000
470.644;  651.475; 6847.000; 6794.000
470.762;  812.800; 8397.000; 7873.000
470.881;  911.325; 8651.000; 8464.000
470.999; 1082.150; 9685.000; 9151.000
471.118; 1125.225;11174.000;10711.000

