
Integration time [ms]: 200.000
Averaging Nr. [scans]: 10
Smoothing Nr. [pixels]: 0
Data measured with spectrometer [name]: 2101012U2
Wave   ;Sample   ;Dark     ;Reference
[nm]   ;[counts] ;[counts] ;[counts] 

197.733;  115.300;  516.000;  404.000
197.879; -133.600; -610.000; -634.000
198.025; -111.000; -475.000; -420.000
198.171; -157.600; -602.000; -612.000
198.317;  -65.100; -401.000; -316.000
198.463;  -95.300; -655.000; -404.000
198.609;   43.900;  181.000; -137.000
198.755; -157.500; -644.000; -410.000
198.901; -151.000; -505.000; -424.000
199.047; -125.000; -615.000; -488.000
199.193;  -97.600; -230.000; -468.000
199.339;  -85.300; -222.000; -369.000
199.485;   78.200;  330.000;  271.000
199.631;   53.400;  227.000;  310.000
199.777; -123.600; -466.000; -398.000
199.923; -120.700; -610.000; -424.000
200.069;   -4.300; -141.000;  -58.000
200.215;  140.600;  128.000;  453.000
200.361;   83.300;  243.000;  477.000
200.507; -119.000; -600.000; -373.000
200.653;  -25.500; -371.000; -194.000
200.798;  -71.700; -215.000; -125.000
200.944;  -29.800; -146.000;  -41.000
201.090;   92.300;   61.000;  222.000
201.236;  -35.800; -116.000; -158.000
201.382;  272.800;  874.000;  903.000
201.528;  -15.000;  -58.000;  -48.000
201.674;  -72.600; -386.000; -293.000
201.819; -144.600; -540.000; -439.000
201.965; -171.900; -699.000; -447.000
202.111;  -62.000; -273.000; -226.000
202.257;  -67.200; -250.000; -238.000
202.402;    7.600;   13.000;  -36.000
202.548;  -92.200; -169.000; -116.000
202.694;  168.900;  410.000; -183.000
202.840; -132.900; -603.000; -531.000
202.985; -132.000; -681.000; -639.000
203.131; -198.400; -832.000; -666.000
203.277;  -60.200; -199.000; -262.000
203.423;  -98.300; -434.000; -520.000
203.568;  -84.500; -462.000; -237.000
203.714; -103.000; -535.000; -542.000
203.860; -176.600; -682.000; -641.000
204.005;   40.900;  112.000;  167.000
204.151;  156.300;  561.000;  556.000
204.296; -102.500; -354.000; -221.000
204.442; -110.600; -600.000; -547.000
204.588; -164.100; -592.000; -579.000
204.733;   73.200;  178.000;  168.000
204.879; -263.700;-1018.000; -822.000
205.025;   38.300;  -99.000;  126.000
205.170;    1.600;  -17.000;   94.000
205.316;  155.300;  438.000;  661.000
205.461; -167.300; -698.000; -554.000
205.607;  185.600;  609.000;  665.000
205.752; -186.300; -626.000; -551.000
205.898; -101.600; -501.000; -391.000
206.043; -125.800; -578.000; -506.000
206.189;  -98.300; -243.000; -285.000
206.334;  214.000;  554.000;  606.000
206.480;  172.600;  409.000;  239.000
206.625; -139.800; -529.000; -552.000
206.771; -130.200; -451.000; -373.000
206.916;  -60.900; -210.000; -537.000
207.062; -189.400; -545.000; -591.000
207.207; -143.100; -546.000; -443.000
207.353;  148.600;  185.000;  460.000
207.498;   48.600;  196.000;   85.000
207.643; -130.200; -501.000; -370.000
207.789; -254.300;-1069.000; -910.000
207.934; -221.600; -665.000; -713.000
208.080;  -52.400; -154.000;   66.000
208.225;  -22.900;  -22.000;  -57.000
208.370; -158.700; -727.000; -619.000
208.516; -178.300; -741.000; -487.000
208.661;  -59.700; -127.000;  -69.000
208.806;  -62.300; -165.000; -171.000
208.952; -230.700;-1044.000; -731.000
209.097;  142.800;  378.000;  349.000
209.242;  -96.700; -307.000; -382.000
209.387;   87.500;  392.000;  350.000
209.533; -115.100; -321.000; -350.000
209.678;  147.300;  472.000;  543.000
209.823; -119.400; -408.000; -310.000
209.969; -206.700; -860.000; -757.000
210.114; -222.400; -907.000; -719.000
210.259; -245.700; -939.000; -889.000
210.404;   16.000; -171.000;  103.000
210.549;    7.200;  108.000;    3.000
210.695;  -28.300;   -3.000;  -95.000
210.840;   62.000;   94.000;   67.000
210.985; -153.600; -484.000; -303.000
211.130;  127.300;  268.000;  406.000
211.275;   41.100;  207.000;  199.000
211.420; -101.300; -300.000; -289.000
211.566; -129.200; -536.000; -489.000
211.711;   45.000;  218.000;  157.000
211.856; -118.500; -545.000; -519.000
212.001;    5.900;  151.000;   44.000
212.146;    7.100;  153.000;   49.000
212.291;  -41.800; -210.000; -186.000
212.436;  -24.300; -280.000;   -6.000
212.581; -163.100; -685.000; -653.000
212.726; -155.400; -487.000; -538.000
212.871; -122.900; -552.000; -217.000
213.016; -311.600;-1172.000;-1029.000
213.161;  107.100;  406.000;  291.000
213.306; -135.000; -435.000; -577.000
213.451; -201.600; -778.000; -689.000
213.596;  -86.800; -455.000; -347.000
213.741; -123.700; -448.000; -538.000
213.886; -164.500; -498.000; -517.000
214.031;  -35.300; -294.000; -124.000
214.176; -122.100; -408.000; -341.000
214.321;  -61.100; -296.000; -157.000
214.466;  -78.600; -163.000;  -43.000
214.611;   24.800;  -61.000;  -10.000
214.756; -215.400; -948.000; -858.000
214.901;  -52.200; -388.000; -226.000
215.046; -240.500; -797.000; -825.000
215.191;   52.400;  128.000;   35.000
215.336;  -38.600; -157.000;  -19.000
215.480; -129.800; -684.000; -505.000
215.625;  -29.900; -175.000;  -19.000
215.770; -180.100; -757.000; -662.000
215.915;   20.900;   -5.000;  -97.000
216.060;  -16.300; -113.000;  -21.000
216.205; -225.600; -731.000; -779.000
216.349; -151.400; -470.000; -533.000
216.494; -262.600; -939.000; -867.000
216.639; -217.700; -823.000; -888.000
216.784; -183.600; -577.000; -525.000
216.929;  121.400;  392.000;  281.000
217.073;  -13.800; -244.000;  -31.000
217.218;    3.600;   78.000;  -47.000
217.363; -154.300; -656.000; -618.000
217.507; -184.300; -623.000; -588.000
217.652; -254.400; -845.000; -874.000
217.797; -189.600; -708.000; -659.000
217.942; -191.200; -856.000; -720.000
218.086;  155.100;  608.000;  539.000
218.231;  -15.800; -174.000;  -26.000
218.376;  -52.300; -337.000; -229.000
218.520;   26.900;  -41.000;   96.000
218.665;  -83.800; -338.000; -204.000
218.810;  -76.800; -275.000; -233.000
218.954;   23.000;  201.000;   35.000
219.099; -216.600; -713.000; -963.000
219.243; -146.100; -589.000; -554.000
219.388;  -50.000; -264.000; -136.000
219.532;  -34.200; -116.000; -116.000
219.677; -165.400; -564.000; -521.000
219.822;   -1.400;   33.000;   89.000
219.966;   31.100;   17.000;  -99.000
220.111;  -62.300; -328.000;  -40.000
220.255; -210.400; -797.000; -750.000
220.400;  -48.100; -180.000; -146.000
220.544; -112.000; -516.000; -450.000
220.689; -116.200; -422.000; -451.000
220.833;  -33.500; -123.000;  -58.000
220.978;  -86.000; -393.000; -563.000
221.122;   88.000;  319.000;  307.000
221.267; -260.600; -906.000; -837.000
221.411; -132.100; -478.000; -394.000
221.555;    6.200; -104.000;  -23.000
221.700;  -92.500; -329.000; -222.000
221.844;   48.700;  255.000;  272.000
221.989;  -66.000; -328.000; -311.000
222.133;  -92.800; -289.000; -307.000
222.277;    6.100;    5.000;   78.000
222.422;   70.200;  227.000;  113.000
222.566;  -81.900; -381.000; -214.000
222.711; -116.900; -414.000; -479.000
222.855; -173.800; -643.000; -586.000
222.999; -155.100; -642.000; -717.000
223.144;  -33.000; -195.000; -194.000
223.288;   79.600;  423.000;  251.000
223.432;   44.100;  184.000;  230.000
223.576;   32.900;  152.000;  -21.000
223.721;  104.200;  364.000;  273.000
223.865; -113.700; -472.000; -475.000
224.009;  538.900; 1673.000; 1631.000
224.153; -187.100; -660.000; -671.000
224.298; -147.300; -531.000; -489.000
224.442;  -41.200;  -74.000;  -33.000
224.586;  -12.200; -169.000; -106.000
224.730; -202.300; -858.000; -670.000
224.875; -224.400; -739.000; -688.000
225.019;   28.900;  102.000;  188.000
225.163;  136.900;  208.000;  341.000
225.307;   37.000;   97.000;  -91.000
225.451;  100.900;  360.000;  481.000
225.595;   87.500;  264.000;  176.000
225.739;   -8.400; -170.000;  -94.000
225.884;   12.300;   86.000;    5.000
226.028; -200.500; -760.000; -626.000
226.172;  -53.700; -260.000; -273.000
226.316; -218.000; -941.000; -902.000
226.460; -156.300; -645.000; -493.000
226.604;  -95.100; -406.000; -400.000
226.748; -200.800; -836.000; -733.000
226.892;  -46.900; -227.000; -181.000
227.036; -100.900; -537.000; -447.000
227.180; -114.900; -551.000; -375.000
227.324; -108.400; -561.000; -580.000
227.468; -247.500; -819.000; -717.000
227.612;   34.600;  242.000;  -28.000
227.756; -194.200; -845.000; -698.000
227.900;  102.700;  342.000;  441.000
228.044; -109.900; -509.000; -290.000
228.188;  123.800;  448.000;  568.000
228.332; -164.100; -546.000; -472.000
228.476;  -48.700; -223.000; -149.000
228.620;  -38.500; -210.000; -150.000
228.764;  133.300;  431.000;  349.000
228.908;  -60.900; -155.000;   30.000
229.052; -114.300; -615.000; -528.000
229.195;  -30.100; -172.000;   13.000
229.339;  -60.600; -235.000; -305.000
229.483;  -57.800;    5.000; -162.000
229.627;   23.300; -156.000;  139.000
229.771; -101.300; -218.000; -294.000
229.915;   28.900;  230.000;   79.000
230.059; -182.900; -648.000; -663.000
230.202;  -83.500; -370.000; -317.000
230.346;  -51.800; -107.000;  107.000
230.490; -120.200; -489.000; -521.000
230.634; -213.700; -736.000; -553.000
230.777;  169.000;  478.000;  509.000
230.921; -113.500; -450.000; -359.000
231.065;  -79.700; -246.000; -286.000
231.209;   63.000;  261.000;  265.000
231.352;   11.300;   54.000;   40.000
231.496;   56.100;  568.000;  188.000
231.640; -143.700; -693.000; -621.000
231.783;  104.800;  546.000;  525.000
231.927; -101.700; -294.000; -365.000
232.071; -252.100; -962.000; -736.000
232.214; -251.300; -980.000; -764.000
232.358; -188.700; -683.000; -599.000
232.502;    1.800;  -19.000;    7.000
232.645; -278.600;-1090.000; -927.000
232.789;  -48.900; -257.000; -218.000
232.933;  -52.800; -407.000; -224.000
233.076; -248.800;-1038.000; -897.000
233.220; -213.300; -752.000; -777.000
233.363; -151.500; -669.000; -477.000
233.507;  108.800;  371.000;  129.000
233.650; -176.600; -764.000; -834.000
233.794;  135.500;  438.000;  461.000
233.938;  -96.100; -530.000; -362.000
234.081;  -29.800;  -93.000;   31.000
234.225; -141.500; -631.000; -539.000
234.368; -231.300; -773.000; -723.000
234.512;  -69.300; -385.000; -299.000
234.655; -184.900; -582.000; -555.000
234.798; -146.200; -493.000; -466.000
234.942; -257.800; -884.000;-1002.000
235.085; -175.700; -651.000; -443.000
235.229; -137.100; -405.000; -410.000
235.372;  -86.400; -247.000; -191.000
235.516; -127.300; -397.000; -321.000
235.659;   38.000;   92.000;  121.000
235.802;  -22.400;  -38.000;  -22.000
235.946;   63.500;  335.000;  215.000
236.089;   79.500;  126.000;  250.000
236.233;  130.900;  275.000;  298.000
236.376; -119.100; -235.000; -378.000
236.519; -102.400; -297.000; -319.000
236.663;  -48.300; -215.000; -117.000
236.806; -253.800;-1029.000; -999.000
236.949;  156.100;  543.000;  431.000
237.092;  145.200;  412.000;  391.000
237.236; -179.500; -589.000; -502.000
237.379;  119.500;  352.000;  428.000
237.522; -227.700; -879.000; -768.000
237.666;  -43.000; -271.000;   18.000
237.809; -244.900; -851.000; -823.000
237.952;   81.800;  469.000;  271.000
238.095; -132.800; -447.000; -442.000
238.238;  221.700;  688.000;  700.000
238.382;   19.200;  166.000;  103.000
238.525; -132.100; -598.000; -511.000
238.668; -264.300;-1060.000; -985.000
238.811; -148.200; -638.000; -643.000
238.954; -118.500; -483.000; -334.000
239.097;  205.300;  617.000;  664.000
239.241;   70.200;  394.000;  326.000
239.384;  -49.600; -254.000; -214.000
239.527; -136.500; -424.000; -224.000
239.670; -297.800; -994.000;-1091.000
239.813; -198.100; -696.000; -658.000
239.956;  202.000;  579.000;  473.000
240.099; -217.400; -778.000; -725.000
240.242;  147.200;  428.000;  432.000
240.385;  114.600;  466.000;  450.000
240.528; -157.900; -706.000; -473.000
240.671;   40.600;  189.000;  134.000
240.814;  -70.200; -441.000; -158.000
240.957; -200.700; -767.000; -578.000
241.100; -146.000; -779.000; -755.000
241.243; -296.700;-1234.000; -893.000
241.386; -158.700; -508.000; -379.000
241.529; -178.500; -735.000; -547.000
241.672; -130.600; -566.000; -495.000
241.815; -221.500; -832.000; -808.000
241.958;  -33.300; -125.000; -182.000
242.101; -143.900; -545.000; -390.000
242.244;  -81.900; -270.000; -325.000
242.387;  -76.900; -304.000; -246.000
242.530;  100.400;  470.000;  134.000
242.673; -102.900; -381.000; -309.000
242.815; -260.900; -925.000; -899.000
242.958; -132.600; -482.000; -381.000
243.101;   14.400;  132.000;  187.000
243.244; -154.500; -564.000; -521.000
243.387;  -82.800; -313.000; -316.000
243.530; -192.300; -657.000; -674.000
243.672;    1.600;   43.000;  -92.000
243.815;  -88.900; -355.000; -283.000
243.958;   28.300;   98.000;  -26.000
244.101;   -4.500;   59.000;  -16.000
244.243;  -14.900;  -47.000;  101.000
244.386; -209.000; -761.000; -630.000
244.529;  -70.900; -132.000; -139.000
244.672; -303.000;-1154.000; -951.000
244.814; -190.000; -621.000; -794.000
244.957; -100.900; -380.000; -304.000
245.100; -160.900; -489.000; -489.000
245.242; -131.400; -387.000; -374.000
245.385;  -20.100;  -59.000;  -39.000
245.528; -221.100; -871.000; -705.000
245.670;  177.800;  612.000;  634.000
245.813; -154.500; -599.000; -547.000
245.956;  -52.500; -324.000; -275.000
246.098; -148.100; -508.000; -650.000
246.241;   27.600;  194.000;   48.000
246.383;  -29.700; -119.000;  -73.000
246.526; -158.900; -454.000; -525.000
246.669; -248.200; -889.000; -780.000
246.811;   71.600;  172.000;   -1.000
246.954; -142.000; -512.000; -426.000
247.096;  -46.700;  -84.000;   -6.000
247.239; -122.600; -482.000; -445.000
247.381; -150.700; -647.000; -488.000
247.524;  181.800;  645.000;  679.000
247.666;  -14.500;   58.000;   11.000
247.809; -246.800; -887.000; -691.000
247.951;  -24.300;  -75.000;  138.000
248.094;   76.300;  432.000;  308.000
248.236; -334.400;-1262.000;-1238.000
248.378;  -20.900; -356.000;  -81.000
248.521;  -28.500; -334.000; -337.000
248.663;  -78.100; -236.000; -267.000
248.806;  -59.300; -300.000; -266.000
248.948; -191.700; -886.000; -763.000
249.090;  -89.700; -428.000; -398.000
249.233;  -81.200; -344.000; -381.000
249.375; -109.600; -474.000; -451.000
249.518;  -35.900;  -83.000; -133.000
249.660;   -6.300; -103.000;    3.000
249.802; -338.900;-1303.000;-1189.000
249.945; -138.800; -612.000; -540.000
250.087; -242.600; -834.000; -768.000
250.229; -116.000; -362.000; -480.000
250.371; -146.500; -494.000; -439.000
250.514; -102.000; -310.000; -244.000
250.656;    2.400;   69.000;  102.000
250.798; -218.200; -849.000; -800.000
250.940;  -99.000; -322.000; -322.000
251.083;  -60.000; -335.000; -111.000
251.225;  129.900;  338.000;  310.000
251.367;  -73.100; -274.000; -373.000
251.509;  -43.100; -265.000; -210.000
251.651; -200.500; -731.000; -671.000
251.794;  124.800;  538.000;  632.000
251.936; -218.700; -821.000; -747.000
252.078; -150.700; -540.000; -461.000
252.220; -139.500; -645.000; -477.000
252.362;  174.400;  344.000;  462.000
252.504; -173.400; -677.000; -584.000
252.646; -223.300; -875.000; -722.000
252.788;   -2.800;   14.000; -128.000
252.931;  -59.400; -257.000; -253.000
253.073;  -84.200; -376.000; -317.000
253.215;   28.800;  141.000;  122.000
253.357;  -37.200;   82.000; -153.000
253.499; -119.000; -374.000; -234.000
253.641; -173.900; -749.000; -594.000
253.783; -177.900; -609.000; -527.000
253.925; -184.400; -586.000; -591.000
254.067; -237.700; -744.000; -667.000
254.209;  -60.900; -391.000; -259.000
254.351; -265.200; -865.000; -883.000
254.493; -109.200; -441.000; -417.000
254.635; -224.600; -936.000; -818.000
254.777; -163.500; -752.000; -687.000
254.918; -132.400; -512.000; -430.000
255.060; -146.300; -551.000; -395.000
255.202; -110.100; -473.000; -261.000
255.344; -154.400; -658.000; -455.000
255.486; -143.200; -471.000; -406.000
255.628; -254.200; -780.000; -781.000
255.770; -192.300; -676.000; -536.000
255.912; -123.100; -559.000; -468.000
256.053; -176.500; -730.000; -508.000
256.195;  316.600; 1008.000;  903.000
256.337; -206.700; -861.000; -595.000
256.479;  149.700;  532.000;  416.000
256.621;  -71.500; -394.000; -212.000
256.762; -190.600; -789.000; -742.000
256.904;  132.800;  485.000;  487.000
257.046;  -79.300; -381.000; -271.000
257.188;  -57.900; -351.000; -264.000
257.329; -144.100; -525.000; -464.000
257.471; -208.500; -939.000; -807.000
257.613; -144.000; -584.000; -498.000
257.755; -301.000;-1073.000; -982.000
257.896;   90.800;  286.000;  392.000
258.038; -144.100; -403.000; -352.000
258.180;  -72.600; -354.000; -279.000
258.321; -157.700; -581.000; -457.000
258.463;  -14.100;  -71.000;  133.000
258.605; -156.600; -562.000; -570.000
258.746; -191.200; -886.000; -772.000
258.888; -310.600;-1026.000;-1020.000
259.029;   59.400;  121.000;   -8.000
259.171; -168.600; -614.000; -550.000
259.313;   15.000;  -49.000;  -47.000
259.454; -146.900; -536.000; -414.000
259.596; -118.900; -483.000; -390.000
259.737; -128.000; -590.000; -474.000
259.879;  101.600;  217.000;  311.000
260.020;  185.000;  901.000;  636.000
260.162;  -77.700; -146.000; -253.000
260.303; -202.400; -768.000; -687.000
260.445; -124.000; -609.000; -613.000
260.586;   81.500;  392.000;  157.000
260.728;  -88.400; -360.000; -248.000
260.869; -130.400; -350.000; -343.000
261.011;  166.800;  706.000;  537.000
261.152; -104.200; -479.000; -319.000
261.293; -165.500; -576.000; -595.000
261.435;  -41.600; -219.000; -184.000
261.576;  -96.700; -455.000; -325.000
261.718;  127.900;  420.000;  470.000
261.859; -265.000; -940.000; -949.000
262.000; -273.400; -951.000;-1016.000
262.142;  -49.900;  -52.000;  -60.000
262.283; -237.700; -808.000; -691.000
262.424; -169.900; -666.000; -625.000
262.566; -299.800;-1161.000; -983.000
262.707; -240.200; -840.000; -830.000
262.848; -248.500; -769.000; -726.000
262.990; -100.800; -362.000; -345.000
263.131;  206.400;  650.000;  681.000
263.272;    3.200;  -61.000;  -41.000
263.413; -173.300; -589.000; -561.000
263.555; -141.100; -669.000; -143.000
263.696; -134.900; -550.000; -641.000
263.837; -120.900; -449.000; -551.000
263.978;   22.700;   -5.000;  -77.000
264.119;  -73.200; -283.000; -264.000
264.261; -213.500; -847.000; -630.000
264.402;   31.800;   33.000;   40.000
264.543; -117.700; -509.000; -524.000
264.684;   -5.000;   61.000;  -50.000
264.825; -149.300; -816.000; -538.000
264.966;    1.300;  -84.000;  -67.000
265.107; -234.400; -646.000; -670.000
265.248; -251.300; -825.000; -812.000
265.390;   -6.400;  152.000;   -9.000
265.531;  -20.000; -238.000; -107.000
265.672; -171.000; -557.000; -630.000
265.813;  158.200;  563.000;  439.000
265.954; -284.100; -959.000; -940.000
266.095;  -48.300; -372.000; -322.000
266.236; -194.300; -686.000; -548.000
266.377;  -82.200; -243.000; -297.000
266.518; -130.200; -619.000; -547.000
266.659;   75.400;  170.000;  268.000
266.800;   34.000;   83.000;   85.000
266.941; -144.300; -487.000; -478.000
267.082;   18.500;  354.000;   99.000
267.223; -101.600; -344.000; -273.000
267.364; -215.700; -892.000; -686.000
267.504;  -13.600;    3.000;  135.000
267.645;   20.000;  160.000;   67.000
267.786;  -71.200; -147.000;  -86.000
267.927; -108.400; -473.000; -379.000
268.068;  -58.100; -186.000;  -61.000
268.209;  -85.100; -175.000; -413.000
268.350; -129.100; -388.000; -532.000
268.490; -174.000; -648.000; -521.000
268.631;   98.700;  127.000;  225.000
268.772; -172.600; -874.000; -647.000
268.913; -125.100; -328.000; -476.000
269.054;  -11.400; -117.000;   12.000
269.194;  -96.000; -418.000; -402.000
269.335; -276.600;-1137.000;-1074.000
269.476;  -46.400;   33.000;  -35.000
269.617;  -96.800; -347.000; -392.000
269.757; -174.200; -713.000; -646.000
269.898; -191.300; -856.000; -613.000
270.039; -111.600; -415.000; -405.000
270.180; -267.800; -952.000; -816.000
270.320;  -44.900; -190.000; -250.000
270.461;  -67.100; -277.000; -249.000
270.602;  -33.800; -186.000; -156.000
270.742; -228.300; -868.000; -943.000
270.883; -120.200; -442.000; -390.000
271.023; -113.100; -358.000; -357.000
271.164; -137.400; -607.000; -528.000
271.305; -197.200; -666.000; -654.000
271.445; -155.000; -722.000; -683.000
271.586; -123.800; -462.000; -283.000
271.726;  -59.300; -397.000; -322.000
271.867; -134.600; -594.000; -534.000
272.008;  240.200; -473.000; -285.000
272.148;  246.000;  462.000;  468.000
272.289;   57.900; -113.000; -181.000
272.429;   18.600;   19.000;  185.000
272.570; -182.700; -633.000; -737.000
272.710; -188.700; -825.000; -775.000
272.851;  -46.100;  113.000; -130.000
272.991; -322.400;-1173.000;-1077.000
273.131; -136.300; -419.000; -459.000
273.272; -195.100; -683.000; -723.000
273.412;   27.500; -143.000;  -31.000
273.553; -102.000; -488.000; -507.000
273.693;  297.900;  913.000;  858.000
273.834; -228.300; -894.000; -692.000
273.974; -163.600; -664.000; -615.000
274.114; -190.600; -772.000; -560.000
274.255;  136.800;  414.000;  373.000
274.395;    7.300; -180.000; -125.000
274.535;   63.200;  199.000;  350.000
274.676;   93.500;  225.000;   94.000
274.816;   21.800;  110.000;   34.000
274.956; -199.500; -624.000; -690.000
275.097; -133.500;-1014.000; -922.000
275.237; -198.400; -913.000; -803.000
275.377; -197.400; -778.000; -689.000
275.517; -280.100; -878.000; -937.000
275.658;  -98.800; -590.000; -555.000
275.798; -161.500; -606.000; -413.000
275.938;   63.200;  215.000;  323.000
276.078; -158.200; -626.000; -395.000
276.218;   39.500;   99.000;  104.000
276.359; -246.900;-1026.000;-1024.000
276.499; -136.000; -605.000; -446.000
276.639;  -60.400; -305.000; -151.000
276.779; -128.100; -475.000; -357.000
276.919; -185.100; -783.000; -624.000
277.059;  -51.300; -261.000; -212.000
277.199;  -89.800; -357.000; -259.000
277.340;  109.600;  287.000;  175.000
277.480; -200.200; -840.000; -693.000
277.620;   86.900;  192.000;   16.000
277.760; -398.400;-1533.000;-1294.000
277.900;   21.400;  113.000;   33.000
278.040;   47.600;  137.000;  159.000
278.180;   88.500;  270.000;  170.000
278.320;   16.700;   21.000;   56.000
278.460; -125.000; -443.000; -469.000
278.600; -159.300; -708.000; -598.000
278.740;  108.900;  448.000;  224.000
278.880; -152.800; -768.000; -791.000
279.020;   18.400; -194.000; -144.000
279.160; -160.300; -672.000; -595.000
279.300; -232.500; -926.000; -873.000
279.440; -167.200; -709.000; -622.000
279.579; -102.300;-1014.000; -929.000
279.719;  -76.000; -410.000; -394.000
279.859;  130.300;   -4.000;   41.000
279.999;   41.400; -208.000;  101.000
280.139;  -92.400; -435.000; -387.000
280.279; -137.800; -708.000; -745.000
280.419;  -16.000; -229.000; -147.000
280.559;  -61.200; -259.000; -180.000
280.698; -167.600; -790.000; -639.000
280.838; -205.300; -778.000; -800.000
280.978; -188.900; -846.000; -790.000
281.118; -210.800; -811.000; -704.000
281.257;   65.000;   24.000;    6.000
281.397; -246.600;-1094.000; -960.000
281.537; -196.900; -599.000; -712.000
281.677;  -22.500; -150.000; -101.000
281.816; -159.100; -700.000; -630.000
281.956;  -85.300; -193.000; -257.000
282.096;  -94.200; -539.000; -396.000
282.235; -211.100; -672.000; -638.000
282.375;    3.400; -243.000;  -98.000
282.515; -207.500; -715.000; -707.000
282.654;   50.100;   29.000;  106.000
282.794;  106.400;  388.000;  244.000
282.934;  -93.000; -530.000; -491.000
283.073; -241.200;-1030.000; -857.000
283.213; -106.500; -460.000; -467.000
283.353;  -48.800; -408.000; -349.000
283.492;  -62.700; -264.000; -296.000
283.632;  -96.100; -254.000; -168.000
283.771; -205.100; -859.000; -730.000
283.911;  -75.400; -369.000; -260.000
284.050; -245.400; -794.000; -748.000
284.190; -293.700;-1229.000;-1096.000
284.329; -275.200;-1055.000; -964.000
284.469; -147.000; -516.000; -591.000
284.608; -116.800; -559.000; -598.000
284.748; -135.600; -614.000; -570.000
284.887;   16.000;  -87.000;  -20.000
285.027; -245.100; -844.000; -892.000
285.166;  -26.400; -192.000; -249.000
285.306;   55.700; -116.000;  -33.000
285.445;  -51.600; -229.000; -343.000
285.584; -170.200; -630.000; -494.000
285.724;  -70.300; -282.000; -322.000
285.863; -218.300; -857.000; -507.000
286.002;  -99.600; -366.000; -276.000
286.142; -185.400; -715.000; -622.000
286.281; -128.000; -525.000; -493.000
286.420; -144.700; -554.000; -417.000
286.560;  279.400;  653.000;  623.000
286.699; -244.500; -958.000; -912.000
286.838; -162.800; -590.000; -591.000
286.978; -136.800; -533.000; -537.000
287.117; -246.400;-1085.000; -950.000
287.256;  -46.900; -228.000; -211.000
287.395;  -91.300; -197.000; -378.000
287.535;  -73.900; -370.000; -298.000
287.674; -141.000; -509.000; -484.000
287.813;  152.300;  661.000;  533.000
287.952; -264.500;-1010.000; -871.000
288.091; -292.800;-1049.000; -915.000
288.231;   63.300;   13.000;   15.000
288.370; -340.000;-1217.000;-1200.000
288.509; -167.000; -728.000; -645.000
288.648; -170.900; -770.000; -548.000
288.787;  -58.900; -243.000;  -87.000
288.926; -114.000; -454.000; -475.000
289.065;  260.100;  859.000;  672.000
289.204; -110.600; -377.000; -217.000
289.344; -175.200; -791.000; -690.000
289.483;   90.000;  416.000;  304.000
289.622;  -26.900; -291.000; -149.000
289.761;  -14.400; -309.000; -166.000
289.900; -191.800; -785.000; -626.000
290.039;   -9.500;  -12.000;  -95.000
290.178;  -77.800; -274.000; -180.000
290.317; -130.200; -618.000; -479.000
290.456; -144.400; -463.000; -451.000
290.595; -248.200; -961.000; -833.000
290.734; -262.400; -904.000; -891.000
290.873; -116.300; -456.000; -420.000
291.011; -174.300; -833.000; -843.000
291.150; -166.100; -770.000; -682.000
291.289;  -50.900; -343.000; -110.000
291.428; -180.400; -599.000; -480.000
291.567;  -91.100; -370.000; -442.000
291.706;   29.700;  109.000;  154.000
291.845; -184.200; -597.000; -505.000
291.984; -334.100;-1234.000;-1061.000
292.122;  182.500;  602.000;  582.000
292.261;  141.800;  620.000;  463.000
292.400;   40.500; -144.000;  211.000
292.539; -202.200; -959.000; -813.000
292.678;  -38.200; -325.000; -300.000
292.816; -306.900;-1136.000; -965.000
292.955; -196.500; -844.000; -684.000
293.094;  -29.700; -173.000; -337.000
293.233; -127.100; -556.000; -400.000
293.371;  -40.100; -225.000;  -84.000
293.510; -228.000; -866.000; -780.000
293.649; -255.700; -959.000; -924.000
293.787; -177.300;-1083.000;-1012.000
293.926;  -21.600; -113.000;  -32.000
294.065;  -75.200; -379.000; -290.000
294.203;  103.000;  298.000;  406.000
294.342;   82.100;   74.000;  156.000
294.481;12862.200;51180.000; -836.000
294.619;  -32.100; -425.000; -582.000
294.758; -275.300;-1230.000;-1137.000
294.896;  131.900; -125.000;    5.000
295.035; -250.500;-1040.000;-1006.000
295.174; -254.100;-1082.000; -954.000
295.312;  -69.900; -323.000; -203.000
295.451;  -16.500; -307.000; -428.000
295.589; -102.200; -389.000; -518.000
295.728;   75.100; -292.000; -165.000
295.866;   14.700;  -36.000;  -51.000
296.005; -132.400; -584.000; -341.000
296.143; -119.000; -558.000; -596.000
296.282; -215.500; -957.000; -881.000
296.420; -187.700; -657.000; -557.000
296.559; -173.000; -892.000; -633.000
296.697;  -36.700; -847.000; -665.000
296.835;   25.900;-1141.000;-1002.000
296.974;  108.300;  -23.000;   39.000
297.112;  -16.400; -443.000; -504.000
297.251; -165.800; -815.000; -755.000
297.389;  141.200; -576.000; -438.000
297.527;   69.500; -145.000;  -83.000
297.666; -129.600; -486.000; -438.000
297.804;  -75.300; -404.000; -264.000
297.942;   -8.600; -136.000; -161.000
298.081;    2.300; -183.000;   63.000
298.219;  113.900;  -17.000;  -19.000
298.357;   95.500; -144.000;  -71.000
298.495;  -14.300; -810.000; -812.000
298.634;  132.000;  245.000;  219.000
298.772;   79.100; -220.000; -338.000
298.910;  -74.100; -309.000; -182.000
299.048;   -4.100; -130.000; -153.000
299.187;  -38.400; -350.000; -250.000
299.325;   26.500;   52.000;  122.000
299.463;   73.000; -389.000; -299.000
299.601;  163.300; -327.000; -271.000
299.739; -202.300; -908.000; -883.000
299.877; -178.500; -791.000; -703.000
300.016; -110.800;-1095.000; -935.000
300.154;  271.200;  -19.000; -161.000
300.292;   54.200; -428.000; -348.000
300.430;   66.400; -408.000; -291.000
300.568; -233.000; -940.000; -874.000
300.706; -101.700; -366.000; -469.000
300.844; -194.000;-1108.000; -979.000
300.982;  225.800;  246.000;  282.000
301.120; -212.400; -965.000; -866.000
301.258; -134.700; -812.000; -705.000
301.396;   60.000;  104.000;  -41.000
301.534;   95.700; -218.000; -293.000
301.672;  -54.400; -664.000; -521.000
301.810;   30.900; -613.000; -545.000
301.948;  235.900;   53.000;  149.000
302.086;  856.400; -250.000;  -32.000
302.224; 1427.200; -610.000; -585.000
302.362;   42.300; -558.000; -622.000
302.500; -118.200; -923.000; -893.000
302.638;  170.400;  128.000;  245.000
302.776;   16.900; -352.000; -408.000
302.913;   95.400;  447.000;  236.000
303.051;   -1.400;  -86.000;  -23.000
303.189;  110.000;   90.000;  118.000
303.327;  -41.800; -341.000; -256.000
303.465; -151.700; -832.000; -588.000
303.603; -188.100; -805.000; -604.000
303.740;  187.000;  417.000;  241.000
303.878;  -25.500; -800.000; -759.000
304.016; -175.900; -915.000; -790.000
304.154; -247.400;-1123.000;-1152.000
304.291; -104.200; -505.000; -554.000
304.429;   50.700;  102.000;   74.000
304.567; -241.600; -908.000; -893.000
304.705;  -89.400; -408.000; -515.000
304.842;   91.600; -616.000; -540.000
304.980;  160.500;  215.000;   35.000
305.118;   32.100; -367.000; -365.000
305.255; -150.200; -945.000; -927.000
305.393;  108.300;  178.000;  239.000
305.531; -205.700;-1173.000; -956.000
305.668; -142.900; -663.000; -582.000
305.806;  164.500; -358.000; -439.000
305.943;  124.900; -629.000; -637.000
306.081;   82.300; -378.000; -267.000
306.219; -202.400; -863.000; -748.000
306.356;   61.500;  158.000;   27.000
306.494;  265.800;  981.000;  761.000
306.631;   17.400;  -11.000;  -55.000
306.769;  -27.300; -613.000; -485.000
306.906;  -33.500; -284.000; -258.000
307.044;  -83.300; -473.000; -488.000
307.181; -100.500; -410.000; -332.000
307.319;   59.200;  112.000;   87.000
307.456; -323.100;-1191.000;-1153.000
307.594; -200.300; -980.000; -727.000
307.731;  -29.300; -371.000; -164.000
307.868;   19.000;  -15.000;   20.000
308.006; -243.600; -961.000; -847.000
308.143; -114.400; -618.000; -330.000
308.281;  373.500;  -37.000; -254.000
308.418;    9.300; -748.000; -640.000
308.555; -102.100; -400.000; -250.000
308.693; -115.400; -577.000; -573.000
308.830; -176.500; -712.000; -657.000
308.967;    4.100; -215.000;  -95.000
309.105;  -65.300; -507.000; -396.000
309.242;   64.600; -468.000; -367.000
309.379;  636.900; -577.000; -655.000
309.517; -102.000; -936.000; -948.000
309.654; -177.100; -910.000; -734.000
309.791; -132.100; -662.000; -580.000
309.928; -218.400; -977.000; -914.000
310.065;  313.200;  819.000;  697.000
310.203;  -54.500; -825.000; -850.000
310.340;  -27.400; -465.000; -321.000
310.477; -130.100; -412.000; -516.000
310.614; -121.700; -383.000; -473.000
310.751; -159.000; -427.000; -518.000
310.889;   -0.200;    1.000;   11.000
311.026; -280.800;-1161.000; -939.000
311.163;  -75.200; -386.000; -380.000
311.300; -131.000; -512.000; -479.000
311.437; -114.600; -658.000; -619.000
311.574; -311.000;-1226.000; -985.000
311.711; -114.000; -595.000; -433.000
311.848;  -52.500; -380.000; -388.000
311.985;   38.500;  270.000;   93.000
312.122; -222.600; -932.000; -762.000
312.259; -226.400; -941.000; -994.000
312.396; -130.300; -508.000; -551.000
312.533; -188.200; -812.000; -790.000
312.670; -238.200;-1070.000; -898.000
312.807;  -31.100; -352.000; -367.000
312.944; -141.700; -513.000; -611.000
313.081;  -61.200; -150.000; -415.000
313.218; -190.300;-1111.000; -867.000
313.355;   39.100; -531.000; -449.000
313.492;    3.000; -455.000; -292.000
313.629;  255.500;  815.000;  735.000
313.766; -283.100;-1176.000;-1008.000
313.902;  -17.600; -186.000;   21.000
314.039;  -66.600; -372.000; -289.000
314.176;  104.500;  286.000;  192.000
314.313;  -98.900; -569.000; -473.000
314.450; -165.900; -788.000; -684.000
314.587;  -77.700; -468.000; -480.000
314.723;   35.100;  -78.000;  130.000
314.860;  106.800;  318.000;  332.000
314.997;   54.200;  223.000;  142.000
315.134;  -62.100; -385.000; -368.000
315.270;  -77.600; -480.000; -496.000
315.407; -213.700;-1094.000; -967.000
315.544;  -81.100; -657.000; -538.000
315.681; -103.100; -681.000; -565.000
315.817;   47.100; -133.000; -176.000
315.954;    9.800; -613.000; -392.000
316.091; -248.700;-1045.000;-1023.000
316.227;  -27.300;  -71.000; -179.000
316.364;   25.700;   23.000;    6.000
316.500;  -39.900; -113.000; -300.000
316.637;  -67.700; -181.000; -302.000
316.774; -141.300; -625.000; -358.000
316.910; -155.900; -598.000; -629.000
317.047;  -91.400; -487.000; -351.000
317.183;  -76.700; -435.000; -566.000
317.320;  -16.200; -367.000; -321.000
317.456; -127.000; -733.000; -805.000
317.593; -154.900; -598.000; -641.000
317.729;    3.500;  168.000;  -67.000
317.866; -368.800;-1434.000;-1285.000
318.002; -168.000; -708.000; -948.000
318.139; -192.900; -883.000; -867.000
318.275; -192.900;-1003.000; -738.000
318.412; -114.000; -517.000; -336.000
318.548;  -81.500; -751.000; -720.000
318.685; -190.800; -985.000; -888.000
318.821; -147.700; -762.000; -735.000
318.957;  -20.800;   34.000;  -23.000
319.094;  114.900;  297.000;  154.000
319.230; -114.300; -756.000; -742.000
319.367;  212.800; -471.000; -520.000
319.503;   94.700; -538.000; -436.000
319.639; -160.900; -877.000; -793.000
319.775; -117.300; -750.000; -685.000
319.912;  -99.900; -424.000; -519.000
320.048; -185.400;-1184.000;-1184.000
320.184;  155.700;   59.000;   70.000
320.321;  -98.800; -497.000; -467.000
320.457;  189.700;  475.000;  662.000
320.593;  -94.700; -375.000; -382.000
320.729; -194.200; -732.000; -734.000
320.866; -143.700; -577.000; -635.000
321.002; -166.000; -759.000; -809.000
321.138;  -11.700; -135.000; -211.000
321.274;  117.800; -148.000; -115.000
321.410;  -66.300; -585.000; -353.000
321.546; -110.100;-1011.000; -911.000
321.683;  142.600;  400.000;  185.000
321.819;   44.800;  -48.000; -117.000
321.955; -185.600; -743.000; -722.000
322.091;  -84.200; -585.000; -540.000
322.227;   -6.100; -382.000; -202.000
322.363;  -35.500; -320.000; -215.000
322.499;  -70.500; -343.000; -331.000
322.635;  296.900;  636.000;  443.000
322.771;   49.800; -139.000;   12.000
322.907;  190.300;  129.000;  327.000
323.043;    4.800; -115.000; -206.000
323.179;  -93.700; -394.000; -363.000
323.315;    4.000; -401.000; -371.000
323.451;  117.400; -328.000; -236.000
323.587;  139.300;  -60.000;  -77.000
323.723;   -1.500; -682.000; -601.000
323.859;  -41.100; -258.000;  -76.000
323.995;  -38.000; -467.000; -409.000
324.131; -243.400; -967.000; -892.000
324.267;  -72.800; -254.000; -276.000
324.402; -254.800; -960.000; -983.000
324.538;   -1.900; -279.000; -104.000
324.674;   38.900;  164.000;   77.000
324.810;  268.000;  226.000;  308.000
324.946;   14.400; -810.000; -658.000
325.082;  -99.900; -568.000; -475.000
325.217;   21.000;  -62.000;   16.000
325.353; -171.800; -764.000; -659.000
325.489; -141.200; -540.000; -506.000
325.625; -142.900; -579.000; -525.000
325.760;  146.800;  517.000;  376.000
325.896;  -41.300; -515.000; -702.000
326.032;  -94.400; -403.000; -352.000
326.168;  -89.800; -462.000; -369.000
326.303;  -74.400; -352.000; -461.000
326.439;   -6.100; -336.000; -276.000
326.575;   -7.500; -190.000;  -29.000
326.710;   -8.600; -156.000;  -30.000
326.846;    4.400;  146.000;  103.000
326.982; -156.200; -530.000; -548.000
327.117; -133.200; -481.000; -442.000
327.253; -139.600; -745.000; -742.000
327.388; -296.300;-1137.000;-1153.000
327.524;  -38.600; -811.000; -578.000
327.659;  -13.600;  -58.000;  -22.000
327.795;   -6.100;   69.000;   45.000
327.931; -163.200; -723.000; -499.000
328.066;   -9.700; -417.000; -276.000
328.202;    8.500;   12.000; -129.000
328.337;  241.900;  957.000;  713.000
328.473;    2.000;  -12.000;  -74.000
328.608;   11.800; -256.000; -267.000
328.743; -159.100; -799.000; -664.000
328.879;   80.400;  214.000;  114.000
329.014; -115.000; -102.000; -122.000
329.150; -141.900; -358.000; -483.000
329.285; -125.200; -465.000; -466.000
329.421;  -63.600; -548.000; -246.000
329.556;    9.000;  -36.000;   85.000
329.691; -137.700; -633.000; -615.000
329.827; -147.600; -626.000; -480.000
329.962;  -58.200;  131.000; -301.000
330.097; -162.500; -673.000; -585.000
330.233;  -44.900; -410.000; -223.000
330.368; -214.600; -839.000; -628.000
330.503;   16.700;    3.000;   98.000
330.638;   38.900;  -93.000; -125.000
330.774; -121.100; -609.000; -530.000
330.909;  -76.300; -434.000; -244.000
331.044; -171.600; -714.000; -708.000
331.179; -320.900;-1217.000;-1109.000
331.315;   16.400;   77.000;   20.000
331.450;   76.200;  157.000;  285.000
331.585; -150.800; -805.000; -706.000
331.720; -161.700; -510.000; -460.000
331.855;   18.100;  -35.000; -102.000
331.990;  503.500;   62.000;  138.000
332.126;  269.500; -110.000;   71.000
332.261;   -0.700; -379.000; -265.000
332.396;    7.900; -135.000; -242.000
332.531; -172.400;-1074.000;-1031.000
332.666;   66.000; -519.000; -363.000
332.801; -185.700; -726.000; -807.000
332.936;   -6.500; -192.000; -122.000
333.071; -263.900; -870.000; -817.000
333.206;   47.200;  307.000;  379.000
333.341;  126.900;  344.000;  418.000
333.476; -166.900; -627.000; -623.000
333.611;  -63.100; -251.000; -173.000
333.746;  -64.000; -381.000; -464.000
333.881; -213.500; -973.000; -935.000
334.016; -252.600; -936.000; -917.000
334.151; -218.700; -746.000; -702.000
334.286;   63.600;  152.000;  186.000
334.421;  -15.100; -125.000; -178.000
334.556; -130.800; -611.000; -567.000
334.690; -147.200; -631.000; -577.000
334.825;  133.600;  381.000;   83.000
334.960; -101.200; -285.000; -413.000
335.095;   28.500;  135.000;  -91.000
335.230; -221.500; -722.000; -738.000
335.365; -264.300;-1084.000; -990.000
335.499; -240.400;-1108.000;-1037.000
335.634;   30.600;    9.000;  534.000
335.769; -204.700; -755.000; -720.000
335.904; -123.000; -603.000; -561.000
336.038; -110.200; -735.000; -657.000
336.173; -250.800;-1206.000;-1194.000
336.308;   32.300; -116.000; -189.000
336.443;  -38.500; -544.000; -634.000
336.577; -156.400; -936.000; -787.000
336.712;   66.800;   -4.000;  -12.000
336.847;  -78.500; -724.000; -607.000
336.981;   75.200; -272.000; -208.000
337.116;  493.200;  615.000;  501.000
337.250;  196.000; -434.000; -421.000
337.385;  491.600; -297.000; -208.000
337.520;  172.200; -632.000; -603.000
337.654;  -61.700; -215.000; -126.000
337.789; -201.000; -989.000; -933.000
337.923;  -38.500; -104.000; -205.000
338.058; -138.000; -673.000; -738.000
338.192;  -46.800; -611.000; -488.000
338.327;   20.000;  -18.000; -155.000
338.461; -114.400; -299.000; -469.000
338.596; -162.200; -780.000; -638.000
338.730; -179.700; -767.000; -803.000
338.865;  207.700;  -46.000; -140.000
338.999;  -66.300; -846.000; -702.000
339.134;  -53.600; -634.000; -536.000
339.268;   23.000; -741.000; -603.000
339.403;  619.000; -740.000; -775.000
339.537;  215.500; -894.000; -820.000
339.671; -192.600; -829.000; -813.000
339.806; -119.500; -556.000; -512.000
339.940;   56.700; -261.000; -235.000
340.074; -148.900; -685.000; -510.000
340.209;  -58.000; -351.000; -230.000
340.343; -150.700; -517.000; -573.000
340.477;  339.300;  998.000; 1036.000
340.612;  -93.200;-1033.000; -900.000
340.746;  292.300; -199.000; -243.000
340.880; -140.000; -924.000; -785.000
341.014;  -29.800;  -45.000; -154.000
341.149; -220.100; -756.000; -718.000
341.283; -184.800; -839.000; -754.000
341.417; -175.500;-1124.000; -938.000
341.551;  135.300; -768.000; -708.000
341.685;  -84.000; -633.000; -611.000
341.820; -127.000; -562.000; -493.000
341.954;  -62.800; -218.000; -349.000
342.088; -260.200;-1102.000;-1019.000
342.222;  156.600;  565.000;  618.000
342.356; -113.200; -395.000; -335.000
342.490; -191.800; -880.000; -841.000
342.624;  -82.300; -339.000; -242.000
342.758;  -11.800; -364.000; -312.000
342.892; -122.100; -710.000; -585.000
343.026;  -63.600;  -58.000; -116.000
343.160;  -70.800; -426.000; -376.000
343.294; -131.100; -474.000; -337.000
343.428;  -58.300; -488.000; -448.000
343.562;  -32.700; -172.000;  -23.000
343.696;  -46.100; -385.000; -314.000
343.830;  -39.400; -362.000; -356.000
343.964;   51.100; -231.000; -168.000
344.098; 1343.500;  199.000;   70.000
344.232; 1109.500; -266.000; -127.000
344.366;  139.600; -567.000; -453.000
344.500;   64.700; -665.000; -744.000
344.634;   56.700; -324.000; -164.000
344.768;  -54.800; -531.000; -341.000
344.902;   95.000;  278.000;  256.000
345.035; -121.300; -556.000; -496.000
345.169; -264.100; -933.000; -656.000
345.303;  -67.500; -308.000; -482.000
345.437; -137.700; -826.000; -717.000
345.571; -115.600; -675.000; -594.000
345.704; -126.900; -309.000; -532.000
345.838;   10.000; -331.000; -284.000
345.972;  -60.200; -543.000; -495.000
346.106;  299.900; -179.000; -190.000
346.239;  669.700; -312.000; -243.000
346.373;  -20.000; -343.000; -302.000
346.507; -247.600; -950.000; -962.000
346.640;  202.700;  -30.000;   13.000
346.774; -101.000; -650.000; -797.000
346.908;   -9.300; -138.000;  -11.000
347.041; -137.900; -646.000; -593.000
347.175;  -16.800;  259.000;   27.000
347.309; -126.600; -698.000; -628.000
347.442; -221.300; -883.000; -732.000
347.576;  471.100;  670.000;  668.000
347.709;  303.700; -123.000;  -52.000
347.843; -208.400; -933.000; -825.000
347.976;  131.500;  235.000;  294.000
348.110; -313.000;-1268.000;-1186.000
348.243; -193.000; -679.000; -772.000
348.377;   37.900;  -26.000;   60.000
348.510;  111.800;  403.000;  540.000
348.644;  -61.500;  -37.000; -159.000
348.777;   43.200;  180.000;  191.000
348.911;  -82.300; -142.000; -112.000
349.044;  302.500;  471.000;  448.000
349.178;  178.800;-1069.000;-1006.000
349.311;  224.900;  141.000;  255.000
349.444;   -4.800; -927.000; -813.000
349.578;   -4.700; -347.000; -200.000
349.711; -190.300; -959.000; -862.000
349.845;  -45.800; -661.000; -591.000
349.978; -296.900;-1224.000;-1137.000
350.111; -153.500; -546.000; -612.000
350.244; -174.400; -596.000; -700.000
350.378;   19.300; -392.000; -393.000
350.511; -114.000; -393.000; -426.000
350.644; -197.400; -808.000; -806.000
350.778;   66.400;  168.000;  104.000
350.911;   33.700;  134.000;  140.000
351.044; -153.600; -685.000; -615.000
351.177;  -52.500; -321.000; -281.000
351.310;  -21.900;    3.000; -131.000
351.444; -195.100; -888.000; -788.000
351.577;  219.400;  140.000;   90.000
351.710;  214.200;  593.000;  417.000
351.843;  -18.800; -165.000;  -77.000
351.976;   28.300;  149.000;  -79.000
352.109; -169.500; -621.000; -612.000
352.242;  -49.700; -464.000; -419.000
352.376; -134.200; -580.000; -636.000
352.509;  216.200; -437.000; -356.000
352.642;  -55.900; -654.000; -604.000
352.775;  141.900; -141.000;  -98.000
352.908; -200.300; -933.000; -904.000
353.041; -204.700; -814.000; -824.000
353.174;  -92.500; -551.000; -424.000
353.307; -167.700; -753.000; -764.000
353.440;  198.000;  541.000;  453.000
353.573; -217.900; -957.000;-1008.000
353.706;  -37.800; -384.000; -558.000
353.839;   -8.400; -264.000; -220.000
353.971; -160.100; -657.000; -512.000
354.104; -158.400; -896.000; -835.000
354.237;  -66.500; -627.000; -662.000
354.370; -171.400; -846.000; -879.000
354.503; -346.600;-1231.000;-1308.000
354.636;  -72.600; -529.000; -348.000
354.769; -217.800; -937.000; -860.000
354.902;  -14.200; -230.000; -139.000
355.034;  -39.000; -164.000; -220.000
355.167;  -21.400; -262.000; -162.000
355.300; -191.000;-1061.000; -880.000
355.433; 1757.200;  -71.000;  -14.000
355.565; 2746.500; -402.000; -384.000
355.698;  708.800; -356.000; -296.000
355.831;   -0.400; -882.000; -801.000
355.964;  105.300; -285.000; -170.000
356.096; -143.900; -856.000; -843.000
356.229;  -34.700; -523.000; -530.000
356.362;  613.000; -373.000; -266.000
356.494; 1129.500; -229.000; -162.000
356.627;  746.400;  269.000;  377.000
356.760; 1192.500;  120.000;   53.000
356.892; 1790.700; -286.000; -601.000
357.025; 1007.100;  403.000;  389.000
357.157;  858.400; -167.000; -179.000
357.290; 1272.800; -856.000; -713.000
357.423;  319.900; -667.000; -556.000
357.555;  152.800; -217.000; -228.000
357.688;  187.500; -483.000; -364.000
357.820;  637.500; -870.000; -877.000
357.953; 5587.300; -563.000; -589.000
358.085; 1152.900; -632.000; -612.000
358.218; 1545.700;-1131.000; -932.000
358.350;  309.900;  -58.000;  312.000
358.483; -258.000;-1300.000;-1187.000
358.615;  -84.100;-1182.000;-1078.000
358.747; -145.300;-1187.000;-1058.000
358.880;  -11.700; -810.000; -744.000
359.012;    3.600; -376.000; -202.000
359.145;  -80.400; -480.000; -511.000
359.277;   39.200; -962.000; -913.000
359.409; 4644.100;  536.000;  231.000
359.542; 1177.400; -738.000; -688.000
359.674;  159.800;   46.000;   13.000
359.806; -108.300; -565.000; -438.000
359.939;  -78.000; -617.000; -516.000
360.071;  -19.600; -583.000; -579.000
360.203;  -39.000; -411.000; -364.000
360.335;  110.700;  164.000;  -16.000
360.468;  310.900; -249.000; -307.000
360.600; 3748.600; -547.000; -454.000
360.732; 5161.700; -546.000; -423.000
360.864;  656.200;-1216.000;-1044.000
360.996;  409.100; -516.000; -554.000
361.129;   84.100; -389.000; -598.000
361.261;   50.300;  110.000; -113.000
361.393;  -34.000; -252.000; -214.000
361.525;   90.100;   94.000;  244.000
361.657;  -85.700; -821.000; -703.000
361.789;   47.000; -139.000; -155.000
361.921;  300.200; -642.000; -593.000
362.053;  428.800;  524.000;  541.000
362.185;   84.000;  288.000;   72.000
362.318; -142.800; -709.000; -705.000
362.450;  239.900;  294.000;  444.000
362.582;   72.500; -913.000; -870.000
362.714;  -57.700; -353.000; -332.000
362.846; -150.900; -606.000; -490.000
362.978; -250.500; -941.000; -811.000
363.109;   96.400; -161.000; -260.000
363.241;  626.600; -739.000; -749.000
363.373;  744.400; -649.000; -564.000
363.505; 1257.500; -186.000;  -91.000
363.637;  278.900; -787.000; -601.000
363.769; -255.600;-1067.000;-1080.000
363.901; -148.800; -596.000; -654.000
364.033; -237.700;-1103.000;-1062.000
364.165;  -13.000; -283.000; -283.000
364.296;  165.000; -316.000; -177.000
364.428;  109.500;-1344.000;-1220.000
364.560; -111.700; -679.000; -661.000
364.692;  -93.100; -738.000; -835.000
364.824;  368.400; -588.000; -456.000
364.955;  750.200; -402.000; -564.000
365.087; 1747.700;-1097.000; -852.000
365.219;   65.500; -686.000; -816.000
365.351;  -86.400; -526.000; -572.000
365.482;  144.600;  300.000;  240.000
365.614;  -79.000; -402.000; -314.000
365.746; -139.900; -729.000; -752.000
365.877; -124.500; -706.000; -672.000
366.009;  506.600;  -35.000;  -62.000
366.141; -170.200;-1249.000;-1134.000
366.272; -205.200; -803.000; -719.000
366.404; -203.400;-1005.000; -874.000
366.535;   20.800; -139.000;  -12.000
366.667; -180.100; -644.000; -649.000
366.799;   91.800;  353.000;  203.000
366.930; -219.100; -862.000; -996.000
367.062;  204.300; -639.000; -613.000
367.193;  272.300; -872.000; -842.000
367.325;  -85.300; -580.000; -684.000
367.456;   66.200; -246.000;   31.000
367.588;  318.200; -371.000; -318.000
367.719;   73.400;  -44.000;  -45.000
367.851;  -33.000; -222.000; -241.000
367.982; -110.700; -875.000; -732.000
368.113;  133.400; -475.000; -358.000
368.245; -224.100; -960.000; -841.000
368.376;  -20.800; -254.000; -302.000
368.508;  -52.800; -188.000; -263.000
368.639; -255.800;-1166.000;-1034.000
368.770;  -38.400; -670.000; -589.000
368.902; -108.700; -836.000; -926.000
369.033; -198.400; -906.000; -855.000
369.164;  -85.800; -720.000; -653.000
369.296; -168.700; -452.000; -601.000
369.427;   -2.300; -209.000; -144.000
369.558;  -73.000; -593.000; -377.000
369.689; -147.100; -721.000; -569.000
369.821; -206.800; -951.000; -845.000
369.952;   19.900;   42.000; -108.000
370.083;  -49.200; -229.000; -108.000
370.214; -156.300; -735.000; -650.000
370.345;   13.600;   65.000;   81.000
370.477; -153.200; -810.000; -790.000
370.608;  351.800; -328.000; -264.000
370.739; -191.900;-1233.000;-1292.000
370.870; -100.200;-1102.000; -923.000
371.001;  139.300; -378.000; -467.000
371.132; -128.600; -754.000; -735.000
371.263;  -17.600;  -42.000; -148.000
371.394; -216.100; -841.000; -748.000
371.525;  100.800;  345.000;  225.000
371.657; -158.100; -808.000; -670.000
371.788;  162.000;  103.000;  199.000
371.919;  227.700; -384.000; -304.000
372.050; 5491.100;  -91.000; -156.000
372.181; 1584.100; -188.000; -294.000
372.311;  540.200;   42.000; -127.000
372.442;   38.700; -457.000; -451.000
372.573;  -10.300; -444.000; -340.000
372.704; -226.200;-1008.000; -980.000
372.835;  134.200; -228.000; -289.000
372.966; -114.200; -646.000; -554.000
373.097; -105.600; -575.000; -711.000
373.228; -100.200; -717.000; -542.000
373.359;  134.500; -824.000; -536.000
373.490; 1316.400; -881.000; -727.000
373.620; 1575.200;-1001.000; -803.000
373.751; 2571.500; -332.000; -396.000
373.882; 1116.200; -663.000; -733.000
374.013;   80.200; -449.000; -262.000
374.143;  -59.700; -581.000; -659.000
374.274; -205.700; -987.000; -908.000
374.405;  246.700; -388.000; -276.000
374.536;  646.200; -526.000; -387.000
374.666; 1526.400; -759.000; -807.000
374.797;  285.200; -817.000; -868.000
374.928; 1238.300; -710.000; -560.000
375.058; 1270.800; -535.000; -500.000
375.189;  104.800;  -59.000;  -93.000
375.320; -219.700; -928.000;-1034.000
375.450;  -66.700; -625.000; -616.000
375.581;  -72.900; -526.000; -436.000
375.712;  -62.800; -574.000; -250.000
375.842;  461.800; -438.000; -415.000
375.973;  293.100; -554.000; -513.000
376.103; -109.700; -665.000; -648.000
376.234; -101.200; -531.000; -552.000
376.364;  -97.100; -944.000; -867.000
376.495;  564.100;  925.000;  529.000
376.625;  -37.500; -472.000; -485.000
376.756;   69.500; -709.000; -678.000
376.886; -178.500;-1178.000;-1026.000
377.017;   94.500;-1048.000;-1061.000
377.147;  679.200; -786.000; -782.000
377.278;  133.800;  174.000;  228.000
377.408; -227.400; -801.000; -815.000
377.538; -199.800; -707.000; -693.000
377.669; -140.200; -537.000; -613.000
377.799; -196.400; -645.000; -635.000
377.929; -123.300; -610.000; -428.000
378.060; -208.100; -781.000; -847.000
378.190;  -70.100; -726.000; -531.000
378.320;  -99.200; -401.000; -406.000
378.451;    7.600; -131.000;  -22.000
378.581;    9.200;  -67.000; -110.000
378.711;  305.000; 1035.000;  866.000
378.841;  -36.900; -533.000; -675.000
378.972; -139.400; -871.000; -751.000
379.102;  -15.300; -652.000; -579.000
379.232;  -38.900; -126.000;  -73.000
379.362; -226.300;-1001.000; -885.000
379.492;    2.600; -373.000; -424.000
379.623;  180.500;    0.000;  111.000
379.753; -204.900;-1107.000; -974.000
379.883;  367.900;   59.000;  156.000
380.013;  -72.200;-1081.000;-1017.000
380.143; -182.800;-1097.000;-1056.000
380.273; -189.600; -985.000; -861.000
380.403;  -12.300; -344.000; -257.000
380.533;  -68.300; -651.000; -664.000
380.663;  172.300;  173.000;  128.000
380.793; -204.400;-1027.000;-1074.000
380.923;  -19.000; -103.000;  -34.000
381.053; -115.000; -613.000; -623.000
381.183;  -27.200; -106.000; -248.000
381.313;   53.400; -656.000; -470.000
381.443;   48.200; -692.000; -473.000
381.573;  263.100; -402.000; -409.000
381.703;  318.000;-1249.000;-1095.000
381.833; -269.500;-1454.000;-1336.000
381.963;  200.600; -134.000;  -87.000
382.093; 2137.500; -925.000; -909.000
382.223;  594.000; -713.000; -602.000
382.353;  -46.400; -801.000; -608.000
382.482;  493.700;-1091.000; -964.000
382.612; 1146.900; -872.000; -644.000
382.742;  611.000; -695.000; -622.000
382.872;  366.400; -565.000; -551.000
383.002;  113.400;  347.000; -132.000
383.131;  -24.600; -226.000; -160.000
383.261;  -85.400; -706.000; -768.000
383.391;  503.800; -552.000; -377.000
383.521; 6023.000;  451.000;  263.000
383.650; 1315.200; -947.000; -904.000
383.780;  -18.000; -783.000; -656.000
383.910;  291.800;  880.000;  802.000
384.039;  -14.100; -794.000; -656.000
384.169;  229.700;-1205.000;-1017.000
384.299;  -78.300; -650.000; -662.000
384.428; -188.600; -764.000; -680.000
384.558;  -75.300; -308.000; -275.000
384.687;  -76.800; -414.000; -334.000
384.817;   57.400;   75.000;   -2.000
384.947;   53.600; -234.000; -141.000
385.076;  522.600;  982.000;  912.000
385.206;  229.500;  369.000;  480.000
385.335;  -69.500; -549.000; -417.000
385.465; -141.400; -655.000; -663.000
385.594;  248.900;  -53.000;  -44.000
385.724;  550.000; -868.000; -838.000
385.853;  148.800; -296.000; -270.000
385.982; 2003.700; -743.000; -787.000
386.112; 3050.900;-1052.000; -871.000
386.241;  200.900; -307.000; -312.000
386.371;   78.100; -174.000;  -87.000
386.500;   42.500; -825.000; -789.000
386.629;   49.300; -874.000; -817.000
386.759;  151.100;  -43.000;   68.000
386.888;    2.600; -170.000; -250.000
387.017; -135.600; -648.000; -620.000
387.147; -131.800; -771.000; -798.000
387.276;  -21.800; -410.000; -397.000
387.405;    8.700; -398.000; -342.000
387.535;  -74.400; -452.000; -361.000
387.664;  -97.700; -692.000; -620.000
387.793;   91.800; -198.000; -113.000
387.922;  754.100;  255.000;  200.000
388.052;  -13.800; -576.000; -423.000
388.181;    1.800; -342.000; -472.000
388.310;  -59.300; -889.000; -710.000
388.439;  -87.500; -749.000; -742.000
388.568;  321.800;  365.000;  244.000
388.697; 1486.500; -756.000; -653.000
388.826;  282.300; -768.000; -666.000
388.956;  109.800; -285.000; -307.000
389.085;  -30.200; -347.000; -287.000
389.214; -190.500; -842.000; -872.000
389.343;  -95.700; -645.000; -413.000
389.472;  779.500;  126.000;  149.000
389.601;  909.700;   91.000;    0.000
389.730;    6.200; -568.000; -687.000
389.859;  148.400;  226.000;   46.000
389.988;  281.000; -423.000; -408.000
390.117;  202.100; -168.000; -146.000
390.246;    1.000; -331.000; -320.000
390.375;  142.900; -673.000; -626.000
390.504; -118.000; -703.000; -621.000
390.633; -141.000; -672.000; -726.000
390.761; -111.800; -732.000; -645.000
390.890;   37.200;   -4.000; -130.000
391.019;  -48.100; -421.000; -441.000
391.148; -237.100; -826.000; -855.000
391.277; -112.200; -576.000; -493.000
391.406; -188.300; -821.000; -805.000
391.534;   80.700;  574.000; -301.000
391.663; -109.500; -583.000; -645.000
391.792; -183.100; -673.000; -701.000
391.921;  151.800;   -3.000;   15.000
392.050;  242.100; -287.000; -228.000
392.178; -124.200;-1206.000;-1061.000
392.307;  199.000; -758.000; -712.000
392.436;   79.100; -427.000; -641.000
392.564;   74.600;  166.000;   -6.000
392.693; -168.200; -860.000; -682.000
392.822;  276.400; -529.000; -534.000
392.950;   79.200; -880.000; -714.000
393.079;  500.100; -188.000; -328.000
393.208;    8.600; -488.000; -511.000
393.336;   19.400; -170.000; -145.000
393.465;  -33.700; -317.000; -199.000
393.593;   75.000;   62.000;   79.000
393.722; -257.100;-1121.000; -916.000
393.850;   -3.000; -188.000;  -61.000
393.979; -252.000; -926.000; -805.000
394.107;  -86.900; -517.000; -537.000
394.236;  -76.900; -570.000; -507.000
394.364;  500.500;  383.000;  206.000
394.493;  699.800; -911.000; -767.000
394.621;   10.900; -955.000; -916.000
394.750; 1366.200; -873.000; -923.000
394.878; 5485.500; -247.000; -149.000
395.007; 7160.400; -721.000; -807.000
395.135;  533.500; -790.000; -721.000
395.263; -163.900;-1038.000;-1040.000
395.392;   21.100;  -25.000; -107.000
395.520; -176.700; -818.000; -679.000
395.648; -171.200; -865.000; -915.000
395.777;  -21.700; -366.000; -405.000
395.905;  -60.800; -449.000; -564.000
396.033;   98.700;  217.000;  172.000
396.162; 1264.700; -399.000; -453.000
396.290; 1085.900;  -17.000;   -2.000
396.418;  149.300; -555.000; -514.000
396.546; -141.000; -571.000; -466.000
396.674; -155.400; -850.000; -878.000
396.803;   50.300;  -72.000;  -23.000
396.931;  150.700; -179.000; -199.000
397.059;   -7.400;-1026.000; -989.000
397.187; -248.400;-1026.000; -975.000
397.315; -224.800; -884.000; -649.000
397.443; -133.700; -592.000; -443.000
397.572; -127.400; -578.000; -424.000
397.700;  -53.200; -607.000; -614.000
397.828;   50.200;  120.000;  -90.000
397.956;  -92.000; -508.000; -478.000
398.084;  -85.500; -767.000; -626.000
398.212;  109.600;  137.000;  124.000
398.340;   77.100;  -56.000;  159.000
398.468;   38.000; -390.000; -169.000
398.596; -243.300; -993.000; -953.000
398.724; -206.800; -762.000; -767.000
398.852; -283.600;-1024.000; -976.000
398.980;  -85.100; -560.000; -560.000
399.108;  -93.800; -982.000; -735.000
399.236;   77.900;   13.000;    8.000
399.363;   67.000;  222.000;  196.000
399.491; -103.400; -404.000; -398.000
399.619; -234.500; -829.000; -800.000
399.747; -190.800; -859.000; -771.000
399.875;  181.700;  220.000;  234.000
400.003;  -86.600; -359.000; -284.000
400.130; -119.400; -421.000; -341.000
400.258;   17.600;  -83.000;   38.000
400.386;  -88.500; -352.000; -168.000
400.514;  -73.500; -526.000; -587.000
400.641; -168.400; -928.000; -802.000
400.769; -256.900; -979.000; -888.000
400.897; -187.200; -838.000; -793.000
401.025;   -9.300; -166.000; -152.000
401.152;   44.800;  220.000;   38.000
401.280; -152.400; -430.000; -429.000
401.408; -198.200; -712.000; -576.000
401.535; -195.200; -735.000; -758.000
401.663; -323.300;-1134.000;-1054.000
401.790; -116.100; -514.000; -525.000
401.918;  111.900;  436.000;  405.000
402.046;   11.600;  134.000;  122.000
402.173;    9.800;  -18.000;    7.000
402.301; -113.500; -519.000; -397.000
402.428;  130.700;  528.000;  383.000
402.556; -243.900;-1188.000; -913.000
402.683;    1.000;  -20.000;   -1.000
402.811;    7.200;  -37.000; -206.000
402.938;   30.100;   20.000;   27.000
403.066;  285.200; -574.000; -558.000
403.193;  475.600;  299.000;  239.000
403.321;  382.200; -396.000; -574.000
403.448;  500.500;   83.000;   27.000
403.575;  220.100;  -90.000;  -46.000
403.703; -162.000; -732.000; -557.000
403.830;  -86.000; -531.000; -496.000
403.957; -230.800;-1117.000;-1023.000
404.085;   48.100;  -61.000; -172.000
404.212;  207.800;  -50.000;   63.000
404.339;  528.300; -566.000; -306.000
404.467;10896.000; -612.000; -524.000
404.594; 6429.800; -287.000; -227.000
404.721; 1375.600; -869.000; -764.000
404.848;  140.000; -113.000; -202.000
404.976; -183.800; -856.000; -783.000
405.103;   35.300;  -14.000;  -82.000
405.230;   41.200;  190.000;  226.000
405.357;   78.400;  117.000;   44.000
405.484;  525.200;  -49.000;    5.000
405.612;  104.200; -548.000; -563.000
405.739;  -96.300; -488.000; -243.000
405.866;  198.500;  669.000;  385.000
405.993;  -59.900; -398.000; -102.000
406.120; -242.400; -801.000; -887.000
406.247;  -85.600; -323.000; -342.000
406.374;  692.800;  540.000;  629.000
406.501;  113.100; -632.000; -702.000
406.628; -136.400; -621.000; -589.000
406.755; -173.800; -803.000; -620.000
406.882;  -53.600; -228.000; -277.000
407.009; -164.300; -719.000; -628.000
407.136;  122.200; -480.000; -401.000
407.263;  144.200; -939.000; -829.000
407.390; -116.100; -692.000; -614.000
407.517; -255.600;-1139.000;-1187.000
407.644;  -76.700; -332.000; -256.000
407.771; -107.900; -249.000; -287.000
407.898;   65.600;  168.000;  328.000
408.025;  -90.900; -421.000; -313.000
408.151;   -1.100;   82.000;  153.000
408.278;  -64.400; -267.000; -216.000
408.405; -224.700; -931.000; -899.000
408.532; -104.800; -549.000; -542.000
408.659; -191.400; -677.000; -648.000
408.785; -354.200;-1298.000;-1170.000
408.912;  -81.600; -412.000; -296.000
409.039; -170.800; -610.000; -686.000
409.166; -158.600; -591.000; -555.000
409.292; -159.600; -571.000; -534.000
409.419; -169.900; -665.000; -649.000
409.546; -110.500; -431.000; -192.000
409.672; -188.200; -713.000; -545.000
409.799;  -14.400;  -36.000;   34.000
409.926;  -32.700; -180.000; -179.000
410.052; -313.700;-1127.000;-1091.000
410.179;  -89.100; -368.000; -392.000
410.305; -112.900; -375.000; -493.000
410.432;  -78.400; -220.000; -333.000
410.558; -113.900; -305.000; -380.000
410.685; -151.300; -688.000; -431.000
410.812; -122.900; -409.000; -588.000
410.938; -247.100; -964.000; -808.000
411.065; -144.100; -671.000; -645.000
411.191;  -46.300; -189.000; -174.000
411.317; -176.600; -823.000; -742.000
411.444; -112.500; -317.000; -246.000
411.570;  -96.200; -339.000; -294.000
411.697; -231.300; -758.000; -752.000
411.823; -293.900; -989.000; -999.000
411.949;  -22.700;  -56.000;   17.000
412.076; -161.900; -539.000; -519.000
412.202; -223.200; -758.000; -757.000
412.329; -228.800; -798.000; -752.000
412.455; -201.700; -821.000; -657.000
412.581;    3.000;  -15.000;  172.000
412.707; -105.100; -540.000; -457.000
412.834;   76.600;  156.000;  219.000
412.960; -134.600; -785.000; -784.000
413.086; -164.300; -743.000; -701.000
413.212;  316.400;  604.000;  578.000
413.339; -100.700; -685.000; -701.000
413.465;    6.900; -364.000; -310.000
413.591; -170.600; -757.000; -474.000
413.717;  -66.300; -358.000; -366.000
413.843; -256.900; -839.000; -861.000
413.969;  -79.500;  -47.000; -292.000
414.096; -162.400; -679.000; -679.000
414.222;   26.100;  -33.000;   85.000
414.348;  -30.000; -652.000; -385.000
414.474;  177.200;   38.000;  -52.000
414.600;   32.500; -126.000; -144.000
414.726;   17.600;  -96.000;  -55.000
414.852;  -60.100; -365.000; -342.000
414.978;   85.600;  104.000;  -18.000
415.104;  103.800;   38.000;   80.000
415.230;   71.100; -329.000; -330.000
415.356;  102.700; -409.000; -514.000
415.482;  371.600;   13.000;  -35.000
415.608;  548.400; -247.000; -323.000
415.734; 1833.700;   67.000;   38.000
415.860;37497.700; -875.000; -767.000
415.986;24696.900; -685.000; -607.000
416.111; 2000.800; -798.000; -652.000
416.237;  435.100; -424.000; -571.000
416.363; 2302.300; -765.000; -733.000
416.489; 7684.500; -324.000; -251.000
416.615;  794.700; -707.000; -742.000
416.741;  -16.000; -677.000; -784.000
416.866; -142.800; -673.000; -736.000
416.992; -189.100; -801.000; -818.000
417.118;  -13.400;  -41.000;  -80.000
417.244;  -83.700; -798.000; -531.000
417.369; -131.500; -801.000; -612.000
417.495;   22.100; -325.000; -254.000
417.621; -141.200;-1015.000; -803.000
417.746;   63.600; -579.000; -572.000
417.872;  110.500; -254.000; -144.000
417.998;  118.500; -515.000; -530.000
418.123; 2108.000;-1073.000; -845.000
418.249; 9785.100; -512.000; -601.000
418.374; 1239.000; -916.000; -824.000
418.500;  203.700; -383.000; -482.000
418.626;  273.200;   70.000;  -59.000
418.751;  236.800; -549.000; -448.000
418.877;  372.800; -637.000; -643.000
419.002; 3667.500; -688.000; -560.000
419.128;23399.500; -930.000; -721.000
419.253; 5120.400; -967.000; -837.000
419.379;  753.100; -391.000; -338.000
419.504;  732.400;  325.000;  415.000
419.629;  988.200; -393.000; -212.000
419.755; 7325.700; -317.000; -254.000
419.880;39227.300;  -98.000;   67.000
420.006;21485.000; -280.000; -221.000
420.131;52038.900; -662.000; -775.000
420.256; 6720.200; -315.000; -316.000
420.382;  918.000; -665.000; -687.000
420.507;  123.600; -649.000; -778.000
420.632;  207.300; -337.000; -339.000
420.758;  300.800; -251.000; -425.000
420.883; -145.100; -876.000; -672.000
421.008; -148.500; -775.000; -619.000
421.133;  -72.000; -509.000; -467.000
421.259;  -76.800; -325.000; -259.000
421.384; -182.800; -834.000; -693.000
421.509;  -85.500;-1052.000; -862.000
421.634; 1629.000; -936.000; -820.000
421.759;  595.800; -359.000; -327.000
421.885; -105.200; -717.000; -656.000
422.010; -137.500; -673.000; -542.000
422.135; -254.900; -695.000; -727.000
422.260;   98.400;  340.000;  280.000
422.385;  -44.900;   12.000;  -98.000
422.510;   64.300;  151.000;  -26.000
422.635;   89.000;  -87.000;  -43.000
422.760;  190.700; -766.000; -791.000
422.885;  139.900;  -57.000;  -80.000
423.010;   -5.400; -112.000; -169.000
423.135; -130.500; -481.000; -561.000
423.260;    9.000; -150.000; -245.000
423.385;  146.400;  476.000;  222.000
423.510;   89.300;   71.000;  -22.000
423.635;  128.400;  133.000;   45.000
423.760;  124.500;  383.000;  328.000
423.885;  142.900;  336.000;  391.000
424.010;   45.600;  -68.000;  -13.000
424.135;   47.400;    5.000;  -33.000
424.259; -107.000; -654.000; -457.000
424.384;  -56.700; -279.000; -272.000
424.509;   -3.900; -260.000; -186.000
424.634; -165.800; -761.000; -623.000
424.759;  -42.000; -688.000; -544.000
424.883;  -15.600; -506.000; -527.000
425.008;  339.900; -502.000; -410.000
425.133; 3715.700; -679.000; -653.000
425.258; 1624.500; -517.000; -381.000
425.382; 1689.300; -867.000; -774.000
425.507; 3831.900; -487.000; -543.000
425.632;  670.500; -802.000; -663.000
425.756;  895.100; -256.000; -146.000
425.881;13450.700; -831.000; -857.000
426.006;32766.600; -604.000; -355.000
426.130; 4584.900; -696.000; -508.000
426.255;  639.900; -611.000; -491.000
426.379;  309.500; -189.000; -577.000
426.504;  765.400;  660.000;  544.000
426.629; 7607.700; -519.000; -466.000
426.753; 4638.300;   64.000;  -46.000
426.878;  551.000; -252.000; -288.000
427.002;  360.600; -651.000; -668.000
427.127; 3176.200;  -35.000; -158.000
427.251;21470.400;  372.000;  401.000
427.375; 5375.700; -191.000; -173.000
427.500; 3497.200; -616.000; -610.000
427.624; 1110.400; -234.000; -400.000
427.749;  165.000; -216.000; -225.000
427.873;  -59.200; -499.000; -412.000
427.997;  -56.200; -222.000; -230.000
428.122;  248.100;  795.000;  703.000
428.246;  194.500;  433.000;  434.000
428.371; -210.300; -869.000; -773.000
428.495; -170.500; -624.000; -646.000
428.619;  -41.700; -186.000; -117.000
428.743;   76.000;   65.000;  132.000
428.868;   44.900; -732.000; -643.000
428.992; 2130.100; -219.000; -326.000
429.116;  756.800; -329.000; -357.000
429.240;  422.600;  419.000;  426.000
429.365;  -19.100; -454.000; -574.000
429.489;  -57.100; -638.000; -647.000
429.613;   74.500; -236.000; -177.000
429.737;   96.200; -563.000; -432.000
429.861;  542.000; -247.000; -133.000
429.985;10805.900; -425.000; -305.000
430.109;10671.400; -770.000; -908.000
430.234; 1228.900;   76.000;  -50.000
430.358;  138.700; -250.000; -160.000
430.482; -109.800; -672.000; -564.000
430.606; -103.500; -655.000; -375.000
430.730;   28.100; -437.000; -388.000
430.854;  119.200; -909.000; -835.000
430.978; -149.800; -795.000; -764.000
431.102;  -80.800; -499.000; -422.000
431.226; -194.500; -874.000; -815.000
431.350;  101.300;  345.000;  422.000
431.474; -104.200; -661.000; -373.000
431.597; -258.700;-1060.000; -848.000
431.721; -114.700; -276.000; -267.000
431.845; -200.900; -704.000; -472.000
431.969; -107.000; -304.000; -349.000
432.093; -144.100; -395.000; -317.000
432.217;   25.200;   32.000;   82.000
432.341; -119.800; -523.000; -518.000
432.464;   54.400;   96.000;   40.000
432.588;  298.000; -401.000; -329.000
432.712;  180.500;  -52.000;  -52.000
432.836;  150.900;  213.000;  263.000
432.959;   11.000; -372.000; -311.000
433.083;  211.300;   11.000;    2.000
433.207;  737.900;  285.000;  930.000
433.330;10038.300; -391.000; -200.000
433.454;11203.500; -654.000; -638.000
433.578; 6583.100;  583.000;  278.000
433.701; 1082.000; -623.000; -675.000
433.825;  218.800; -292.000; -299.000
433.949;  293.400;   28.000;  -72.000
434.072;   78.400; -410.000; -323.000
434.196;   25.700; -309.000; -117.000
434.319; 7787.900;25482.000;25124.000
434.443; 1430.700; -656.000; -603.000
434.566; 4873.400;  281.000;   62.000
434.690;  711.600; -637.000; -383.000
434.813;  136.500; -251.000; -173.000
434.937; -113.600; -569.000; -696.000
435.060;  -67.100; -423.000; -332.000
435.184;  410.000; -492.000; -217.000
435.307;  248.100;  159.000;  102.000
435.431;   41.000;  -40.000;   24.000
435.554;  -90.000; -399.000; -240.000
435.677; -106.500; -350.000; -258.000
435.801;  -36.900;  -25.000;   49.000
435.924;    3.500;    1.000;  -67.000
436.048; -209.600;-1019.000; -732.000
436.171;  -93.300; -240.000;  -66.000
436.294;   -8.500; -248.000; -229.000
436.417;  185.600; -963.000; -849.000
436.541; -133.400; -814.000; -840.000
436.664;  -29.000; -242.000; -316.000
436.787;   37.300;   13.000;  113.000
436.910; -162.000; -792.000; -422.000
437.034;   81.400;  142.000;  143.000
437.157;   87.600;  -11.000;    0.000
437.280;  -94.400; -392.000; -292.000
437.403; -186.000; -982.000; -869.000
437.526;  854.100; -903.000; -865.000
437.649; 2962.700; -505.000; -332.000
437.772;  324.000; -692.000; -540.000
437.896;  264.800;  700.000;  544.000
438.019; -140.200; -758.000; -503.000
438.142;  -99.800; -596.000; -506.000
438.265;  -42.700; -639.000; -670.000
438.388;  758.900; -520.000; -410.000
438.511;  114.600; -597.000; -394.000
438.634;  -39.000; -247.000; -125.000
438.757; -249.800; -693.000; -619.000
438.880;  -18.500;  -34.000;  -57.000
439.003; -109.700; -417.000; -437.000
439.126;  -88.100; -287.000; -167.000
439.248;  -58.600;  -98.000; -139.000
439.371;   -7.200;    9.000;  -53.000
439.494;  137.400;  510.000;  439.000
439.617;  -34.100;   65.000;  -88.000
439.740; -296.900; -968.000; -816.000
439.863; -223.800; -755.000; -595.000
439.986; -179.300; -476.000; -431.000
440.108;  -47.900; -161.000; -112.000
440.231; -294.800; -950.000; -836.000
440.354;  -32.400;  -64.000; -150.000
440.477;   68.300; -566.000; -542.000
440.599;   18.000; -200.000; -225.000
440.722; -197.600; -709.000; -586.000
440.845;  204.500;  751.000;  928.000
440.968; -143.800; -415.000; -311.000
441.090;  -81.200; -199.000;  -33.000
441.213; -288.700;-1021.000; -825.000
441.336;  -55.200; -159.000;   -5.000
441.458;  -91.800; -549.000; -396.000
441.581; -152.200; -628.000; -629.000
441.703;  -97.600; -152.000;   13.000
441.826; -137.000; -557.000; -400.000
441.948;  -37.200;   56.000;   51.000
442.071;  140.000;  555.000;  424.000
442.193; -176.400; -531.000; -485.000
442.316;   56.000;  152.000;   97.000
442.438;   80.000; -233.000;  -10.000
442.561;  148.900;  272.000;  262.000
442.683;  712.700; -809.000; -522.000
442.806; 1582.300;   -8.000;   74.000
442.928;  -38.300; -859.000; -604.000
443.051; -122.400; -577.000; -373.000
443.173; -124.500; -341.000; -339.000
443.295; -100.700; -263.000; -371.000
443.418; -122.100; -321.000;  -29.000
443.540;   31.300; -106.000;   -4.000
443.662; -181.900; -563.000; -465.000
443.785;   27.700;  335.000;  199.000
443.907; -174.500; -362.000; -208.000
444.029; -222.500; -767.000; -494.000
444.152; -240.300; -644.000; -554.000
444.274;  -21.000;  -18.000;  -24.000
444.396; -130.700; -461.000; -221.000
444.518; -203.700; -691.000; -454.000
444.640; -162.300; -268.000; -111.000
444.763;   11.900;  388.000;  249.000
444.885; -189.300; -432.000; -392.000
445.007;    6.500;   35.000;   86.000
445.129; -176.900; -610.000; -515.000
445.251; -153.400; -372.000; -439.000
445.373; -235.200; -537.000; -386.000
445.495;   45.800;  242.000;  350.000
445.617;  172.900;  853.000;  753.000
445.739;  -93.200; -215.000;  -97.000
445.861;  -17.100; -245.000; -112.000
445.984;  -60.300; -267.000; -101.000
446.105;  290.000; -418.000; -251.000
446.227;  832.500; -176.000;  -19.000
446.349;   -5.900; -358.000; -249.000
446.471; -151.300; -615.000; -448.000
446.593;  -97.100; -316.000;   19.000
446.715;  -13.300;  -67.000;   41.000
446.837;  181.300;  697.000;  832.000
446.959; -142.600; -457.000; -478.000
447.081; -205.500; -628.000; -518.000
447.203;  196.300;  862.000;  834.000
447.325; -116.000; -270.000;   42.000
447.446;   25.700;  286.000;  530.000
447.568; -279.700; -921.000; -803.000
447.690; -103.100; -236.000; -245.000
447.812; -249.700; -798.000; -519.000
447.933;  -21.400;  155.000;  127.000
448.055;  -86.200; -306.000; -261.000
448.177;  276.200;   31.000;   79.000
448.299;   45.000; -935.000; -727.000
448.420;   74.500;  -25.000;  159.000
448.542;  -43.200;   -3.000;   33.000
448.664;    3.500;  109.000;  322.000
448.785;  -24.500;  265.000;   83.000
448.907; -126.700; -614.000; -353.000
449.028;  -45.500; -771.000; -471.000
449.150;  190.000;  492.000;  589.000
449.272; -320.900;-1044.000; -913.000
449.393;  118.500;  612.000;  694.000
449.515; -234.500; -634.000; -581.000
449.636;  -85.400; -264.000; -155.000
449.758;  213.300;  763.000;  622.000
449.879; -141.700; -498.000; -396.000
450.001;  -80.500; -149.000;  -49.000
450.122;  -35.300;  -95.000;  162.000
450.244;   44.700;   37.000;  364.000
450.365; -118.200; -495.000; -301.000
450.486;   15.100;   80.000;  268.000
450.608;  125.600;  393.000;  326.000
450.729;  218.800;  578.000;  645.000
450.850;   75.200; -574.000; -466.000
450.972; 1595.700; -552.000; -389.000
451.093; 9547.800;  190.000;  588.000
451.214; 3600.100; -516.000; -337.000
451.336;  756.600;  773.000;  579.000
451.457;  195.500;  264.000;  393.000
451.578;  -25.000; -118.000;  -74.000
451.699; -197.900; -546.000; -540.000
451.821;  -54.400; -284.000;  -50.000
451.942;   61.100;  278.000;  285.000
452.063;  136.500;  228.000;  419.000
452.184; 1182.200;  -54.000;  -49.000
452.305; 2026.800;  103.000;  170.000
452.427;  214.100; -549.000; -301.000
452.548;   15.900;   23.000;   79.000
452.669;  -49.600; -257.000;  -89.000
452.790;  -24.500;    3.000;  -18.000
452.911;   54.900;  195.000;  259.000
453.032;  -69.200; -289.000;  -60.000
453.153;  -10.300;  -29.000;   81.000
453.274;  181.600;  737.000;  868.000
453.395;  -56.700;  -51.000;  175.000
453.516;  351.400; 1317.000; 1388.000
453.637;  -97.400; -205.000; -150.000
453.758;  -51.500;   15.000;   69.000
453.879; -149.800; -462.000; -250.000
454.000;  205.600; 1086.000;  948.000
454.121; -179.600; -554.000; -326.000
454.242; -172.400; -599.000; -383.000
454.362;  -33.600;  -99.000;  114.000
454.483;  -64.400; -309.000; -229.000
454.604;  151.200;  512.000;  580.000
454.725; -223.700; -627.000; -555.000
454.846; -184.500; -474.000; -406.000
454.967;   18.000;  230.000;  539.000
455.087;    0.100;  179.000;  153.000
455.208;  103.200;  554.000;  856.000
455.329;  -74.100;  -22.000;   82.000
455.450;  151.500;  473.000;  633.000
455.570; -106.300; -234.000; -211.000
455.691;  -29.900;  201.000;  407.000
455.812; -154.300; -270.000;  -92.000
455.932;  -34.200;  107.000;  -97.000
456.053; -115.400;   36.000;   24.000
456.173; -155.600; -433.000; -355.000
456.294; -199.500; -476.000; -303.000
456.415;  -74.100;  -73.000;   70.000
456.535;   14.300;  297.000;  273.000
456.656;  -25.300;  132.000;  240.000
456.776;  -60.600;    3.000;  298.000
456.897;   60.300;  308.000;  513.000
457.017; -105.500; -153.000;   -3.000
457.138; -186.900; -402.000; -249.000
457.258;  -19.100;  263.000;  224.000
457.379;   23.600;  509.000;  521.000
457.499;   51.000;  443.000;  432.000
457.620; -180.500; -407.000; -231.000
457.740; -112.300; -132.000;  -11.000
457.860;  -75.800;   87.000;   44.000
457.981;   -6.000;  132.000;  124.000
458.101; -109.900;  -89.000;   40.000
458.221;   37.200;  336.000;  402.000
458.342;  -53.100;   -4.000;  -37.000
458.462;  149.300;  617.000;  352.000
458.582;  -26.000; -302.000; -294.000
458.703;   53.600;  303.000;  154.000
458.823;   -0.200;   22.000;  163.000
458.943;  109.000;  341.000;  467.000
459.063;   44.600; 1124.000;  192.000
459.183;   30.600;  328.000;  313.000
459.304;   56.500;  315.000;  517.000
459.424;  -79.800; -246.000;  -89.000
459.544;  718.500;  388.000;  764.000
459.664; 1607.700;  499.000;  506.000
459.784;  601.400; 1004.000; 1175.000
459.904;  151.100;  867.000;  744.000
460.024;  201.600;  867.000;  684.000
460.144;   72.600;  449.000;  554.000
460.264;   88.900;  515.000;  327.000
460.385; -113.000; -145.000; -119.000
460.505;  122.100;  905.000;  858.000
460.625; -133.600;  -17.000;  -68.000
460.745;   24.300;  396.000;  541.000
460.864;   24.700;  153.000;  469.000
460.984;  112.000;  499.000;  573.000
461.104;  374.300; 1656.000; 1775.000
461.224;   95.700;  657.000;  650.000
461.344;   19.600;  431.000;  360.000
461.464;    3.200;  258.000;  513.000
461.584;   38.500;  283.000;  466.000
461.704;  -82.300;   58.000;  108.000
461.824;  -38.500;  238.000;  259.000
461.943;  -48.400;  191.000;  130.000
462.063;  -91.300;    2.000;  324.000
462.183;  112.400;  639.000;  717.000
462.303;  286.300; 1678.000; 1230.000
462.422;   96.100;  781.000;  840.000
462.542;  -10.900;  271.000;  391.000
462.662;  111.600;  353.000;  380.000
462.782;  529.900;  833.000;  572.000
462.901;  944.700;  545.000;  717.000
463.021;  583.700; 1702.000; 1638.000
463.141;   54.400;  337.000;  770.000
463.260;   24.800;  614.000;  474.000
463.380;   69.800;  902.000;  884.000
463.499;  -17.100;  342.000;  332.000
463.619;  -26.500;  581.000;  559.000
463.738;  311.900; 1644.000;  903.000
463.858;   69.300;  657.000;  811.000
463.978;    6.700;  542.000;  396.000
464.097;  190.600;  921.000; 1114.000
464.217;  331.300; 1196.000; 1143.000
464.336;  259.800; 1068.000; 1130.000
464.455;   -1.400;  328.000;  659.000
464.575;  128.600;  597.000;  602.000
464.694;  363.900; 1204.000; 1179.000
464.814;  304.800; 1190.000; 1138.000
464.933;  200.000; 1095.000; 1027.000
465.052;  248.100; 1412.000; 1054.000
465.172;  183.000;  922.000;  799.000
465.291;  313.400; 1376.000; 1320.000
465.410;   89.300;  462.000;  735.000
465.530;  280.500; 1355.000; 1310.000
465.649;  204.600; 1209.000; 1273.000
465.768;  325.000; 1673.000; 1508.000
465.888;  169.000;  941.000; 1174.000
466.007;  244.800; 1335.000; 1440.000
466.126;   85.400;  721.000;  641.000
466.245;  159.200; 1176.000; 1187.000
466.364;  111.800;  950.000; 1060.000
466.484;  161.500; 1024.000; 1213.000
466.603;  119.700; 1101.000; 1222.000
466.722;  296.400; 1490.000; 1769.000
466.841;  224.700; 1151.000; 1401.000
466.960;  115.000; 1069.000;  972.000
467.079;  328.700; 1971.000; 1786.000
467.198;  155.400; 1238.000; 1181.000
467.317;  252.800; 1768.000; 1162.000
467.436;  220.700; 1709.000; 1261.000
467.555;  353.100; 1796.000; 1746.000
467.674;  199.100; 1227.000; 1329.000
467.793;  128.700; 1376.000; 1374.000
467.912;  259.700; 1658.000; 1539.000
468.031;  358.300; 2038.000; 1930.000
468.150;  313.200; 1842.000; 1837.000
468.269;  454.900; 2313.000; 2090.000
468.388;  447.200; 2168.000; 2339.000
468.507;  591.400; 2884.000; 2903.000
468.626;  615.900; 2555.000; 2541.000
468.744;  358.700; 2018.000; 2174.000
468.863;  509.100; 2312.000; 2523.000
468.982;  261.900; 1503.000; 1555.000
469.101;  528.200; 2788.000; 2692.000
469.220;  380.400; 2333.000; 2176.000
469.338;  574.500; 2935.000; 3051.000
469.457;  472.100; 2719.000; 2545.000
469.576;  776.600; 3953.000; 3784.000
469.695;  509.800; 2877.000; 3066.000
469.813;  928.000; 4148.000; 4192.000
469.932;  911.900; 4255.000; 4485.000
470.051;  907.700; 4075.000; 4161.000
470.169; 1751.000; 4470.000; 4338.000
470.288; 2825.600; 4700.000; 4809.000
470.406; 1714.100; 5059.000; 5194.000
470.525; 1346.100; 6101.000; 5787.000
470.644; 1383.300; 6847.000; 6794.000
470.762; 1802.800; 8397.000; 7873.000
470.881; 1859.700; 8651.000; 8464.000
470.999; 2166.200; 9685.000; 9151.000
471.118; 2310.700;11174.000;10711.000

