
Integration time [ms]: 100.000
Averaging Nr. [scans]: 40
Smoothing Nr. [pixels]: 0
Data measured with spectrometer [name]: 2101012U2
Wave   ;Sample   ;Dark     ;Reference
[nm]   ;[counts] ;[counts] ;[counts] 

197.733;   54.325;  516.000;  404.000
197.879;  -73.100; -610.000; -634.000
198.025;  -50.125; -475.000; -420.000
198.171;  -80.900; -602.000; -612.000
198.317;  -30.950; -401.000; -316.000
198.463;  -60.375; -655.000; -404.000
198.609;   12.925;  181.000; -137.000
198.755;  -57.700; -644.000; -410.000
198.901;  -64.550; -505.000; -424.000
199.047;  -65.900; -615.000; -488.000
199.193;  -47.975; -230.000; -468.000
199.339;  -52.450; -222.000; -369.000
199.485;   25.025;  330.000;  271.000
199.631;    9.025;  227.000;  310.000
199.777;  -58.275; -466.000; -398.000
199.923;  -61.050; -610.000; -424.000
200.069;  -10.550; -141.000;  -58.000
200.215;   54.650;  128.000;  453.000
200.361;   43.150;  243.000;  477.000
200.507;  -49.750; -600.000; -373.000
200.653;  -19.100; -371.000; -194.000
200.798;  -38.325; -215.000; -125.000
200.944;  -12.250; -146.000;  -41.000
201.090;   25.575;   61.000;  222.000
201.236;   -3.200; -116.000; -158.000
201.382;  130.025;  874.000;  903.000
201.528;   -4.800;  -58.000;  -48.000
201.674;  -49.400; -386.000; -293.000
201.819;  -53.025; -540.000; -439.000
201.965;  -80.300; -699.000; -447.000
202.111;  -19.975; -273.000; -226.000
202.257;  -39.775; -250.000; -238.000
202.402;    0.575;   13.000;  -36.000
202.548;  -36.600; -169.000; -116.000
202.694;   72.375;  410.000; -183.000
202.840;  -64.800; -603.000; -531.000
202.985;  -74.775; -681.000; -639.000
203.131;  -92.775; -832.000; -666.000
203.277;  -36.525; -199.000; -262.000
203.423;  -53.625; -434.000; -520.000
203.568;  -44.350; -462.000; -237.000
203.714;  -63.200; -535.000; -542.000
203.860;  -70.950; -682.000; -641.000
204.005;   13.075;  112.000;  167.000
204.151;   66.650;  561.000;  556.000
204.296;  -49.925; -354.000; -221.000
204.442;  -59.475; -600.000; -547.000
204.588;  -77.725; -592.000; -579.000
204.733;    4.925;  178.000;  168.000
204.879; -124.050;-1018.000; -822.000
205.025;   -4.200;  -99.000;  126.000
205.170;   -4.400;  -17.000;   94.000
205.316;   80.725;  438.000;  661.000
205.461;  -83.650; -698.000; -554.000
205.607;   77.275;  609.000;  665.000
205.752;  -76.475; -626.000; -551.000
205.898;  -62.000; -501.000; -391.000
206.043;  -51.725; -578.000; -506.000
206.189;  -45.225; -243.000; -285.000
206.334;   65.400;  554.000;  606.000
206.480;   72.525;  409.000;  239.000
206.625;  -89.150; -529.000; -552.000
206.771;  -51.625; -451.000; -373.000
206.916;  -25.575; -210.000; -537.000
207.062;  -71.775; -545.000; -591.000
207.207;  -53.225; -546.000; -443.000
207.353;   48.000;  185.000;  460.000
207.498;   11.775;  196.000;   85.000
207.643;  -46.150; -501.000; -370.000
207.789; -129.025;-1069.000; -910.000
207.934;  -88.300; -665.000; -713.000
208.080;  -18.925; -154.000;   66.000
208.225;  -16.375;  -22.000;  -57.000
208.370;  -85.725; -727.000; -619.000
208.516;  -75.225; -741.000; -487.000
208.661;  -36.300; -127.000;  -69.000
208.806;  -29.175; -165.000; -171.000
208.952; -122.900;-1044.000; -731.000
209.097;   54.600;  378.000;  349.000
209.242;  -38.550; -307.000; -382.000
209.387;   45.250;  392.000;  350.000
209.533;  -58.050; -321.000; -350.000
209.678;   71.300;  472.000;  543.000
209.823;  -59.475; -408.000; -310.000
209.969; -106.975; -860.000; -757.000
210.114;  -97.800; -907.000; -719.000
210.259; -113.575; -939.000; -889.000
210.404;  -15.900; -171.000;  103.000
210.549;   -5.625;  108.000;    3.000
210.695;  -18.650;   -3.000;  -95.000
210.840;   26.475;   94.000;   67.000
210.985;  -61.975; -484.000; -303.000
211.130;   58.875;  268.000;  406.000
211.275;   16.125;  207.000;  199.000
211.420;  -64.000; -300.000; -289.000
211.566;  -62.175; -536.000; -489.000
211.711;   30.900;  218.000;  157.000
211.856;  -55.125; -545.000; -519.000
212.001;    9.300;  151.000;   44.000
212.146;   26.825;  153.000;   49.000
212.291;  -32.150; -210.000; -186.000
212.436;  -36.825; -280.000;   -6.000
212.581;  -93.250; -685.000; -653.000
212.726;  -64.250; -487.000; -538.000
212.871;  -48.350; -552.000; -217.000
213.016; -146.475;-1172.000;-1029.000
213.161;   43.375;  406.000;  291.000
213.306;  -64.250; -435.000; -577.000
213.451;  -85.200; -778.000; -689.000
213.596;  -44.325; -455.000; -347.000
213.741;  -55.425; -448.000; -538.000
213.886;  -74.975; -498.000; -517.000
214.031;  -32.675; -294.000; -124.000
214.176;  -46.650; -408.000; -341.000
214.321;  -21.025; -296.000; -157.000
214.466;  -25.300; -163.000;  -43.000
214.611;   -0.075;  -61.000;  -10.000
214.756; -114.650; -948.000; -858.000
214.901;  -30.525; -388.000; -226.000
215.046; -116.375; -797.000; -825.000
215.191;    3.675;  128.000;   35.000
215.336;  -11.425; -157.000;  -19.000
215.480;  -61.875; -684.000; -505.000
215.625;  -18.775; -175.000;  -19.000
215.770;  -89.575; -757.000; -662.000
215.915;    2.800;   -5.000;  -97.000
216.060;  -14.525; -113.000;  -21.000
216.205; -111.375; -731.000; -779.000
216.349;  -65.275; -470.000; -533.000
216.494; -122.950; -939.000; -867.000
216.639; -118.675; -823.000; -888.000
216.784;  -86.700; -577.000; -525.000
216.929;   40.625;  392.000;  281.000
217.073;  -32.475; -244.000;  -31.000
217.218;   15.650;   78.000;  -47.000
217.363;  -88.675; -656.000; -618.000
217.507;  -90.200; -623.000; -588.000
217.652; -134.175; -845.000; -874.000
217.797;  -90.075; -708.000; -659.000
217.942; -100.175; -856.000; -720.000
218.086;   77.125;  608.000;  539.000
218.231;  -19.350; -174.000;  -26.000
218.376;  -38.725; -337.000; -229.000
218.520;    6.250;  -41.000;   96.000
218.665;  -28.200; -338.000; -204.000
218.810;  -41.600; -275.000; -233.000
218.954;    9.150;  201.000;   35.000
219.099; -112.075; -713.000; -963.000
219.243;  -67.050; -589.000; -554.000
219.388;  -19.250; -264.000; -136.000
219.532;  -10.925; -116.000; -116.000
219.677;  -73.325; -564.000; -521.000
219.822;   -3.700;   33.000;   89.000
219.966;   18.125;   17.000;  -99.000
220.111;  -29.575; -328.000;  -40.000
220.255;  -93.900; -797.000; -750.000
220.400;  -17.750; -180.000; -146.000
220.544;  -64.700; -516.000; -450.000
220.689;  -63.175; -422.000; -451.000
220.833;   -5.425; -123.000;  -58.000
220.978;  -39.900; -393.000; -563.000
221.122;   21.275;  319.000;  307.000
221.267; -118.450; -906.000; -837.000
221.411;  -62.925; -478.000; -394.000
221.555;  -15.400; -104.000;  -23.000
221.700;  -50.475; -329.000; -222.000
221.844;   30.600;  255.000;  272.000
221.989;  -30.325; -328.000; -311.000
222.133;  -39.100; -289.000; -307.000
222.277;  -16.225;    5.000;   78.000
222.422;    1.600;  227.000;  113.000
222.566;  -40.300; -381.000; -214.000
222.711;  -71.400; -414.000; -479.000
222.855;  -85.125; -643.000; -586.000
222.999;  -82.450; -642.000; -717.000
223.144;  -36.900; -195.000; -194.000
223.288;   50.100;  423.000;  251.000
223.432;   23.400;  184.000;  230.000
223.576;    7.025;  152.000;  -21.000
223.721;   44.875;  364.000;  273.000
223.865;  -58.025; -472.000; -475.000
224.009;  236.575; 1673.000; 1631.000
224.153;  -85.500; -660.000; -671.000
224.298;  -71.550; -531.000; -489.000
224.442;   -3.925;  -74.000;  -33.000
224.586;   -7.825; -169.000; -106.000
224.730; -101.625; -858.000; -670.000
224.875; -109.475; -739.000; -688.000
225.019;    1.575;  102.000;  188.000
225.163;   53.875;  208.000;  341.000
225.307;   17.825;   97.000;  -91.000
225.451;   40.075;  360.000;  481.000
225.595;   20.125;  264.000;  176.000
225.739;  -13.600; -170.000;  -94.000
225.884;   11.725;   86.000;    5.000
226.028;  -96.125; -760.000; -626.000
226.172;  -42.000; -260.000; -273.000
226.316; -114.800; -941.000; -902.000
226.460;  -78.575; -645.000; -493.000
226.604;  -60.400; -406.000; -400.000
226.748; -112.925; -836.000; -733.000
226.892;  -40.575; -227.000; -181.000
227.036;  -45.425; -537.000; -447.000
227.180;  -58.000; -551.000; -375.000
227.324;  -65.625; -561.000; -580.000
227.468; -109.925; -819.000; -717.000
227.612;    3.850;  242.000;  -28.000
227.756; -106.625; -845.000; -698.000
227.900;   58.125;  342.000;  441.000
228.044;  -61.800; -509.000; -290.000
228.188;   63.800;  448.000;  568.000
228.332;  -83.650; -546.000; -472.000
228.476;  -36.400; -223.000; -149.000
228.620;  -38.450; -210.000; -150.000
228.764;   59.650;  431.000;  349.000
228.908;  -22.625; -155.000;   30.000
229.052;  -76.650; -615.000; -528.000
229.195;  -24.000; -172.000;   13.000
229.339;  -34.850; -235.000; -305.000
229.483;  -26.225;    5.000; -162.000
229.627;   -8.900; -156.000;  139.000
229.771;  -52.850; -218.000; -294.000
229.915;    2.175;  230.000;   79.000
230.059;  -90.000; -648.000; -663.000
230.202;  -43.525; -370.000; -317.000
230.346;  -15.125; -107.000;  107.000
230.490;  -64.500; -489.000; -521.000
230.634; -104.850; -736.000; -553.000
230.777;   73.650;  478.000;  509.000
230.921;  -57.650; -450.000; -359.000
231.065;  -50.400; -246.000; -286.000
231.209;   31.700;  261.000;  265.000
231.352;   13.275;   54.000;   40.000
231.496;   22.625;  568.000;  188.000
231.640;  -78.750; -693.000; -621.000
231.783;   62.850;  546.000;  525.000
231.927;  -58.750; -294.000; -365.000
232.071; -119.775; -962.000; -736.000
232.214; -116.400; -980.000; -764.000
232.358;  -97.600; -683.000; -599.000
232.502;   10.125;  -19.000;    7.000
232.645; -119.475;-1090.000; -927.000
232.789;  -39.050; -257.000; -218.000
232.933;  -31.250; -407.000; -224.000
233.076; -133.350;-1038.000; -897.000
233.220;  -97.400; -752.000; -777.000
233.363;  -67.475; -669.000; -477.000
233.507;   56.950;  371.000;  129.000
233.650; -102.150; -764.000; -834.000
233.794;   34.025;  438.000;  461.000
233.938;  -65.525; -530.000; -362.000
234.081;  -17.350;  -93.000;   31.000
234.225;  -70.800; -631.000; -539.000
234.368; -113.550; -773.000; -723.000
234.512;  -41.475; -385.000; -299.000
234.655;  -84.425; -582.000; -555.000
234.798;  -71.250; -493.000; -466.000
234.942; -131.375; -884.000;-1002.000
235.085;  -84.375; -651.000; -443.000
235.229;  -70.775; -405.000; -410.000
235.372;  -56.800; -247.000; -191.000
235.516;  -73.200; -397.000; -321.000
235.659;   -3.700;   92.000;  121.000
235.802;  -10.375;  -38.000;  -22.000
235.946;    4.150;  335.000;  215.000
236.089;   35.275;  126.000;  250.000
236.233;   40.075;  275.000;  298.000
236.376;  -44.600; -235.000; -378.000
236.519;  -43.225; -297.000; -319.000
236.663;  -18.650; -215.000; -117.000
236.806; -137.100;-1029.000; -999.000
236.949;   48.400;  543.000;  431.000
237.092;   42.575;  412.000;  391.000
237.236;  -88.950; -589.000; -502.000
237.379;   56.575;  352.000;  428.000
237.522; -118.075; -879.000; -768.000
237.666;  -21.575; -271.000;   18.000
237.809; -121.175; -851.000; -823.000
237.952;   44.750;  469.000;  271.000
238.095;  -71.500; -447.000; -442.000
238.238;   74.250;  688.000;  700.000
238.382;   -4.275;  166.000;  103.000
238.525;  -77.075; -598.000; -511.000
238.668; -147.875;-1060.000; -985.000
238.811;  -81.925; -638.000; -643.000
238.954;  -64.675; -483.000; -334.000
239.097;   78.950;  617.000;  664.000
239.241;   20.025;  394.000;  326.000
239.384;  -41.900; -254.000; -214.000
239.527;  -64.650; -424.000; -224.000
239.670; -149.050; -994.000;-1091.000
239.813; -107.375; -696.000; -658.000
239.956;   61.550;  579.000;  473.000
240.099; -104.625; -778.000; -725.000
240.242;   51.125;  428.000;  432.000
240.385;   32.900;  466.000;  450.000
240.528;  -86.725; -706.000; -473.000
240.671;   13.400;  189.000;  134.000
240.814;  -48.925; -441.000; -158.000
240.957;  -93.450; -767.000; -578.000
241.100;  -93.225; -779.000; -755.000
241.243; -141.575;-1234.000; -893.000
241.386;  -65.825; -508.000; -379.000
241.529;  -91.825; -735.000; -547.000
241.672;  -72.025; -566.000; -495.000
241.815; -106.325; -832.000; -808.000
241.958;  -25.100; -125.000; -182.000
242.101;  -79.100; -545.000; -390.000
242.244;  -43.425; -270.000; -325.000
242.387;  -28.500; -304.000; -246.000
242.530;   47.325;  470.000;  134.000
242.673;  -45.100; -381.000; -309.000
242.815; -113.975; -925.000; -899.000
242.958;  -75.575; -482.000; -381.000
243.101;   10.300;  132.000;  187.000
243.244;  -92.525; -564.000; -521.000
243.387;  -49.300; -313.000; -316.000
243.530;  -85.450; -657.000; -674.000
243.672;    2.700;   43.000;  -92.000
243.815;  -53.825; -355.000; -283.000
243.958;   -8.475;   98.000;  -26.000
244.101;   -6.725;   59.000;  -16.000
244.243;  -10.575;  -47.000;  101.000
244.386; -114.650; -761.000; -630.000
244.529;  -27.475; -132.000; -139.000
244.672; -148.050;-1154.000; -951.000
244.814;  -99.050; -621.000; -794.000
244.957;  -52.150; -380.000; -304.000
245.100;  -92.025; -489.000; -489.000
245.242;  -54.575; -387.000; -374.000
245.385;   -9.350;  -59.000;  -39.000
245.528; -112.550; -871.000; -705.000
245.670;   86.525;  612.000;  634.000
245.813;  -69.425; -599.000; -547.000
245.956;  -30.675; -324.000; -275.000
246.098;  -76.100; -508.000; -650.000
246.241;    5.550;  194.000;   48.000
246.383;  -23.850; -119.000;  -73.000
246.526;  -69.175; -454.000; -525.000
246.669; -109.550; -889.000; -780.000
246.811;   10.575;  172.000;   -1.000
246.954;  -72.575; -512.000; -426.000
247.096;  -27.375;  -84.000;   -6.000
247.239;  -68.025; -482.000; -445.000
247.381;  -60.300; -647.000; -488.000
247.524;   83.375;  645.000;  679.000
247.666;  -16.550;   58.000;   11.000
247.809; -115.275; -887.000; -691.000
247.951;  -12.900;  -75.000;  138.000
248.094;   48.525;  432.000;  308.000
248.236; -156.125;-1262.000;-1238.000
248.378;   13.825; -356.000;  -81.000
248.521;  -19.200; -334.000; -337.000
248.663;  -33.575; -236.000; -267.000
248.806;  -30.150; -300.000; -266.000
248.948;  -92.325; -886.000; -763.000
249.090;  -41.975; -428.000; -398.000
249.233;  -39.575; -344.000; -381.000
249.375;  -72.475; -474.000; -451.000
249.518;  -23.525;  -83.000; -133.000
249.660;  -13.875; -103.000;    3.000
249.802; -165.350;-1303.000;-1189.000
249.945;  -68.825; -612.000; -540.000
250.087; -110.000; -834.000; -768.000
250.229;  -59.575; -362.000; -480.000
250.371;  -72.600; -494.000; -439.000
250.514;  -63.225; -310.000; -244.000
250.656;   -4.250;   69.000;  102.000
250.798; -114.175; -849.000; -800.000
250.940;  -64.075; -322.000; -322.000
251.083;  -31.875; -335.000; -111.000
251.225;   59.075;  338.000;  310.000
251.367;  -54.050; -274.000; -373.000
251.509;  -40.175; -265.000; -210.000
251.651; -105.575; -731.000; -671.000
251.794;   54.800;  538.000;  632.000
251.936;  -97.875; -821.000; -747.000
252.078;  -89.325; -540.000; -461.000
252.220;  -79.100; -645.000; -477.000
252.362;  101.975;  344.000;  462.000
252.504;  -75.550; -677.000; -584.000
252.646; -120.150; -875.000; -722.000
252.788;    4.600;   14.000; -128.000
252.931;  -25.075; -257.000; -253.000
253.073;  -50.800; -376.000; -317.000
253.215;  -16.225;  141.000;  122.000
253.357;  -21.875;   82.000; -153.000
253.499;  -38.775; -374.000; -234.000
253.641;  -86.575; -749.000; -594.000
253.783;  -94.675; -609.000; -527.000
253.925;  -92.925; -586.000; -591.000
254.067;  -99.950; -744.000; -667.000
254.209;  -32.275; -391.000; -259.000
254.351; -136.150; -865.000; -883.000
254.493;  -61.975; -441.000; -417.000
254.635; -124.200; -936.000; -818.000
254.777;  -85.300; -752.000; -687.000
254.918;  -71.400; -512.000; -430.000
255.060;  -70.150; -551.000; -395.000
255.202;  -58.700; -473.000; -261.000
255.344;  -82.050; -658.000; -455.000
255.486;  -65.200; -471.000; -406.000
255.628; -108.525; -780.000; -781.000
255.770;  -80.050; -676.000; -536.000
255.912;  -65.825; -559.000; -468.000
256.053;  -78.225; -730.000; -508.000
256.195;  140.900; 1008.000;  903.000
256.337;  -95.925; -861.000; -595.000
256.479;   51.750;  532.000;  416.000
256.621;  -45.725; -394.000; -212.000
256.762;  -99.750; -789.000; -742.000
256.904;   41.900;  485.000;  487.000
257.046;  -53.000; -381.000; -271.000
257.188;  -51.075; -351.000; -264.000
257.329;  -67.950; -525.000; -464.000
257.471; -101.625; -939.000; -807.000
257.613;  -61.925; -584.000; -498.000
257.755; -128.275;-1073.000; -982.000
257.896;   32.550;  286.000;  392.000
258.038;  -82.625; -403.000; -352.000
258.180;  -33.450; -354.000; -279.000
258.321;  -88.850; -581.000; -457.000
258.463;  -25.450;  -71.000;  133.000
258.605;  -94.300; -562.000; -570.000
258.746; -115.675; -886.000; -772.000
258.888; -138.700;-1026.000;-1020.000
259.029;    6.325;  121.000;   -8.000
259.171;  -91.150; -614.000; -550.000
259.313;   -0.100;  -49.000;  -47.000
259.454;  -82.850; -536.000; -414.000
259.596;  -65.775; -483.000; -390.000
259.737;  -80.225; -590.000; -474.000
259.879;   17.475;  217.000;  311.000
260.020;   88.050;  901.000;  636.000
260.162;  -20.275; -146.000; -253.000
260.303; -109.825; -768.000; -687.000
260.445;  -76.450; -609.000; -613.000
260.586;   16.225;  392.000;  157.000
260.728;  -52.850; -360.000; -248.000
260.869; -109.875; -350.000; -343.000
261.011;   78.025;  706.000;  537.000
261.152;  -63.000; -479.000; -319.000
261.293;  -80.375; -576.000; -595.000
261.435;  -34.500; -219.000; -184.000
261.576;  -61.025; -455.000; -325.000
261.718;   46.700;  420.000;  470.000
261.859; -133.075; -940.000; -949.000
262.000; -131.700; -951.000;-1016.000
262.142;  -32.225;  -52.000;  -60.000
262.283; -120.175; -808.000; -691.000
262.424;  -89.500; -666.000; -625.000
262.566; -136.625;-1161.000; -983.000
262.707; -122.675; -840.000; -830.000
262.848; -111.775; -769.000; -726.000
262.990;  -47.875; -362.000; -345.000
263.131;   72.325;  650.000;  681.000
263.272;  -13.300;  -61.000;  -41.000
263.413;  -90.400; -589.000; -561.000
263.555;  -69.550; -669.000; -143.000
263.696;  -88.000; -550.000; -641.000
263.837;  -56.325; -449.000; -551.000
263.978;   -2.175;   -5.000;  -77.000
264.119;  -60.400; -283.000; -264.000
264.261; -122.500; -847.000; -630.000
264.402;  -11.100;   33.000;   40.000
264.543;  -70.925; -509.000; -524.000
264.684;  -17.275;   61.000;  -50.000
264.825;  -72.125; -816.000; -538.000
264.966;  -16.675;  -84.000;  -67.000
265.107; -110.075; -646.000; -670.000
265.248; -127.725; -825.000; -812.000
265.390;  -20.150;  152.000;   -9.000
265.531;  -31.900; -238.000; -107.000
265.672;  -88.050; -557.000; -630.000
265.813;   60.350;  563.000;  439.000
265.954; -150.625; -959.000; -940.000
266.095;  -18.400; -372.000; -322.000
266.236;  -93.150; -686.000; -548.000
266.377;  -51.375; -243.000; -297.000
266.518;  -70.475; -619.000; -547.000
266.659;   29.025;  170.000;  268.000
266.800;    8.000;   83.000;   85.000
266.941;  -73.775; -487.000; -478.000
267.082;    5.675;  354.000;   99.000
267.223;  -44.250; -344.000; -273.000
267.364; -115.775; -892.000; -686.000
267.504;   -4.025;    3.000;  135.000
267.645;  -16.075;  160.000;   67.000
267.786;  -34.825; -147.000;  -86.000
267.927;  -58.925; -473.000; -379.000
268.068;  -22.600; -186.000;  -61.000
268.209;  -51.200; -175.000; -413.000
268.350;  -66.750; -388.000; -532.000
268.490;  -87.475; -648.000; -521.000
268.631;   24.425;  127.000;  225.000
268.772; -117.825; -874.000; -647.000
268.913;  -57.050; -328.000; -476.000
269.054;  -16.175; -117.000;   12.000
269.194;  -56.450; -418.000; -402.000
269.335; -145.550;-1137.000;-1074.000
269.476;  -21.850;   33.000;  -35.000
269.617;  -60.475; -347.000; -392.000
269.757;  -94.975; -713.000; -646.000
269.898; -107.675; -856.000; -613.000
270.039;  -61.400; -415.000; -405.000
270.180; -131.050; -952.000; -816.000
270.320;  -29.950; -190.000; -250.000
270.461;  -53.750; -277.000; -249.000
270.602;  -14.000; -186.000; -156.000
270.742; -109.525; -868.000; -943.000
270.883;  -65.300; -442.000; -390.000
271.023;  -75.450; -358.000; -357.000
271.164;  -77.825; -607.000; -528.000
271.305;  -95.625; -666.000; -654.000
271.445;  -83.075; -722.000; -683.000
271.586;  -70.575; -462.000; -283.000
271.726;  -40.175; -397.000; -322.000
271.867;  -44.375; -594.000; -534.000
272.008;  225.725; -473.000; -285.000
272.148;  157.000;  462.000;  468.000
272.289;   11.175; -113.000; -181.000
272.429;   22.550;   19.000;  185.000
272.570;  -85.775; -633.000; -737.000
272.710; -104.025; -825.000; -775.000
272.851;  -22.825;  113.000; -130.000
272.991; -166.575;-1173.000;-1077.000
273.131;  -68.575; -419.000; -459.000
273.272;  -83.975; -683.000; -723.000
273.412;   11.375; -143.000;  -31.000
273.553;  -67.950; -488.000; -507.000
273.693;  135.500;  913.000;  858.000
273.834;  -81.625; -894.000; -692.000
273.974;  -71.650; -664.000; -615.000
274.114; -108.250; -772.000; -560.000
274.255;   72.000;  414.000;  373.000
274.395;    4.725; -180.000; -125.000
274.535;   29.925;  199.000;  350.000
274.676;   33.150;  225.000;   94.000
274.816;   22.700;  110.000;   34.000
274.956;  -68.750; -624.000; -690.000
275.097;  -63.350;-1014.000; -922.000
275.237;  -98.925; -913.000; -803.000
275.377; -115.450; -778.000; -689.000
275.517; -138.425; -878.000; -937.000
275.658;  -65.725; -590.000; -555.000
275.798;  -59.850; -606.000; -413.000
275.938;    8.125;  215.000;  323.000
276.078;  -90.800; -626.000; -395.000
276.218;   -0.150;   99.000;  104.000
276.359; -115.050;-1026.000;-1024.000
276.499;  -80.300; -605.000; -446.000
276.639;  -30.975; -305.000; -151.000
276.779;  -43.225; -475.000; -357.000
276.919; -108.100; -783.000; -624.000
277.059;  -30.500; -261.000; -212.000
277.199;  -42.050; -357.000; -259.000
277.340;   38.125;  287.000;  175.000
277.480; -106.625; -840.000; -693.000
277.620;   24.925;  192.000;   16.000
277.760; -203.050;-1533.000;-1294.000
277.900;   15.175;  113.000;   33.000
278.040;   34.925;  137.000;  159.000
278.180;   35.050;  270.000;  170.000
278.320;   -3.675;   21.000;   56.000
278.460;  -69.150; -443.000; -469.000
278.600;  -94.425; -708.000; -598.000
278.740;   50.200;  448.000;  224.000
278.880;  -27.550; -768.000; -791.000
279.020;    3.150; -194.000; -144.000
279.160;  -93.525; -672.000; -595.000
279.300; -115.200; -926.000; -873.000
279.440;  -77.825; -709.000; -622.000
279.579;   -5.550;-1014.000; -929.000
279.719;  -28.825; -410.000; -394.000
279.859;   86.775;   -4.000;   41.000
279.999;   43.950; -208.000;  101.000
280.139;  -24.125; -435.000; -387.000
280.279;  -66.775; -708.000; -745.000
280.419;  -23.925; -229.000; -147.000
280.559;  -24.725; -259.000; -180.000
280.698;  -82.625; -790.000; -639.000
280.838;  -69.225; -778.000; -800.000
280.978;  -99.300; -846.000; -790.000
281.118; -117.100; -811.000; -704.000
281.257;    3.350;   24.000;    6.000
281.397; -105.500;-1094.000; -960.000
281.537;  -85.125; -599.000; -712.000
281.677;  -20.825; -150.000; -101.000
281.816; -102.125; -700.000; -630.000
281.956;  -31.850; -193.000; -257.000
282.096;  -67.175; -539.000; -396.000
282.235; -106.275; -672.000; -638.000
282.375;  -16.950; -243.000;  -98.000
282.515;  -94.375; -715.000; -707.000
282.654;   20.675;   29.000;  106.000
282.794;   15.425;  388.000;  244.000
282.934;  -56.700; -530.000; -491.000
283.073; -126.850;-1030.000; -857.000
283.213;  -49.950; -460.000; -467.000
283.353;  -27.400; -408.000; -349.000
283.492;  -33.025; -264.000; -296.000
283.632;  -43.950; -254.000; -168.000
283.771; -100.550; -859.000; -730.000
283.911;  -47.100; -369.000; -260.000
284.050; -118.425; -794.000; -748.000
284.190; -154.575;-1229.000;-1096.000
284.329; -138.025;-1055.000; -964.000
284.469;  -54.500; -516.000; -591.000
284.608;  -68.175; -559.000; -598.000
284.748;  -81.825; -614.000; -570.000
284.887;  -17.225;  -87.000;  -20.000
285.027; -120.375; -844.000; -892.000
285.166;  -29.850; -192.000; -249.000
285.306;    3.800; -116.000;  -33.000
285.445;  -56.550; -229.000; -343.000
285.584;  -93.900; -630.000; -494.000
285.724;  -52.900; -282.000; -322.000
285.863; -112.875; -857.000; -507.000
286.002;  -63.925; -366.000; -276.000
286.142;  -95.325; -715.000; -622.000
286.281;  -70.975; -525.000; -493.000
286.420;  -77.100; -554.000; -417.000
286.560;   81.575;  653.000;  623.000
286.699; -127.150; -958.000; -912.000
286.838;  -90.300; -590.000; -591.000
286.978;  -73.375; -533.000; -537.000
287.117; -131.925;-1085.000; -950.000
287.256;  -26.525; -228.000; -211.000
287.395;  -44.125; -197.000; -378.000
287.535;  -41.325; -370.000; -298.000
287.674;  -79.800; -509.000; -484.000
287.813;   51.150;  661.000;  533.000
287.952; -137.625;-1010.000; -871.000
288.091; -153.250;-1049.000; -915.000
288.231;   17.875;   13.000;   15.000
288.370; -171.775;-1217.000;-1200.000
288.509;  -91.825; -728.000; -645.000
288.648;  -90.750; -770.000; -548.000
288.787;  -42.900; -243.000;  -87.000
288.926;  -62.075; -454.000; -475.000
289.065;  121.925;  859.000;  672.000
289.204;  -53.425; -377.000; -217.000
289.344; -104.550; -791.000; -690.000
289.483;   27.025;  416.000;  304.000
289.622;  -40.150; -291.000; -149.000
289.761;  -17.425; -309.000; -166.000
289.900; -103.750; -785.000; -626.000
290.039;  -23.000;  -12.000;  -95.000
290.178;  -46.625; -274.000; -180.000
290.317;  -76.625; -618.000; -479.000
290.456;  -64.200; -463.000; -451.000
290.595; -134.500; -961.000; -833.000
290.734; -132.375; -904.000; -891.000
290.873;  -67.625; -456.000; -420.000
291.011; -115.050; -833.000; -843.000
291.150;  -98.550; -770.000; -682.000
291.289;  -23.875; -343.000; -110.000
291.428; -106.250; -599.000; -480.000
291.567;  -65.075; -370.000; -442.000
291.706;    8.875;  109.000;  154.000
291.845;  -92.325; -597.000; -505.000
291.984; -162.500;-1234.000;-1061.000
292.122;   57.525;  602.000;  582.000
292.261;   40.275;  620.000;  463.000
292.400;    6.975; -144.000;  211.000
292.539; -127.100; -959.000; -813.000
292.678;  -30.525; -325.000; -300.000
292.816; -150.275;-1136.000; -965.000
292.955;  -85.725; -844.000; -684.000
293.094;  -23.900; -173.000; -337.000
293.233;  -59.450; -556.000; -400.000
293.371;  -34.525; -225.000;  -84.000
293.510; -107.000; -866.000; -780.000
293.649; -112.275; -959.000; -924.000
293.787;  -48.700;-1083.000;-1012.000
293.926;   -7.125; -113.000;  -32.000
294.065;  -41.800; -379.000; -290.000
294.203;   33.025;  298.000;  406.000
294.342;   23.100;   74.000;  156.000
294.481; 5478.800;51180.000; -836.000
294.619;  -36.525; -425.000; -582.000
294.758; -138.500;-1230.000;-1137.000
294.896;   87.375; -125.000;    5.000
295.035; -115.325;-1040.000;-1006.000
295.174; -119.400;-1082.000; -954.000
295.312;  -30.550; -323.000; -203.000
295.451;   -8.625; -307.000; -428.000
295.589;  -46.775; -389.000; -518.000
295.728;   12.800; -292.000; -165.000
295.866;   17.350;  -36.000;  -51.000
296.005;  -59.625; -584.000; -341.000
296.143;  -58.425; -558.000; -596.000
296.282; -104.175; -957.000; -881.000
296.420;  -68.850; -657.000; -557.000
296.559;  -83.450; -892.000; -633.000
296.697;   46.525; -847.000; -665.000
296.835;   99.525;-1141.000;-1002.000
296.974;   49.825;  -23.000;   39.000
297.112;   18.625; -443.000; -504.000
297.251;  -61.225; -815.000; -755.000
297.389;  104.525; -576.000; -438.000
297.527;   42.700; -145.000;  -83.000
297.666;  -47.050; -486.000; -438.000
297.804;  -50.050; -404.000; -264.000
297.942;  -15.125; -136.000; -161.000
298.081;    8.100; -183.000;   63.000
298.219;   70.350;  -17.000;  -19.000
298.357;   73.075; -144.000;  -71.000
298.495;   53.050; -810.000; -812.000
298.634;   96.175;  245.000;  219.000
298.772;   70.450; -220.000; -338.000
298.910;  -35.975; -309.000; -182.000
299.048;   -9.200; -130.000; -153.000
299.187;  -37.825; -350.000; -250.000
299.325;    6.275;   52.000;  122.000
299.463;   88.775; -389.000; -299.000
299.601;  145.925; -327.000; -271.000
299.739;  -93.150; -908.000; -883.000
299.877;  -80.425; -791.000; -703.000
300.016;  -28.625;-1095.000; -935.000
300.154;  184.900;  -19.000; -161.000
300.292;   83.050; -428.000; -348.000
300.430;   37.900; -408.000; -291.000
300.568;  -97.525; -940.000; -874.000
300.706;  -30.175; -366.000; -469.000
300.844;  -55.025;-1108.000; -979.000
300.982;  122.825;  246.000;  282.000
301.120;  -93.700; -965.000; -866.000
301.258;  -66.050; -812.000; -705.000
301.396;   48.950;  104.000;  -41.000
301.534;  100.650; -218.000; -293.000
301.672;   16.925; -664.000; -521.000
301.810;   51.275; -613.000; -545.000
301.948;  135.125;   53.000;  149.000
302.086;  746.075; -250.000;  -32.000
302.224; 1106.475; -610.000; -585.000
302.362;   64.500; -558.000; -622.000
302.500;    8.825; -923.000; -893.000
302.638;  115.000;  128.000;  245.000
302.776;   -0.875; -352.000; -408.000
302.913;   43.650;  447.000;  236.000
303.051;   -9.050;  -86.000;  -23.000
303.189;   52.650;   90.000;  118.000
303.327;  -30.175; -341.000; -256.000
303.465;  -67.225; -832.000; -588.000
303.603;  -86.725; -805.000; -604.000
303.740;  110.275;  417.000;  241.000
303.878;   53.375; -800.000; -759.000
304.016;  -87.200; -915.000; -790.000
304.154; -114.125;-1123.000;-1152.000
304.291;  -37.025; -505.000; -554.000
304.429;    7.175;  102.000;   74.000
304.567; -128.000; -908.000; -893.000
304.705;  -38.925; -408.000; -515.000
304.842;  139.575; -616.000; -540.000
304.980;   65.575;  215.000;   35.000
305.118;   59.450; -367.000; -365.000
305.255;  -53.500; -945.000; -927.000
305.393;   53.625;  178.000;  239.000
305.531;  -87.850;-1173.000; -956.000
305.668;  -66.825; -663.000; -582.000
305.806;  125.875; -358.000; -439.000
305.943;  134.325; -629.000; -637.000
306.081;   82.200; -378.000; -267.000
306.219; -107.225; -863.000; -748.000
306.356;   -3.375;  158.000;   27.000
306.494;  101.575;  981.000;  761.000
306.631;   -4.575;  -11.000;  -55.000
306.769;   14.000; -613.000; -485.000
306.906;  -14.700; -284.000; -258.000
307.044;  -49.225; -473.000; -488.000
307.181;  -56.600; -410.000; -332.000
307.319;    9.850;  112.000;   87.000
307.456; -158.325;-1191.000;-1153.000
307.594;  -97.325; -980.000; -727.000
307.731;   -8.450; -371.000; -164.000
307.868;    5.850;  -15.000;   20.000
308.006; -122.025; -961.000; -847.000
308.143;  -68.025; -618.000; -330.000
308.281;  223.625;  -37.000; -254.000
308.418;   -2.150; -748.000; -640.000
308.555;  -63.050; -400.000; -250.000
308.693;  -68.075; -577.000; -573.000
308.830;  -99.150; -712.000; -657.000
308.967;  -15.775; -215.000;  -95.000
309.105;  -39.575; -507.000; -396.000
309.242;   60.800; -468.000; -367.000
309.379;  412.550; -577.000; -655.000
309.517;  -46.325; -936.000; -948.000
309.654; -103.350; -910.000; -734.000
309.791;  -73.375; -662.000; -580.000
309.928; -113.625; -977.000; -914.000
310.065;  191.200;  819.000;  697.000
310.203;    9.450; -825.000; -850.000
310.340;   -0.200; -465.000; -321.000
310.477;  -68.900; -412.000; -516.000
310.614;  -73.725; -383.000; -473.000
310.751;  -67.650; -427.000; -518.000
310.889;  -31.475;    1.000;   11.000
311.026; -155.150;-1161.000; -939.000
311.163;  -54.825; -386.000; -380.000
311.300;  -81.425; -512.000; -479.000
311.437;  -76.675; -658.000; -619.000
311.574; -147.625;-1226.000; -985.000
311.711;  -55.400; -595.000; -433.000
311.848;  -36.050; -380.000; -388.000
311.985;   14.475;  270.000;   93.000
312.122; -117.550; -932.000; -762.000
312.259; -113.700; -941.000; -994.000
312.396;  -77.125; -508.000; -551.000
312.533;  -88.100; -812.000; -790.000
312.670; -115.850;-1070.000; -898.000
312.807;  -31.725; -352.000; -367.000
312.944;  -80.000; -513.000; -611.000
313.081;  -27.500; -150.000; -415.000
313.218;  -95.675;-1111.000; -867.000
313.355;   18.025; -531.000; -449.000
313.492;   26.550; -455.000; -292.000
313.629;  126.525;  815.000;  735.000
313.766; -158.200;-1176.000;-1008.000
313.902;  -21.675; -186.000;   21.000
314.039;  -53.025; -372.000; -289.000
314.176;   16.275;  286.000;  192.000
314.313;  -76.850; -569.000; -473.000
314.450;  -71.725; -788.000; -684.000
314.587;  -63.000; -468.000; -480.000
314.723;   -5.175;  -78.000;  130.000
314.860;   31.225;  318.000;  332.000
314.997;   37.300;  223.000;  142.000
315.134;  -36.650; -385.000; -368.000
315.270;  -21.250; -480.000; -496.000
315.407; -111.400;-1094.000; -967.000
315.544;  -56.700; -657.000; -538.000
315.681;  -61.500; -681.000; -565.000
315.817;   30.950; -133.000; -176.000
315.954;   20.800; -613.000; -392.000
316.091; -117.750;-1045.000;-1023.000
316.227;  -27.250;  -71.000; -179.000
316.364;   -0.525;   23.000;    6.000
316.500;  -35.150; -113.000; -300.000
316.637;  -46.000; -181.000; -302.000
316.774;  -85.175; -625.000; -358.000
316.910;  -88.275; -598.000; -629.000
317.047;  -70.150; -487.000; -351.000
317.183;  -52.425; -435.000; -566.000
317.320;  -20.225; -367.000; -321.000
317.456;  -67.450; -733.000; -805.000
317.593;  -85.825; -598.000; -641.000
317.729;   -2.125;  168.000;  -67.000
317.866; -195.900;-1434.000;-1285.000
318.002;  -82.900; -708.000; -948.000
318.139;  -85.025; -883.000; -867.000
318.275; -104.225;-1003.000; -738.000
318.412;  -58.350; -517.000; -336.000
318.548;  -23.950; -751.000; -720.000
318.685;  -84.800; -985.000; -888.000
318.821;  -94.350; -762.000; -735.000
318.957;  -25.200;   34.000;  -23.000
319.094;   30.650;  297.000;  154.000
319.230;  -48.400; -756.000; -742.000
319.367;  163.575; -471.000; -520.000
319.503;   88.850; -538.000; -436.000
319.639; -104.800; -877.000; -793.000
319.775;  -49.000; -750.000; -685.000
319.912;  -46.625; -424.000; -519.000
320.048;  -68.800;-1184.000;-1184.000
320.184;   65.750;   59.000;   70.000
320.321;  -57.200; -497.000; -467.000
320.457;   58.400;  475.000;  662.000
320.593;  -60.700; -375.000; -382.000
320.729; -104.500; -732.000; -734.000
320.866;  -66.050; -577.000; -635.000
321.002;  -75.825; -759.000; -809.000
321.138;   -0.750; -135.000; -211.000
321.274;   87.875; -148.000; -115.000
321.410;   -8.450; -585.000; -353.000
321.546;   -9.075;-1011.000; -911.000
321.683;   63.325;  400.000;  185.000
321.819;    1.050;  -48.000; -117.000
321.955;  -91.000; -743.000; -722.000
322.091;  -38.200; -585.000; -540.000
322.227;   -9.800; -382.000; -202.000
322.363;  -20.675; -320.000; -215.000
322.499;  -56.700; -343.000; -331.000
322.635;  185.450;  636.000;  443.000
322.771;   36.725; -139.000;   12.000
322.907;   99.825;  129.000;  327.000
323.043;  -12.500; -115.000; -206.000
323.179;  -30.050; -394.000; -363.000
323.315;   52.375; -401.000; -371.000
323.451;  107.400; -328.000; -236.000
323.587;   60.650;  -60.000;  -77.000
323.723;   35.000; -682.000; -601.000
323.859;  -10.600; -258.000;  -76.000
323.995;  -35.825; -467.000; -409.000
324.131; -110.900; -967.000; -892.000
324.267;  -36.225; -254.000; -276.000
324.402; -122.675; -960.000; -983.000
324.538;  -20.875; -279.000; -104.000
324.674;   40.050;  164.000;   77.000
324.810;  143.100;  226.000;  308.000
324.946;   25.525; -810.000; -658.000
325.082;  -69.875; -568.000; -475.000
325.217;  -12.300;  -62.000;   16.000
325.353; -103.425; -764.000; -659.000
325.489;  -90.750; -540.000; -506.000
325.625;  -68.350; -579.000; -525.000
325.760;   54.500;  517.000;  376.000
325.896;  -37.275; -515.000; -702.000
326.032;  -45.900; -403.000; -352.000
326.168;  -65.125; -462.000; -369.000
326.303;  -57.500; -352.000; -461.000
326.439;  -35.600; -336.000; -276.000
326.575;   11.450; -190.000;  -29.000
326.710;   -9.675; -156.000;  -30.000
326.846;   -9.950;  146.000;  103.000
326.982;  -90.775; -530.000; -548.000
327.117;  -69.250; -481.000; -442.000
327.253;  -86.925; -745.000; -742.000
327.388; -125.350;-1137.000;-1153.000
327.524;  -33.425; -811.000; -578.000
327.659;  -35.575;  -58.000;  -22.000
327.795;   -7.375;   69.000;   45.000
327.931;  -86.200; -723.000; -499.000
328.066;  -22.275; -417.000; -276.000
328.202;   -6.850;   12.000; -129.000
328.337;  101.150;  957.000;  713.000
328.473;   27.275;  -12.000;  -74.000
328.608;  -30.850; -256.000; -267.000
328.743;  -71.275; -799.000; -664.000
328.879;   12.225;  214.000;  114.000
329.014;  -33.600; -102.000; -122.000
329.150;  -91.225; -358.000; -483.000
329.285;  -76.275; -465.000; -466.000
329.421;  -61.300; -548.000; -246.000
329.556;  -11.525;  -36.000;   85.000
329.691;  -98.175; -633.000; -615.000
329.827;  -82.350; -626.000; -480.000
329.962;  -47.075;  131.000; -301.000
330.097;  -88.225; -673.000; -585.000
330.233;  -68.425; -410.000; -223.000
330.368; -127.275; -839.000; -628.000
330.503;  -15.175;    3.000;   98.000
330.638;   17.400;  -93.000; -125.000
330.774;  -49.275; -609.000; -530.000
330.909;  -45.075; -434.000; -244.000
331.044;  -96.950; -714.000; -708.000
331.179; -175.825;-1217.000;-1109.000
331.315;   -9.000;   77.000;   20.000
331.450;   16.850;  157.000;  285.000
331.585;  -73.400; -805.000; -706.000
331.720;  -88.875; -510.000; -460.000
331.855;  -12.800;  -35.000; -102.000
331.990;  242.300;   62.000;  138.000
332.126;  105.550; -110.000;   71.000
332.261;  -16.300; -379.000; -265.000
332.396;   -4.900; -135.000; -242.000
332.531;  -82.950;-1074.000;-1031.000
332.666;   17.800; -519.000; -363.000
332.801; -100.750; -726.000; -807.000
332.936;  -28.600; -192.000; -122.000
333.071; -147.600; -870.000; -817.000
333.206;    0.275;  307.000;  379.000
333.341;   30.250;  344.000;  418.000
333.476;  -83.500; -627.000; -623.000
333.611;  -37.225; -251.000; -173.000
333.746;  -40.150; -381.000; -464.000
333.881; -107.700; -973.000; -935.000
334.016; -121.450; -936.000; -917.000
334.151; -118.000; -746.000; -702.000
334.286;   17.225;  152.000;  186.000
334.421;  -20.150; -125.000; -178.000
334.556;  -77.475; -611.000; -567.000
334.690;  -68.675; -631.000; -577.000
334.825;   41.800;  381.000;   83.000
334.960;  -53.050; -285.000; -413.000
335.095;    2.025;  135.000;  -91.000
335.230;  -88.700; -722.000; -738.000
335.365; -126.100;-1084.000; -990.000
335.499; -120.550;-1108.000;-1037.000
335.634;   11.200;    9.000;  534.000
335.769;  -89.900; -755.000; -720.000
335.904;  -50.100; -603.000; -561.000
336.038;  -60.250; -735.000; -657.000
336.173; -118.175;-1206.000;-1194.000
336.308;    3.950; -116.000; -189.000
336.443;    6.350; -544.000; -634.000
336.577;  -53.700; -936.000; -787.000
336.712;   68.950;   -4.000;  -12.000
336.847;  -18.500; -724.000; -607.000
336.981;   81.025; -272.000; -208.000
337.116;  315.600;  615.000;  501.000
337.250;  191.825; -434.000; -421.000
337.385;  246.250; -297.000; -208.000
337.520;   65.875; -632.000; -603.000
337.654;  -39.200; -215.000; -126.000
337.789; -125.350; -989.000; -933.000
337.923;  -36.375; -104.000; -205.000
338.058;  -83.650; -673.000; -738.000
338.192;  -24.250; -611.000; -488.000
338.327;   -6.950;  -18.000; -155.000
338.461;  -39.775; -299.000; -469.000
338.596;  -93.350; -780.000; -638.000
338.730;  -96.350; -767.000; -803.000
338.865;   82.600;  -46.000; -140.000
338.999;  -53.100; -846.000; -702.000
339.134;  -32.875; -634.000; -536.000
339.268;   18.250; -741.000; -603.000
339.403;  366.800; -740.000; -775.000
339.537;   98.225; -894.000; -820.000
339.671; -105.450; -829.000; -813.000
339.806;  -71.550; -556.000; -512.000
339.940;    4.525; -261.000; -235.000
340.074;  -85.750; -685.000; -510.000
340.209;  -61.675; -351.000; -230.000
340.343;  -87.825; -517.000; -573.000
340.477;  134.625;  998.000; 1036.000
340.612;  -57.975;-1033.000; -900.000
340.746;  119.100; -199.000; -243.000
340.880;  -49.450; -924.000; -785.000
341.014;  -14.900;  -45.000; -154.000
341.149; -105.800; -756.000; -718.000
341.283; -107.375; -839.000; -754.000
341.417;  -72.025;-1124.000; -938.000
341.551;  174.300; -768.000; -708.000
341.685;  -23.600; -633.000; -611.000
341.820;  -50.125; -562.000; -493.000
341.954;  -47.500; -218.000; -349.000
342.088; -158.725;-1102.000;-1019.000
342.222;   53.950;  565.000;  618.000
342.356;  -58.050; -395.000; -335.000
342.490;  -90.800; -880.000; -841.000
342.624;  -43.550; -339.000; -242.000
342.758;    5.800; -364.000; -312.000
342.892;  -63.400; -710.000; -585.000
343.026;  -31.100;  -58.000; -116.000
343.160;  -66.475; -426.000; -376.000
343.294;  -63.750; -474.000; -337.000
343.428;  -23.025; -488.000; -448.000
343.562;  -10.550; -172.000;  -23.000
343.696;  -30.325; -385.000; -314.000
343.830;   -6.725; -362.000; -356.000
343.964;   22.525; -231.000; -168.000
344.098; 1077.750;  199.000;   70.000
344.232;  889.225; -266.000; -127.000
344.366;  111.725; -567.000; -453.000
344.500;   83.750; -665.000; -744.000
344.634;   48.525; -324.000; -164.000
344.768;    2.050; -531.000; -341.000
344.902;   18.600;  278.000;  256.000
345.035;  -65.675; -556.000; -496.000
345.169; -126.425; -933.000; -656.000
345.303;  -28.900; -308.000; -482.000
345.437;  -55.725; -826.000; -717.000
345.571;  -67.950; -675.000; -594.000
345.704;  -61.350; -309.000; -532.000
345.838;   -4.700; -331.000; -284.000
345.972;  -33.900; -543.000; -495.000
346.106;  161.875; -179.000; -190.000
346.239;  454.250; -312.000; -243.000
346.373;   11.125; -343.000; -302.000
346.507; -140.025; -950.000; -962.000
346.640;  187.925;  -30.000;   13.000
346.774;  -31.600; -650.000; -797.000
346.908;  -11.475; -138.000;  -11.000
347.041;  -91.525; -646.000; -593.000
347.175;   -1.200;  259.000;   27.000
347.309;  -65.100; -698.000; -628.000
347.442;  -95.800; -883.000; -732.000
347.576;  318.600;  670.000;  668.000
347.709;  232.575; -123.000;  -52.000
347.843;  -78.500; -933.000; -825.000
347.976;   28.150;  235.000;  294.000
348.110; -162.825;-1268.000;-1186.000
348.243; -100.650; -679.000; -772.000
348.377;    9.700;  -26.000;   60.000
348.510;   52.325;  403.000;  540.000
348.644;  -32.750;  -37.000; -159.000
348.777;    6.375;  180.000;  191.000
348.911;  -57.900; -142.000; -112.000
349.044;  181.925;  471.000;  448.000
349.178;  208.250;-1069.000;-1006.000
349.311;  125.925;  141.000;  255.000
349.444;   -5.650; -927.000; -813.000
349.578;  -24.775; -347.000; -200.000
349.711;  -92.725; -959.000; -862.000
349.845;   14.250; -661.000; -591.000
349.978; -134.600;-1224.000;-1137.000
350.111;  -79.700; -546.000; -612.000
350.244;  -67.925; -596.000; -700.000
350.378;   19.775; -392.000; -393.000
350.511;  -51.650; -393.000; -426.000
350.644; -108.425; -808.000; -806.000
350.778;   13.100;  168.000;  104.000
350.911;   -5.500;  134.000;  140.000
351.044;  -85.550; -685.000; -615.000
351.177;  -28.350; -321.000; -281.000
351.310;  -22.800;    3.000; -131.000
351.444;  -67.400; -888.000; -788.000
351.577;  121.400;  140.000;   90.000
351.710;  100.575;  593.000;  417.000
351.843;  -44.125; -165.000;  -77.000
351.976;   -4.225;  149.000;  -79.000
352.109;  -84.975; -621.000; -612.000
352.242;  -15.475; -464.000; -419.000
352.376;  -44.925; -580.000; -636.000
352.509;  228.425; -437.000; -356.000
352.642;   44.450; -654.000; -604.000
352.775;   77.250; -141.000;  -98.000
352.908; -113.975; -933.000; -904.000
353.041;  -95.375; -814.000; -824.000
353.174;  -57.975; -551.000; -424.000
353.307;  -84.575; -753.000; -764.000
353.440;   74.600;  541.000;  453.000
353.573; -114.950; -957.000;-1008.000
353.706;  -29.425; -384.000; -558.000
353.839;  -15.250; -264.000; -220.000
353.971;  -86.625; -657.000; -512.000
354.104;  -84.300; -896.000; -835.000
354.237;  -27.950; -627.000; -662.000
354.370;  -97.350; -846.000; -879.000
354.503; -158.650;-1231.000;-1308.000
354.636;  -55.075; -529.000; -348.000
354.769; -131.175; -937.000; -860.000
354.902;  -12.725; -230.000; -139.000
355.034;   -3.650; -164.000; -220.000
355.167;  -29.400; -262.000; -162.000
355.300;  -88.550;-1061.000; -880.000
355.433;  945.850;  -71.000;  -14.000
355.565; 1453.925; -402.000; -384.000
355.698;  372.425; -356.000; -296.000
355.831;   19.200; -882.000; -801.000
355.964;   89.625; -285.000; -170.000
356.096;  -81.975; -856.000; -843.000
356.229;    8.000; -523.000; -530.000
356.362;  302.475; -373.000; -266.000
356.494;  573.825; -229.000; -162.000
356.627;  540.000;  269.000;  377.000
356.760;  658.250;  120.000;   53.000
356.892;  920.075; -286.000; -601.000
357.025;  758.525;  403.000;  389.000
357.157;  730.300; -167.000; -179.000
357.290;  621.375; -856.000; -713.000
357.423;  195.850; -667.000; -556.000
357.555;  131.625; -217.000; -228.000
357.688;  152.775; -483.000; -364.000
357.820;  528.425; -870.000; -877.000
357.953; 4206.525; -563.000; -589.000
358.085;  963.025; -632.000; -612.000
358.218; 1444.925;-1131.000; -932.000
358.350;  268.050;  -58.000;  312.000
358.483; -103.775;-1300.000;-1187.000
358.615;   13.675;-1182.000;-1078.000
358.747;  -21.000;-1187.000;-1058.000
358.880;   50.100; -810.000; -744.000
359.012;    2.200; -376.000; -202.000
359.145;  -33.850; -480.000; -511.000
359.277;  100.600; -962.000; -913.000
359.409; 3437.150;  536.000;  231.000
359.542;  934.050; -738.000; -688.000
359.674;   80.475;   46.000;   13.000
359.806;  -50.950; -565.000; -438.000
359.939;  -50.375; -617.000; -516.000
360.071;  -16.300; -583.000; -579.000
360.203;  -16.000; -411.000; -364.000
360.335;   61.675;  164.000;  -16.000
360.468;  205.125; -249.000; -307.000
360.600; 2758.550; -547.000; -454.000
360.732; 2771.025; -546.000; -423.000
360.864;  408.900;-1216.000;-1044.000
360.996;  357.800; -516.000; -554.000
361.129;   61.050; -389.000; -598.000
361.261;   22.075;  110.000; -113.000
361.393;  -24.100; -252.000; -214.000
361.525;   39.050;   94.000;  244.000
361.657;  -21.400; -821.000; -703.000
361.789;   23.675; -139.000; -155.000
361.921;  302.475; -642.000; -593.000
362.053;  289.200;  524.000;  541.000
362.185;   64.250;  288.000;   72.000
362.318;  -81.600; -709.000; -705.000
362.450;  133.350;  294.000;  444.000
362.582;  171.025; -913.000; -870.000
362.714;  -16.250; -353.000; -332.000
362.846;  -81.875; -606.000; -490.000
362.978; -138.925; -941.000; -811.000
363.109;   64.850; -161.000; -260.000
363.241;  531.800; -739.000; -749.000
363.373;  403.925; -649.000; -564.000
363.505;  621.500; -186.000;  -91.000
363.637;  167.300; -787.000; -601.000
363.769; -107.275;-1067.000;-1080.000
363.901;  -77.600; -596.000; -654.000
364.033; -103.875;-1103.000;-1062.000
364.165;   12.875; -283.000; -283.000
364.296;   84.800; -316.000; -177.000
364.428;   64.700;-1344.000;-1220.000
364.560;  -75.025; -679.000; -661.000
364.692;  -56.725; -738.000; -835.000
364.824;  345.125; -588.000; -456.000
364.955;  460.900; -402.000; -564.000
365.087;  868.475;-1097.000; -852.000
365.219;   22.625; -686.000; -816.000
365.351;  -54.250; -526.000; -572.000
365.482;   49.825;  300.000;  240.000
365.614;  -44.150; -402.000; -314.000
365.746; -104.325; -729.000; -752.000
365.877;  -95.450; -706.000; -672.000
366.009;  232.600;  -35.000;  -62.000
366.141;  -84.475;-1249.000;-1134.000
366.272; -101.450; -803.000; -719.000
366.404; -114.200;-1005.000; -874.000
366.535;  -21.100; -139.000;  -12.000
366.667;  -92.400; -644.000; -649.000
366.799;   22.100;  353.000;  203.000
366.930; -114.175; -862.000; -996.000
367.062;  121.450; -639.000; -613.000
367.193;  151.200; -872.000; -842.000
367.325;  -69.275; -580.000; -684.000
367.456;   74.350; -246.000;   31.000
367.588;  153.675; -371.000; -318.000
367.719;   29.475;  -44.000;  -45.000
367.851;  -20.575; -222.000; -241.000
367.982;  -30.900; -875.000; -732.000
368.113;  119.400; -475.000; -358.000
368.245; -106.750; -960.000; -841.000
368.376;   -8.450; -254.000; -302.000
368.508;  -24.875; -188.000; -263.000
368.639; -135.575;-1166.000;-1034.000
368.770;   -8.025; -670.000; -589.000
368.902;  -37.800; -836.000; -926.000
369.033;  -96.900; -906.000; -855.000
369.164;  -50.300; -720.000; -653.000
369.296; -106.650; -452.000; -601.000
369.427;   -6.375; -209.000; -144.000
369.558;  -49.750; -593.000; -377.000
369.689;  -90.400; -721.000; -569.000
369.821; -132.725; -951.000; -845.000
369.952;  -14.700;   42.000; -108.000
370.083;  -38.650; -229.000; -108.000
370.214;  -84.550; -735.000; -650.000
370.345;    0.900;   65.000;   81.000
370.477;  -68.775; -810.000; -790.000
370.608;  284.300; -328.000; -264.000
370.739;  -31.125;-1233.000;-1292.000
370.870;  -24.425;-1102.000; -923.000
371.001;  116.775; -378.000; -467.000
371.132;  -60.125; -754.000; -735.000
371.263;  -17.950;  -42.000; -148.000
371.394; -133.825; -841.000; -748.000
371.525;   26.675;  345.000;  225.000
371.657;  -83.575; -808.000; -670.000
371.788;   63.975;  103.000;  199.000
371.919;  231.375; -384.000; -304.000
372.050; 4176.325;  -91.000; -156.000
372.181; 1314.500; -188.000; -294.000
372.311;  437.375;   42.000; -127.000
372.442;   70.900; -457.000; -451.000
372.573;  -26.700; -444.000; -340.000
372.704; -110.350;-1008.000; -980.000
372.835;  111.500; -228.000; -289.000
372.966;  -39.700; -646.000; -554.000
373.097;  -60.875; -575.000; -711.000
373.228;  -17.850; -717.000; -542.000
373.359;  181.075; -824.000; -536.000
373.490; 1118.200; -881.000; -727.000
373.620; 1432.375;-1001.000; -803.000
373.751; 2121.450; -332.000; -396.000
373.882;  990.675; -663.000; -733.000
374.013;   85.750; -449.000; -262.000
374.143;  -26.625; -581.000; -659.000
374.274;  -89.200; -987.000; -908.000
374.405;  215.850; -388.000; -276.000
374.536;  543.575; -526.000; -387.000
374.666; 1397.150; -759.000; -807.000
374.797;  306.100; -817.000; -868.000
374.928; 1049.650; -710.000; -560.000
375.058; 1118.925; -535.000; -500.000
375.189;   94.750;  -59.000;  -93.000
375.320;  -96.775; -928.000;-1034.000
375.450;  -21.850; -625.000; -616.000
375.581;  -25.875; -526.000; -436.000
375.712;  -27.750; -574.000; -250.000
375.842;  393.150; -438.000; -415.000
375.973;  293.475; -554.000; -513.000
376.103;  -10.200; -665.000; -648.000
376.234;  -71.475; -531.000; -552.000
376.364;  -11.425; -944.000; -867.000
376.495;  363.925;  925.000;  529.000
376.625;   23.175; -472.000; -485.000
376.756;  104.425; -709.000; -678.000
376.886;  -52.375;-1178.000;-1026.000
377.017;   39.175;-1048.000;-1061.000
377.147;  325.625; -786.000; -782.000
377.278;   64.650;  174.000;  228.000
377.408; -126.550; -801.000; -815.000
377.538; -109.550; -707.000; -693.000
377.669;  -69.650; -537.000; -613.000
377.799;  -82.125; -645.000; -635.000
377.929;  -53.225; -610.000; -428.000
378.060; -120.100; -781.000; -847.000
378.190;  -76.225; -726.000; -531.000
378.320;  -44.975; -401.000; -406.000
378.451;    0.725; -131.000;  -22.000
378.581;  -17.425;  -67.000; -110.000
378.711;  154.950; 1035.000;  866.000
378.841;  -10.300; -533.000; -675.000
378.972;  -55.000; -871.000; -751.000
379.102;    3.225; -652.000; -579.000
379.232;  -13.400; -126.000;  -73.000
379.362;  -96.825;-1001.000; -885.000
379.492;   32.100; -373.000; -424.000
379.623;  114.650;    0.000;  111.000
379.753;  -81.250;-1107.000; -974.000
379.883;  240.500;   59.000;  156.000
380.013;   32.150;-1081.000;-1017.000
380.143;  -90.375;-1097.000;-1056.000
380.273;  -79.025; -985.000; -861.000
380.403;    0.275; -344.000; -257.000
380.533;    0.450; -651.000; -664.000
380.663;   82.675;  173.000;  128.000
380.793;  -58.625;-1027.000;-1074.000
380.923;  -23.900; -103.000;  -34.000
381.053;  -93.450; -613.000; -623.000
381.183;  -28.700; -106.000; -248.000
381.313;   51.525; -656.000; -470.000
381.443;   61.000; -692.000; -473.000
381.573;  252.675; -402.000; -409.000
381.703;  385.725;-1249.000;-1095.000
381.833; -102.025;-1454.000;-1336.000
381.963;  130.825; -134.000;  -87.000
382.093; 1638.650; -925.000; -909.000
382.223;  540.525; -713.000; -602.000
382.353;    6.675; -801.000; -608.000
382.482;  460.700;-1091.000; -964.000
382.612;  914.575; -872.000; -644.000
382.742;  542.100; -695.000; -622.000
382.872;  353.100; -565.000; -551.000
383.002;   86.275;  347.000; -132.000
383.131;   -6.225; -226.000; -160.000
383.261;  -40.625; -706.000; -768.000
383.391;  293.625; -552.000; -377.000
383.521; 3029.550;  451.000;  263.000
383.650;  712.200; -947.000; -904.000
383.780;  -15.700; -783.000; -656.000
383.910;   91.625;  880.000;  802.000
384.039;   51.575; -794.000; -656.000
384.169;  296.125;-1205.000;-1017.000
384.299;    0.400; -650.000; -662.000
384.428;  -83.375; -764.000; -680.000
384.558;  -27.250; -308.000; -275.000
384.687;  -32.325; -414.000; -334.000
384.817;    9.950;   75.000;   -2.000
384.947;   28.475; -234.000; -141.000
385.076;  316.900;  982.000;  912.000
385.206;  118.650;  369.000;  480.000
385.335;  -30.750; -549.000; -417.000
385.465;  -76.300; -655.000; -663.000
385.594;  161.725;  -53.000;  -44.000
385.724;  557.000; -868.000; -838.000
385.853;  149.750; -296.000; -270.000
385.982; 1587.525; -743.000; -787.000
386.112; 2643.575;-1052.000; -871.000
386.241;  205.250; -307.000; -312.000
386.371;   34.725; -174.000;  -87.000
386.500;   24.075; -825.000; -789.000
386.629;   30.525; -874.000; -817.000
386.759;   70.025;  -43.000;   68.000
386.888;    0.525; -170.000; -250.000
387.017;  -67.325; -648.000; -620.000
387.147;  -62.925; -771.000; -798.000
387.276;   11.550; -410.000; -397.000
387.405;   39.525; -398.000; -342.000
387.535;  -44.725; -452.000; -361.000
387.664;  -54.875; -692.000; -620.000
387.793;   65.075; -198.000; -113.000
387.922;  634.225;  255.000;  200.000
388.052;   45.900; -576.000; -423.000
388.181;   29.575; -342.000; -472.000
388.310;   49.200; -889.000; -710.000
388.439;  -25.825; -749.000; -742.000
388.568;  199.200;  365.000;  244.000
388.697; 1271.300; -756.000; -653.000
388.826;  292.850; -768.000; -666.000
388.956;   68.925; -285.000; -307.000
389.085;  -26.550; -347.000; -287.000
389.214; -105.200; -842.000; -872.000
389.343;  -59.850; -645.000; -413.000
389.472;  381.375;  126.000;  149.000
389.601;  550.050;   91.000;    0.000
389.730;   32.800; -568.000; -687.000
389.859;   85.900;  226.000;   46.000
389.988;  214.500; -423.000; -408.000
390.117;  180.075; -168.000; -146.000
390.246;   -1.600; -331.000; -320.000
390.375;  139.800; -673.000; -626.000
390.504;  -50.625; -703.000; -621.000
390.633;  -93.100; -672.000; -726.000
390.761;  -54.950; -732.000; -645.000
390.890;   30.775;   -4.000; -130.000
391.019;  -16.900; -421.000; -441.000
391.148; -115.375; -826.000; -855.000
391.277;  -67.225; -576.000; -493.000
391.406;  -57.675; -821.000; -805.000
391.534;   17.200;  574.000; -301.000
391.663;  -51.475; -583.000; -645.000
391.792;  -84.325; -673.000; -701.000
391.921;  127.900;   -3.000;   15.000
392.050;  235.800; -287.000; -228.000
392.178;   -3.375;-1206.000;-1061.000
392.307;  201.925; -758.000; -712.000
392.436;  112.700; -427.000; -641.000
392.564;   25.950;  166.000;   -6.000
392.693;  -81.425; -860.000; -682.000
392.822;  243.250; -529.000; -534.000
392.950;  135.825; -880.000; -714.000
393.079;  379.500; -188.000; -328.000
393.208;   57.050; -488.000; -511.000
393.336;   -1.200; -170.000; -145.000
393.465;  -46.200; -317.000; -199.000
393.593;   -8.000;   62.000;   79.000
393.722; -145.900;-1121.000; -916.000
393.850;  -47.700; -188.000;  -61.000
393.979; -145.475; -926.000; -805.000
394.107;  -71.950; -517.000; -537.000
394.236;  -16.575; -570.000; -507.000
394.364;  262.175;  383.000;  206.000
394.493;  479.850; -911.000; -767.000
394.621;    1.200; -955.000; -916.000
394.750;  658.850; -873.000; -923.000
394.878; 2769.425; -247.000; -149.000
395.007; 3997.450; -721.000; -807.000
395.135;  312.475; -790.000; -721.000
395.263;  -81.650;-1038.000;-1040.000
395.392;   -2.275;  -25.000; -107.000
395.520; -115.600; -818.000; -679.000
395.648;  -72.400; -865.000; -915.000
395.777;   -6.075; -366.000; -405.000
395.905;  -58.125; -449.000; -564.000
396.033;   25.100;  217.000;  172.000
396.162;  726.475; -399.000; -453.000
396.290;  678.250;  -17.000;   -2.000
396.418;  153.450; -555.000; -514.000
396.546;  -43.850; -571.000; -466.000
396.674;  -87.150; -850.000; -878.000
396.803;   26.875;  -72.000;  -23.000
396.931;  115.800; -179.000; -199.000
397.059;  109.425;-1026.000; -989.000
397.187; -106.550;-1026.000; -975.000
397.315; -121.300; -884.000; -649.000
397.443;  -95.425; -592.000; -443.000
397.572; -103.875; -578.000; -424.000
397.700;    1.325; -607.000; -614.000
397.828;   22.600;  120.000;  -90.000
397.956;  -52.825; -508.000; -478.000
398.084;  -66.775; -767.000; -626.000
398.212;   38.175;  137.000;  124.000
398.340;   18.525;  -56.000;  159.000
398.468;   50.850; -390.000; -169.000
398.596; -130.850; -993.000; -953.000
398.724; -119.175; -762.000; -767.000
398.852; -154.900;-1024.000; -976.000
398.980;  -50.150; -560.000; -560.000
399.108;  -38.225; -982.000; -735.000
399.236;   41.300;   13.000;    8.000
399.363;    8.225;  222.000;  196.000
399.491;  -71.650; -404.000; -398.000
399.619; -133.775; -829.000; -800.000
399.747;  -94.650; -859.000; -771.000
399.875;   83.025;  220.000;  234.000
400.003;  -50.275; -359.000; -284.000
400.130;  -90.350; -421.000; -341.000
400.258;  -23.750;  -83.000;   38.000
400.386;  -56.775; -352.000; -168.000
400.514;  -46.175; -526.000; -587.000
400.641;  -57.825; -928.000; -802.000
400.769; -134.400; -979.000; -888.000
400.897; -108.200; -838.000; -793.000
401.025;  -18.925; -166.000; -152.000
401.152;   -9.400;  220.000;   38.000
401.280;  -84.325; -430.000; -429.000
401.408; -112.675; -712.000; -576.000
401.535;  -93.200; -735.000; -758.000
401.663; -181.950;-1134.000;-1054.000
401.790;  -95.700; -514.000; -525.000
401.918;   34.000;  436.000;  405.000
402.046;  -24.300;  134.000;  122.000
402.173;  -36.525;  -18.000;    7.000
402.301;  -75.575; -519.000; -397.000
402.428;   31.625;  528.000;  383.000
402.556; -132.275;-1188.000; -913.000
402.683;  -26.675;  -20.000;   -1.000
402.811;  -32.600;  -37.000; -206.000
402.938;   -8.350;   20.000;   27.000
403.066;  231.375; -574.000; -558.000
403.193;  404.450;  299.000;  239.000
403.321;  308.275; -396.000; -574.000
403.448;  366.875;   83.000;   27.000
403.575;  162.625;  -90.000;  -46.000
403.703;  -85.475; -732.000; -557.000
403.830;  -88.850; -531.000; -496.000
403.957; -127.250;-1117.000;-1023.000
404.085;    8.025;  -61.000; -172.000
404.212;  113.000;  -50.000;   63.000
404.339;  251.150; -566.000; -306.000
404.467; 5473.825; -612.000; -524.000
404.594; 3990.225; -287.000; -227.000
404.721; 1045.700; -869.000; -764.000
404.848;   77.800; -113.000; -202.000
404.976; -100.175; -856.000; -783.000
405.103;  -15.575;  -14.000;  -82.000
405.230;  -12.525;  190.000;  226.000
405.357;   17.250;  117.000;   44.000
405.484;  259.750;  -49.000;    5.000
405.612;   49.025; -548.000; -563.000
405.739;  -61.375; -488.000; -243.000
405.866;   77.450;  669.000;  385.000
405.993;  -33.350; -398.000; -102.000
406.120; -144.025; -801.000; -887.000
406.247;  -46.050; -323.000; -342.000
406.374;  511.975;  540.000;  629.000
406.501;  180.400; -632.000; -702.000
406.628;  -68.825; -621.000; -589.000
406.755;  -85.375; -803.000; -620.000
406.882;  -45.150; -228.000; -277.000
407.009; -105.800; -719.000; -628.000
407.136;   85.300; -480.000; -401.000
407.263;  208.250; -939.000; -829.000
407.390;  -61.625; -692.000; -614.000
407.517; -165.900;-1139.000;-1187.000
407.644;  -59.225; -332.000; -256.000
407.771;  -52.300; -249.000; -287.000
407.898;    1.025;  168.000;  328.000
408.025;  -75.375; -421.000; -313.000
408.151;  -17.625;   82.000;  153.000
408.278;  -55.775; -267.000; -216.000
408.405; -117.750; -931.000; -899.000
408.532;  -54.525; -549.000; -542.000
408.659; -126.850; -677.000; -648.000
408.785; -192.275;-1298.000;-1170.000
408.912;  -73.700; -412.000; -296.000
409.039; -111.200; -610.000; -686.000
409.166; -104.875; -591.000; -555.000
409.292; -109.225; -571.000; -534.000
409.419; -131.775; -665.000; -649.000
409.546;  -77.800; -431.000; -192.000
409.672; -109.500; -713.000; -545.000
409.799;  -22.425;  -36.000;   34.000
409.926;  -50.475; -180.000; -179.000
410.052; -168.050;-1127.000;-1091.000
410.179;  -52.275; -368.000; -392.000
410.305;  -88.450; -375.000; -493.000
410.432;  -54.675; -220.000; -333.000
410.558;  -69.175; -305.000; -380.000
410.685; -114.125; -688.000; -431.000
410.812; -105.150; -409.000; -588.000
410.938; -135.625; -964.000; -808.000
411.065;  -89.650; -671.000; -645.000
411.191;  -29.925; -189.000; -174.000
411.317;  -94.300; -823.000; -742.000
411.444;  -73.525; -317.000; -246.000
411.570;  -80.475; -339.000; -294.000
411.697; -128.825; -758.000; -752.000
411.823; -163.700; -989.000; -999.000
411.949;  -31.750;  -56.000;   17.000
412.076; -108.675; -539.000; -519.000
412.202; -114.975; -758.000; -757.000
412.329; -124.175; -798.000; -752.000
412.455; -111.875; -821.000; -657.000
412.581;  -18.350;  -15.000;  172.000
412.707;  -66.725; -540.000; -457.000
412.834;   17.150;  156.000;  219.000
412.960;  -77.000; -785.000; -784.000
413.086;  -86.775; -743.000; -701.000
413.212;  153.725;  604.000;  578.000
413.339;  -36.050; -685.000; -701.000
413.465;   12.525; -364.000; -310.000
413.591;  -80.475; -757.000; -474.000
413.717;  -48.800; -358.000; -366.000
413.843; -135.125; -839.000; -861.000
413.969;  -60.075;  -47.000; -292.000
414.096;  -95.025; -679.000; -679.000
414.222;  -17.525;  -33.000;   85.000
414.348;  -21.050; -652.000; -385.000
414.474;  116.875;   38.000;  -52.000
414.600;  -13.875; -126.000; -144.000
414.726;  -23.475;  -96.000;  -55.000
414.852;  -59.450; -365.000; -342.000
414.978;   19.925;  104.000;  -18.000
415.104;   33.675;   38.000;   80.000
415.230;   23.000; -329.000; -330.000
415.356;   41.175; -409.000; -514.000
415.482;  218.300;   13.000;  -35.000
415.608;  285.175; -247.000; -323.000
415.734;  945.400;   67.000;   38.000
415.860;19227.400; -875.000; -767.000
415.986;15155.825; -685.000; -607.000
416.111; 1345.250; -798.000; -652.000
416.237;  254.250; -424.000; -571.000
416.363; 1013.500; -765.000; -733.000
416.489; 4109.150; -324.000; -251.000
416.615;  478.050; -707.000; -742.000
416.741;  -20.250; -677.000; -784.000
416.866;  -69.925; -673.000; -736.000
416.992; -131.850; -801.000; -818.000
417.118;  -32.525;  -41.000;  -80.000
417.244;  -69.900; -798.000; -531.000
417.369;  -82.400; -801.000; -612.000
417.495;    1.025; -325.000; -254.000
417.621;  -68.925;-1015.000; -803.000
417.746;    2.250; -579.000; -572.000
417.872;   60.000; -254.000; -144.000
417.998;   59.000; -515.000; -530.000
418.123;  942.800;-1073.000; -845.000
418.249; 5299.425; -512.000; -601.000
418.374;  826.375; -916.000; -824.000
418.500;  111.575; -383.000; -482.000
418.626;  107.150;   70.000;  -59.000
418.751;  128.150; -549.000; -448.000
418.877;  209.750; -637.000; -643.000
419.002; 1624.450; -688.000; -560.000
419.128;12165.925; -930.000; -721.000
419.253; 3238.000; -967.000; -837.000
419.379;  430.800; -391.000; -338.000
419.504;  375.750;  325.000;  415.000
419.629;  504.525; -393.000; -212.000
419.755; 3170.350; -317.000; -254.000
419.880;20013.275;  -98.000;   67.000
420.006;11073.325; -280.000; -221.000
420.131;29269.500; -662.000; -775.000
420.256; 4613.350; -315.000; -316.000
420.382;  607.275; -665.000; -687.000
420.507;   77.300; -649.000; -778.000
420.632;  152.325; -337.000; -339.000
420.758;  308.225; -251.000; -425.000
420.883;  -59.550; -876.000; -672.000
421.008; -107.325; -775.000; -619.000
421.133;  -59.575; -509.000; -467.000
421.259;  -48.875; -325.000; -259.000
421.384; -101.175; -834.000; -693.000
421.509;  -35.425;-1052.000; -862.000
421.634; 1404.025; -936.000; -820.000
421.759;  681.000; -359.000; -327.000
421.885;  -33.375; -717.000; -656.000
422.010;  -80.800; -673.000; -542.000
422.135; -137.900; -695.000; -727.000
422.260;   27.825;  340.000;  280.000
422.385;  -34.375;   12.000;  -98.000
422.510;    5.850;  151.000;  -26.000
422.635;   36.775;  -87.000;  -43.000
422.760;  131.200; -766.000; -791.000
422.885;   73.900;  -57.000;  -80.000
423.010;  -32.925; -112.000; -169.000
423.135;  -95.850; -481.000; -561.000
423.260;  -10.550; -150.000; -245.000
423.385;   80.575;  476.000;  222.000
423.510;   34.950;   71.000;  -22.000
423.635;   98.850;  133.000;   45.000
423.760;   51.350;  383.000;  328.000
423.885;   70.200;  336.000;  391.000
424.010;   18.275;  -68.000;  -13.000
424.135;  -17.650;    5.000;  -33.000
424.259; -104.550; -654.000; -457.000
424.384;  -73.800; -279.000; -272.000
424.509;  -22.475; -260.000; -186.000
424.634; -104.500; -761.000; -623.000
424.759;  -26.925; -688.000; -544.000
424.883;  -14.900; -506.000; -527.000
425.008;  160.350; -502.000; -410.000
425.133; 1944.825; -679.000; -653.000
425.258;  979.900; -517.000; -381.000
425.382; 1119.250; -867.000; -774.000
425.507; 3048.675; -487.000; -543.000
425.632;  520.850; -802.000; -663.000
425.756;  450.200; -256.000; -146.000
425.881; 5799.000; -831.000; -857.000
426.006;16883.850; -604.000; -355.000
426.130; 2926.500; -696.000; -508.000
426.255;  367.850; -611.000; -491.000
426.379;  146.950; -189.000; -577.000
426.504;  342.375;  660.000;  544.000
426.629; 3879.750; -519.000; -466.000
426.753; 2947.025;   64.000;  -46.000
426.878;  345.550; -252.000; -288.000
427.002;  180.250; -651.000; -668.000
427.127; 1486.325;  -35.000; -158.000
427.251;10933.575;  372.000;  401.000
427.375; 3444.900; -191.000; -173.000
427.500; 2579.475; -616.000; -610.000
427.624;  975.975; -234.000; -400.000
427.749;  131.700; -216.000; -225.000
427.873;  -22.850; -499.000; -412.000
427.997;  -44.550; -222.000; -230.000
428.122;   63.500;  795.000;  703.000
428.246;   65.900;  433.000;  434.000
428.371; -118.200; -869.000; -773.000
428.495; -109.250; -624.000; -646.000
428.619;  -30.725; -186.000; -117.000
428.743;   16.050;   65.000;  132.000
428.868;   46.800; -732.000; -643.000
428.992; 1611.300; -219.000; -326.000
429.116;  707.050; -329.000; -357.000
429.240;  320.925;  419.000;  426.000
429.365;  -11.900; -454.000; -574.000
429.489;  -28.675; -638.000; -647.000
429.613;   30.875; -236.000; -177.000
429.737;   25.900; -563.000; -432.000
429.861;  243.950; -247.000; -133.000
429.985; 5201.875; -425.000; -305.000
430.109; 6259.700; -770.000; -908.000
430.234;  752.650;   76.000;  -50.000
430.358;   72.150; -250.000; -160.000
430.482;  -71.700; -672.000; -564.000
430.606;  -61.875; -655.000; -375.000
430.730;   18.725; -437.000; -388.000
430.854;  197.650; -909.000; -835.000
430.978;  -61.650; -795.000; -764.000
431.102;  -84.300; -499.000; -422.000
431.226; -119.400; -874.000; -815.000
431.350;   34.775;  345.000;  422.000
431.474;  -85.800; -661.000; -373.000
431.597; -143.400;-1060.000; -848.000
431.721;  -84.225; -276.000; -267.000
431.845; -130.250; -704.000; -472.000
431.969;  -96.825; -304.000; -349.000
432.093;  -91.950; -395.000; -317.000
432.217;  -20.175;   32.000;   82.000
432.341;  -94.100; -523.000; -518.000
432.464;    7.250;   96.000;   40.000
432.588;  270.675; -401.000; -329.000
432.712;  129.500;  -52.000;  -52.000
432.836;   43.050;  213.000;  263.000
432.959;  -29.000; -372.000; -311.000
433.083;   74.825;   11.000;    2.000
433.207;  337.200;  285.000;  930.000
433.330; 4680.925; -391.000; -200.000
433.454; 6271.675; -654.000; -638.000
433.578; 3577.300;  583.000;  278.000
433.701;  714.425; -623.000; -675.000
433.825;  187.425; -292.000; -299.000
433.949;  199.900;   28.000;  -72.000
434.072;   91.775; -410.000; -323.000
434.196;  -17.050; -309.000; -117.000
434.319; 3594.300;25482.000;25124.000
434.443;  699.500; -656.000; -603.000
434.566; 2625.750;  281.000;   62.000
434.690;  494.975; -637.000; -383.000
434.813;   59.575; -251.000; -173.000
434.937;  -73.925; -569.000; -696.000
435.060;  -36.975; -423.000; -332.000
435.184;  376.950; -492.000; -217.000
435.307;  226.950;  159.000;  102.000
435.431;    0.050;  -40.000;   24.000
435.554;  -73.900; -399.000; -240.000
435.677;  -96.875; -350.000; -258.000
435.801;  -50.575;  -25.000;   49.000
435.924;    0.950;    1.000;  -67.000
436.048;  -99.175;-1019.000; -732.000
436.171;  -77.900; -240.000;  -66.000
436.294;  -33.050; -248.000; -229.000
436.417;   78.900; -963.000; -849.000
436.541;  -76.200; -814.000; -840.000
436.664;  -70.850; -242.000; -316.000
436.787;  -18.300;   13.000;  113.000
436.910; -106.125; -792.000; -422.000
437.034;    5.000;  142.000;  143.000
437.157;   69.625;  -11.000;    0.000
437.280;  -34.000; -392.000; -292.000
437.403;  -79.525; -982.000; -869.000
437.526;  727.525; -903.000; -865.000
437.649; 2809.525; -505.000; -332.000
437.772;  514.150; -692.000; -540.000
437.896;  146.575;  700.000;  544.000
438.019;  -90.375; -758.000; -503.000
438.142;  -93.075; -596.000; -506.000
438.265;   -6.800; -639.000; -670.000
438.388;  698.225; -520.000; -410.000
438.511;  174.925; -597.000; -394.000
438.634;  -39.900; -247.000; -125.000
438.757; -135.650; -693.000; -619.000
438.880;  -22.975;  -34.000;  -57.000
439.003;  -63.400; -417.000; -437.000
439.126;  -61.075; -287.000; -167.000
439.248;  -57.200;  -98.000; -139.000
439.371;  -45.700;    9.000;  -53.000
439.494;   18.200;  510.000;  439.000
439.617;  -63.425;   65.000;  -88.000
439.740; -185.400; -968.000; -816.000
439.863; -145.475; -755.000; -595.000
439.986; -117.225; -476.000; -431.000
440.108;  -45.375; -161.000; -112.000
440.231; -149.000; -950.000; -836.000
440.354;  -46.325;  -64.000; -150.000
440.477;   70.975; -566.000; -542.000
440.599;   27.700; -200.000; -225.000
440.722; -116.450; -709.000; -586.000
440.845;   48.475;  751.000;  928.000
440.968; -110.025; -415.000; -311.000
441.090;  -66.550; -199.000;  -33.000
441.213; -178.400;-1021.000; -825.000
441.336;  -57.750; -159.000;   -5.000
441.458;  -84.125; -549.000; -396.000
441.581;  -80.050; -628.000; -629.000
441.703;  -60.500; -152.000;   13.000
441.826; -112.175; -557.000; -400.000
441.948;  -54.075;   56.000;   51.000
442.071;   18.450;  555.000;  424.000
442.193; -119.275; -531.000; -485.000
442.316;   31.925;  152.000;   97.000
442.438;   49.400; -233.000;  -10.000
442.561;   88.475;  272.000;  262.000
442.683;  616.400; -809.000; -522.000
442.806; 1456.775;   -8.000;   74.000
442.928;  102.625; -859.000; -604.000
443.051;  -54.250; -577.000; -373.000
443.173;  -90.900; -341.000; -339.000
443.295;  -94.200; -263.000; -371.000
443.418;  -67.725; -321.000;  -29.000
443.540;   -2.750; -106.000;   -4.000
443.662; -109.275; -563.000; -465.000
443.785;  -20.000;  335.000;  199.000
443.907;  -98.375; -362.000; -208.000
444.029; -135.225; -767.000; -494.000
444.152; -148.475; -644.000; -554.000
444.274;  -43.750;  -18.000;  -24.000
444.396; -113.300; -461.000; -221.000
444.518; -132.600; -691.000; -454.000
444.640; -112.825; -268.000; -111.000
444.763;  -43.600;  388.000;  249.000
444.885; -114.050; -432.000; -392.000
445.007;  -39.900;   35.000;   86.000
445.129; -125.800; -610.000; -515.000
445.251;  -96.850; -372.000; -439.000
445.373; -134.425; -537.000; -386.000
445.495;  -15.275;  242.000;  350.000
445.617;   60.050;  853.000;  753.000
445.739;  -71.650; -215.000;  -97.000
445.861;  -33.975; -245.000; -112.000
445.984;  -25.975; -267.000; -101.000
446.105;  238.575; -418.000; -251.000
446.227;  722.600; -176.000;  -19.000
446.349;   43.125; -358.000; -249.000
446.471;  -91.875; -615.000; -448.000
446.593;  -55.675; -316.000;   19.000
446.715;   -9.250;  -67.000;   41.000
446.837;   56.075;  697.000;  832.000
446.959;  -97.325; -457.000; -478.000
447.081; -125.575; -628.000; -518.000
447.203;   38.575;  862.000;  834.000
447.325;  -91.175; -270.000;   42.000
447.446;   -6.800;  286.000;  530.000
447.568; -154.600; -921.000; -803.000
447.690;  -81.875; -236.000; -245.000
447.812; -149.300; -798.000; -519.000
447.933;  -36.050;  155.000;  127.000
448.055;  -80.875; -306.000; -261.000
448.177;  157.375;   31.000;   79.000
448.299;  140.050; -935.000; -727.000
448.420;   39.525;  -25.000;  159.000
448.542;  -37.300;   -3.000;   33.000
448.664;  -25.225;  109.000;  322.000
448.785;  -33.425;  265.000;   83.000
448.907;  -76.825; -614.000; -353.000
449.028;  -27.150; -771.000; -471.000
449.150;   51.000;  492.000;  589.000
449.272; -175.225;-1044.000; -913.000
449.393;   23.475;  612.000;  694.000
449.515; -140.700; -634.000; -581.000
449.636;  -52.300; -264.000; -155.000
449.758;   78.625;  763.000;  622.000
449.879; -103.000; -498.000; -396.000
450.001;  -76.900; -149.000;  -49.000
450.122;  -45.575;  -95.000;  162.000
450.244;   -8.875;   37.000;  364.000
450.365;  -97.650; -495.000; -301.000
450.486;  -40.600;   80.000;  268.000
450.608;    2.600;  393.000;  326.000
450.729;   59.550;  578.000;  645.000
450.850;  -15.025; -574.000; -466.000
450.972;  642.000; -552.000; -389.000
451.093; 4571.400;  190.000;  588.000
451.214; 2212.475; -516.000; -337.000
451.336;  388.075;  773.000;  579.000
451.457;   61.900;  264.000;  393.000
451.578;  -46.125; -118.000;  -74.000
451.699; -111.625; -546.000; -540.000
451.821;  -85.025; -284.000;  -50.000
451.942;   -4.650;  278.000;  285.000
452.063;   13.975;  228.000;  419.000
452.184;  487.900;  -54.000;  -49.000
452.305; 1085.025;  103.000;  170.000
452.427;  144.200; -549.000; -301.000
452.548;  -22.850;   23.000;   79.000
452.669;  -45.750; -257.000;  -89.000
452.790;  -44.250;    3.000;  -18.000
452.911;  -11.325;  195.000;  259.000
453.032;  -70.100; -289.000;  -60.000
453.153;  -25.225;  -29.000;   81.000
453.274;   44.925;  737.000;  868.000
453.395;  -46.400;  -51.000;  175.000
453.516;  115.125; 1317.000; 1388.000
453.637;  -51.650; -205.000; -150.000
453.758;  -55.650;   15.000;   69.000
453.879; -119.700; -462.000; -250.000
454.000;   59.075; 1086.000;  948.000
454.121; -116.400; -554.000; -326.000
454.242; -119.150; -599.000; -383.000
454.362;  -59.050;  -99.000;  114.000
454.483;  -43.975; -309.000; -229.000
454.604;   55.725;  512.000;  580.000
454.725; -138.150; -627.000; -555.000
454.846; -136.025; -474.000; -406.000
454.967;  -37.275;  230.000;  539.000
455.087;  -57.575;  179.000;  153.000
455.208;   11.500;  554.000;  856.000
455.329;  -57.525;  -22.000;   82.000
455.450;   13.500;  473.000;  633.000
455.570;  -60.825; -234.000; -211.000
455.691;  -42.500;  201.000;  407.000
455.812; -107.775; -270.000;  -92.000
455.932;  -66.200;  107.000;  -97.000
456.053;  -83.750;   36.000;   24.000
456.173; -112.500; -433.000; -355.000
456.294; -122.925; -476.000; -303.000
456.415;  -67.200;  -73.000;   70.000
456.535;  -37.225;  297.000;  273.000
456.656;  -32.775;  132.000;  240.000
456.776;  -59.650;    3.000;  298.000
456.897;  -18.200;  308.000;  513.000
457.017;  -69.025; -153.000;   -3.000
457.138; -101.625; -402.000; -249.000
457.258;  -35.825;  263.000;  224.000
457.379;  -19.600;  509.000;  521.000
457.499;  -16.150;  443.000;  432.000
457.620; -130.300; -407.000; -231.000
457.740; -100.425; -132.000;  -11.000
457.860;  -49.575;   87.000;   44.000
457.981;  -52.900;  132.000;  124.000
458.101;  -70.875;  -89.000;   40.000
458.221;  -27.625;  336.000;  402.000
458.342;  -58.025;   -4.000;  -37.000
458.462;   12.875;  617.000;  352.000
458.582;  -34.575; -302.000; -294.000
458.703;    2.800;  303.000;  154.000
458.823;  -32.175;   22.000;  163.000
458.943;   18.775;  341.000;  467.000
459.063;  -21.500; 1124.000;  192.000
459.183;  -34.825;  328.000;  313.000
459.304;   -6.150;  315.000;  517.000
459.424;  -59.250; -246.000;  -89.000
459.544;  302.425;  388.000;  764.000
459.664;  817.300;  499.000;  506.000
459.784;  328.925; 1004.000; 1175.000
459.904;   54.175;  867.000;  744.000
460.024;   51.025;  867.000;  684.000
460.144;   10.975;  449.000;  554.000
460.264;  -21.175;  515.000;  327.000
460.385;  -93.675; -145.000; -119.000
460.505;   25.525;  905.000;  858.000
460.625;  -84.700;  -17.000;  -68.000
460.745;  -16.500;  396.000;  541.000
460.864;  -63.550;  153.000;  469.000
460.984;    2.825;  499.000;  573.000
461.104;  133.400; 1656.000; 1775.000
461.224;   10.500;  657.000;  650.000
461.344;  -28.125;  431.000;  360.000
461.464;  -31.350;  258.000;  513.000
461.584;  -13.700;  283.000;  466.000
461.704;  -36.700;   58.000;  108.000
461.824;  -51.900;  238.000;  259.000
461.943;  -51.125;  191.000;  130.000
462.063;  -79.950;    2.000;  324.000
462.183;   37.500;  639.000;  717.000
462.303;  103.150; 1678.000; 1230.000
462.422;   25.425;  781.000;  840.000
462.542;  -45.400;  271.000;  391.000
462.662;   27.225;  353.000;  380.000
462.782;  231.850;  833.000;  572.000
462.901;  462.400;  545.000;  717.000
463.021;  271.200; 1702.000; 1638.000
463.141;   -1.000;  337.000;  770.000
463.260;  -16.175;  614.000;  474.000
463.380;   11.625;  902.000;  884.000
463.499;  -46.925;  342.000;  332.000
463.619;  -35.925;  581.000;  559.000
463.738;  101.300; 1644.000;  903.000
463.858;   16.150;  657.000;  811.000
463.978;  -24.150;  542.000;  396.000
464.097;   37.000;  921.000; 1114.000
464.217;  103.950; 1196.000; 1143.000
464.336;  103.225; 1068.000; 1130.000
464.455;  -21.000;  328.000;  659.000
464.575;   38.675;  597.000;  602.000
464.694;  173.750; 1204.000; 1179.000
464.814;  123.750; 1190.000; 1138.000
464.933;   71.575; 1095.000; 1027.000
465.052;   78.575; 1412.000; 1054.000
465.172;   97.500;  922.000;  799.000
465.291;  146.975; 1376.000; 1320.000
465.410;   19.825;  462.000;  735.000
465.530;   73.350; 1355.000; 1310.000
465.649;   61.975; 1209.000; 1273.000
465.768;  139.950; 1673.000; 1508.000
465.888;   42.975;  941.000; 1174.000
466.007;   75.125; 1335.000; 1440.000
466.126;   -4.925;  721.000;  641.000
466.245;   41.000; 1176.000; 1187.000
466.364;   18.375;  950.000; 1060.000
466.484;   50.175; 1024.000; 1213.000
466.603;   54.275; 1101.000; 1222.000
466.722;  118.100; 1490.000; 1769.000
466.841;   80.100; 1151.000; 1401.000
466.960;   29.025; 1069.000;  972.000
467.079;  129.450; 1971.000; 1786.000
467.198;   35.325; 1238.000; 1181.000
467.317;   93.575; 1768.000; 1162.000
467.436;   69.950; 1709.000; 1261.000
467.555;  122.500; 1796.000; 1746.000
467.674;   62.325; 1227.000; 1329.000
467.793;   48.550; 1376.000; 1374.000
467.912;   79.600; 1658.000; 1539.000
468.031;  140.700; 2038.000; 1930.000
468.150;  147.800; 1842.000; 1837.000
468.269;  204.200; 2313.000; 2090.000
468.388;  186.925; 2168.000; 2339.000
468.507;  255.725; 2884.000; 2903.000
468.626;  247.950; 2555.000; 2541.000
468.744;  150.325; 2018.000; 2174.000
468.863;  186.975; 2312.000; 2523.000
468.982;   94.300; 1503.000; 1555.000
469.101;  215.000; 2788.000; 2692.000
469.220;  164.825; 2333.000; 2176.000
469.338;  250.875; 2935.000; 3051.000
469.457;  206.125; 2719.000; 2545.000
469.576;  330.600; 3953.000; 3784.000
469.695;  233.300; 2877.000; 3066.000
469.813;  435.275; 4148.000; 4192.000
469.932;  410.250; 4255.000; 4485.000
470.051;  408.750; 4075.000; 4161.000
470.169;  805.675; 4470.000; 4338.000
470.288; 1439.000; 4700.000; 4809.000
470.406;  908.850; 5059.000; 5194.000
470.525;  632.050; 6101.000; 5787.000
470.644;  642.225; 6847.000; 6794.000
470.762;  792.550; 8397.000; 7873.000
470.881;  890.550; 8651.000; 8464.000
470.999; 1028.875; 9685.000; 9151.000
471.118; 1099.425;11174.000;10711.000

