
Integration time [ms]: 100.000
Averaging Nr. [scans]: 40
Smoothing Nr. [pixels]: 0
Data measured with spectrometer [name]: 2101012U2
Wave   ;Sample   ;Dark     ;Reference
[nm]   ;[counts] ;[counts] ;[counts] 

197.733;   50.575;  516.000;  404.000
197.879;  -75.450; -610.000; -634.000
198.025;  -48.575; -475.000; -420.000
198.171;  -67.525; -602.000; -612.000
198.317;  -26.200; -401.000; -316.000
198.463;  -62.325; -655.000; -404.000
198.609;   40.225;  181.000; -137.000
198.755;  -80.725; -644.000; -410.000
198.901;  -52.000; -505.000; -424.000
199.047;  -55.350; -615.000; -488.000
199.193;  -35.775; -230.000; -468.000
199.339;  -40.225; -222.000; -369.000
199.485;   38.375;  330.000;  271.000
199.631;   19.775;  227.000;  310.000
199.777;  -59.100; -466.000; -398.000
199.923;  -55.250; -610.000; -424.000
200.069;   -5.575; -141.000;  -58.000
200.215;   59.850;  128.000;  453.000
200.361;   40.650;  243.000;  477.000
200.507;  -57.175; -600.000; -373.000
200.653;  -26.150; -371.000; -194.000
200.798;  -33.175; -215.000; -125.000
200.944;   -0.625; -146.000;  -41.000
201.090;   34.725;   61.000;  222.000
201.236;   -1.175; -116.000; -158.000
201.382;  122.225;  874.000;  903.000
201.528;   13.700;  -58.000;  -48.000
201.674;  -69.225; -386.000; -293.000
201.819;  -49.150; -540.000; -439.000
201.965;  -86.550; -699.000; -447.000
202.111;  -24.525; -273.000; -226.000
202.257;  -38.900; -250.000; -238.000
202.402;   18.150;   13.000;  -36.000
202.548;  -22.550; -169.000; -116.000
202.694;   73.225;  410.000; -183.000
202.840;  -78.425; -603.000; -531.000
202.985;  -60.425; -681.000; -639.000
203.131;  -96.000; -832.000; -666.000
203.277;  -26.400; -199.000; -262.000
203.423;  -54.375; -434.000; -520.000
203.568;  -34.450; -462.000; -237.000
203.714;  -52.675; -535.000; -542.000
203.860;  -85.650; -682.000; -641.000
204.005;   17.750;  112.000;  167.000
204.151;   71.500;  561.000;  556.000
204.296;  -36.650; -354.000; -221.000
204.442;  -72.900; -600.000; -547.000
204.588;  -82.875; -592.000; -579.000
204.733;   23.225;  178.000;  168.000
204.879; -125.475;-1018.000; -822.000
205.025;   12.425;  -99.000;  126.000
205.170;   -6.225;  -17.000;   94.000
205.316;   94.100;  438.000;  661.000
205.461;  -89.125; -698.000; -554.000
205.607;   84.600;  609.000;  665.000
205.752;  -89.050; -626.000; -551.000
205.898;  -38.575; -501.000; -391.000
206.043;  -60.900; -578.000; -506.000
206.189;  -55.075; -243.000; -285.000
206.334;   78.600;  554.000;  606.000
206.480;   71.825;  409.000;  239.000
206.625;  -86.175; -529.000; -552.000
206.771;  -45.850; -451.000; -373.000
206.916;  -39.800; -210.000; -537.000
207.062;  -89.025; -545.000; -591.000
207.207;  -60.075; -546.000; -443.000
207.353;   42.775;  185.000;  460.000
207.498;   11.875;  196.000;   85.000
207.643;  -41.500; -501.000; -370.000
207.789; -115.400;-1069.000; -910.000
207.934;  -86.475; -665.000; -713.000
208.080;  -22.500; -154.000;   66.000
208.225;  -16.500;  -22.000;  -57.000
208.370;  -80.925; -727.000; -619.000
208.516;  -71.225; -741.000; -487.000
208.661;  -28.525; -127.000;  -69.000
208.806;  -22.925; -165.000; -171.000
208.952; -113.475;-1044.000; -731.000
209.097;   89.100;  378.000;  349.000
209.242;  -49.575; -307.000; -382.000
209.387;   81.725;  392.000;  350.000
209.533;  -58.150; -321.000; -350.000
209.678;   78.925;  472.000;  543.000
209.823;  -67.275; -408.000; -310.000
209.969;  -97.200; -860.000; -757.000
210.114;  -96.000; -907.000; -719.000
210.259; -108.350; -939.000; -889.000
210.404;  -19.100; -171.000;  103.000
210.549;   20.025;  108.000;    3.000
210.695;  -21.875;   -3.000;  -95.000
210.840;   29.075;   94.000;   67.000
210.985;  -74.650; -484.000; -303.000
211.130;   58.150;  268.000;  406.000
211.275;   17.275;  207.000;  199.000
211.420;  -49.850; -300.000; -289.000
211.566;  -70.175; -536.000; -489.000
211.711;   30.225;  218.000;  157.000
211.856;  -66.750; -545.000; -519.000
212.001;    9.500;  151.000;   44.000
212.146;   27.225;  153.000;   49.000
212.291;  -14.725; -210.000; -186.000
212.436;  -23.975; -280.000;   -6.000
212.581;  -69.650; -685.000; -653.000
212.726;  -71.725; -487.000; -538.000
212.871;  -41.500; -552.000; -217.000
213.016; -147.075;-1172.000;-1029.000
213.161;   56.850;  406.000;  291.000
213.306;  -62.400; -435.000; -577.000
213.451;  -98.725; -778.000; -689.000
213.596;  -42.425; -455.000; -347.000
213.741;  -50.925; -448.000; -538.000
213.886;  -84.500; -498.000; -517.000
214.031;  -24.125; -294.000; -124.000
214.176;  -56.550; -408.000; -341.000
214.321;   -3.225; -296.000; -157.000
214.466;  -27.475; -163.000;  -43.000
214.611;  -15.400;  -61.000;  -10.000
214.756; -121.900; -948.000; -858.000
214.901;  -24.750; -388.000; -226.000
215.046; -122.325; -797.000; -825.000
215.191;   21.725;  128.000;   35.000
215.336;   -4.425; -157.000;  -19.000
215.480;  -71.875; -684.000; -505.000
215.625;  -14.050; -175.000;  -19.000
215.770;  -77.375; -757.000; -662.000
215.915;   -9.425;   -5.000;  -97.000
216.060;   -9.475; -113.000;  -21.000
216.205; -104.750; -731.000; -779.000
216.349;  -64.575; -470.000; -533.000
216.494; -133.775; -939.000; -867.000
216.639; -115.000; -823.000; -888.000
216.784;  -95.500; -577.000; -525.000
216.929;   53.375;  392.000;  281.000
217.073;  -20.350; -244.000;  -31.000
217.218;  -10.900;   78.000;  -47.000
217.363;  -89.750; -656.000; -618.000
217.507;  -69.525; -623.000; -588.000
217.652; -122.175; -845.000; -874.000
217.797;  -87.750; -708.000; -659.000
217.942; -120.800; -856.000; -720.000
218.086;   67.275;  608.000;  539.000
218.231;  -37.000; -174.000;  -26.000
218.376;  -27.625; -337.000; -229.000
218.520;   -0.550;  -41.000;   96.000
218.665;  -28.050; -338.000; -204.000
218.810;  -45.950; -275.000; -233.000
218.954;   -0.900;  201.000;   35.000
219.099; -121.425; -713.000; -963.000
219.243;  -68.425; -589.000; -554.000
219.388;  -29.350; -264.000; -136.000
219.532;   -7.200; -116.000; -116.000
219.677;  -81.025; -564.000; -521.000
219.822;   13.850;   33.000;   89.000
219.966;   -8.500;   17.000;  -99.000
220.111;  -29.750; -328.000;  -40.000
220.255;  -96.425; -797.000; -750.000
220.400;  -21.400; -180.000; -146.000
220.544;  -64.500; -516.000; -450.000
220.689;  -52.525; -422.000; -451.000
220.833;  -20.150; -123.000;  -58.000
220.978;  -49.250; -393.000; -563.000
221.122;   28.150;  319.000;  307.000
221.267; -117.400; -906.000; -837.000
221.411;  -71.875; -478.000; -394.000
221.555;  -10.675; -104.000;  -23.000
221.700;  -50.800; -329.000; -222.000
221.844;   43.600;  255.000;  272.000
221.989;  -46.950; -328.000; -311.000
222.133;  -42.700; -289.000; -307.000
222.277;  -18.150;    5.000;   78.000
222.422;   16.575;  227.000;  113.000
222.566;  -38.275; -381.000; -214.000
222.711;  -61.025; -414.000; -479.000
222.855;  -76.675; -643.000; -586.000
222.999;  -80.950; -642.000; -717.000
223.144;  -29.325; -195.000; -194.000
223.288;   53.275;  423.000;  251.000
223.432;   18.400;  184.000;  230.000
223.576;   25.950;  152.000;  -21.000
223.721;   35.075;  364.000;  273.000
223.865;  -53.200; -472.000; -475.000
224.009;  196.775; 1673.000; 1631.000
224.153;  -69.900; -660.000; -671.000
224.298;  -56.250; -531.000; -489.000
224.442;  -17.500;  -74.000;  -33.000
224.586;  -22.800; -169.000; -106.000
224.730;  -86.825; -858.000; -670.000
224.875; -108.275; -739.000; -688.000
225.019;   10.875;  102.000;  188.000
225.163;   50.400;  208.000;  341.000
225.307;   42.100;   97.000;  -91.000
225.451;   31.575;  360.000;  481.000
225.595;   21.625;  264.000;  176.000
225.739;  -17.150; -170.000;  -94.000
225.884;   12.425;   86.000;    5.000
226.028;  -97.925; -760.000; -626.000
226.172;  -28.625; -260.000; -273.000
226.316; -122.475; -941.000; -902.000
226.460;  -72.600; -645.000; -493.000
226.604;  -55.175; -406.000; -400.000
226.748;  -93.625; -836.000; -733.000
226.892;  -31.075; -227.000; -181.000
227.036;  -46.400; -537.000; -447.000
227.180;  -54.800; -551.000; -375.000
227.324;  -67.725; -561.000; -580.000
227.468; -115.625; -819.000; -717.000
227.612;    3.825;  242.000;  -28.000
227.756; -105.875; -845.000; -698.000
227.900;   61.125;  342.000;  441.000
228.044;  -69.550; -509.000; -290.000
228.188;   55.475;  448.000;  568.000
228.332;  -93.950; -546.000; -472.000
228.476;  -22.775; -223.000; -149.000
228.620;  -42.925; -210.000; -150.000
228.764;   48.725;  431.000;  349.000
228.908;  -10.175; -155.000;   30.000
229.052;  -61.600; -615.000; -528.000
229.195;  -21.725; -172.000;   13.000
229.339;  -20.525; -235.000; -305.000
229.483;  -25.925;    5.000; -162.000
229.627;   -5.125; -156.000;  139.000
229.771;  -41.775; -218.000; -294.000
229.915;   25.050;  230.000;   79.000
230.059;  -90.100; -648.000; -663.000
230.202;  -33.025; -370.000; -317.000
230.346;  -13.150; -107.000;  107.000
230.490;  -66.050; -489.000; -521.000
230.634; -103.800; -736.000; -553.000
230.777;   71.675;  478.000;  509.000
230.921;  -49.575; -450.000; -359.000
231.065;  -44.200; -246.000; -286.000
231.209;   13.200;  261.000;  265.000
231.352;   27.250;   54.000;   40.000
231.496;    6.000;  568.000;  188.000
231.640;  -94.025; -693.000; -621.000
231.783;   59.675;  546.000;  525.000
231.927;  -45.875; -294.000; -365.000
232.071; -119.425; -962.000; -736.000
232.214; -117.375; -980.000; -764.000
232.358; -103.175; -683.000; -599.000
232.502;   19.450;  -19.000;    7.000
232.645; -138.200;-1090.000; -927.000
232.789;  -20.800; -257.000; -218.000
232.933;  -51.075; -407.000; -224.000
233.076; -121.475;-1038.000; -897.000
233.220; -105.400; -752.000; -777.000
233.363;  -77.350; -669.000; -477.000
233.507;   51.025;  371.000;  129.000
233.650;  -97.350; -764.000; -834.000
233.794;   42.650;  438.000;  461.000
233.938;  -53.675; -530.000; -362.000
234.081;  -18.400;  -93.000;   31.000
234.225;  -66.150; -631.000; -539.000
234.368; -113.250; -773.000; -723.000
234.512;  -46.825; -385.000; -299.000
234.655;  -77.325; -582.000; -555.000
234.798;  -57.125; -493.000; -466.000
234.942; -131.300; -884.000;-1002.000
235.085;  -60.925; -651.000; -443.000
235.229;  -75.575; -405.000; -410.000
235.372;  -40.000; -247.000; -191.000
235.516;  -67.525; -397.000; -321.000
235.659;   25.525;   92.000;  121.000
235.802;  -22.450;  -38.000;  -22.000
235.946;   31.025;  335.000;  215.000
236.089;   21.650;  126.000;  250.000
236.233;   44.775;  275.000;  298.000
236.376;  -56.275; -235.000; -378.000
236.519;  -39.375; -297.000; -319.000
236.663;  -23.425; -215.000; -117.000
236.806; -139.900;-1029.000; -999.000
236.949;   40.625;  543.000;  431.000
237.092;   52.550;  412.000;  391.000
237.236;  -81.575; -589.000; -502.000
237.379;   78.700;  352.000;  428.000
237.522; -126.000; -879.000; -768.000
237.666;  -26.025; -271.000;   18.000
237.809; -118.100; -851.000; -823.000
237.952;   52.425;  469.000;  271.000
238.095;  -70.650; -447.000; -442.000
238.238;   85.900;  688.000;  700.000
238.382;   -4.675;  166.000;  103.000
238.525;  -61.750; -598.000; -511.000
238.668; -141.575;-1060.000; -985.000
238.811;  -79.350; -638.000; -643.000
238.954;  -63.975; -483.000; -334.000
239.097;   81.800;  617.000;  664.000
239.241;   17.050;  394.000;  326.000
239.384;  -46.575; -254.000; -214.000
239.527;  -72.175; -424.000; -224.000
239.670; -135.525; -994.000;-1091.000
239.813; -105.875; -696.000; -658.000
239.956;   83.475;  579.000;  473.000
240.099; -113.525; -778.000; -725.000
240.242;   42.725;  428.000;  432.000
240.385;   32.200;  466.000;  450.000
240.528;  -63.625; -706.000; -473.000
240.671;    5.825;  189.000;  134.000
240.814;  -39.550; -441.000; -158.000
240.957; -102.975; -767.000; -578.000
241.100;  -91.825; -779.000; -755.000
241.243; -146.300;-1234.000; -893.000
241.386;  -67.500; -508.000; -379.000
241.529;  -79.925; -735.000; -547.000
241.672;  -60.700; -566.000; -495.000
241.815; -112.400; -832.000; -808.000
241.958;  -16.525; -125.000; -182.000
242.101;  -74.400; -545.000; -390.000
242.244;  -31.625; -270.000; -325.000
242.387;  -55.425; -304.000; -246.000
242.530;   46.000;  470.000;  134.000
242.673;  -49.150; -381.000; -309.000
242.815; -121.525; -925.000; -899.000
242.958;  -59.225; -482.000; -381.000
243.101;   11.700;  132.000;  187.000
243.244;  -80.875; -564.000; -521.000
243.387;  -52.500; -313.000; -316.000
243.530;  -96.100; -657.000; -674.000
243.672;    8.350;   43.000;  -92.000
243.815;  -55.175; -355.000; -283.000
243.958;   -3.700;   98.000;  -26.000
244.101;    7.275;   59.000;  -16.000
244.243;  -20.800;  -47.000;  101.000
244.386; -107.775; -761.000; -630.000
244.529;  -23.925; -132.000; -139.000
244.672; -150.525;-1154.000; -951.000
244.814;  -93.750; -621.000; -794.000
244.957;  -49.625; -380.000; -304.000
245.100;  -68.950; -489.000; -489.000
245.242;  -68.475; -387.000; -374.000
245.385;   -6.425;  -59.000;  -39.000
245.528; -126.975; -871.000; -705.000
245.670;   79.900;  612.000;  634.000
245.813;  -87.150; -599.000; -547.000
245.956;  -33.350; -324.000; -275.000
246.098;  -80.650; -508.000; -650.000
246.241;    8.100;  194.000;   48.000
246.383;  -23.075; -119.000;  -73.000
246.526;  -79.725; -454.000; -525.000
246.669; -110.675; -889.000; -780.000
246.811;   21.325;  172.000;   -1.000
246.954;  -58.250; -512.000; -426.000
247.096;  -15.950;  -84.000;   -6.000
247.239;  -72.450; -482.000; -445.000
247.381;  -62.825; -647.000; -488.000
247.524;   81.500;  645.000;  679.000
247.666;   -7.850;   58.000;   11.000
247.809; -110.700; -887.000; -691.000
247.951;   -1.575;  -75.000;  138.000
248.094;   21.725;  432.000;  308.000
248.236; -144.475;-1262.000;-1238.000
248.378;    1.750; -356.000;  -81.000
248.521;  -26.650; -334.000; -337.000
248.663;  -49.500; -236.000; -267.000
248.806;  -29.225; -300.000; -266.000
248.948;  -97.400; -886.000; -763.000
249.090;  -38.375; -428.000; -398.000
249.233;  -45.375; -344.000; -381.000
249.375;  -64.950; -474.000; -451.000
249.518;  -24.550;  -83.000; -133.000
249.660;   -7.275; -103.000;    3.000
249.802; -175.950;-1303.000;-1189.000
249.945;  -72.950; -612.000; -540.000
250.087; -109.400; -834.000; -768.000
250.229;  -45.325; -362.000; -480.000
250.371;  -81.200; -494.000; -439.000
250.514;  -59.325; -310.000; -244.000
250.656;   -9.075;   69.000;  102.000
250.798; -107.050; -849.000; -800.000
250.940;  -71.800; -322.000; -322.000
251.083;  -25.625; -335.000; -111.000
251.225;   52.550;  338.000;  310.000
251.367;  -34.175; -274.000; -373.000
251.509;  -42.450; -265.000; -210.000
251.651;  -93.225; -731.000; -671.000
251.794;   53.900;  538.000;  632.000
251.936; -103.275; -821.000; -747.000
252.078;  -65.975; -540.000; -461.000
252.220;  -61.525; -645.000; -477.000
252.362;   73.525;  344.000;  462.000
252.504;  -56.800; -677.000; -584.000
252.646; -108.300; -875.000; -722.000
252.788;    0.950;   14.000; -128.000
252.931;  -45.825; -257.000; -253.000
253.073;  -41.450; -376.000; -317.000
253.215;  -18.050;  141.000;  122.000
253.357;  -18.825;   82.000; -153.000
253.499;  -52.325; -374.000; -234.000
253.641;  -73.925; -749.000; -594.000
253.783;  -95.675; -609.000; -527.000
253.925;  -93.850; -586.000; -591.000
254.067; -101.200; -744.000; -667.000
254.209;  -33.700; -391.000; -259.000
254.351; -127.825; -865.000; -883.000
254.493;  -46.725; -441.000; -417.000
254.635; -121.900; -936.000; -818.000
254.777;  -77.425; -752.000; -687.000
254.918;  -61.850; -512.000; -430.000
255.060;  -56.525; -551.000; -395.000
255.202;  -56.225; -473.000; -261.000
255.344;  -77.425; -658.000; -455.000
255.486;  -72.975; -471.000; -406.000
255.628; -107.925; -780.000; -781.000
255.770; -108.050; -676.000; -536.000
255.912;  -59.925; -559.000; -468.000
256.053;  -79.000; -730.000; -508.000
256.195;  150.250; 1008.000;  903.000
256.337; -109.025; -861.000; -595.000
256.479;   53.900;  532.000;  416.000
256.621;  -51.550; -394.000; -212.000
256.762;  -91.975; -789.000; -742.000
256.904;   41.075;  485.000;  487.000
257.046;  -40.975; -381.000; -271.000
257.188;  -44.950; -351.000; -264.000
257.329;  -88.275; -525.000; -464.000
257.471; -119.500; -939.000; -807.000
257.613;  -56.075; -584.000; -498.000
257.755; -144.775;-1073.000; -982.000
257.896;   35.550;  286.000;  392.000
258.038;  -70.950; -403.000; -352.000
258.180;  -43.275; -354.000; -279.000
258.321;  -78.975; -581.000; -457.000
258.463;  -18.925;  -71.000;  133.000
258.605;  -83.425; -562.000; -570.000
258.746; -107.850; -886.000; -772.000
258.888; -151.500;-1026.000;-1020.000
259.029;   27.850;  121.000;   -8.000
259.171; -101.450; -614.000; -550.000
259.313;  -12.200;  -49.000;  -47.000
259.454;  -74.625; -536.000; -414.000
259.596;  -44.800; -483.000; -390.000
259.737;  -87.675; -590.000; -474.000
259.879;   41.350;  217.000;  311.000
260.020;   87.750;  901.000;  636.000
260.162;  -32.825; -146.000; -253.000
260.303; -119.700; -768.000; -687.000
260.445;  -80.000; -609.000; -613.000
260.586;    5.550;  392.000;  157.000
260.728;  -40.725; -360.000; -248.000
260.869; -109.025; -350.000; -343.000
261.011;   67.300;  706.000;  537.000
261.152;  -61.900; -479.000; -319.000
261.293;  -71.250; -576.000; -595.000
261.435;  -38.250; -219.000; -184.000
261.576;  -48.325; -455.000; -325.000
261.718;   45.925;  420.000;  470.000
261.859; -126.075; -940.000; -949.000
262.000; -133.550; -951.000;-1016.000
262.142;   -8.725;  -52.000;  -60.000
262.283; -121.425; -808.000; -691.000
262.424;  -92.900; -666.000; -625.000
262.566; -145.000;-1161.000; -983.000
262.707; -103.550; -840.000; -830.000
262.848; -128.300; -769.000; -726.000
262.990;  -47.875; -362.000; -345.000
263.131;   68.025;  650.000;  681.000
263.272;   -5.200;  -61.000;  -41.000
263.413; -101.275; -589.000; -561.000
263.555;  -63.850; -669.000; -143.000
263.696;  -82.900; -550.000; -641.000
263.837;  -50.925; -449.000; -551.000
263.978;   -9.000;   -5.000;  -77.000
264.119;  -34.850; -283.000; -264.000
264.261; -122.000; -847.000; -630.000
264.402;   17.625;   33.000;   40.000
264.543;  -70.275; -509.000; -524.000
264.684;    2.325;   61.000;  -50.000
264.825;  -88.000; -816.000; -538.000
264.966;    2.975;  -84.000;  -67.000
265.107; -112.950; -646.000; -670.000
265.248; -111.800; -825.000; -812.000
265.390;   -1.525;  152.000;   -9.000
265.531;  -17.500; -238.000; -107.000
265.672;  -88.800; -557.000; -630.000
265.813;   57.475;  563.000;  439.000
265.954; -143.225; -959.000; -940.000
266.095;   -4.025; -372.000; -322.000
266.236;  -95.600; -686.000; -548.000
266.377;  -32.450; -243.000; -297.000
266.518;  -81.375; -619.000; -547.000
266.659;   30.775;  170.000;  268.000
266.800;   -0.275;   83.000;   85.000
266.941;  -68.150; -487.000; -478.000
267.082;   14.225;  354.000;   99.000
267.223;  -45.300; -344.000; -273.000
267.364; -103.900; -892.000; -686.000
267.504;   -5.575;    3.000;  135.000
267.645;    3.950;  160.000;   67.000
267.786;  -37.875; -147.000;  -86.000
267.927;  -70.350; -473.000; -379.000
268.068;   -3.950; -186.000;  -61.000
268.209;  -61.600; -175.000; -413.000
268.350;  -65.600; -388.000; -532.000
268.490;  -76.125; -648.000; -521.000
268.631;   29.400;  127.000;  225.000
268.772; -120.125; -874.000; -647.000
268.913;  -26.450; -328.000; -476.000
269.054;  -18.600; -117.000;   12.000
269.194;  -33.775; -418.000; -402.000
269.335; -154.200;-1137.000;-1074.000
269.476;  -12.475;   33.000;  -35.000
269.617;  -47.025; -347.000; -392.000
269.757;  -81.725; -713.000; -646.000
269.898; -105.000; -856.000; -613.000
270.039;  -50.075; -415.000; -405.000
270.180; -127.325; -952.000; -816.000
270.320;  -19.425; -190.000; -250.000
270.461;  -42.025; -277.000; -249.000
270.602;  -11.050; -186.000; -156.000
270.742; -119.675; -868.000; -943.000
270.883;  -38.875; -442.000; -390.000
271.023;  -65.000; -358.000; -357.000
271.164;  -65.050; -607.000; -528.000
271.305;  -91.950; -666.000; -654.000
271.445; -100.100; -722.000; -683.000
271.586;  -67.150; -462.000; -283.000
271.726;  -44.750; -397.000; -322.000
271.867;  -54.300; -594.000; -534.000
272.008;  212.675; -473.000; -285.000
272.148;  156.475;  462.000;  468.000
272.289;   17.450; -113.000; -181.000
272.429;   22.225;   19.000;  185.000
272.570;  -88.125; -633.000; -737.000
272.710;  -97.175; -825.000; -775.000
272.851;  -23.325;  113.000; -130.000
272.991; -150.750;-1173.000;-1077.000
273.131;  -63.550; -419.000; -459.000
273.272;  -97.575; -683.000; -723.000
273.412;   17.575; -143.000;  -31.000
273.553;  -55.825; -488.000; -507.000
273.693;  135.825;  913.000;  858.000
273.834;  -80.125; -894.000; -692.000
273.974;  -56.900; -664.000; -615.000
274.114;  -88.075; -772.000; -560.000
274.255;   81.825;  414.000;  373.000
274.395;    0.250; -180.000; -125.000
274.535;   50.600;  199.000;  350.000
274.676;   34.875;  225.000;   94.000
274.816;    6.300;  110.000;   34.000
274.956;  -76.725; -624.000; -690.000
275.097;  -40.025;-1014.000; -922.000
275.237; -106.200; -913.000; -803.000
275.377;  -99.700; -778.000; -689.000
275.517; -145.025; -878.000; -937.000
275.658;  -48.150; -590.000; -555.000
275.798;  -52.700; -606.000; -413.000
275.938;   23.050;  215.000;  323.000
276.078;  -98.800; -626.000; -395.000
276.218;   -8.275;   99.000;  104.000
276.359; -120.325;-1026.000;-1024.000
276.499;  -60.275; -605.000; -446.000
276.639;  -31.150; -305.000; -151.000
276.779;  -56.250; -475.000; -357.000
276.919; -103.475; -783.000; -624.000
277.059;   -9.425; -261.000; -212.000
277.199;  -36.725; -357.000; -259.000
277.340;   37.300;  287.000;  175.000
277.480; -114.425; -840.000; -693.000
277.620;   31.825;  192.000;   16.000
277.760; -183.225;-1533.000;-1294.000
277.900;   19.650;  113.000;   33.000
278.040;   27.150;  137.000;  159.000
278.180;   42.250;  270.000;  170.000
278.320;    3.575;   21.000;   56.000
278.460;  -59.325; -443.000; -469.000
278.600;  -76.425; -708.000; -598.000
278.740;   56.250;  448.000;  224.000
278.880;  -18.725; -768.000; -791.000
279.020;    8.175; -194.000; -144.000
279.160;  -90.575; -672.000; -595.000
279.300;  -97.925; -926.000; -873.000
279.440;  -82.700; -709.000; -622.000
279.579;    6.425;-1014.000; -929.000
279.719;  -52.200; -410.000; -394.000
279.859;   80.775;   -4.000;   41.000
279.999;   34.975; -208.000;  101.000
280.139;    2.725; -435.000; -387.000
280.279;  -68.650; -708.000; -745.000
280.419;   -5.525; -229.000; -147.000
280.559;  -33.825; -259.000; -180.000
280.698;  -83.250; -790.000; -639.000
280.838;  -74.550; -778.000; -800.000
280.978;  -85.375; -846.000; -790.000
281.118; -109.000; -811.000; -704.000
281.257;   10.725;   24.000;    6.000
281.397;  -97.850;-1094.000; -960.000
281.537;  -78.425; -599.000; -712.000
281.677;  -38.600; -150.000; -101.000
281.816;  -93.625; -700.000; -630.000
281.956;  -39.525; -193.000; -257.000
282.096;  -62.050; -539.000; -396.000
282.235;  -93.350; -672.000; -638.000
282.375;  -13.950; -243.000;  -98.000
282.515;  -91.850; -715.000; -707.000
282.654;   25.100;   29.000;  106.000
282.794;   22.050;  388.000;  244.000
282.934;  -52.025; -530.000; -491.000
283.073; -128.775;-1030.000; -857.000
283.213;  -43.175; -460.000; -467.000
283.353;   -9.300; -408.000; -349.000
283.492;  -13.400; -264.000; -296.000
283.632;  -53.625; -254.000; -168.000
283.771;  -91.400; -859.000; -730.000
283.911;  -52.100; -369.000; -260.000
284.050; -106.300; -794.000; -748.000
284.190; -154.475;-1229.000;-1096.000
284.329; -123.875;-1055.000; -964.000
284.469;  -50.050; -516.000; -591.000
284.608;  -45.475; -559.000; -598.000
284.748;  -92.100; -614.000; -570.000
284.887;   -6.775;  -87.000;  -20.000
285.027; -112.575; -844.000; -892.000
285.166;  -24.750; -192.000; -249.000
285.306;    2.850; -116.000;  -33.000
285.445;  -21.775; -229.000; -343.000
285.584;  -86.525; -630.000; -494.000
285.724;  -35.300; -282.000; -322.000
285.863; -114.875; -857.000; -507.000
286.002;  -49.275; -366.000; -276.000
286.142; -114.700; -715.000; -622.000
286.281;  -57.975; -525.000; -493.000
286.420;  -77.750; -554.000; -417.000
286.560;  104.075;  653.000;  623.000
286.699; -137.675; -958.000; -912.000
286.838;  -69.700; -590.000; -591.000
286.978;  -83.975; -533.000; -537.000
287.117; -132.525;-1085.000; -950.000
287.256;  -34.500; -228.000; -211.000
287.395;  -41.125; -197.000; -378.000
287.535;  -48.175; -370.000; -298.000
287.674;  -81.700; -509.000; -484.000
287.813;   58.950;  661.000;  533.000
287.952; -115.625;-1010.000; -871.000
288.091; -140.975;-1049.000; -915.000
288.231;   18.400;   13.000;   15.000
288.370; -161.900;-1217.000;-1200.000
288.509;  -86.150; -728.000; -645.000
288.648;  -91.350; -770.000; -548.000
288.787;  -38.950; -243.000;  -87.000
288.926;  -61.275; -454.000; -475.000
289.065;  116.350;  859.000;  672.000
289.204;  -45.975; -377.000; -217.000
289.344;  -86.550; -791.000; -690.000
289.483;   29.600;  416.000;  304.000
289.622;  -17.075; -291.000; -149.000
289.761;  -18.925; -309.000; -166.000
289.900;  -97.550; -785.000; -626.000
290.039;  -18.025;  -12.000;  -95.000
290.178;  -33.200; -274.000; -180.000
290.317;  -79.925; -618.000; -479.000
290.456;  -57.150; -463.000; -451.000
290.595; -115.125; -961.000; -833.000
290.734; -134.050; -904.000; -891.000
290.873;  -65.250; -456.000; -420.000
291.011; -103.650; -833.000; -843.000
291.150;  -95.550; -770.000; -682.000
291.289;   -7.400; -343.000; -110.000
291.428;  -67.650; -599.000; -480.000
291.567;  -59.125; -370.000; -442.000
291.706;   -3.925;  109.000;  154.000
291.845;  -79.550; -597.000; -505.000
291.984; -151.350;-1234.000;-1061.000
292.122;   69.800;  602.000;  582.000
292.261;   44.150;  620.000;  463.000
292.400;   12.775; -144.000;  211.000
292.539; -111.125; -959.000; -813.000
292.678;  -37.000; -325.000; -300.000
292.816; -160.300;-1136.000; -965.000
292.955;  -86.100; -844.000; -684.000
293.094;  -22.925; -173.000; -337.000
293.233;  -50.475; -556.000; -400.000
293.371;  -38.150; -225.000;  -84.000
293.510;  -90.525; -866.000; -780.000
293.649; -115.550; -959.000; -924.000
293.787;  -33.925;-1083.000;-1012.000
293.926;   -1.375; -113.000;  -32.000
294.065;  -34.275; -379.000; -290.000
294.203;   56.875;  298.000;  406.000
294.342;   25.200;   74.000;  156.000
294.481; 5141.125;51180.000; -836.000
294.619;  -29.025; -425.000; -582.000
294.758; -127.000;-1230.000;-1137.000
294.896;   95.850; -125.000;    5.000
295.035; -110.600;-1040.000;-1006.000
295.174; -105.725;-1082.000; -954.000
295.312;  -34.625; -323.000; -203.000
295.451;   27.225; -307.000; -428.000
295.589;  -43.900; -389.000; -518.000
295.728;   25.850; -292.000; -165.000
295.866;   14.250;  -36.000;  -51.000
296.005;  -50.525; -584.000; -341.000
296.143;  -52.200; -558.000; -596.000
296.282;  -92.925; -957.000; -881.000
296.420;  -88.025; -657.000; -557.000
296.559;  -62.700; -892.000; -633.000
296.697;   62.900; -847.000; -665.000
296.835;  133.225;-1141.000;-1002.000
296.974;   60.225;  -23.000;   39.000
297.112;   33.475; -443.000; -504.000
297.251;  -48.675; -815.000; -755.000
297.389;  148.675; -576.000; -438.000
297.527;   58.475; -145.000;  -83.000
297.666;  -33.800; -486.000; -438.000
297.804;  -42.125; -404.000; -264.000
297.942;   -0.825; -136.000; -161.000
298.081;    7.800; -183.000;   63.000
298.219;  104.475;  -17.000;  -19.000
298.357;   71.250; -144.000;  -71.000
298.495;   80.075; -810.000; -812.000
298.634;  104.400;  245.000;  219.000
298.772;   89.975; -220.000; -338.000
298.910;  -24.700; -309.000; -182.000
299.048;    1.725; -130.000; -153.000
299.187;  -23.875; -350.000; -250.000
299.325;   20.875;   52.000;  122.000
299.463;  115.375; -389.000; -299.000
299.601;  166.850; -327.000; -271.000
299.739;  -86.250; -908.000; -883.000
299.877;  -78.600; -791.000; -703.000
300.016;  -20.350;-1095.000; -935.000
300.154;  209.975;  -19.000; -161.000
300.292;   94.975; -428.000; -348.000
300.430;   71.450; -408.000; -291.000
300.568;  -87.775; -940.000; -874.000
300.706;  -37.225; -366.000; -469.000
300.844;  -58.625;-1108.000; -979.000
300.982;  136.450;  246.000;  282.000
301.120;  -92.375; -965.000; -866.000
301.258;  -52.050; -812.000; -705.000
301.396;   45.850;  104.000;  -41.000
301.534;  132.075; -218.000; -293.000
301.672;   28.850; -664.000; -521.000
301.810;   96.725; -613.000; -545.000
301.948;  153.900;   53.000;  149.000
302.086;  791.375; -250.000;  -32.000
302.224; 1182.425; -610.000; -585.000
302.362;   78.725; -558.000; -622.000
302.500;   19.025; -923.000; -893.000
302.638;  138.475;  128.000;  245.000
302.776;   18.200; -352.000; -408.000
302.913;   53.675;  447.000;  236.000
303.051;    6.025;  -86.000;  -23.000
303.189;   68.925;   90.000;  118.000
303.327;  -33.800; -341.000; -256.000
303.465;  -71.200; -832.000; -588.000
303.603;  -83.475; -805.000; -604.000
303.740;  122.000;  417.000;  241.000
303.878;   67.250; -800.000; -759.000
304.016;  -79.425; -915.000; -790.000
304.154; -104.625;-1123.000;-1152.000
304.291;  -10.625; -505.000; -554.000
304.429;   24.825;  102.000;   74.000
304.567; -109.600; -908.000; -893.000
304.705;  -51.275; -408.000; -515.000
304.842;  153.225; -616.000; -540.000
304.980;   66.850;  215.000;   35.000
305.118;   80.525; -367.000; -365.000
305.255;  -41.775; -945.000; -927.000
305.393;   57.925;  178.000;  239.000
305.531;  -84.925;-1173.000; -956.000
305.668;  -53.400; -663.000; -582.000
305.806;  131.400; -358.000; -439.000
305.943;  150.500; -629.000; -637.000
306.081;   69.825; -378.000; -267.000
306.219;  -90.925; -863.000; -748.000
306.356;   13.350;  158.000;   27.000
306.494;  105.975;  981.000;  761.000
306.631;    3.925;  -11.000;  -55.000
306.769;   15.450; -613.000; -485.000
306.906;   -1.525; -284.000; -258.000
307.044;  -55.050; -473.000; -488.000
307.181;  -56.200; -410.000; -332.000
307.319;   23.375;  112.000;   87.000
307.456; -167.425;-1191.000;-1153.000
307.594;  -86.475; -980.000; -727.000
307.731;   11.475; -371.000; -164.000
307.868;   16.550;  -15.000;   20.000
308.006; -118.575; -961.000; -847.000
308.143;  -46.550; -618.000; -330.000
308.281;  231.225;  -37.000; -254.000
308.418;   22.425; -748.000; -640.000
308.555;  -55.975; -400.000; -250.000
308.693;  -59.775; -577.000; -573.000
308.830; -101.050; -712.000; -657.000
308.967;   -3.625; -215.000;  -95.000
309.105;  -54.650; -507.000; -396.000
309.242;   86.475; -468.000; -367.000
309.379;  427.375; -577.000; -655.000
309.517;  -28.450; -936.000; -948.000
309.654;  -83.475; -910.000; -734.000
309.791;  -51.350; -662.000; -580.000
309.928; -108.025; -977.000; -914.000
310.065;  213.925;  819.000;  697.000
310.203;   46.925; -825.000; -850.000
310.340;   26.550; -465.000; -321.000
310.477;  -71.300; -412.000; -516.000
310.614;  -52.725; -383.000; -473.000
310.751;  -87.925; -427.000; -518.000
310.889;   -2.075;    1.000;   11.000
311.026; -134.375;-1161.000; -939.000
311.163;  -39.975; -386.000; -380.000
311.300;  -73.200; -512.000; -479.000
311.437;  -68.750; -658.000; -619.000
311.574; -154.950;-1226.000; -985.000
311.711;  -57.250; -595.000; -433.000
311.848;  -33.450; -380.000; -388.000
311.985;   20.950;  270.000;   93.000
312.122; -103.550; -932.000; -762.000
312.259; -101.325; -941.000; -994.000
312.396;  -66.625; -508.000; -551.000
312.533;  -76.000; -812.000; -790.000
312.670; -112.525;-1070.000; -898.000
312.807;  -38.625; -352.000; -367.000
312.944;  -79.750; -513.000; -611.000
313.081;  -28.850; -150.000; -415.000
313.218; -103.200;-1111.000; -867.000
313.355;   33.325; -531.000; -449.000
313.492;   14.200; -455.000; -292.000
313.629;  149.400;  815.000;  735.000
313.766; -145.250;-1176.000;-1008.000
313.902;   -3.325; -186.000;   21.000
314.039;  -41.675; -372.000; -289.000
314.176;   38.000;  286.000;  192.000
314.313;  -57.150; -569.000; -473.000
314.450;  -59.025; -788.000; -684.000
314.587;  -54.050; -468.000; -480.000
314.723;   19.000;  -78.000;  130.000
314.860;   36.125;  318.000;  332.000
314.997;   49.150;  223.000;  142.000
315.134;  -27.125; -385.000; -368.000
315.270;  -15.175; -480.000; -496.000
315.407; -122.400;-1094.000; -967.000
315.544;  -40.150; -657.000; -538.000
315.681;  -46.725; -681.000; -565.000
315.817;   48.900; -133.000; -176.000
315.954;   36.725; -613.000; -392.000
316.091; -113.925;-1045.000;-1023.000
316.227;  -13.000;  -71.000; -179.000
316.364;   -1.425;   23.000;    6.000
316.500;  -36.875; -113.000; -300.000
316.637;  -33.500; -181.000; -302.000
316.774;  -84.850; -625.000; -358.000
316.910;  -91.375; -598.000; -629.000
317.047;  -66.300; -487.000; -351.000
317.183;  -34.950; -435.000; -566.000
317.320;  -22.200; -367.000; -321.000
317.456;  -68.700; -733.000; -805.000
317.593;  -89.625; -598.000; -641.000
317.729;   -1.350;  168.000;  -67.000
317.866; -189.875;-1434.000;-1285.000
318.002;  -71.550; -708.000; -948.000
318.139;  -80.100; -883.000; -867.000
318.275; -101.550;-1003.000; -738.000
318.412;  -58.275; -517.000; -336.000
318.548;  -10.625; -751.000; -720.000
318.685;  -84.725; -985.000; -888.000
318.821;  -87.200; -762.000; -735.000
318.957;  -22.500;   34.000;  -23.000
319.094;   26.850;  297.000;  154.000
319.230;  -47.625; -756.000; -742.000
319.367;  178.250; -471.000; -520.000
319.503;   90.925; -538.000; -436.000
319.639;  -81.300; -877.000; -793.000
319.775;  -42.050; -750.000; -685.000
319.912;  -39.100; -424.000; -519.000
320.048;  -67.475;-1184.000;-1184.000
320.184;   65.050;   59.000;   70.000
320.321;  -61.250; -497.000; -467.000
320.457;   54.200;  475.000;  662.000
320.593;  -55.400; -375.000; -382.000
320.729;  -93.550; -732.000; -734.000
320.866;  -57.950; -577.000; -635.000
321.002;  -63.875; -759.000; -809.000
321.138;    0.925; -135.000; -211.000
321.274;   99.225; -148.000; -115.000
321.410;   -0.950; -585.000; -353.000
321.546;    2.075;-1011.000; -911.000
321.683;   65.300;  400.000;  185.000
321.819;   14.025;  -48.000; -117.000
321.955; -109.600; -743.000; -722.000
322.091;  -35.475; -585.000; -540.000
322.227;   16.950; -382.000; -202.000
322.363;    1.100; -320.000; -215.000
322.499;  -26.450; -343.000; -331.000
322.635;  192.775;  636.000;  443.000
322.771;   46.275; -139.000;   12.000
322.907;  119.525;  129.000;  327.000
323.043;  -13.450; -115.000; -206.000
323.179;  -19.600; -394.000; -363.000
323.315;   69.775; -401.000; -371.000
323.451;  158.975; -328.000; -236.000
323.587;   71.125;  -60.000;  -77.000
323.723;   44.150; -682.000; -601.000
323.859;  -12.475; -258.000;  -76.000
323.995;  -15.375; -467.000; -409.000
324.131; -125.100; -967.000; -892.000
324.267;  -32.425; -254.000; -276.000
324.402; -115.900; -960.000; -983.000
324.538;    8.250; -279.000; -104.000
324.674;   38.350;  164.000;   77.000
324.810;  181.125;  226.000;  308.000
324.946;   53.700; -810.000; -658.000
325.082;  -62.025; -568.000; -475.000
325.217;    1.100;  -62.000;   16.000
325.353;  -79.300; -764.000; -659.000
325.489;  -78.500; -540.000; -506.000
325.625;  -74.025; -579.000; -525.000
325.760;   58.350;  517.000;  376.000
325.896;  -33.025; -515.000; -702.000
326.032;  -44.900; -403.000; -352.000
326.168;  -54.025; -462.000; -369.000
326.303;  -67.775; -352.000; -461.000
326.439;  -14.625; -336.000; -276.000
326.575;   -4.000; -190.000;  -29.000
326.710;    7.625; -156.000;  -30.000
326.846;   -1.625;  146.000;  103.000
326.982;  -84.350; -530.000; -548.000
327.117;  -83.375; -481.000; -442.000
327.253;  -80.500; -745.000; -742.000
327.388; -143.950;-1137.000;-1153.000
327.524;   -6.850; -811.000; -578.000
327.659;  -20.200;  -58.000;  -22.000
327.795;   -4.125;   69.000;   45.000
327.931;  -85.025; -723.000; -499.000
328.066;   -1.625; -417.000; -276.000
328.202;    7.800;   12.000; -129.000
328.337;  110.250;  957.000;  713.000
328.473;   44.700;  -12.000;  -74.000
328.608;  -20.475; -256.000; -267.000
328.743;  -76.325; -799.000; -664.000
328.879;   30.475;  214.000;  114.000
329.014;  -29.100; -102.000; -122.000
329.150;  -82.125; -358.000; -483.000
329.285;  -68.025; -465.000; -466.000
329.421;  -49.325; -548.000; -246.000
329.556;  -14.900;  -36.000;   85.000
329.691;  -87.700; -633.000; -615.000
329.827;  -85.425; -626.000; -480.000
329.962;  -31.700;  131.000; -301.000
330.097;  -86.575; -673.000; -585.000
330.233;  -40.625; -410.000; -223.000
330.368; -123.425; -839.000; -628.000
330.503;  -20.425;    3.000;   98.000
330.638;   17.925;  -93.000; -125.000
330.774;  -31.275; -609.000; -530.000
330.909;  -40.000; -434.000; -244.000
331.044;  -85.525; -714.000; -708.000
331.179; -165.450;-1217.000;-1109.000
331.315;    2.475;   77.000;   20.000
331.450;   11.100;  157.000;  285.000
331.585;  -70.225; -805.000; -706.000
331.720;  -71.200; -510.000; -460.000
331.855;    1.275;  -35.000; -102.000
331.990;  202.650;   62.000;  138.000
332.126;  104.850; -110.000;   71.000
332.261;  -15.075; -379.000; -265.000
332.396;   -0.975; -135.000; -242.000
332.531;  -96.450;-1074.000;-1031.000
332.666;   21.575; -519.000; -363.000
332.801; -101.925; -726.000; -807.000
332.936;  -15.300; -192.000; -122.000
333.071; -145.800; -870.000; -817.000
333.206;   19.000;  307.000;  379.000
333.341;   35.300;  344.000;  418.000
333.476;  -77.850; -627.000; -623.000
333.611;  -25.425; -251.000; -173.000
333.746;  -36.950; -381.000; -464.000
333.881; -108.650; -973.000; -935.000
334.016; -120.300; -936.000; -917.000
334.151; -119.550; -746.000; -702.000
334.286;   39.275;  152.000;  186.000
334.421;   -2.250; -125.000; -178.000
334.556;  -52.725; -611.000; -567.000
334.690;  -75.800; -631.000; -577.000
334.825;   76.275;  381.000;   83.000
334.960;  -38.500; -285.000; -413.000
335.095;   19.450;  135.000;  -91.000
335.230;  -85.925; -722.000; -738.000
335.365; -107.975;-1084.000; -990.000
335.499; -122.825;-1108.000;-1037.000
335.634;   29.300;    9.000;  534.000
335.769;  -64.725; -755.000; -720.000
335.904;  -32.650; -603.000; -561.000
336.038;  -39.500; -735.000; -657.000
336.173;  -89.175;-1206.000;-1194.000
336.308;   21.675; -116.000; -189.000
336.443;   45.650; -544.000; -634.000
336.577;  -50.050; -936.000; -787.000
336.712;  107.250;   -4.000;  -12.000
336.847;  -10.175; -724.000; -607.000
336.981;  125.375; -272.000; -208.000
337.116;  321.675;  615.000;  501.000
337.250;  218.275; -434.000; -421.000
337.385;  212.625; -297.000; -208.000
337.520;   47.975; -632.000; -603.000
337.654;  -32.200; -215.000; -126.000
337.789; -114.475; -989.000; -933.000
337.923;  -22.300; -104.000; -205.000
338.058;  -72.600; -673.000; -738.000
338.192;  -15.375; -611.000; -488.000
338.327;    8.025;  -18.000; -155.000
338.461;  -59.950; -299.000; -469.000
338.596;  -82.975; -780.000; -638.000
338.730; -103.975; -767.000; -803.000
338.865;   73.325;  -46.000; -140.000
338.999;  -59.775; -846.000; -702.000
339.134;  -22.550; -634.000; -536.000
339.268;    4.950; -741.000; -603.000
339.403;  335.950; -740.000; -775.000
339.537;   82.900; -894.000; -820.000
339.671; -105.575; -829.000; -813.000
339.806;  -68.050; -556.000; -512.000
339.940;   27.475; -261.000; -235.000
340.074;  -81.000; -685.000; -510.000
340.209;  -44.250; -351.000; -230.000
340.343;  -84.825; -517.000; -573.000
340.477;  155.950;  998.000; 1036.000
340.612;  -61.450;-1033.000; -900.000
340.746;  108.850; -199.000; -243.000
340.880;  -38.700; -924.000; -785.000
341.014;   -6.150;  -45.000; -154.000
341.149; -102.925; -756.000; -718.000
341.283; -108.575; -839.000; -754.000
341.417;  -56.525;-1124.000; -938.000
341.551;  206.900; -768.000; -708.000
341.685;  -18.875; -633.000; -611.000
341.820;  -35.175; -562.000; -493.000
341.954;  -41.875; -218.000; -349.000
342.088; -142.375;-1102.000;-1019.000
342.222;   60.200;  565.000;  618.000
342.356;  -45.625; -395.000; -335.000
342.490;  -79.925; -880.000; -841.000
342.624;  -41.825; -339.000; -242.000
342.758;   20.225; -364.000; -312.000
342.892;  -39.025; -710.000; -585.000
343.026;  -26.950;  -58.000; -116.000
343.160;  -51.200; -426.000; -376.000
343.294;  -79.725; -474.000; -337.000
343.428;    5.150; -488.000; -448.000
343.562;   -1.175; -172.000;  -23.000
343.696;  -14.375; -385.000; -314.000
343.830;   -6.725; -362.000; -356.000
343.964;   24.100; -231.000; -168.000
344.098; 1181.300;  199.000;   70.000
344.232; 1009.325; -266.000; -127.000
344.366;  124.200; -567.000; -453.000
344.500;  132.825; -665.000; -744.000
344.634;   58.775; -324.000; -164.000
344.768;   19.050; -531.000; -341.000
344.902;   26.600;  278.000;  256.000
345.035;  -67.850; -556.000; -496.000
345.169; -133.750; -933.000; -656.000
345.303;   -3.300; -308.000; -482.000
345.437;  -50.325; -826.000; -717.000
345.571;  -66.775; -675.000; -594.000
345.704;  -59.625; -309.000; -532.000
345.838;   -1.600; -331.000; -284.000
345.972;  -13.450; -543.000; -495.000
346.106;  145.075; -179.000; -190.000
346.239;  438.775; -312.000; -243.000
346.373;   26.600; -343.000; -302.000
346.507; -135.750; -950.000; -962.000
346.640;  215.400;  -30.000;   13.000
346.774;  -28.950; -650.000; -797.000
346.908;    6.025; -138.000;  -11.000
347.041;  -88.300; -646.000; -593.000
347.175;    9.150;  259.000;   27.000
347.309;  -45.675; -698.000; -628.000
347.442;  -75.525; -883.000; -732.000
347.576;  349.175;  670.000;  668.000
347.709;  282.600; -123.000;  -52.000
347.843;  -73.950; -933.000; -825.000
347.976;   33.025;  235.000;  294.000
348.110; -154.425;-1268.000;-1186.000
348.243;  -81.850; -679.000; -772.000
348.377;   -1.400;  -26.000;   60.000
348.510;   60.075;  403.000;  540.000
348.644;  -32.450;  -37.000; -159.000
348.777;   14.575;  180.000;  191.000
348.911;  -54.850; -142.000; -112.000
349.044;  215.950;  471.000;  448.000
349.178;  239.500;-1069.000;-1006.000
349.311;  133.850;  141.000;  255.000
349.444;  -17.000; -927.000; -813.000
349.578;    0.825; -347.000; -200.000
349.711;  -73.625; -959.000; -862.000
349.845;   44.575; -661.000; -591.000
349.978; -131.425;-1224.000;-1137.000
350.111;  -68.150; -546.000; -612.000
350.244;  -55.125; -596.000; -700.000
350.378;   47.575; -392.000; -393.000
350.511;  -62.850; -393.000; -426.000
350.644; -104.975; -808.000; -806.000
350.778;   29.700;  168.000;  104.000
350.911;   17.700;  134.000;  140.000
351.044;  -76.750; -685.000; -615.000
351.177;  -14.850; -321.000; -281.000
351.310;  -10.300;    3.000; -131.000
351.444;  -54.600; -888.000; -788.000
351.577;  153.575;  140.000;   90.000
351.710;  113.125;  593.000;  417.000
351.843;  -20.550; -165.000;  -77.000
351.976;   -0.800;  149.000;  -79.000
352.109;  -77.250; -621.000; -612.000
352.242;    5.550; -464.000; -419.000
352.376;  -32.425; -580.000; -636.000
352.509;  265.675; -437.000; -356.000
352.642;   59.850; -654.000; -604.000
352.775;   90.725; -141.000;  -98.000
352.908;  -98.975; -933.000; -904.000
353.041;  -93.925; -814.000; -824.000
353.174;  -56.575; -551.000; -424.000
353.307;  -67.000; -753.000; -764.000
353.440;   75.625;  541.000;  453.000
353.573;  -98.000; -957.000;-1008.000
353.706;  -12.000; -384.000; -558.000
353.839;   -2.400; -264.000; -220.000
353.971;  -82.500; -657.000; -512.000
354.104;  -56.150; -896.000; -835.000
354.237;  -12.625; -627.000; -662.000
354.370;  -69.800; -846.000; -879.000
354.503; -168.300;-1231.000;-1308.000
354.636;  -31.675; -529.000; -348.000
354.769; -107.225; -937.000; -860.000
354.902;   12.475; -230.000; -139.000
355.034;  -12.450; -164.000; -220.000
355.167;   -1.450; -262.000; -162.000
355.300;  -76.300;-1061.000; -880.000
355.433;  866.375;  -71.000;  -14.000
355.565; 1345.275; -402.000; -384.000
355.698;  355.750; -356.000; -296.000
355.831;   12.025; -882.000; -801.000
355.964;  132.825; -285.000; -170.000
356.096;  -61.225; -856.000; -843.000
356.229;   28.475; -523.000; -530.000
356.362;  281.125; -373.000; -266.000
356.494;  535.475; -229.000; -162.000
356.627;  593.675;  269.000;  377.000
356.760;  630.075;  120.000;   53.000
356.892;  832.925; -286.000; -601.000
357.025;  826.100;  403.000;  389.000
357.157;  805.550; -167.000; -179.000
357.290;  530.550; -856.000; -713.000
357.423;  165.525; -667.000; -556.000
357.555;  163.900; -217.000; -228.000
357.688;  158.250; -483.000; -364.000
357.820;  579.225; -870.000; -877.000
357.953; 4310.750; -563.000; -589.000
358.085; 1057.675; -632.000; -612.000
358.218; 1681.100;-1131.000; -932.000
358.350;  317.025;  -58.000;  312.000
358.483; -102.300;-1300.000;-1187.000
358.615;   52.500;-1182.000;-1078.000
358.747;   -2.475;-1187.000;-1058.000
358.880;   71.550; -810.000; -744.000
359.012;   18.250; -376.000; -202.000
359.145;  -15.850; -480.000; -511.000
359.277;  102.075; -962.000; -913.000
359.409; 3614.050;  536.000;  231.000
359.542; 1023.225; -738.000; -688.000
359.674;  101.500;   46.000;   13.000
359.806;  -50.875; -565.000; -438.000
359.939;  -40.825; -617.000; -516.000
360.071;  -30.800; -583.000; -579.000
360.203;   -4.975; -411.000; -364.000
360.335;   69.100;  164.000;  -16.000
360.468;  252.100; -249.000; -307.000
360.600; 2821.725; -547.000; -454.000
360.732; 2460.750; -546.000; -423.000
360.864;  355.875;-1216.000;-1044.000
360.996;  407.625; -516.000; -554.000
361.129;   83.300; -389.000; -598.000
361.261;   41.475;  110.000; -113.000
361.393;  -34.400; -252.000; -214.000
361.525;   49.100;   94.000;  244.000
361.657;   -6.275; -821.000; -703.000
361.789;   32.250; -139.000; -155.000
361.921;  342.325; -642.000; -593.000
362.053;  341.325;  524.000;  541.000
362.185;   76.800;  288.000;   72.000
362.318;  -55.850; -709.000; -705.000
362.450;  179.000;  294.000;  444.000
362.582;  270.475; -913.000; -870.000
362.714;  -12.500; -353.000; -332.000
362.846;  -72.850; -606.000; -490.000
362.978; -131.775; -941.000; -811.000
363.109;   94.750; -161.000; -260.000
363.241;  602.050; -739.000; -749.000
363.373;  404.050; -649.000; -564.000
363.505;  537.325; -186.000;  -91.000
363.637;  158.200; -787.000; -601.000
363.769; -109.500;-1067.000;-1080.000
363.901;  -46.750; -596.000; -654.000
364.033;  -91.725;-1103.000;-1062.000
364.165;   11.900; -283.000; -283.000
364.296;   67.050; -316.000; -177.000
364.428;   66.600;-1344.000;-1220.000
364.560;  -74.225; -679.000; -661.000
364.692;  -44.950; -738.000; -835.000
364.824;  417.050; -588.000; -456.000
364.955;  463.800; -402.000; -564.000
365.087;  693.775;-1097.000; -852.000
365.219;   14.625; -686.000; -816.000
365.351;  -61.300; -526.000; -572.000
365.482;   80.025;  300.000;  240.000
365.614;  -39.075; -402.000; -314.000
365.746;  -83.700; -729.000; -752.000
365.877;  -94.075; -706.000; -672.000
366.009;  204.600;  -35.000;  -62.000
366.141; -101.775;-1249.000;-1134.000
366.272; -102.575; -803.000; -719.000
366.404; -100.850;-1005.000; -874.000
366.535;    0.750; -139.000;  -12.000
366.667;  -90.625; -644.000; -649.000
366.799;   51.025;  353.000;  203.000
366.930;  -90.850; -862.000; -996.000
367.062;  114.850; -639.000; -613.000
367.193;  116.925; -872.000; -842.000
367.325;  -55.575; -580.000; -684.000
367.456;  102.450; -246.000;   31.000
367.588;  153.250; -371.000; -318.000
367.719;   26.125;  -44.000;  -45.000
367.851;    3.575; -222.000; -241.000
367.982;  -22.050; -875.000; -732.000
368.113;  159.175; -475.000; -358.000
368.245; -103.925; -960.000; -841.000
368.376;   -8.750; -254.000; -302.000
368.508;   -9.075; -188.000; -263.000
368.639; -108.050;-1166.000;-1034.000
368.770;   14.425; -670.000; -589.000
368.902;  -38.375; -836.000; -926.000
369.033;  -88.250; -906.000; -855.000
369.164;  -43.650; -720.000; -653.000
369.296; -103.975; -452.000; -601.000
369.427;   14.375; -209.000; -144.000
369.558;  -23.275; -593.000; -377.000
369.689;  -81.575; -721.000; -569.000
369.821; -128.375; -951.000; -845.000
369.952;  -15.975;   42.000; -108.000
370.083;  -43.125; -229.000; -108.000
370.214;  -80.575; -735.000; -650.000
370.345;   -8.775;   65.000;   81.000
370.477;  -72.175; -810.000; -790.000
370.608;  330.025; -328.000; -264.000
370.739;   10.475;-1233.000;-1292.000
370.870;    2.525;-1102.000; -923.000
371.001;  141.100; -378.000; -467.000
371.132;  -73.375; -754.000; -735.000
371.263;    2.000;  -42.000; -148.000
371.394; -125.325; -841.000; -748.000
371.525;   43.125;  345.000;  225.000
371.657;  -70.250; -808.000; -670.000
371.788;   86.500;  103.000;  199.000
371.919;  224.175; -384.000; -304.000
372.050; 4540.175;  -91.000; -156.000
372.181; 1417.275; -188.000; -294.000
372.311;  501.575;   42.000; -127.000
372.442;   97.150; -457.000; -451.000
372.573;   15.550; -444.000; -340.000
372.704; -109.325;-1008.000; -980.000
372.835;  127.000; -228.000; -289.000
372.966;  -34.525; -646.000; -554.000
373.097;  -20.950; -575.000; -711.000
373.228;  -13.725; -717.000; -542.000
373.359;  222.500; -824.000; -536.000
373.490; 1262.075; -881.000; -727.000
373.620; 1598.000;-1001.000; -803.000
373.751; 2353.025; -332.000; -396.000
373.882; 1104.525; -663.000; -733.000
374.013;  125.475; -449.000; -262.000
374.143;   -8.925; -581.000; -659.000
374.274;  -82.350; -987.000; -908.000
374.405;  259.450; -388.000; -276.000
374.536;  614.825; -526.000; -387.000
374.666; 1533.525; -759.000; -807.000
374.797;  353.375; -817.000; -868.000
374.928; 1208.725; -710.000; -560.000
375.058; 1203.600; -535.000; -500.000
375.189;  128.750;  -59.000;  -93.000
375.320;  -84.200; -928.000;-1034.000
375.450;  -18.275; -625.000; -616.000
375.581;  -41.675; -526.000; -436.000
375.712;   -4.450; -574.000; -250.000
375.842;  419.850; -438.000; -415.000
375.973;  348.475; -554.000; -513.000
376.103;   -3.750; -665.000; -648.000
376.234;  -62.375; -531.000; -552.000
376.364;    5.200; -944.000; -867.000
376.495;  407.125;  925.000;  529.000
376.625;   50.450; -472.000; -485.000
376.756;  133.100; -709.000; -678.000
376.886;  -30.850;-1178.000;-1026.000
377.017;   24.050;-1048.000;-1061.000
377.147;  276.550; -786.000; -782.000
377.278;   64.825;  174.000;  228.000
377.408; -122.775; -801.000; -815.000
377.538;  -97.475; -707.000; -693.000
377.669;  -79.300; -537.000; -613.000
377.799;  -67.750; -645.000; -635.000
377.929;  -27.150; -610.000; -428.000
378.060; -118.925; -781.000; -847.000
378.190;  -56.000; -726.000; -531.000
378.320;  -49.325; -401.000; -406.000
378.451;   -3.050; -131.000;  -22.000
378.581;    5.450;  -67.000; -110.000
378.711;  189.000; 1035.000;  866.000
378.841;    6.350; -533.000; -675.000
378.972;  -41.625; -871.000; -751.000
379.102;   46.275; -652.000; -579.000
379.232;    8.900; -126.000;  -73.000
379.362;  -83.575;-1001.000; -885.000
379.492;   51.450; -373.000; -424.000
379.623;  144.300;    0.000;  111.000
379.753;  -74.700;-1107.000; -974.000
379.883;  251.200;   59.000;  156.000
380.013;   64.925;-1081.000;-1017.000
380.143;  -66.725;-1097.000;-1056.000
380.273;  -81.450; -985.000; -861.000
380.403;    7.975; -344.000; -257.000
380.533;    2.550; -651.000; -664.000
380.663;  107.975;  173.000;  128.000
380.793;  -60.350;-1027.000;-1074.000
380.923;   -9.625; -103.000;  -34.000
381.053;  -79.325; -613.000; -623.000
381.183;  -19.425; -106.000; -248.000
381.313;   73.900; -656.000; -470.000
381.443;  100.100; -692.000; -473.000
381.573;  307.500; -402.000; -409.000
381.703;  474.750;-1249.000;-1095.000
381.833;  -88.000;-1454.000;-1336.000
381.963;  143.425; -134.000;  -87.000
382.093; 1734.625; -925.000; -909.000
382.223;  594.500; -713.000; -602.000
382.353;   35.650; -801.000; -608.000
382.482;  562.550;-1091.000; -964.000
382.612; 1014.650; -872.000; -644.000
382.742;  608.200; -695.000; -622.000
382.872;  399.650; -565.000; -551.000
383.002;   89.725;  347.000; -132.000
383.131;   -3.325; -226.000; -160.000
383.261;  -32.400; -706.000; -768.000
383.391;  317.250; -552.000; -377.000
383.521; 2634.525;  451.000;  263.000
383.650;  635.900; -947.000; -904.000
383.780;  -13.675; -783.000; -656.000
383.910;  113.925;  880.000;  802.000
384.039;   65.625; -794.000; -656.000
384.169;  358.250;-1205.000;-1017.000
384.299;   24.575; -650.000; -662.000
384.428;  -70.150; -764.000; -680.000
384.558;  -15.100; -308.000; -275.000
384.687;  -18.325; -414.000; -334.000
384.817;   38.825;   75.000;   -2.000
384.947;   46.600; -234.000; -141.000
385.076;  359.000;  982.000;  912.000
385.206;  134.400;  369.000;  480.000
385.335;    0.625; -549.000; -417.000
385.465;  -55.575; -655.000; -663.000
385.594;  206.300;  -53.000;  -44.000
385.724;  621.225; -868.000; -838.000
385.853;  210.825; -296.000; -270.000
385.982; 1752.200; -743.000; -787.000
386.112; 2877.000;-1052.000; -871.000
386.241;  224.000; -307.000; -312.000
386.371;   52.750; -174.000;  -87.000
386.500;   42.675; -825.000; -789.000
386.629;   69.725; -874.000; -817.000
386.759;   84.475;  -43.000;   68.000
386.888;   26.525; -170.000; -250.000
387.017;  -52.000; -648.000; -620.000
387.147;  -53.050; -771.000; -798.000
387.276;   33.550; -410.000; -397.000
387.405;   52.850; -398.000; -342.000
387.535;   -4.925; -452.000; -361.000
387.664;  -52.525; -692.000; -620.000
387.793;  102.025; -198.000; -113.000
387.922;  694.275;  255.000;  200.000
388.052;   92.000; -576.000; -423.000
388.181;   77.825; -342.000; -472.000
388.310;   88.650; -889.000; -710.000
388.439;   22.800; -749.000; -742.000
388.568;  243.825;  365.000;  244.000
388.697; 1441.600; -756.000; -653.000
388.826;  333.175; -768.000; -666.000
388.956;  114.575; -285.000; -307.000
389.085;   -4.300; -347.000; -287.000
389.214;  -83.150; -842.000; -872.000
389.343;  -44.250; -645.000; -413.000
389.472;  364.525;  126.000;  149.000
389.601;  516.400;   91.000;    0.000
389.730;   60.950; -568.000; -687.000
389.859;   85.950;  226.000;   46.000
389.988;  262.275; -423.000; -408.000
390.117;  208.150; -168.000; -146.000
390.246;   25.600; -331.000; -320.000
390.375;  187.400; -673.000; -626.000
390.504;  -28.825; -703.000; -621.000
390.633;  -80.000; -672.000; -726.000
390.761;  -39.600; -732.000; -645.000
390.890;   60.500;   -4.000; -130.000
391.019;   -1.950; -421.000; -441.000
391.148; -107.100; -826.000; -855.000
391.277;  -52.950; -576.000; -493.000
391.406;  -50.075; -821.000; -805.000
391.534;   23.750;  574.000; -301.000
391.663;  -47.800; -583.000; -645.000
391.792;  -67.200; -673.000; -701.000
391.921;  164.275;   -3.000;   15.000
392.050;  305.175; -287.000; -228.000
392.178;   31.350;-1206.000;-1061.000
392.307;  226.975; -758.000; -712.000
392.436;  140.425; -427.000; -641.000
392.564;   32.700;  166.000;   -6.000
392.693;  -68.200; -860.000; -682.000
392.822;  300.325; -529.000; -534.000
392.950;  172.825; -880.000; -714.000
393.079;  459.300; -188.000; -328.000
393.208;   73.600; -488.000; -511.000
393.336;   -1.975; -170.000; -145.000
393.465;  -38.775; -317.000; -199.000
393.593;   10.800;   62.000;   79.000
393.722; -149.500;-1121.000; -916.000
393.850;  -17.800; -188.000;  -61.000
393.979; -144.625; -926.000; -805.000
394.107;  -61.350; -517.000; -537.000
394.236;  -11.200; -570.000; -507.000
394.364;  243.150;  383.000;  206.000
394.493;  484.775; -911.000; -767.000
394.621;    6.725; -955.000; -916.000
394.750;  604.750; -873.000; -923.000
394.878; 2571.525; -247.000; -149.000
395.007; 3567.425; -721.000; -807.000
395.135;  284.800; -790.000; -721.000
395.263;  -87.325;-1038.000;-1040.000
395.392;   14.600;  -25.000; -107.000
395.520; -138.850; -818.000; -679.000
395.648;  -54.150; -865.000; -915.000
395.777;   16.450; -366.000; -405.000
395.905;  -19.000; -449.000; -564.000
396.033;   26.150;  217.000;  172.000
396.162;  750.450; -399.000; -453.000
396.290;  693.800;  -17.000;   -2.000
396.418;  183.050; -555.000; -514.000
396.546;  -51.150; -571.000; -466.000
396.674;  -80.625; -850.000; -878.000
396.803;   19.550;  -72.000;  -23.000
396.931;  138.200; -179.000; -199.000
397.059;  145.175;-1026.000; -989.000
397.187;  -90.625;-1026.000; -975.000
397.315; -120.200; -884.000; -649.000
397.443;  -86.475; -592.000; -443.000
397.572;  -90.425; -578.000; -424.000
397.700;   28.200; -607.000; -614.000
397.828;   66.475;  120.000;  -90.000
397.956;  -41.250; -508.000; -478.000
398.084;  -60.775; -767.000; -626.000
398.212;   56.675;  137.000;  124.000
398.340;   23.825;  -56.000;  159.000
398.468;   81.325; -390.000; -169.000
398.596; -123.875; -993.000; -953.000
398.724; -110.000; -762.000; -767.000
398.852; -144.675;-1024.000; -976.000
398.980;  -35.450; -560.000; -560.000
399.108;  -30.925; -982.000; -735.000
399.236;   76.950;   13.000;    8.000
399.363;   24.725;  222.000;  196.000
399.491;  -47.475; -404.000; -398.000
399.619; -118.975; -829.000; -800.000
399.747;  -71.700; -859.000; -771.000
399.875;  103.125;  220.000;  234.000
400.003;  -41.125; -359.000; -284.000
400.130;  -98.675; -421.000; -341.000
400.258;  -30.250;  -83.000;   38.000
400.386;  -76.525; -352.000; -168.000
400.514;  -23.700; -526.000; -587.000
400.641;  -46.275; -928.000; -802.000
400.769; -129.275; -979.000; -888.000
400.897;  -92.400; -838.000; -793.000
401.025;    7.450; -166.000; -152.000
401.152;    5.500;  220.000;   38.000
401.280;  -85.550; -430.000; -429.000
401.408; -106.775; -712.000; -576.000
401.535;  -98.025; -735.000; -758.000
401.663; -175.875;-1134.000;-1054.000
401.790;  -78.575; -514.000; -525.000
401.918;   26.900;  436.000;  405.000
402.046;  -18.125;  134.000;  122.000
402.173;  -39.450;  -18.000;    7.000
402.301;  -53.450; -519.000; -397.000
402.428;   39.750;  528.000;  383.000
402.556; -133.775;-1188.000; -913.000
402.683;  -32.575;  -20.000;   -1.000
402.811;  -17.050;  -37.000; -206.000
402.938;  -17.450;   20.000;   27.000
403.066;  284.725; -574.000; -558.000
403.193;  458.025;  299.000;  239.000
403.321;  356.975; -396.000; -574.000
403.448;  429.500;   83.000;   27.000
403.575;  210.000;  -90.000;  -46.000
403.703;  -90.425; -732.000; -557.000
403.830;  -54.525; -531.000; -496.000
403.957; -140.250;-1117.000;-1023.000
404.085;   24.800;  -61.000; -172.000
404.212;  113.900;  -50.000;   63.000
404.339;  238.925; -566.000; -306.000
404.467; 4958.600; -612.000; -524.000
404.594; 3768.800; -287.000; -227.000
404.721; 1058.450; -869.000; -764.000
404.848;  110.900; -113.000; -202.000
404.976;  -95.350; -856.000; -783.000
405.103;   -2.750;  -14.000;  -82.000
405.230;   -2.650;  190.000;  226.000
405.357;   26.175;  117.000;   44.000
405.484;  234.500;  -49.000;    5.000
405.612;   54.050; -548.000; -563.000
405.739;  -63.350; -488.000; -243.000
405.866;   97.800;  669.000;  385.000
405.993;  -38.000; -398.000; -102.000
406.120; -140.775; -801.000; -887.000
406.247;  -36.200; -323.000; -342.000
406.374;  583.825;  540.000;  629.000
406.501;  212.675; -632.000; -702.000
406.628;  -58.775; -621.000; -589.000
406.755;  -94.375; -803.000; -620.000
406.882;  -21.925; -228.000; -277.000
407.009;  -93.350; -719.000; -628.000
407.136;  101.275; -480.000; -401.000
407.263;  253.825; -939.000; -829.000
407.390;  -40.950; -692.000; -614.000
407.517; -148.800;-1139.000;-1187.000
407.644;  -49.650; -332.000; -256.000
407.771; -126.425; -249.000; -287.000
407.898;    9.500;  168.000;  328.000
408.025;  -62.775; -421.000; -313.000
408.151;   -0.225;   82.000;  153.000
408.278;  -69.275; -267.000; -216.000
408.405;  -97.500; -931.000; -899.000
408.532;  -54.250; -549.000; -542.000
408.659; -105.050; -677.000; -648.000
408.785; -197.125;-1298.000;-1170.000
408.912;  -64.025; -412.000; -296.000
409.039; -108.575; -610.000; -686.000
409.166; -110.475; -591.000; -555.000
409.292; -101.075; -571.000; -534.000
409.419; -111.525; -665.000; -649.000
409.546;  -83.575; -431.000; -192.000
409.672; -104.800; -713.000; -545.000
409.799;  -27.500;  -36.000;   34.000
409.926;  -29.700; -180.000; -179.000
410.052; -159.875;-1127.000;-1091.000
410.179;  -51.300; -368.000; -392.000
410.305;  -79.300; -375.000; -493.000
410.432;  -38.675; -220.000; -333.000
410.558;  -88.550; -305.000; -380.000
410.685;  -87.500; -688.000; -431.000
410.812;  -91.300; -409.000; -588.000
410.938; -131.350; -964.000; -808.000
411.065;  -84.400; -671.000; -645.000
411.191;   -4.725; -189.000; -174.000
411.317;  -98.450; -823.000; -742.000
411.444;  -66.925; -317.000; -246.000
411.570;  -81.450; -339.000; -294.000
411.697; -132.925; -758.000; -752.000
411.823; -158.750; -989.000; -999.000
411.949;  -13.450;  -56.000;   17.000
412.076; -109.425; -539.000; -519.000
412.202; -110.350; -758.000; -757.000
412.329; -137.475; -798.000; -752.000
412.455; -102.075; -821.000; -657.000
412.581;  -12.750;  -15.000;  172.000
412.707;  -46.475; -540.000; -457.000
412.834;   34.150;  156.000;  219.000
412.960;  -62.750; -785.000; -784.000
413.086;  -83.975; -743.000; -701.000
413.212;  179.000;  604.000;  578.000
413.339;  -18.025; -685.000; -701.000
413.465;   38.500; -364.000; -310.000
413.591;  -58.300; -757.000; -474.000
413.717;  -56.350; -358.000; -366.000
413.843; -138.275; -839.000; -861.000
413.969;  -68.225;  -47.000; -292.000
414.096;  -98.125; -679.000; -679.000
414.222;    4.075;  -33.000;   85.000
414.348;  -13.950; -652.000; -385.000
414.474;  161.575;   38.000;  -52.000
414.600;  -15.850; -126.000; -144.000
414.726;   -9.400;  -96.000;  -55.000
414.852;  -50.525; -365.000; -342.000
414.978;   27.150;  104.000;  -18.000
415.104;   44.400;   38.000;   80.000
415.230;   29.450; -329.000; -330.000
415.356;   28.725; -409.000; -514.000
415.482;  225.350;   13.000;  -35.000
415.608;  260.800; -247.000; -323.000
415.734;  897.850;   67.000;   38.000
415.860;18084.125; -875.000; -767.000
415.986;14048.300; -685.000; -607.000
416.111; 1220.400; -798.000; -652.000
416.237;  232.125; -424.000; -571.000
416.363;  923.225; -765.000; -733.000
416.489; 3701.025; -324.000; -251.000
416.615;  431.000; -707.000; -742.000
416.741;  -37.825; -677.000; -784.000
416.866;  -89.950; -673.000; -736.000
416.992; -113.100; -801.000; -818.000
417.118;  -17.400;  -41.000;  -80.000
417.244;  -56.750; -798.000; -531.000
417.369;  -71.000; -801.000; -612.000
417.495;   10.450; -325.000; -254.000
417.621;  -62.975;-1015.000; -803.000
417.746;    7.050; -579.000; -572.000
417.872;   39.025; -254.000; -144.000
417.998;   38.075; -515.000; -530.000
418.123;  858.500;-1073.000; -845.000
418.249; 4871.950; -512.000; -601.000
418.374;  713.525; -916.000; -824.000
418.500;  104.725; -383.000; -482.000
418.626;  103.100;   70.000;  -59.000
418.751;  115.200; -549.000; -448.000
418.877;  178.775; -637.000; -643.000
419.002; 1521.150; -688.000; -560.000
419.128;11064.500; -930.000; -721.000
419.253; 2900.825; -967.000; -837.000
419.379;  381.300; -391.000; -338.000
419.504;  366.450;  325.000;  415.000
419.629;  446.200; -393.000; -212.000
419.755; 2851.450; -317.000; -254.000
419.880;17718.950;  -98.000;   67.000
420.006;10005.100; -280.000; -221.000
420.131;26963.525; -662.000; -775.000
420.256; 4208.850; -315.000; -316.000
420.382;  535.550; -665.000; -687.000
420.507;   75.250; -649.000; -778.000
420.632;  188.850; -337.000; -339.000
420.758;  392.650; -251.000; -425.000
420.883;  -48.525; -876.000; -672.000
421.008;  -82.875; -775.000; -619.000
421.133;  -72.025; -509.000; -467.000
421.259;  -30.625; -325.000; -259.000
421.384;  -88.675; -834.000; -693.000
421.509;   12.525;-1052.000; -862.000
421.634; 1665.975; -936.000; -820.000
421.759;  813.050; -359.000; -327.000
421.885;  -24.225; -717.000; -656.000
422.010;  -73.500; -673.000; -542.000
422.135; -131.325; -695.000; -727.000
422.260;   36.650;  340.000;  280.000
422.385;  -37.950;   12.000;  -98.000
422.510;   10.650;  151.000;  -26.000
422.635;   23.725;  -87.000;  -43.000
422.760;  141.200; -766.000; -791.000
422.885;   73.650;  -57.000;  -80.000
423.010;  -27.900; -112.000; -169.000
423.135;  -96.125; -481.000; -561.000
423.260;    9.425; -150.000; -245.000
423.385;   75.275;  476.000;  222.000
423.510;   44.500;   71.000;  -22.000
423.635;  108.100;  133.000;   45.000
423.760;   82.525;  383.000;  328.000
423.885;   51.950;  336.000;  391.000
424.010;   26.700;  -68.000;  -13.000
424.135;  -27.225;    5.000;  -33.000
424.259;  -78.000; -654.000; -457.000
424.384;  -59.125; -279.000; -272.000
424.509;  -25.825; -260.000; -186.000
424.634;  -87.225; -761.000; -623.000
424.759;  -19.325; -688.000; -544.000
424.883;  -18.800; -506.000; -527.000
425.008;  171.725; -502.000; -410.000
425.133; 1763.725; -679.000; -653.000
425.258;  909.425; -517.000; -381.000
425.382; 1212.500; -867.000; -774.000
425.507; 3296.100; -487.000; -543.000
425.632;  526.975; -802.000; -663.000
425.756;  414.525; -256.000; -146.000
425.881; 5070.750; -831.000; -857.000
426.006;14423.675; -604.000; -355.000
426.130; 2549.350; -696.000; -508.000
426.255;  329.625; -611.000; -491.000
426.379;  147.950; -189.000; -577.000
426.504;  346.550;  660.000;  544.000
426.629; 3684.825; -519.000; -466.000
426.753; 2746.750;   64.000;  -46.000
426.878;  318.925; -252.000; -288.000
427.002;  138.200; -651.000; -668.000
427.127; 1397.950;  -35.000; -158.000
427.251;10030.250;  372.000;  401.000
427.375; 3140.150; -191.000; -173.000
427.500; 2761.050; -616.000; -610.000
427.624; 1050.200; -234.000; -400.000
427.749;  146.300; -216.000; -225.000
427.873;  -15.375; -499.000; -412.000
427.997;  -31.675; -222.000; -230.000
428.122;   81.200;  795.000;  703.000
428.246;   94.575;  433.000;  434.000
428.371; -106.625; -869.000; -773.000
428.495;  -96.325; -624.000; -646.000
428.619;  -26.125; -186.000; -117.000
428.743;   34.850;   65.000;  132.000
428.868;   47.550; -732.000; -643.000
428.992; 1747.525; -219.000; -326.000
429.116;  782.600; -329.000; -357.000
429.240;  376.400;  419.000;  426.000
429.365;   -6.925; -454.000; -574.000
429.489;  -17.000; -638.000; -647.000
429.613;   24.700; -236.000; -177.000
429.737;   49.825; -563.000; -432.000
429.861;  260.025; -247.000; -133.000
429.985; 4834.225; -425.000; -305.000
430.109; 5693.075; -770.000; -908.000
430.234;  706.500;   76.000;  -50.000
430.358;   71.225; -250.000; -160.000
430.482;  -60.550; -672.000; -564.000
430.606;  -58.300; -655.000; -375.000
430.730;   35.375; -437.000; -388.000
430.854;  242.875; -909.000; -835.000
430.978;  -28.500; -795.000; -764.000
431.102;  -70.675; -499.000; -422.000
431.226;  -91.725; -874.000; -815.000
431.350;   40.175;  345.000;  422.000
431.474;  -47.925; -661.000; -373.000
431.597; -135.300;-1060.000; -848.000
431.721;  -63.650; -276.000; -267.000
431.845; -135.375; -704.000; -472.000
431.969;  -76.700; -304.000; -349.000
432.093;  -92.175; -395.000; -317.000
432.217;  -18.000;   32.000;   82.000
432.341;  -96.725; -523.000; -518.000
432.464;    3.900;   96.000;   40.000
432.588;  286.500; -401.000; -329.000
432.712;  166.775;  -52.000;  -52.000
432.836;   63.975;  213.000;  263.000
432.959;  -10.275; -372.000; -311.000
433.083;   61.475;   11.000;    2.000
433.207;  339.325;  285.000;  930.000
433.330; 4244.875; -391.000; -200.000
433.454; 5567.600; -654.000; -638.000
433.578; 3221.850;  583.000;  278.000
433.701;  656.050; -623.000; -675.000
433.825;  196.675; -292.000; -299.000
433.949;  285.550;   28.000;  -72.000
434.072;  142.000; -410.000; -323.000
434.196;   13.800; -309.000; -117.000
434.319; 3584.150;25482.000;25124.000
434.443;  722.425; -656.000; -603.000
434.566; 2395.625;  281.000;   62.000
434.690;  444.200; -637.000; -383.000
434.813;   60.100; -251.000; -173.000
434.937;  -74.325; -569.000; -696.000
435.060;  -16.200; -423.000; -332.000
435.184;  523.625; -492.000; -217.000
435.307;  304.225;  159.000;  102.000
435.431;   11.750;  -40.000;   24.000
435.554;  -73.600; -399.000; -240.000
435.677;  -86.825; -350.000; -258.000
435.801;  -56.475;  -25.000;   49.000
435.924;   18.900;    1.000;  -67.000
436.048;  -69.725;-1019.000; -732.000
436.171;  -53.475; -240.000;  -66.000
436.294;  -32.500; -248.000; -229.000
436.417;   65.925; -963.000; -849.000
436.541;  -91.200; -814.000; -840.000
436.664;  -57.700; -242.000; -316.000
436.787;  -27.425;   13.000;  113.000
436.910; -108.575; -792.000; -422.000
437.034;   10.725;  142.000;  143.000
437.157;  107.775;  -11.000;    0.000
437.280;  -13.950; -392.000; -292.000
437.403;  -45.950; -982.000; -869.000
437.526;  928.700; -903.000; -865.000
437.649; 3418.000; -505.000; -332.000
437.772;  611.575; -692.000; -540.000
437.896;  166.475;  700.000;  544.000
438.019;  -71.325; -758.000; -503.000
438.142;  -69.800; -596.000; -506.000
438.265;   38.500; -639.000; -670.000
438.388;  827.650; -520.000; -410.000
438.511;  217.850; -597.000; -394.000
438.634;  -22.600; -247.000; -125.000
438.757; -134.475; -693.000; -619.000
438.880;  -23.200;  -34.000;  -57.000
439.003;  -57.275; -417.000; -437.000
439.126;  -67.200; -287.000; -167.000
439.248;  -53.650;  -98.000; -139.000
439.371;  -38.550;    9.000;  -53.000
439.494;   28.975;  510.000;  439.000
439.617;  -36.575;   65.000;  -88.000
439.740; -174.700; -968.000; -816.000
439.863; -147.450; -755.000; -595.000
439.986; -126.350; -476.000; -431.000
440.108;  -52.175; -161.000; -112.000
440.231; -155.200; -950.000; -836.000
440.354;  -29.800;  -64.000; -150.000
440.477;  105.700; -566.000; -542.000
440.599;   58.825; -200.000; -225.000
440.722; -111.150; -709.000; -586.000
440.845;   66.425;  751.000;  928.000
440.968; -110.900; -415.000; -311.000
441.090;  -71.125; -199.000;  -33.000
441.213; -166.175;-1021.000; -825.000
441.336;  -50.450; -159.000;   -5.000
441.458;  -70.100; -549.000; -396.000
441.581;  -56.550; -628.000; -629.000
441.703;  -63.350; -152.000;   13.000
441.826; -101.775; -557.000; -400.000
441.948;  -42.125;   56.000;   51.000
442.071;   25.925;  555.000;  424.000
442.193; -119.200; -531.000; -485.000
442.316;   28.775;  152.000;   97.000
442.438;   43.425; -233.000;  -10.000
442.561;   80.375;  272.000;  262.000
442.683;  781.050; -809.000; -522.000
442.806; 1731.675;   -8.000;   74.000
442.928;  139.475; -859.000; -604.000
443.051;  -37.250; -577.000; -373.000
443.173;  -94.150; -341.000; -339.000
443.295;  -86.475; -263.000; -371.000
443.418;  -59.875; -321.000;  -29.000
443.540;   12.875; -106.000;   -4.000
443.662; -107.000; -563.000; -465.000
443.785;   -6.425;  335.000;  199.000
443.907;  -96.375; -362.000; -208.000
444.029; -128.000; -767.000; -494.000
444.152; -150.600; -644.000; -554.000
444.274;  -18.975;  -18.000;  -24.000
444.396; -122.675; -461.000; -221.000
444.518; -129.675; -691.000; -454.000
444.640; -100.100; -268.000; -111.000
444.763;  -11.525;  388.000;  249.000
444.885; -118.450; -432.000; -392.000
445.007;  -35.250;   35.000;   86.000
445.129; -116.275; -610.000; -515.000
445.251;  -91.375; -372.000; -439.000
445.373; -127.950; -537.000; -386.000
445.495;   17.300;  242.000;  350.000
445.617;   42.775;  853.000;  753.000
445.739;  -61.150; -215.000;  -97.000
445.861;  -21.550; -245.000; -112.000
445.984;  -26.350; -267.000; -101.000
446.105;  283.400; -418.000; -251.000
446.227;  860.425; -176.000;  -19.000
446.349;   59.950; -358.000; -249.000
446.471;  -82.450; -615.000; -448.000
446.593;  -71.175; -316.000;   19.000
446.715;   16.300;  -67.000;   41.000
446.837;   56.650;  697.000;  832.000
446.959;  -78.200; -457.000; -478.000
447.081; -131.600; -628.000; -518.000
447.203;   56.825;  862.000;  834.000
447.325;  -87.400; -270.000;   42.000
447.446;   -5.100;  286.000;  530.000
447.568; -148.000; -921.000; -803.000
447.690;  -69.800; -236.000; -245.000
447.812; -150.675; -798.000; -519.000
447.933;  -13.775;  155.000;  127.000
448.055;  -57.075; -306.000; -261.000
448.177;  188.475;   31.000;   79.000
448.299;  181.525; -935.000; -727.000
448.420;   40.150;  -25.000;  159.000
448.542;  -43.825;   -3.000;   33.000
448.664;  -16.475;  109.000;  322.000
448.785;  -41.325;  265.000;   83.000
448.907;  -70.325; -614.000; -353.000
449.028;  -16.175; -771.000; -471.000
449.150;   68.450;  492.000;  589.000
449.272; -167.325;-1044.000; -913.000
449.393;   23.400;  612.000;  694.000
449.515; -147.675; -634.000; -581.000
449.636;  -39.825; -264.000; -155.000
449.758;   92.425;  763.000;  622.000
449.879;  -76.175; -498.000; -396.000
450.001;  -77.025; -149.000;  -49.000
450.122;  -28.500;  -95.000;  162.000
450.244;  -26.700;   37.000;  364.000
450.365;  -88.050; -495.000; -301.000
450.486;  -33.950;   80.000;  268.000
450.608;   20.125;  393.000;  326.000
450.729;   47.350;  578.000;  645.000
450.850;  -25.500; -574.000; -466.000
450.972;  565.925; -552.000; -389.000
451.093; 4053.825;  190.000;  588.000
451.214; 1924.525; -516.000; -337.000
451.336;  369.800;  773.000;  579.000
451.457;   50.250;  264.000;  393.000
451.578;  -46.200; -118.000;  -74.000
451.699; -133.575; -546.000; -540.000
451.821;  -63.775; -284.000;  -50.000
451.942;   -7.575;  278.000;  285.000
452.063;    6.375;  228.000;  419.000
452.184;  439.150;  -54.000;  -49.000
452.305;  997.200;  103.000;  170.000
452.427;  117.350; -549.000; -301.000
452.548;  -16.800;   23.000;   79.000
452.669;  -22.425; -257.000;  -89.000
452.790;  -27.525;    3.000;  -18.000
452.911;   -7.050;  195.000;  259.000
453.032;  -59.375; -289.000;  -60.000
453.153;  -29.025;  -29.000;   81.000
453.274;   60.725;  737.000;  868.000
453.395;  -48.125;  -51.000;  175.000
453.516;  127.750; 1317.000; 1388.000
453.637;  -39.225; -205.000; -150.000
453.758;  -43.275;   15.000;   69.000
453.879; -113.350; -462.000; -250.000
454.000;   72.875; 1086.000;  948.000
454.121; -121.300; -554.000; -326.000
454.242; -105.475; -599.000; -383.000
454.362;  -56.750;  -99.000;  114.000
454.483;  -18.375; -309.000; -229.000
454.604;   68.700;  512.000;  580.000
454.725; -118.400; -627.000; -555.000
454.846; -127.350; -474.000; -406.000
454.967;  -29.925;  230.000;  539.000
455.087;  -39.500;  179.000;  153.000
455.208;   28.650;  554.000;  856.000
455.329;  -77.200;  -22.000;   82.000
455.450;   30.275;  473.000;  633.000
455.570;  -85.175; -234.000; -211.000
455.691;  -31.250;  201.000;  407.000
455.812; -119.575; -270.000;  -92.000
455.932;  -48.125;  107.000;  -97.000
456.053;  -91.975;   36.000;   24.000
456.173; -100.375; -433.000; -355.000
456.294; -134.725; -476.000; -303.000
456.415;  -74.000;  -73.000;   70.000
456.535;  -44.975;  297.000;  273.000
456.656;  -35.100;  132.000;  240.000
456.776;  -77.850;    3.000;  298.000
456.897;   -1.875;  308.000;  513.000
457.017;  -86.950; -153.000;   -3.000
457.138; -108.525; -402.000; -249.000
457.258;  -20.350;  263.000;  224.000
457.379;  -13.600;  509.000;  521.000
457.499;  -36.350;  443.000;  432.000
457.620; -118.475; -407.000; -231.000
457.740;  -86.975; -132.000;  -11.000
457.860;  -52.700;   87.000;   44.000
457.981;  -54.500;  132.000;  124.000
458.101;  -68.925;  -89.000;   40.000
458.221;  -23.400;  336.000;  402.000
458.342;  -72.250;   -4.000;  -37.000
458.462;    5.275;  617.000;  352.000
458.582;  -47.200; -302.000; -294.000
458.703;  -11.300;  303.000;  154.000
458.823;  -27.900;   22.000;  163.000
458.943;   23.925;  341.000;  467.000
459.063;  -17.825; 1124.000;  192.000
459.183;  -26.125;  328.000;  313.000
459.304;    4.125;  315.000;  517.000
459.424;  -69.425; -246.000;  -89.000
459.544;  272.150;  388.000;  764.000
459.664;  732.925;  499.000;  506.000
459.784;  296.775; 1004.000; 1175.000
459.904;   55.350;  867.000;  744.000
460.024;   70.150;  867.000;  684.000
460.144;   27.700;  449.000;  554.000
460.264;    7.475;  515.000;  327.000
460.385;  -87.550; -145.000; -119.000
460.505;   31.600;  905.000;  858.000
460.625;  -94.550;  -17.000;  -68.000
460.745;  -14.650;  396.000;  541.000
460.864;  -59.325;  153.000;  469.000
460.984;   40.500;  499.000;  573.000
461.104;  125.225; 1656.000; 1775.000
461.224;   26.300;  657.000;  650.000
461.344;  -26.375;  431.000;  360.000
461.464;  -28.625;  258.000;  513.000
461.584;   -1.400;  283.000;  466.000
461.704;  -39.175;   58.000;  108.000
461.824;  -40.050;  238.000;  259.000
461.943;  -44.850;  191.000;  130.000
462.063;  -73.075;    2.000;  324.000
462.183;   49.625;  639.000;  717.000
462.303;  116.125; 1678.000; 1230.000
462.422;   25.650;  781.000;  840.000
462.542;  -41.075;  271.000;  391.000
462.662;   43.775;  353.000;  380.000
462.782;  207.150;  833.000;  572.000
462.901;  432.425;  545.000;  717.000
463.021;  274.275; 1702.000; 1638.000
463.141;   -4.400;  337.000;  770.000
463.260;  -39.300;  614.000;  474.000
463.380;   19.550;  902.000;  884.000
463.499;  -35.800;  342.000;  332.000
463.619;  -21.550;  581.000;  559.000
463.738;  117.000; 1644.000;  903.000
463.858;   23.425;  657.000;  811.000
463.978;  -27.900;  542.000;  396.000
464.097;   43.350;  921.000; 1114.000
464.217;   89.175; 1196.000; 1143.000
464.336;  101.350; 1068.000; 1130.000
464.455;  -45.600;  328.000;  659.000
464.575;   61.600;  597.000;  602.000
464.694;  205.175; 1204.000; 1179.000
464.814;  137.525; 1190.000; 1138.000
464.933;   68.550; 1095.000; 1027.000
465.052;  116.475; 1412.000; 1054.000
465.172;   90.325;  922.000;  799.000
465.291;  148.000; 1376.000; 1320.000
465.410;   15.325;  462.000;  735.000
465.530;   94.900; 1355.000; 1310.000
465.649;   64.375; 1209.000; 1273.000
465.768;  150.700; 1673.000; 1508.000
465.888;   56.050;  941.000; 1174.000
466.007;   94.925; 1335.000; 1440.000
466.126;  -14.825;  721.000;  641.000
466.245;   49.350; 1176.000; 1187.000
466.364;   40.475;  950.000; 1060.000
466.484;   60.025; 1024.000; 1213.000
466.603;   25.875; 1101.000; 1222.000
466.722;  128.300; 1490.000; 1769.000
466.841;   64.425; 1151.000; 1401.000
466.960;   56.200; 1069.000;  972.000
467.079;  135.675; 1971.000; 1786.000
467.198;   60.425; 1238.000; 1181.000
467.317;   78.550; 1768.000; 1162.000
467.436;   61.725; 1709.000; 1261.000
467.555;  126.075; 1796.000; 1746.000
467.674;   69.750; 1227.000; 1329.000
467.793;   50.575; 1376.000; 1374.000
467.912;   75.800; 1658.000; 1539.000
468.031;  128.125; 2038.000; 1930.000
468.150;  152.475; 1842.000; 1837.000
468.269;  211.000; 2313.000; 2090.000
468.388;  182.925; 2168.000; 2339.000
468.507;  243.675; 2884.000; 2903.000
468.626;  265.000; 2555.000; 2541.000
468.744;  136.900; 2018.000; 2174.000
468.863;  197.000; 2312.000; 2523.000
468.982;  102.975; 1503.000; 1555.000
469.101;  225.600; 2788.000; 2692.000
469.220;  149.750; 2333.000; 2176.000
469.338;  238.075; 2935.000; 3051.000
469.457;  198.875; 2719.000; 2545.000
469.576;  354.775; 3953.000; 3784.000
469.695;  223.300; 2877.000; 3066.000
469.813;  433.500; 4148.000; 4192.000
469.932;  420.375; 4255.000; 4485.000
470.051;  404.550; 4075.000; 4161.000
470.169;  780.775; 4470.000; 4338.000
470.288; 1361.450; 4700.000; 4809.000
470.406;  855.425; 5059.000; 5194.000
470.525;  620.375; 6101.000; 5787.000
470.644;  637.250; 6847.000; 6794.000
470.762;  843.050; 8397.000; 7873.000
470.881;  914.675; 8651.000; 8464.000
470.999; 1023.300; 9685.000; 9151.000
471.118; 1116.575;11174.000;10711.000

